ECG,EDA,RR
32512,29920,36551
32508,29915,36684
32556,29902,36521
32592,29876,36615
32566,29886,36397
32600,29888,36504
32544,29894,36372
32496,29916,36381
32476,29911,36190
32480,29919,36321
32516,29910,36209
32556,29892,36276
32596,29876,36128
32520,29871,36004
32416,29868,35951
32520,29876,36064
32548,29886,35990
32504,29890,35893
32488,29896,35945
32520,29897,35936
32545,29881,35820
32548,29872,35671
32540,29861,35777
32526,29854,35679
32472,29839,35716
32268,29846,35486
32268,29862,35600
32436,29870,35545
32632,29868,35360
32656,29878,35432
32668,29869,35452
32680,29852,35225
32632,29841,35335
32628,29838,35248
32580,29828,35285
32528,29831,35064
32560,29847,35015
32541,29854,35126
32496,29856,35033
32460,29860,34886
32472,29849,34996
32520,29831,34892
32440,29818,34806
32424,29815,34852
32448,29808,34807
32544,29812,34588
32532,29824,34607
32504,29837,34502
32498,29840,34498
32448,29846,34377
32396,29831,34433
32424,29817,34311
32408,29799,34364
32308,29796,34324
32184,29797,34240
32096,29800,34152
32008,29808,33980
32012,29820,34061
32028,29831,33996
32068,29828,33786
32124,29808,33884
32104,29799,33728
32050,29786,33748
32012,29775,33556
31936,29772,33616
31908,29780,33508
31820,29793,33549
31712,29797,33375
31760,29800,33456
31732,29807,33263
31712,29807,33336
31688,29785,33149
31636,29770,33181
31572,29758,33184
31592,29756,33048
31708,29769,33021
31752,29769,33045
31784,29777,32927
31788,29788,32788
31748,29783,32908
31781,29774,32864
31844,29758,32660
31908,29741,32749
31928,29732,32685
31936,29724,32623
31969,29738,32518
32004,29744,32572
32062,29758,32584
32092,29764,32378
32180,29748,32488
32252,29742,32354
32296,29730,32312
32380,29712,32357
32452,29703,32292
32516,29703,32134
32516,29703,32206
32528,29711,32079
32576,29721,32164
32592,29738,32128
32634,29735,32088
32760,29719,31980
32830,29695,31840
32856,29684,31892
32952,29669,31852
32992,29669,31823
32992,29684,31749
33048,29686,31826
33072,29696,31793
33056,29703,31660
33044,29703,31677
33096,29684,31537
33189,29676,31629
33248,29661,31554
33268,29657,31428
33224,29657,31440
33220,29658,31357
33144,29671,31444
33088,29671,31351
33044,29679,31204
33064,29679,31310
33024,29658,31271
33076,29652,31060
33120,29634,31181
33125,29628,31092
33104,29630,31020
33156,29634,30910
33020,29644,31013
33016,29652,30912
33069,29655,30908
33096,29652,30743
33116,29636,30822
33152,29635,30768
33176,29625,30593
33232,29614,30656
33252,29610,30636
33204,29620,30466
33148,29618,30560
33092,29633,30470
33065,29632,30455
33068,29636,30428
33096,29624,30279
33160,29615,30378
33180,29605,30279
33181,29601,30141
33184,29596,30252
33152,29599,30192
33124,29605,30215
33104,29611,30184
33076,29617,30036
33105,29613,30108
33132,29601,30068
33144,29580,30004
33168,29588,30024
33146,29569,29925
33164,29575,30012
33148,29569,30004
33132,29575,29892
33080,29586,29919
33052,29593,29841
33016,29594,29862
33049,29589,29861
33088,29573,29728
33104,29557,29838
33158,29553,29822
33200,29557,29684
33196,29557,29743
33188,29567,29703
33180,29580,29632
33196,29582,29665
33200,29583,29600
33264,29575,29666
33328,29552,29632
33372,29540,29460
33356,29539,29576
33373,29533,29572
33400,29541,29423
33436,29546,29484
33409,29557,29398
33388,29559,29412
33373,29559,29436
33376,29549,29425
33380,29533,29367
33385,29524,29391
33416,29519,29244
33400,29516,29357
33396,29520,29217
33364,29541,29306
33321,29540,29191
33326,29549,29264
33284,29543,29244
33304,29533,29281
33313,29525,29175
33396,29512,29228
33440,29503,29136
33412,29500,29212
33376,29516,29093
33317,29513,29191
33244,29532,29105
33242,29535,29194
33286,29532,29117
33396,29527,29196
33420,29508,29064
33452,29504,29167
33468,29488,29212
33480,29488,29182
33452,29505,29208
33400,29513,29221
33348,29516,29220
33400,29527,29188
33441,29524,29229
33476,29512,29220
33484,29498,29101
33476,29486,29238
33472,29476,29245
33372,29484,29173
33340,29484,29240
33332,29488,29182
33276,29508,29223
33284,29516,29288
33328,29519,29322
33312,29505,29225
33308,29492,29319
33268,29481,29224
33264,29480,29405
33300,29473,29365
33220,29478,29302
33176,29490,29455
33252,29510,29414
33238,29510,29372
33196,29508,29504
33160,29504,29469
33154,29497,29401
33192,29479,29544
33324,29466,29551
33312,29458,29518
33152,29468,29567
32976,29485,29479
32900,29495,29604
32896,29500,29648
32964,29498,29661
33108,29498,29692
33188,29489,29681
33132,29468,29722
33106,29458,29726
32996,29460,29661
32916,29472,29728
32856,29484,29637
32848,29493,29764
32868,29498,29686
32904,29507,29832
32912,29494,29828
32869,29473,29886
32904,29472,29888
32932,29464,29789
32892,29461,29885
32896,29473,29808
32860,29479,29957
32828,29502,29925
32733,29496,30036
32684,29509,30000
32692,29501,29936
32728,29482,30101
32820,29479,30133
32896,29472,30020
32920,29468,30138
32932,29477,30135
32872,29484,30248
32832,29500,30252
32808,29505,30160
32796,29513,30316
32840,29500,30264
32860,29493,30308
32916,29485,30400
32869,29477,30438
32864,29481,30372
32904,29492,30500
32880,29508,30408
32832,29512,30590
32748,29534,30484
32712,29529,30644
32736,29524,30634
32712,29512,30712
32692,29506,30720
32644,29500,30618
32600,29506,30747
32572,29517,30742
32586,29528,30710
32532,29543,30813
32440,29548,30791
32314,29541,30779
32136,29549,30884
31992,29542,30865
31917,29525,30884
31828,29525,30788
31608,29524,30924
31388,29536,30949
31084,29564,30802
30788,29572,30975
30632,29583,30913
30608,29586,30973
30580,29580,30868
30492,29575,30925
30240,29570,30876
30152,29572,30976
30552,29567,30856
31486,29559,30971
32736,29575,30908
33824,29581,30996
34644,29591,30926
35300,29588,30868
35612,29565,30944
35644,29572,30837
35604,29556,30944
35556,29557,30837
35416,29557,30917
35036,29571,30839
34560,29591,30967
34096,29609,30937
33732,29622,30888
33496,29624,30996
33344,29620,30997
33232,29615,30983
33156,29604,30889
33080,29598,30983
33016,29598,30991
32933,29601,30978
32830,29624,30885
32760,29640,30943
32685,29649,30866
32628,29656,30974
32640,29658,30976
32708,29642,30879
32740,29636,30906
32706,29626,30820
32648,29637,30972
32576,29650,30902
32493,29658,30896
32496,29673,30975
32480,29684,30951
32476,29692,30825
32512,29686,30953
32596,29676,30934
32620,29669,30892
32628,29664,30945
32548,29663,30956
32512,29681,31018
32428,29697,30976
32408,29711,30900
32480,29721,30980
32548,29729,30893
32560,29718,31009
32584,29715,30959
32637,29709,31062
32660,29702,31029
32672,29711,31140
32692,29720,31133
32633,29740,31016
32580,29743,31205
32608,29762,31202
32636,29764,31084
32672,29764,31272
32732,29762,31224
32732,29755,31248
32688,29737,31322
32617,29750,31300
32604,29766,31236
32568,29785,31370
32572,29793,31348
32596,29801,31344
32620,29809,31317
32648,29807,31413
32688,29797,31405
32656,29790,31376
32592,29793,31440
32552,29793,31367
32536,29805,31540
32468,29822,31520
32392,29836,31462
32336,29850,31524
32320,29853,31585
32334,29849,31526
32384,29847,31712
32420,29836,31668
32420,29834,31748
32380,29838,31673
32364,29855,31817
32308,29868,31828
32252,29888,31908
32232,29901,31926
32224,29905,31828
32236,29908,32019
32268,29892,32058
32296,29880,31976
32328,29879,32088
32300,29886,32032
32260,29890,32161
32208,29918,32203
32148,29933,32286
32096,29948,32332
32084,29949,32218
32060,29948,32369
32092,29943,32384
32192,29935,32460
32232,29928,32508
32236,29930,32432
32244,29950,32500
32200,29967,32540
32165,29977,32525
32140,29990,32680
32084,30004,32652
32060,29989,32736
32084,29988,32649
32096,29978,32818
32120,29986,32788
32140,29989,32916
32128,29989,32785
32116,30006,32960
32084,30032,32920
32100,30044,32995
32152,30054,32906
32205,30046,33071
32136,30039,33124
32048,30030,32981
32000,30036,33188
31980,30028,33181
32016,30053,33201
32012,30065,33256
31988,30076,33159
32060,30090,33313
32128,30100,33281
32160,30095,33375
32200,30081,33411
32252,30080,33287
32320,30068,33468
32448,30084,33456
32572,30101,33545
32620,30118,33492
32657,30124,33457
32649,30125,33500
32656,30137,33676
32720,30133,33616
32812,30126,33758
32860,30121,33768
32833,30124,33669
32809,30121,33715
32837,30132,33808
32924,30157,33864
32960,30166,33825
33028,30180,34016
33032,30190,34039
32992,30187,34022
32992,30176,34141
33044,30166,34078
33148,30165,34080
33188,30180,34273
33184,30192,34285
33172,30204,34270
33088,30215,34384
33036,30229,34444
33068,30229,34332
33104,30239,34376
33180,30232,34557
33245,30222,34609
33224,30212,34629
33160,30221,34581
33112,30225,34774
33072,30249,34713
32988,30264,34856
32936,30277,34740
32940,30279,34956
32965,30277,35004
32992,30273,35020
33024,30270,35065
33088,30262,34999
33152,30272,35188
33252,30277,35188
33300,30296,35170
33352,30319,35313
33390,30324,35192
33432,30332,35372
33456,30327,35408
33472,30324,35400
33468,30316,35328
33432,30306,35544
33429,30319,35493
33382,30329,35648
33352,30337,35583
33312,30361,35522
33280,30379,35653
33312,30380,35788
33324,30366,35760
33280,30353,35860
33244,30361,35880
33192,30361,35828
33180,30365,36008
33136,30369,35892
33113,30376,36060
33124,30399,36007
33172,30418,36074
33172,30420,36172
33192,30408,36133
33224,30413,36181
33184,30405,36274
33172,30397,36342
33164,30407,36198
33116,30414,36373
33060,30428,36366
33014,30440,36424
32992,30452,36334
33009,30457,36481
33040,30460,36388
33060,30446,36500
33036,30439,36380
33028,30432,36565
33013,30436,36486
32984,30445,36568
32912,30464,36445
32884,30481,36528
32876,30500,36612
32878,30493,36456
32924,30497,36556
32968,30488,36696
33064,30468,36521
33172,30471,36680
33144,30479,36588
33044,30484,36688
32984,30496,36556
32976,30519,36591
32976,30532,36713
33024,30532,36764
33084,30532,36725
33152,30527,36552
33192,30516,36672
33184,30512,36789
33156,30516,36616
33181,30535,36568
33188,30537,36760
33132,30556,36724
33096,30564,36604
33128,30565,36751
33144,30564,36672
33116,30559,36775
33052,30551,36692
32996,30545,36564
32968,30544,36655
32944,30560,36697
32916,30572,36518
32936,30584,36680
32928,30599,36476
32896,30604,36590
32856,30596,36501
32908,30590,36615
32968,30574,36516
33064,30577,36572
33060,30575,36584
33008,30596,36456
33024,30605,36462
32904,30618,36532
32848,30631,36400
32820,30628,36352
32788,30628,36448
32816,30621,36469
32929,30610,36244
33040,30605,36308
33072,30609,36273
33036,30625,36293
32932,30637,36288
32872,30652,36119
32864,30660,36184
32920,30656,36199
32956,30660,36231
32992,30648,36228
33020,30639,36181
33056,30630,36156
33108,30637,35952
33172,30648,35983
33176,30669,35912
33156,30688,36025
33072,30693,36004
33012,30684,35798
33004,30687,35932
33020,30665,35902
33001,30664,35847
33012,30657,35737
33004,30664,35847
32968,30681,35823
32960,30692,35665
32916,30698,35773
32864,30709,35684
32844,30719,35737
32840,30716,35583
32856,30708,35665
32996,30688,35577
32968,30684,35644
32944,30693,35591
32960,30700,35458
32896,30722,35484
32836,30727,35335
32788,30749,35468
32740,30751,35417
32676,30741,35269
32820,30725,35308
32852,30724,35216
32876,30717,35348
32900,30716,35308
32856,30727,35114
32829,30744,35233
32792,30756,35232
32792,30762,35044
32832,30768,35143
32864,30765,35086
32885,30756,34924
32908,30751,35000
32944,30743,34996
33016,30745,34799
33016,30748,34907
32988,30767,34860
32952,30778,34669
32908,30780,34776
32904,30793,34644
32968,30784,34695
32992,30776,34556
32996,30764,34586
33048,30756,34463
33012,30761,34494
32920,30778,34277
32776,30784,34374
32656,30802,34332
32500,30813,34112
32350,30814,34113
32252,30800,34055
32168,30791,34092
31960,30793,33964
31724,30793,33832
31452,30797,33917
31148,30813,33767
30946,30808,33789
30740,30838,33637
30560,30855,33636
30300,30860,33629
29984,30852,33415
30048,30828,33389
30676,30829,33356
31788,30814,33312
33104,30798,33180
34040,30817,33260
34828,30822,33137
35244,30837,33124
35368,30832,32957
35356,30838,33016
35372,30824,33001
35316,30822,32824
35009,30806,32898
34548,30814,32828
34084,30820,32800
33684,30832,32737
33384,30845,32568
33106,30855,32657
32932,30868,32616
32840,30869,32576
32756,30854,32553
32680,30842,32509
32632,30839,32422
32600,30829,32284
32600,30833,32385
32564,30845,32311
32532,30862,32202
32505,30876,32202
32517,30882,32085
32480,30885,32156
32484,30868,32021
32509,30855,32088
32472,30855,32056
32456,30852,32031
32528,30855,31997
32524,30868,31860
32440,30874,31920
32392,30893,31737
32404,30900,31774
32388,30900,31669
32436,30888,31720
32497,30883,31656
32508,30868,31684
32532,30868,31642
32508,30876,31480
32428,30865,31557
32384,30893,31460
32384,30897,31495
32416,30908,31460
32376,30912,31348
32360,30910,31376
32352,30902,31293
32408,30892,31367
32428,30885,31344
32416,30884,31239
32384,30898,31260
32377,30918,31118
32380,30913,31221
32364,30933,31200
32418,30924,31180
32396,30917,31118
32465,30901,31084
32512,30902,31076
32532,30900,31059
32528,30901,30988
32480,30900,31030
32392,30920,30893
32352,30938,30975
32340,30948,30904
32356,30945,30967
32356,30931,30921
32408,30921,30804
32428,30913,30888
32429,30910,30856
32392,30919,30876
32384,30925,30810
32320,30936,30692
32312,30948,30804
32276,30961,30767
32300,30953,30703
32330,30948,30732
32366,30924,30596
32320,30933,30697
32328,30920,30668
32276,30929,30695
32264,30929,30620
32176,30953,30584
32160,30956,30599
32161,30972,30532
32180,30958,30584
32220,30957,30550
32296,30944,30416
32292,30935,30532
32276,30936,30484
32272,30926,30420
32232,30941,30424
32229,30956,30446
32168,30975,30453
32148,30976,30364
32136,30971,30399
32144,30976,30341
32196,30959,30408
32221,30953,30372
32196,30948,30262
32144,30947,30348
32088,30956,30248
32048,30977,30343
32028,30980,30286
32060,30985,30277
32048,30988,30296
32084,30980,30228
32084,30965,30214
32108,30961,30253
32132,30956,30276
32112,30952,30290
32081,30968,30150
32036,30980,30272
32008,30991,30228
31980,30997,30253
32008,31005,30111
32016,30972,30239
32020,30972,30188
32064,30966,30204
32140,30956,30084
32160,30960,30193
32172,30964,30140
32156,30982,30148
32177,30998,30068
32229,30993,30109
32270,30980,30009
32336,30982,30111
32448,30975,30100
32556,30956,29975
32668,30957,30079
32729,30956,30049
32744,30969,30053
32756,30982,29914
32812,30991,29981
32868,30997,29998
32928,30996,29959
32972,30977,29888
33064,30967,29992
33100,30958,29959
33129,30957,30008
33152,30959,29974
33164,30973,30009
33188,30982,29982
33176,30993,29874
33184,31005,29992
33196,31009,29972
33233,30988,29948
33300,30972,30026
33372,30964,30004
33372,30956,29975
33393,30959,29988
33384,30969,30024
33348,30983,29972
33328,30988,30082
33312,30997,30048
33324,30999,29972
33376,30977,30084
33408,30972,29984
33432,30967,30108
33456,30956,30049
33488,30956,30152
33493,30964,30160
33465,30979,30065
33430,30992,30189
33360,30999,30116
33376,30996,30216
33336,30980,30224
33340,30966,30116
33345,30964,30249
33344,30959,30220
33324,30951,30181
33312,30964,30196
33292,30980,30269
33264,30981,30288
33248,30999,30160
33236,30983,30308
33264,30975,30300
33300,30973,30188
33320,30959,30292
33320,30948,30300
33312,30950,30334
33305,30960,30338
33268,30977,30256
33253,30983,30312
33296,30988,30311
33292,30989,30319
33308,30977,30357
33300,30964,30260
33372,30950,30399
33360,30948,30409
33352,30949,30287
33280,30971,30390
33236,30976,30305
33200,30983,30444
33188,30989,30445
33224,30983,30448
33216,30983,30328
33220,30975,30434
33241,30943,30342
33212,30948,30460
33220,30949,30431
33184,30960,30494
33132,30969,30459
33092,30972,30373
33072,30980,30474
33116,30980,30484
33104,30967,30401
33160,30962,30452
33160,30951,30375
33126,30940,30448
33101,30945,30400
33060,30957,30441
33008,30961,30352
33000,30980,30460
33012,30977,30406
32960,30978,30468
32948,30962,30478
33009,30961,30380
33068,30937,30436
33116,30937,30436
33156,30948,30361
33112,30950,30436
33068,30967,30337
33080,30970,30432
33092,30974,30333
33136,30975,30430
33129,30958,30350
33120,30941,30425
33142,30941,30407
33148,30932,30458
33120,30937,30397
33093,30942,30436
33060,30956,30368
33016,30965,30442
32980,30960,30359
32984,30960,30480
32988,30945,30460
33040,30949,30471
33064,30929,30468
33108,30935,30398
33088,30933,30468
33068,30938,30420
33052,30949,30463
33044,30962,30401
33044,30977,30436
33060,30965,30348
33064,30953,30454
33064,30933,30372
33044,30926,30450
33012,30932,30364
32996,30922,30500
32984,30943,30508
33012,30948,30503
32968,30956,30519
32960,30964,30447
32960,30964,30524
32934,30945,30521
32972,30936,30543
33008,30928,30541
32948,30922,30547
32880,30933,30452
32840,30939,30524
32844,30948,30456
32796,30961,30556
32760,30969,30516
32792,30966,30606
32764,30957,30530
32797,30936,30620
32824,30927,30620
32808,30917,30624
32816,30927,30500
32800,30930,30616
32772,30949,30532
32740,30961,30661
32720,30964,30670
32736,30965,30584
32788,30949,30668
32880,30943,30686
32944,30930,30640
32984,30917,30712
32972,30918,30740
32921,30940,30661
32908,30936,30752
32908,30948,30788
32892,30948,30670
32876,30953,30744
32856,30946,30789
32840,30930,30822
32812,30924,30727
32816,30924,30780
32788,30925,30900
32760,30933,30877
32780,30942,30830
32788,30948,30956
32852,30949,30933
32916,30949,30988
33012,30937,30900
33100,30930,31037
33152,30933,31012
33096,30909,31070
33060,30917,31032
32976,30925,31120
32864,30931,31105
32768,30954,31025
32756,30964,31170
32800,30952,31199
32836,30938,31096
32928,30918,31254
33044,30917,31274
33104,30911,31196
33120,30898,31289
33068,30925,31215
32968,30939,31350
32916,30936,31300
32852,30940,31437
32784,30944,31460
32696,30937,31412
32620,30920,31468
32640,30919,31527
32704,30908,31472
32769,30898,31564
32844,30917,31512
32784,30935,31676
32713,30945,31665
32780,30945,31628
32776,30928,31780
32720,30935,31812
32632,30920,31696
32480,30916,31881
32280,30909,31868
32180,30912,31952
32096,30916,31853
31956,30936,32025
31728,30954,32085
31501,30958,31988
31242,30956,32125
31048,30948,32192
30896,30934,32117
30784,30920,32256
30640,30924,32300
30384,30933,32378
30316,30943,32420
30608,30952,32357
31480,30957,32444
32700,30953,32412
33825,30940,32561
34668,30917,32596
35356,30900,32579
35656,30895,32657
35620,30884,32751
35568,30898,32712
35424,30901,32781
35148,30919,32871
34689,30936,32828
34200,30940,32964
33721,30943,33031
33332,30940,32925
33064,30913,33094
32904,30903,33112
32816,30900,33116
32684,30900,33221
32600,30919,33241
32476,30938,33348
32400,30943,33332
32356,30954,33273
32340,30948,33466
32360,30932,33469
32416,30924,33458
32448,30916,33597
32480,30915,33582
32477,30912,33636
32448,30927,33576
32432,30935,33752
32437,30948,33712
32416,30955,33681
32384,30951,33808
32348,30945,33891
32336,30932,33775
32348,30916,33844
32396,30925,33937
32384,30917,34036
32266,30932,33912
32280,30948,33958
32284,30957,34112
32256,30962,34120
32168,30967,34036
32120,30956,34208
32048,30941,34268
32092,30932,34133
32164,30933,34316
32228,30933,34291
32266,30946,34254
32310,30956,34397
32384,30961,34494
32416,30972,34364
32464,30965,34500
32452,30953,34599
32432,30948,34637
32398,30934,34677
32392,30940,34564
32380,30944,34704
32332,30954,34772
32260,30964,34685
32236,30972,34788
32260,30981,34740
32292,30979,34914
32320,30970,34942
32336,30949,34996
32324,30944,34964
32292,30934,34964
32256,30956,35100
32232,30964,35036
32268,30980,35100
32312,30983,35193
32348,30988,35132
32380,30984,35188
32352,30981,35288
32324,30966,35343
32277,30952,35265
32240,30964,35377
32253,30962,35261
32240,30977,35417
32244,30996,35468
32284,31001,35366
32340,31007,35492
32332,31007,35449
32380,30980,35613
32396,30980,35678
32408,30968,35556
32428,30973,35740
32376,30977,35788
32297,30989,35644
32228,31005,35793
32168,31014,35719
32104,31017,35864
32080,31016,35928
32093,31000,35795
32188,31001,35994
32249,30983,35977
32240,30981,35916
32160,30991,36087
32120,30991,36092
32068,31005,36174
31988,31012,35996
31928,31026,36197
31896,31031,36121
31928,31012,36093
31952,30997,36252
32016,30992,36296
32032,31004,36145
32005,31004,36284
31937,31012,36340
31852,31036,36360
31804,31040,36309
31761,31044,36389
31789,31044,36236
31792,31033,36421
31772,31020,36384
31810,31015,36359
31853,31015,36300
31908,31013,36480
31892,31029,36440
31932,31045,36540
31896,31046,36520
31854,31056,36520
31872,31052,36392
31886,31049,36508
31936,31031,36581
31972,31027,36573
32056,31018,36468
32072,31027,36429
32084,31038,36560
32125,31048,36561
32172,31060,36462
32276,31069,36588
32328,31066,36484
32464,31055,36615
32592,31046,36428
32664,31033,36568
32716,31033,36480
32752,31029,36550
32748,31047,36390
32777,31055,36453
32844,31078,36491
32900,31079,36348
32960,31069,36420
33024,31064,36396
33141,31052,36492
33276,31049,36456
33333,31046,36404
33364,31048,36336
33336,31060,36348
33352,31071,36344
33376,31087,36253
33316,31094,36330
33272,31087,36301
33256,31085,36373
33300,31069,36388
33360,31057,36184
33416,31066,36230
33412,31062,36273
33460,31072,36309
33420,31089,36317
33380,31101,36092
33344,31108,36160
33352,31108,36092
33336,31094,36193
33349,31069,36208
33344,31067,36005
33324,31076,36116
33321,31070,36009
33276,31090,36135
33280,31105,36000
33228,31119,36081
33196,31124,36076
33160,31121,36080
33160,31094,35853
33172,31103,35904
33176,31095,35876
33176,31092,35960
33204,31095,35852
33221,31102,35757
33152,31123,35872
33088,31118,35740
33072,31130,35836
33120,31127,35634
33156,31126,35757
33148,31101,35669
33176,31097,35716
33208,31099,35536
33229,31108,35473
33156,31124,35581
33112,31116,35606
33052,31134,35420
32992,31137,35520
32944,31133,35440
32936,31133,35322
32948,31116,35406
32988,31111,35330
33000,31111,35358
33018,31111,35136
32970,31125,35241
32908,31128,35205
32900,31143,35026
32928,31150,35140
32924,31149,35060
32964,31135,35078
32992,31129,34872
32973,31116,34876
32972,31114,34916
32972,31127,34740
32944,31137,34844
32936,31145,34823
32900,31159,34604
32892,31165,34712
32932,31153,34649
32984,31145,34616
33032,31140,34540
33057,31128,34504
33068,31125,34367
33053,31141,34476
33044,31148,34358
33044,31160,34401
33049,31173,34252
33037,31172,34332
33060,31181,34295
33044,31164,34106
33065,31148,34184
33049,31145,34160
33056,31143,34151
33028,31150,34068
33008,31166,33916
32960,31179,34020
32889,31183,34017
32864,31180,33831
32892,31189,33836
32888,31180,33772
32864,31166,33844
32864,31158,33831
32884,31157,33644
32848,31164,33689
32828,31183,33572
32812,31181,33524
32776,31205,33564
32764,31215,33412
32788,31205,33504
32830,31186,33415
32856,31187,33432
32856,31180,33302
32844,31173,33344
32892,31184,33148
32896,31196,33247
32896,31204,33128
32840,31205,32997
32816,31223,33095
32800,31206,33062
32824,31200,32897
32888,31189,32930
32868,31188,32789
32864,31190,32865
32872,31203,32844
32889,31204,32703
32864,31224,32677
32840,31228,32598
32884,31232,32668
32908,31229,32580
32936,31206,32443
32984,31207,32543
32960,31201,32514
32912,31196,32347
32916,31204,32359
32940,31220,32245
32929,31225,32284
32896,31239,32189
33000,31239,32253
33005,31236,32145
32964,31228,32190
32976,31205,32111
33000,31200,31961
33008,31201,32079
32968,31214,31972
32908,31220,31888
32868,31239,31960
32868,31246,31893
32880,31252,31743
32856,31239,31848
32876,31237,31775
32924,31220,31724
32937,31206,31661
32978,31216,31660
32964,31209,31583
32960,31230,31645
32924,31248,31554
32952,31252,31469
32956,31264,31525
32976,31254,31456
33028,31239,31346
33052,31234,31447
33080,31225,31376
33080,31221,31309
33068,31236,31363
33058,31239,31284
33044,31255,31202
33044,31261,31280
32992,31268,31209
32980,31267,31108
32992,31252,31184
33004,31232,31132
32988,31236,31072
32960,31232,31117
32948,31239,31088
32952,31254,31034
32968,31256,30899
32952,31277,30972
32968,31276,30849
32932,31268,30933
32836,31264,30895
32728,31260,30841
32608,31239,30864
32421,31239,30744
32304,31253,30804
32100,31261,30744
31800,31287,30752
31484,31301,30616
31140,31300,30685
30864,31301,30549
30628,31292,30628
30440,31284,30512
30200,31291,30598
29876,31293,30468
29712,31285,30549
29998,31297,30452
30908,31306,30511
32168,31308,30461
33432,31297,30492
34448,31285,30440
35228,31272,30441
35588,31252,30348
35692,31249,30396
35736,31247,30389
35748,31249,30329
35568,31264,30368
35136,31279,30300
34648,31292,30343
34208,31303,30332
33868,31300,30314
33632,31282,30288
33420,31279,30180
33288,31264,30252
33217,31273,30189
33120,31265,30233
33008,31276,30132
32936,31300,30208
32885,31311,30128
32836,31305,30204
32785,31301,30103
32776,31292,30164
32768,31292,30062
32756,31268,30156
32736,31273,30169
32744,31289,30148
32734,31280,30048
32688,31311,30116
32668,31318,30116
32688,31317,30097
32700,31317,30028
32688,31300,30063
32718,31280,29958
32704,31272,30032
32684,31276,30008
32656,31281,29908
32672,31285,30004
32648,31303,29969
32596,31316,30006
32576,31321,29988
32556,31319,29993
32592,31296,29936
32600,31293,29988
32636,31284,29926
32712,31283,29988
32708,31292,29988
32668,31300,29980
32644,31314,29886
32640,31322,29956
32664,31325,29892
32692,31316,29972
32776,31301,29937
32800,31293,29972
32768,31282,29877
32801,31276,29952
32812,31284,29869
32756,31295,29956
32700,31312,29902
32720,31324,29977
32716,31333,29972
32732,31327,29978
32748,31296,29937
32808,31289,29872
32828,31278,29900
32820,31285,29910
32788,31295,29852
32768,31300,29933
32716,31319,29928
32668,31316,29861
32620,31324,29896
32584,31320,29920
32604,31308,29796
32660,31300,29906
32724,31297,29868
32728,31284,29860
32700,31295,29814
32656,31311,29863
32588,31316,29789
32516,31327,29871
32464,31332,29824
32429,31332,29868
32440,31314,29848
32484,31303,29760
32488,31281,29833
32472,31292,29780
32496,31292,29772
32488,31308,29829
32464,31316,29861
32412,31324,29844
32365,31330,29794
32324,31324,29837
32301,31314,29786
32292,31300,29805
32284,31296,29725
32296,31295,29828
32288,31295,29816
32248,31309,29856
32201,31320,29810
32164,31325,29752
32100,31324,29835
32093,31316,29827
32072,31315,29776
32040,31306,29816
32032,31303,29782
32036,31292,29848
31988,31300,29824
31888,31312,29724
31844,31320,29817
31792,31335,29828
31776,31333,29721
31764,31335,29830
31808,31321,29805
31857,31319,29830
31888,31285,29828
31921,31297,29808
31913,31294,29783
31924,31305,29830
31944,31325,29796
31965,31331,29702
31985,31332,29732
32064,31329,29779
32140,31322,29788
32224,31296,29678
32308,31291,29750
32344,31287,29665
32360,31294,29764
32404,31307,29756
32384,31306,29652
32440,31332,29737
32484,31329,29720
32512,31322,29710
32552,31311,29721
32665,31296,29628
32754,31289,29672
32816,31289,29586
32884,31292,29652
32932,31300,29572
32980,31308,29654
33024,31317,29629
33032,31324,29660
33080,31311,29616
33120,31310,29540
33156,31297,29606
33184,31292,29557
33216,31292,29613
33204,31300,29612
33192,31305,29516
33224,31310,29576
33232,31324,29492
33273,31322,29560
33312,31312,29496
33320,31308,29569
33408,31293,29505
33480,31273,29460
33466,31285,29529
33460,31288,29477
33416,31295,29545
33372,31312,29562
33300,31324,29540
33268,31334,29484
33264,31316,29532
33262,31309,29492
33292,31303,29533
33286,31272,29429
33288,31276,29508
33236,31295,29423
33228,31296,29513
33182,31309,29424
33181,31320,29505
33151,31314,29428
33116,31308,29500
33080,31301,29447
33088,31292,29497
33044,31277,29456
33001,31278,29500
33004,31274,29436
33025,31288,29514
33044,31292,29514
33060,31305,29404
33036,31304,29487
33000,31300,29408
33028,31293,29476
33068,31278,29400
33050,31266,29469
33016,31269,29396
33017,31277,29464
32976,31289,29396
32942,31300,29484
32916,31296,29412
32892,31305,29488
32908,31298,29402
32928,31293,29477
32996,31276,29412
33032,31268,29484
33028,31264,29423
32998,31268,29480
32924,31277,29490
32892,31290,29433
32804,31302,29484
32796,31296,29433
32808,31300,29512
32860,31294,29466
32940,31270,29501
32936,31265,29428
32936,31250,29484
32900,31268,29493
32876,31271,29396
32887,31289,29490
32892,31300,29484
32924,31300,29494
32900,31292,29504
32888,31269,29472
32904,31273,29392
32900,31262,29495
32920,31250,29494
32904,31257,29428
32916,31273,29496
32896,31293,29496
32856,31292,29476
32829,31292,29529
32840,31289,29462
32900,31276,29508
32960,31263,29450
33040,31252,29518
33032,31248,29452
33060,31260,29535
33056,31256,29499
33044,31279,29540
33016,31291,29542
33028,31293,29476
33033,31280,29556
33020,31276,29559
33036,31265,29471
32992,31252,29533
32940,31252,29477
32960,31253,29540
32976,31264,29512
32992,31287,29566
33036,31287,29557
33020,31288,29504
33029,31284,29542
33068,31275,29461
33080,31263,29552
33056,31250,29466
33060,31255,29580
33088,31254,29577
33048,31265,29518
32928,31285,29580
32748,31297,29564
32676,31300,29617
32680,31295,29613
32792,31269,29566
32868,31260,29624
32900,31253,29599
32948,31247,29672
33064,31257,29679
33184,31273,29612
33212,31287,29737
33224,31303,29756
33192,31304,29681
33160,31294,29788
33108,31277,29744
33072,31266,29844
33104,31252,29892
33120,31263,29832
33160,31271,29924
33125,31268,29905
33012,31276,29997
33012,31292,29959
32996,31297,30084
33012,31292,30033
33004,31285,30196
33024,31260,30245
33040,31264,30209
32993,31256,30304
33016,31252,30268
33060,31274,30393
33056,31282,30446
32976,31305,30393
32940,31303,30548
32888,31293,30532
32872,31284,30656
32968,31268,30710
33052,31265,30705
33068,31254,30772
33048,31271,30839
32996,31281,30916
32924,31303,30852
32868,31309,31001
32816,31308,31092
32736,31310,31121
32716,31290,31108
32796,31285,31220
32848,31271,31202
32892,31263,31349
32988,31272,31351
33028,31287,31436
33084,31305,31404
33088,31313,31541
33068,31308,31528
33056,31316,31661
33056,31303,31636
33020,31293,31792
32981,31278,31749
32956,31277,31892
32885,31280,31876
32808,31300,32026
32744,31319,32063
32752,31317,32189
32736,31332,32252
32728,31327,32319
32772,31317,32279
32812,31308,32357
32856,31288,32476
32904,31292,32540
32932,31300,32609
32932,31316,32631
32936,31335,32580
32952,31329,32725
32916,31340,32687
32825,31333,32792
32768,31335,32775
32676,31324,32908
32572,31316,32871
32416,31318,32976
32240,31326,32954
31972,31337,33152
31613,31352,33132
31272,31367,33085
31086,31377,33238
30892,31370,33217
30740,31367,33369
30545,31362,33344
30260,31356,33415
30148,31364,33431
30437,31358,33538
31332,31368,33549
32560,31367,33628
33740,31377,33672
34636,31367,33588
35348,31362,33688
35728,31353,33752
35808,31337,33844
35806,31337,33828
35772,31335,33762
35612,31347,33901
35196,31363,33828
34700,31380,33999
34236,31382,34045
33832,31403,34097
33460,31392,34110
33216,31380,34180
33060,31380,34192
32976,31364,34232
32944,31367,34172
32936,31375,34259
32924,31381,34206
32956,31404,34357
32972,31408,34364
32972,31413,34452
32873,31417,34407
32808,31404,34372
32792,31393,34544
32824,31392,34597
32860,31390,34609
32848,31401,34640
32858,31412,34532
32812,31421,34644
32772,31438,34588
32749,31438,34736
32764,31444,34748
32768,31439,34800
32813,31416,34793
32808,31414,34839
32804,31412,34850
32741,31428,34876
32724,31440,34888
32700,31456,34940
32660,31468,34977
32662,31461,35005
32684,31463,34948
32720,31455,35053
32744,31450,35021
32796,31429,35103
32776,31436,35004
32756,31445,35116
32792,31460,35056
32756,31479,35230
32728,31485,35255
32704,31489,35161
32676,31488,35273
32656,31479,35207
32676,31471,35297
32736,31466,35260
32720,31464,35334
32728,31471,35344
32668,31484,35463
32588,31502,35408
32572,31521,35504
32584,31521,35381
32589,31516,35460
32604,31508,35412
32592,31503,35588
32580,31495,35590
32532,31490,35511
32520,31495,35550
32540,31517,35479
32492,31535,35548
32384,31547,35476
32372,31546,35568
32390,31550,35493
32391,31540,35564
32412,31529,35512
32384,31525,35577
32400,31526,35660
32456,31531,35500
32468,31540,35655
32448,31562,35504
32456,31573,35575
32412,31581,35492
32348,31578,35614
32332,31568,35625
32320,31557,35604
32330,31556,35572
32316,31548,35589
32272,31562,35541
32276,31580,35528
32228,31596,35392
32216,31604,35476
32226,31607,35495
32236,31612,35481
32228,31611,35444
32240,31596,35356
32256,31589,35237
32184,31589,35352
32100,31591,35173
32037,31615,35276
32041,31631,35256
32120,31628,35139
32116,31644,35175
32092,31644,35096
32072,31634,35093
32112,31623,35041
32116,31623,34996
32100,31610,34984
32037,31630,34770
31952,31641,34836
31904,31653,34812
31920,31661,34648
31912,31682,34721
31928,31671,34710
31968,31666,34500
32032,31652,34573
32084,31648,34540
32092,31649,34360
32104,31660,34372
32124,31676,34248
32140,31684,34342
32172,31704,34245
32192,31697,34256
32224,31687,34188
32272,31688,34031
32296,31684,34096
32348,31665,34054
32417,31679,33901
32452,31684,33872
32520,31698,33846
32568,31718,33856
32592,31728,33815
32632,31716,33610
32724,31726,33687
32845,31713,33652
32940,31707,33460
33029,31707,33476
33024,31709,33356
33024,31708,33407
33068,31716,33244
33060,31741,33278
33112,31736,33153
33168,31751,33208
33196,31749,33092
33208,31744,33117
33280,31742,33063
33340,31729,32951
33392,31727,32933
33416,31730,32809
33452,31748,32871
33444,31763,32708
33400,31777,32797
33380,31777,32666
33376,31782,32681
33436,31776,32506
33460,31764,32616
33484,31751,32557
33472,31751,32532
33448,31775,32421
33424,31768,32392
33452,31793,32390
33440,31811,32196
33440,31808,32260
33440,31808,32160
33437,31791,32087
33432,31789,32124
33452,31792,31980
33472,31788,32060
33468,31780,31898
33440,31814,31984
33424,31826,31896
33456,31837,31838
33508,31831,31879
33492,31837,31807
33516,31828,31688
33500,31813,31716
33508,31807,31592
33556,31812,31628
33544,31822,31596
33500,31844,31587
33468,31850,31512
33413,31871,31414
33336,31877,31463
33348,31872,31380
33384,31863,31384
33396,31849,31300
33416,31844,31340
33412,31841,31236
33432,31845,31216
33372,31852,31160
33324,31879,31193
33308,31893,31129
33296,31905,31111
33276,31901,31074
33264,31895,30982
33268,31879,31007
33288,31871,30973
33340,31872,30904
33316,31886,30880
33288,31890,30820
33210,31908,30792
33164,31920,30705
33148,31925,30708
33132,31911,30661
33152,31900,30637
33104,31908,30544
33089,31896,30540
33112,31897,30385
33072,31908,30452
33040,31922,30372
33008,31927,30361
32988,31943,30246
32996,31952,30285
32972,31954,30158
32960,31940,30215
32992,31931,30092
33017,31930,30158
33028,31916,30134
33024,31938,30104
32996,31950,30033
32976,31956,29988
32940,31972,29948
32934,31975,29941
32940,31972,29852
32968,31968,29893
32992,31959,29828
32976,31952,29831
32994,31948,29809
33000,31957,29668
33016,31975,29722
33000,31983,29676
32972,31998,29677
32944,32004,29639
32908,31998,29545
32912,31992,29568
32916,31980,29464
32920,31977,29517
32908,31977,29466
32916,31985,29364
32916,31998,29410
32892,32012,29348
32848,32024,29367
32804,32028,29343
32788,32015,29319
32820,32022,29284
32864,32016,29177
32869,31997,29227
32908,32004,29180
32876,32007,29173
32836,32034,29145
32796,32036,29081
32780,32057,29093
32808,32052,29052
32800,32052,29076
32838,32032,29048
32877,32036,28958
32904,32028,29007
32921,32025,28980
32924,32036,28892
32896,32044,28941
32900,32057,28928
32904,32071,28912
32888,32081,28900
32864,32066,28844
32856,32071,28861
32892,32052,28799
32928,32060,28816
32956,32040,28773
32940,32053,28785
32868,32076,28708
32824,32076,28740
32800,32093,28656
32760,32109,28696
32760,32100,28624
32796,32090,28676
32886,32068,28662
32864,32077,28597
32846,32079,28625
32844,32081,28616
32812,32076,28592
32828,32106,28580
32820,32117,28580
32824,32116,28565
32828,32113,28535
32812,32111,28535
32868,32099,28533
32930,32089,28482
32948,32100,28511
32888,32100,28457
32836,32099,28478
32796,32117,28440
32752,32143,28465
32740,32148,28435
32740,32145,28460
32752,32140,28422
32756,32120,28444
32788,32119,28400
32792,32108,28433
32784,32116,28393
32800,32123,28414
32752,32159,28364
32740,32164,28417
32724,32167,28412
32760,32168,28389
32748,32154,28420
32736,32140,28404
32748,32142,28420
32784,32135,28399
32778,32149,28356
32784,32151,28415
32720,32168,28389
32564,32189,28412
32404,32191,28413
32272,32191,28356
32196,32190,28400
32072,32175,28372
31880,32173,28400
31616,32172,28403
31280,32178,28369
31028,32196,28388
30852,32208,28340
30624,32205,28389
30408,32217,28376
30096,32232,28390
29824,32226,28388
30028,32216,28345
30904,32204,28392
32172,32194,28388
33480,32192,28361
34532,32193,28382
35388,32199,28360
35833,32211,28391
35920,32212,28396
35952,32206,28408
35932,32200,28405
35844,32189,28389
35472,32179,28406
34980,32188,28400
34516,32201,28400
34044,32219,28420
33668,32233,28389
33396,32241,28452
33213,32257,28413
33077,32228,28463
33016,32228,28468
32980,32228,28429
32944,32212,28471
32920,32207,28444
32848,32228,28497
32772,32221,28487
32728,32249,28508
32692,32257,28493
32712,32263,28540
32708,32263,28544
32696,32260,28516
32720,32225,28556
32712,32233,28530
32728,32228,28577
32736,32236,28551
32680,32252,28621
32612,32263,28640
32532,32287,28652
32480,32290,28673
32440,32289,28653
32440,32277,28692
32448,32253,28641
32512,32256,28713
32556,32248,28742
32564,32255,28768
32552,32276,28781
32580,32294,28798
32568,32289,28820
32552,32306,28798
32524,32303,28836
32572,32288,28804
32541,32287,28884
32540,32261,28840
32552,32273,28935
32564,32280,28945
32524,32292,28948
32512,32305,28997
32504,32300,28977
32525,32324,29060
32512,32301,29089
32480,32313,29049
32512,32304,29126
32504,32287,29124
32480,32287,29157
32472,32296,29208
32376,32308,29178
32340,32325,29276
32308,32335,29290
32288,32341,29261
32320,32333,29364
32376,32324,29380
32356,32318,29349
32396,32304,29453
32384,32309,29468
32342,32318,29447
32292,32328,29533
32224,32343,29572
32165,32356,29566
32128,32367,29610
32108,32364,29584
32068,32338,29670
32084,32349,29721
32136,32329,29672
32168,32332,29785
32168,32329,29812
32201,32356,29796
32176,32364,29864
32132,32372,29906
32120,32367,29858
32080,32381,29936
32112,32364,29990
32112,32356,29988
32136,32352,30085
32148,32340,30101
32134,32347,30052
32072,32367,30181
32028,32381,30210
32008,32381,30148
32004,32400,30272
32048,32391,30288
32072,32383,30344
32072,32366,30305
32092,32364,30391
32089,32356,30352
32064,32375,30468
32048,32369,30470
31984,32386,30412
31916,32401,30550
31880,32407,30566
31860,32407,30514
31900,32397,30628
31944,32381,30648
31968,32368,30681
31968,32372,30717
31920,32387,30644
31892,32394,30782
31840,32404,30780
31768,32421,30812
31752,32420,30789
31764,32416,30877
31829,32417,30881
31944,32407,30879
32008,32383,30888
32068,32377,30972
32120,32394,30922
32092,32409,31036
32064,32416,31076
32044,32428,31008
32044,32432,31133
32100,32428,31113
32161,32421,31148
32208,32404,31095
32268,32396,31238
32368,32394,31236
32436,32392,31167
32504,32415,31301
32572,32429,31344
32588,32432,31248
32656,32446,31396
32728,32432,31386
32840,32421,31401
32964,32407,31468
32972,32392,31501
33020,32396,31461
33016,32406,31520
33020,32417,31512
33004,32412,31553
33040,32442,31612
33068,32444,31590
33157,32442,31705
33240,32424,31684
33278,32404,31649
33312,32406,31788
33348,32408,31772
33336,32420,31721
33326,32432,31874
33332,32440,31858
33372,32455,31874
33408,32452,31814
33456,32445,31988
33504,32443,32004
33476,32420,32028
33476,32417,31954
33456,32409,32037
33408,32423,32092
33364,32433,32069
33312,32449,32108
33264,32460,32205
33244,32452,32247
33292,32452,32162
33364,32436,32262
33429,32428,32199
33440,32421,32335
33396,32423,32271
33324,32421,32408
33284,32439,32434
33212,32452,32481
33124,32465,32493
33056,32465,32376
33004,32448,32553
33084,32455,32524
33168,32445,32553
33232,32434,32478
33276,32412,32612
33284,32421,32612
33292,32441,32597
33308,32460,32664
33260,32473,32708
33244,32469,32640
33240,32460,32730
33220,32448,32696
33196,32440,32820
33172,32430,32784
33144,32423,32703
33140,32420,32836
33152,32452,32756
33114,32460,32846
33100,32456,32768
33104,32464,32885
33160,32461,32916
33220,32460,32862
33216,32449,32948
33196,32441,32824
33168,32437,32937
33140,32439,32929
33108,32448,33014
33074,32469,32969
33020,32468,32994
32984,32481,32935
32980,32476,33024
32956,32457,33075
32852,32453,32920
32784,32426,32976
32772,32444,33036
32748,32448,32937
32768,32462,33087
32736,32468,33060
32776,32479,32996
32829,32484,33103
32892,32474,33105
32924,32465,33029
32924,32453,33062
32944,32448,33100
32948,32437,32972
32960,32449,33020
32952,32466,33092
32948,32462,33117
32972,32487,32965
33036,32484,33122
33080,32478,33086
33064,32449,33121
33045,32433,32969
32980,32436,33106
32956,32436,33092
32924,32440,32958
32884,32452,33112
32864,32468,33053
32840,32469,33031
32836,32481,33120
32868,32479,33056
32872,32468,33014
32908,32452,33113
32936,32449,33073
32880,32432,33086
32804,32436,32981
32760,32457,33102
32704,32477,33092
32652,32482,33007
32634,32485,33009
32692,32479,33101
32816,32465,33074
32916,32446,33080
32992,32444,33020
32992,32450,32986
33024,32453,33077
32984,32464,33119
32905,32481,32964
32836,32473,33118
32805,32488,33084
32762,32492,32981
32740,32484,33125
32680,32450,33119
32588,32457,32984
32536,32451,33125
32556,32475,33081
32588,32471,33151
32628,32485,33041
32668,32500,33132
32684,32495,33170
32724,32493,33041
32748,32462,33204
32778,32468,33166
32772,32461,33160
32672,32457,33212
32585,32469,33108
32540,32464,33110
32630,32485,33164
32656,32492,33257
32652,32493,33255
32632,32492,33305
32708,32484,33199
32764,32479,33348
32824,32449,33318
32760,32455,33381
32740,32451,33369
32716,32475,33287
32656,32492,33439
32648,32489,33415
32704,32493,33465
32712,32495,33345
32708,32473,33412
32688,32472,33540
32696,32454,33486
32702,32455,33417
32680,32462,33581
32604,32453,33540
32616,32484,33620
32652,32493,33554
32632,32501,33655
32669,32473,33559
32700,32482,33702
32756,32457,33735
32772,32447,33753
32740,32455,33768
32712,32457,33788
32664,32473,33680
32608,32466,33805
32580,32472,33788
32628,32483,33764
32721,32474,33817
32772,32468,33829
32812,32460,33920
32824,32450,33909
32856,32444,33817
32864,32448,33948
32856,32444,33911
32828,32473,33866
32828,32484,33903
32880,32484,33933
32844,32477,33863
32796,32461,34021
32712,32460,34016
32548,32447,33888
32352,32447,34028
32272,32452,34021
32152,32464,33892
31928,32477,34046
31644,32481,34023
31272,32468,33893
30952,32485,33974
30780,32473,33884
30573,32470,34012
30452,32446,33996
30272,32460,33876
29968,32468,34012
29932,32492,34000
30276,32490,33894
31184,32488,33983
32393,32482,33989
33560,32468,33864
34484,32450,33913
35216,32440,33927
35544,32421,33848
35552,32420,33912
35556,32424,33916
35512,32436,33928
35300,32450,33935
34856,32460,33864
34392,32465,33756
33996,32461,33839
33684,32453,33774
33522,32439,33850
33320,32436,33766
33172,32422,33799
33060,32429,33716
32928,32451,33799
32856,32454,33708
32768,32471,33792
32704,32463,33752
32708,32458,33780
32724,32444,33701
32732,32432,33700
32696,32423,33596
32664,32428,33676
32636,32420,33518
32572,32436,33596
32528,32447,33561
32484,32463,33578
32472,32457,33543
32476,32457,33420
32512,32444,33468
32532,32417,33337
32560,32391,33396
32540,32396,33356
32520,32423,33180
32520,32428,33252
32485,32428,33108
32436,32453,33188
32408,32453,33088
32428,32440,33127
32436,32433,33100
32444,32420,33053
32504,32412,33031
32492,32408,32992
32468,32416,32858
32416,32421,32881
32364,32440,32796
32349,32448,32824
32400,32455,32726
32452,32440,32774
32464,32427,32644
32488,32420,32694
32496,32393,32593
32449,32392,32633
32388,32401,32534
32396,32421,32574
32360,32421,32548
32328,32436,32509
32316,32437,32357
32296,32428,32370
32292,32416,32260
32336,32396,32301
32364,32396,32156
32340,32391,32204
32396,32401,32060
32400,32412,32133
32324,32425,32052
32244,32442,32045
32248,32430,31900
32272,32427,31946
32312,32413,31808
32352,32399,31840
32374,32390,31692
32378,32389,31742
32408,32391,31649
32404,32399,31649
32376,32404,31536
32276,32406,31581
32196,32412,31449
32132,32409,31462
32144,32407,31310
32176,32396,31361
32188,32380,31296
32164,32381,31218
32152,32388,31213
32164,32396,31076
32152,32415,31076
32144,32429,30961
32096,32421,30996
32112,32415,30904
32128,32396,30912
32104,32389,30852
32076,32383,30716
32048,32380,30721
32032,32386,30600
31998,32396,30644
31952,32412,30588
31912,32415,30440
31912,32412,30468
31864,32404,30368
31900,32391,30375
31916,32368,30341
31936,32356,30292
31948,32356,30188
31932,32361,30196
31892,32388,30084
31840,32401,30096
31808,32405,30036
31816,32405,29924
31856,32405,29932
31880,32382,29901
31900,32375,29842
31900,32375,29805
31908,32350,29740
31932,32364,29651
31948,32380,29656
31932,32396,29569
31972,32399,29534
32000,32404,29442
32060,32394,29454
32120,32386,29414
32160,32368,29325
32186,32359,29329
32224,32357,29220
32276,32360,29222
32300,32372,29132
32281,32386,29142
32304,32384,29092
32353,32378,29058
32416,32384,29020
32496,32369,28976
32576,32357,28909
32668,32332,28884
32800,32345,28832
32892,32344,28747
32900,32356,28740
32936,32359,28645
32984,32375,28632
33016,32380,28604
33088,32373,28574
33173,32367,28542
33248,32342,28472
33304,32328,28468
33356,32326,28420
33336,32346,28391
33296,32361,28357
33256,32367,28276
33264,32380,28284
33308,32367,28218
33349,32360,28223
33383,32354,28158
33420,32341,28156
33432,32330,28136
33396,32332,28057
33384,32310,28060
33340,32337,28036
33308,32356,27983
33252,32364,27978
33264,32356,27922
33280,32357,27922
33312,32341,27893
33344,32327,27845
33360,32325,27836
33356,32313,27791
33348,32321,27796
33320,32320,27764
33280,32349,27720
33240,32357,27716
33196,32359,27702
33172,32356,27653
33185,32341,27655
33228,32316,27644
33296,32316,27590
33308,32310,27591
33264,32318,27570
33220,32333,27532
33200,32341,27522
33196,32351,27502
33196,32348,27484
33216,32341,27460
33268,32334,27456
33276,32305,27432
33276,32304,27425
33252,32308,27413
33234,32305,27394
33184,32325,27380
33180,32335,27361
33216,32343,27357
33212,32345,27344
33188,32336,27329
33216,32321,27308
33260,32319,27292
33260,32300,27284
33272,32292,27281
33276,32298,27252
33232,32301,27252
33184,32317,27225
33164,32329,27220
33108,32327,27209
33124,32322,27201
33132,32300,27164
33145,32294,27172
33144,32281,27156
33148,32280,27136
33116,32292,27125
33098,32301,27101
33088,32312,27103
33088,32314,27090
33090,32332,27079
33093,32319,27074
33124,32300,27058
33132,32292,27058
33104,32281,27041
33072,32277,27046
33064,32284,27036
33056,32292,27044
32996,32302,27033
32946,32314,27039
32948,32319,27008
32980,32302,27045
32988,32293,27048
33040,32284,27044
33044,32262,27028
33032,32263,27044
33000,32272,27055
32976,32292,27061
32960,32293,27070
32976,32304,27076
32972,32308,27086
32960,32290,27085
32984,32287,27100
33032,32274,27097
33064,32263,27113
33068,32263,27124
33024,32263,27132
33048,32275,27143
33009,32284,27166
32964,32299,27172
32920,32302,27188
32916,32293,27199
32924,32284,27218
32960,32276,27224
32976,32254,27244
32992,32248,27252
33036,32256,27278
33064,32263,27292
33000,32279,27315
32928,32284,27316
32936,32288,27349
32904,32284,27358
32948,32276,27361
32976,32238,27392
33036,32248,27384
33036,32233,27436
33008,32244,27417
32988,32263,27452
32952,32276,27454
32948,32286,27482
32944,32281,27484
32980,32276,27513
33012,32261,27519
33052,32254,27528
33012,32246,27532
32988,32237,27554
32976,32237,27546
32941,32244,27576
32908,32263,27557
32904,32277,27600
32897,32279,27598
32968,32271,27621
33018,32245,27600
33048,32246,27615
33056,32236,27640
33068,32232,27628
33060,32233,27666
33056,32241,27648
33044,32258,27689
33032,32260,27701
33034,32254,27710
33064,32247,27708
33124,32236,27724
33228,32221,27710
33264,32220,27759
33264,32228,27783
33244,32231,27758
33188,32239,27798
33080,32245,27813
33096,32256,27798
33121,32257,27844
33148,32248,27813
33140,32237,27864
33140,32222,27876
33104,32219,27899
33117,32208,27917
33108,32214,27893
33144,32220,27920
33144,32239,27919
33121,32247,27910
33096,32250,27968
33116,32241,27932
33156,32237,27985
33180,32229,27992
33208,32209,27977
33148,32201,28021
33100,32204,28028
33072,32218,28044
33048,32225,28025
33010,32228,28079
33000,32237,28084
33020,32224,28106
33068,32208,28100
33052,32194,28137
33048,32177,28137
33024,32196,28175
32996,32196,28195
32944,32212,28185
32964,32220,28224
32948,32230,28236
32961,32229,28208
32936,32227,28261
32924,32205,28295
32928,32192,28312
32924,32188,28306
32844,32178,28333
32748,32180,28324
32650,32191,28348
32448,32201,28386
32324,32218,28348
32240,32229,28404
32156,32216,28381
31988,32207,28442
31744,32192,28466
31460,32194,28475
31144,32180,28428
30920,32196,28499
30716,32205,28511
30496,32221,28524
30232,32230,28510
29828,32240,28548
29693,32242,28568
30104,32222,28549
31056,32200,28595
32356,32180,28601
33600,32175,28552
34468,32167,28638
35144,32167,28656
35416,32180,28612
35449,32183,28688
35452,32185,28704
35424,32184,28660
35244,32174,28732
34824,32157,28708
34336,32151,28773
33872,32158,28766
33462,32164,28824
33124,32162,28804
32888,32183,28859
32708,32197,28847
32572,32198,28871
32496,32187,28903
32440,32168,28884
32440,32165,28892
32421,32157,28941
32420,32151,28970
32376,32153,28925
32320,32164,28973
32312,32179,28922
32240,32182,29000
32240,32169,28996
32216,32184,28958
32276,32160,28988
32332,32151,29022
32389,32135,29028
32375,32140,28972
32368,32149,29012
32320,32150,29025
32268,32153,29052
32180,32176,28972
32204,32181,29045
32216,32170,29056
32241,32157,28988
32240,32142,29044
32276,32124,29028
32280,32132,29076
32248,32131,29064
32248,32148,29032
32208,32159,29094
32253,32167,29104
32292,32165,29041
32336,32153,29120
32349,32142,29114
32384,32112,29157
32440,32126,29180
32480,32116,29116
32504,32119,29191
32484,32132,29148
32492,32140,29224
32460,32149,29204
32456,32144,29287
32444,32143,29278
32456,32135,29252
32432,32111,29314
32436,32116,29316
32424,32096,29340
32352,32101,29278
32296,32109,29372
32248,32132,29372
32192,32142,29401
32176,32145,29357
32180,32132,29404
32172,32120,29338
32144,32108,29414
32156,32088,29404
32192,32092,29466
32180,32096,29468
32152,32096,29404
32120,32120,29461
32128,32129,29500
32108,32129,29533
32080,32119,29444
32062,32088,29535
32080,32100,29567
32044,32076,29480
32040,32085,29576
32036,32082,29588
32072,32089,29518
32072,32108,29620
32036,32119,29628
32020,32114,29561
32040,32104,29641
32057,32093,29583
32048,32084,29676
32032,32070,29695
32006,32056,29631
32028,32064,29698
31976,32071,29700
31952,32084,29741
31948,32100,29767
31920,32105,29688
31904,32096,29772
31916,32080,29716
31912,32070,29808
31932,32057,29856
31960,32061,29773
31954,32063,29870
31932,32068,29899
31932,32076,29881
31968,32079,29876
31992,32085,29948
31980,32080,29989
32008,32068,29909
31993,32052,30017
31953,32044,30023
31896,32036,30071
31814,32037,30087
31756,32055,30029
31776,32066,30152
31840,32078,30176
31880,32071,30113
31956,32066,30204
32088,32053,30260
32236,32039,30256
32309,32007,30295
32368,32020,30225
32356,32024,30324
32324,32040,30316
32316,32041,30340
32308,32062,30390
32376,32056,30364
32441,32045,30468
32508,32036,30501
32600,32018,30412
32692,32006,30540
32748,32003,30560
32780,32005,30477
32820,32007,30575
32816,32030,30510
32808,32024,30629
32844,32036,30613
32904,32029,30686
32913,32012,30713
32996,32004,30732
33088,31984,30765
33180,31981,30656
33216,31980,30805
33220,32004,30790
33212,32021,30802
33200,32021,30813
33188,32012,30879
33248,32000,30924
33252,31999,30854
33308,31972,30930
33448,31973,30868
33548,31972,30968
33536,31972,30925
33532,31980,31035
33460,31994,31084
33348,32000,31048
33308,32000,31134
33340,31993,31045
33356,31984,31165
33396,31964,31135
33420,31963,31184
33484,31948,31137
33528,31959,31213
33520,31968,31157
33520,31974,31265
33464,31988,31326
33421,31969,31239
33360,31983,31321
33344,31968,31392
33348,31951,31271
33340,31941,31392
33336,31937,31406
33332,31945,31456
33268,31952,31343
33236,31973,31493
33252,31972,31504
33264,31975,31383
33294,31972,31510
33316,31941,31553
33348,31940,31420
33360,31921,31548
33332,31921,31554
33312,31928,31524
33318,31924,31460
33288,31950,31611
33242,31958,31612
33216,31961,31570
33192,31948,31588
33172,31948,31608
33176,31913,31556
33145,31909,31524
33136,31898,31660
33140,31909,31670
33192,31927,31548
33184,31925,31648
33173,31946,31572
33212,31944,31685
33220,31937,31653
33208,31919,31585
33244,31892,31693
33250,31892,31697
33248,31901,31560
33244,31895,31696
33232,31900,31688
33220,31916,31624
33168,31908,31711
33136,31926,31692
33125,31920,31655
33084,31904,31696
33037,31881,31682
32996,31874,31740
32981,31856,31678
32956,31873,31623
32936,31884,31745
32908,31887,31743
32908,31903,31777
32896,31905,31649
32944,31894,31781
32992,31884,31772
33044,31856,31749
33092,31854,31760
33064,31846,31781
32996,31859,31772
32960,31861,31720
32912,31878,31863
32924,31889,31837
32924,31886,31764
32896,31865,31900
32896,31860,31862
32928,31844,31908
33008,31838,31800
33056,31840,31868
33052,31829,31849
33032,31846,31905
33044,31855,31897
33024,31869,31842
33012,31864,31944
33008,31861,31919
33013,31840,31971
33056,31829,31872
33092,31815,31920
33096,31816,31984
33120,31815,31860
33024,31836,31914
32968,31832,31988
32928,31845,31981
32868,31840,31897
32869,31826,31894
32878,31828,31997
32896,31808,31967
32960,31800,31964
32980,31789,32006
32984,31797,32023
32889,31798,31949
32842,31809,31895
32828,31826,32024
32900,31826,31981
32912,31820,32008
32896,31807,32029
32900,31791,31901
32852,31777,31870
32956,31768,31908
32884,31772,31996
32824,31784,31958
32877,31799,31991
32956,31804,31860
32944,31802,31941
32970,31801,31892
33004,31788,31951
33044,31775,31793
33048,31744,31895
32986,31751,31831
32996,31751,31870
32960,31764,31700
32908,31780,31789
32884,31786,31764
32916,31783,31781
32992,31776,31632
33052,31773,31724
33068,31750,31680
33120,31740,31684
33136,31728,31552
33148,31733,31593
33124,31743,31554
33101,31751,31577
33100,31744,31398
33080,31768,31510
33088,31751,31400
33092,31742,31452
33120,31724,31416
33148,31711,31255
33173,31708,31316
33164,31706,31239
33148,31711,31260
33148,31735,31228
33144,31742,31238
33149,31747,31183
33164,31728,31156
33136,31728,30991
33136,31710,31004
33166,31703,31016
33178,31700,30996
33216,31700,30871
33212,31711,30878
33152,31704,30860
33002,31724,30852
32933,31721,30727
32948,31716,30727
32960,31700,30631
32972,31684,30682
32968,31671,30629
32924,31668,30540
33016,31677,30557
33096,31687,30520
33096,31689,30404
33068,31697,30402
33036,31697,30314
33056,31697,30215
33040,31681,30280
33028,31656,30209
32960,31655,30172
32804,31653,30062
32652,31657,30070
32480,31663,30001
32348,31677,29997
32216,31692,29825
32096,31699,29884
31856,31684,29828
31576,31673,29676
31308,31668,29717
31068,31656,29653
30892,31647,29628
30776,31660,29469
30572,31675,29516
30296,31685,29474
30144,31694,29340
30436,31681,29348
31224,31684,29256
32488,31655,29284
33728,31637,29240
34580,31623,29141
35224,31610,29132
35472,31607,29089
35468,31620,28989
35377,31628,29021
35320,31640,28973
35104,31633,28889
34760,31636,28844
34360,31628,28863
34000,31613,28812
33640,31590,28802
33384,31605,28669
33156,31608,28716
33012,31614,28676
32888,31617,28598
32828,31633,28572
32728,31636,28544
32636,31628,28519
32620,31620,28422
32584,31597,28422
32552,31591,28384
32504,31588,28301
32508,31586,28294
32476,31589,28242
32468,31607,28204
32440,31614,28125
32416,31608,28084
32416,31600,28060
32396,31588,27987
32336,31572,27957
32344,31558,27927
32308,31558,27885
32277,31565,27789
32204,31572,27796
32200,31585,27748
32204,31591,27689
32216,31593,27664
32201,31591,27620
32240,31575,27556
32320,31551,27546
32361,31542,27509
32384,31532,27450
32364,31521,27450
32348,31556,27408
32324,31556,27385
32312,31574,27359
32296,31569,27321
32316,31560,27316
32372,31549,27264
32392,31530,27256
32401,31516,27212
32384,31508,27220
32276,31521,27197
32272,31532,27161
32309,31540,27152
32276,31534,27130
32276,31552,27113
32332,31538,27098
32368,31519,27044
32344,31508,27052
32344,31495,27036
32344,31495,27005
32268,31495,26997
32132,31513,26974
32184,31511,26935
32152,31524,26935
32064,31535,26904
32074,31521,26857
32128,31508,26876
32176,31492,26844
32152,31479,26804
32096,31476,26809
32092,31481,26764
32152,31494,26773
32116,31494,26756
32129,31495,26737
32104,31495,26709
32116,31500,26705
32152,31481,26676
32168,31471,26669
32232,31460,26653
32188,31444,26612
32156,31456,26630
32096,31463,26612
32100,31476,26569
32100,31489,26580
32090,31488,26561
32080,31481,26530
32072,31460,26543
32116,31455,26514
32156,31446,26492
32168,31434,26494
32112,31437,26479
32085,31428,26453
32020,31461,26457
32016,31470,26444
31972,31469,26425
31960,31461,26420
31908,31452,26404
31885,31429,26407
31924,31422,26368
31916,31412,26384
31892,31417,26360
31880,31425,26362
31852,31440,26340
31881,31448,26341
31876,31446,26328
31848,31437,26337
31876,31434,26300
31897,31405,26316
31920,31388,26297
31912,31396,26298
31908,31396,26287
31908,31405,26285
31936,31423,26277
31928,31427,26276
31892,31428,26264
31916,31428,26268
31968,31413,26254
32032,31396,26248
32105,31377,26250
32164,31380,26225
32180,31380,26242
32208,31389,26233
32244,31407,26220
32284,31400,26220
32344,31394,26224
32408,31404,26215
32464,31388,26224
32544,31373,26218
32624,31359,26217
32692,31341,26223
32728,31349,26212
32704,31375,26214
32764,31391,26215
32816,31394,26215
32884,31393,26212
32960,31384,26217
33008,31374,26198
33124,31356,26215
33156,31341,26216
33174,31348,26212
33220,31342,26217
33232,31356,26215
33192,31365,26216
33240,31375,26228
33256,31385,26225
33316,31366,26239
33396,31352,26232
33468,31342,26236
33512,31332,26243
33508,31324,26253
33540,31332,26252
33540,31338,26260
33512,31360,26281
33460,31359,26276
33448,31367,26292
33416,31365,26284
33420,31351,26316
33400,31333,26324
33392,31325,26340
33404,31319,26337
33396,31319,26365
33396,31333,26372
33404,31335,26394
33400,31353,26412
33389,31352,26432
33444,31353,26444
33480,31336,26457
33488,31320,26480
33444,31308,26502
33412,31308,26526
33428,31313,26532
33400,31327,26570
33376,31338,26585
33448,31351,26628
33496,31335,26664
33560,31343,26676
33536,31332,26712
33440,31317,26732
33380,31311,26789
33328,31300,26815
33312,31301,26873
33328,31321,26908
33372,31333,26957
33408,31329,26988
33436,31348,27031
33496,31320,27080
33558,31324,27108
33600,31309,27149
33580,31296,27225
33504,31300,27264
33460,31301,27291
33384,31308,27345
33340,31333,27405
33316,31324,27471
33280,31336,27482
33268,31336,27564
33292,31320,27602
33324,31308,27674
33344,31304,27736
33328,31295,27748
33280,31300,27844
33232,31309,27921
33177,31332,27984
33100,31331,28044
33108,31335,28065
33132,31324,28164
33152,31316,28242
33188,31308,28263
33216,31302,28357
33208,31305,28389
33200,31300,28508
33129,31302,28508
33008,31324,28642
32940,31328,28732
32909,31332,28793
32940,31322,28860
32980,31312,28852
32980,31300,28996
33020,31296,29084
33056,31280,29078
33016,31292,29220
33001,31300,29292
32976,31321,29284
32976,31328,29436
32988,31332,29477
33012,31332,29556
33100,31316,29647
33156,31313,29660
33153,31292,29801
33132,31277,29860
33140,31289,29830
33140,31303,29996
33072,31323,30063
33024,31335,30028
33008,31327,30206
33028,31329,30220
33056,31310,30234
33048,31304,30404
33028,31300,30469
33020,31300,30404
32992,31303,30560
32948,31309,30652
32936,31318,30680
32876,31332,30743
32844,31333,30727
32824,31337,30855
32864,31325,30864
32909,31308,30972
32917,31300,31036
32844,31302,30968
32856,31304,31148
32840,31317,31212
32864,31321,31143
32871,31333,31316
32872,31340,31376
32857,31343,31400
32836,31326,31462
32792,31325,31388
32764,31310,31572
32800,31300,31592
32780,31313,31690
32788,31320,31588
32820,31333,31744
32788,31340,31745
32796,31348,31855
32748,31332,31907
32708,31336,31844
32720,31324,31997
32724,31313,32007
32732,31313,32093
32736,31312,32159
32760,31330,32108
32812,31332,32229
32972,31351,32224
33064,31357,32386
33020,31350,32423
32984,31343,32340
32992,31328,32461
32960,31301,32519
32952,31318,32574
32960,31320,32613
33028,31324,32629
33052,31341,32770
32964,31352,32697
32940,31359,32852
32921,31348,32897
32876,31356,32806
32848,31332,32988
32812,31330,32956
32812,31327,33089
32820,31319,33120
32830,31344,33207
32800,31351,33135
32772,31372,33250
32740,31367,33343
32720,31367,33255
32729,31351,33399
32780,31341,33317
32832,31334,33444
32820,31331,33432
32824,31334,33543
32836,31351,33502
32804,31364,33673
32784,31368,33732
32736,31385,33693
32704,31372,33749
32720,31364,33863
32750,31364,33868
32788,31341,33897
32772,31345,33821
32752,31352,33996
32704,31365,33956
32652,31367,34071
32673,31380,33966
32728,31385,34096
32764,31385,34136
32808,31381,34064
32768,31366,34140
32764,31358,34272
32694,31359,34276
32648,31355,34200
32640,31380,34388
32676,31389,34324
32692,31399,34436
32664,31402,34311
32564,31396,34468
32380,31396,34494
32260,31382,34397
32128,31375,34551
32052,31375,34536
31924,31380,34471
31704,31392,34645
31462,31412,34633
31172,31422,34512
30968,31424,34676
30760,31424,34725
30556,31423,34665
30388,31408,34727
30112,31407,34628
30144,31401,34774
30608,31407,34757
31626,31405,34716
32864,31415,34756
33892,31424,34792
34728,31420,34909
35372,31409,34892
35581,31397,34908
35580,31384,34811
35540,31380,34996
35428,31372,34984
35152,31389,34864
34692,31398,35047
34216,31420,35068
33792,31436,35076
33440,31440,35088
33176,31446,35072
33060,31431,35124
33052,31420,35008
33016,31412,35145
32976,31404,35044
32928,31415,35136
32896,31421,35079
32860,31440,35176
32832,31445,35218
32808,31450,35280
32804,31452,35158
32808,31445,35335
32816,31425,35313
32724,31426,35206
32644,31428,35364
32596,31431,35288
32524,31445,35240
32552,31457,35348
32564,31468,35328
32617,31468,35421
32668,31475,35279
32688,31462,35397
32644,31448,35403
32692,31441,35473
32700,31429,35324
32672,31444,35456
32688,31457,35516
32684,31468,35487
32652,31481,35520
32596,31486,35488
32560,31485,35520
32568,31478,35607
32604,31471,35613
32680,31449,35588
32760,31463,35496
32768,31457,35686
32724,31472,35700
32716,31481,35568
32732,31494,35719
32724,31511,35752
32661,31486,35778
32640,31478,35784
32672,31477,35805
32676,31460,35815
32644,31469,35700
32640,31471,35764
32644,31488,35695
32592,31500,35746
32504,31504,35684
32445,31517,35820
32400,31519,35856
32392,31512,35847
32408,31503,35812
32452,31492,35708
32556,31489,35785
32600,31495,35860
32645,31502,35820
32632,31518,35761
32548,31535,35672
32508,31540,35825
32452,31535,35824
32372,31526,35705
32320,31517,35780
32320,31504,35705
32288,31511,35844
32244,31520,35810
32188,31529,35700
32156,31551,35752
32164,31558,35710
32184,31556,35800
32212,31560,35704
32208,31556,35749
32228,31540,35644
32188,31525,35815
32176,31525,35788
32184,31533,35629
32152,31548,35766
32105,31561,35604
32117,31572,35716
32032,31582,35745
32008,31580,35744
32040,31568,35713
32020,31557,35591
31976,31547,35584
32000,31544,35680
32057,31554,35660
32038,31546,35612
32036,31574,35482
32036,31568,35632
32094,31597,35621
32136,31589,35601
32162,31585,35584
32176,31572,35553
32200,31566,35517
32205,31549,35396
32168,31554,35440
32086,31576,35340
32028,31596,35508
32016,31598,35478
32020,31605,35471
32024,31607,35447
32016,31591,35412
32028,31588,35232
31992,31583,35380
31976,31577,35321
32032,31585,35173
32108,31592,35311
32172,31602,35288
32216,31608,35229
32276,31616,35206
32292,31623,35060
32356,31614,35160
32376,31604,35032
32424,31592,35082
32512,31588,35020
32588,31596,35001
32672,31596,35004
32720,31620,34998
32737,31628,34844
32732,31635,34950
32768,31636,34903
32800,31620,34740
32840,31612,34789
32884,31598,34741
32916,31601,34792
32997,31606,34744
33126,31604,34608
33236,31633,34644
33308,31639,34567
33380,31648,34589
33464,31644,34606
33460,31641,34593
33461,31622,34605
33476,31622,34567
33484,31609,34551
33477,31620,34516
33481,31629,34476
33436,31637,34340
33476,31648,34439
33484,31660,34438
33484,31663,34409
33520,31645,34356
33616,31636,34255
33628,31628,34300
33608,31628,34264
33572,31637,34183
33500,31646,34304
33468,31652,34276
33476,31664,34183
33446,31678,34213
33464,31669,34081
33484,31665,34144
33472,31644,34213
33519,31638,34199
33521,31641,34180
33552,31653,34151
33520,31652,34148
33452,31672,34143
33388,31680,34004
33376,31687,34046
33352,31684,33954
33345,31676,34000
33316,31660,33916
33310,31653,33990
33288,31653,33912
33280,31660,34039
33280,31669,34028
33264,31685,33993
33292,31693,33973
33300,31695,33853
33256,31698,33908
33200,31677,33828
33196,31685,33952
33200,31660,33957
33220,31667,33818
33180,31671,33912
33180,31676,33852
33156,31701,33837
33124,31700,33798
33112,31700,33880
33136,31701,33736
33158,31694,33825
33216,31687,33709
33216,31680,33816
33204,31676,33717
33196,31676,33784
33140,31687,33636
33064,31703,33696
32952,31716,33624
32864,31705,33742
32860,31716,33660
32868,31708,33716
32944,31695,33568
32988,31681,33644
32993,31688,33608
33000,31686,33503
32968,31700,33569
32948,31713,33512
32860,31722,33464
32816,31719,33520
32864,31732,33519
32984,31719,33404
33028,31697,33500
33044,31700,33457
33088,31692,33302
33104,31694,33373
33060,31709,33252
33040,31721,33373
33004,31733,33332
32944,31739,33172
32924,31740,33241
32976,31732,33097
33041,31705,33194
33064,31711,33104
33056,31703,33116
33056,31705,33092
32980,31719,32980
32962,31729,33052
32952,31736,33055
32976,31745,32910
33000,31738,32921
33008,31739,32820
33020,31725,32888
33020,31717,32757
33016,31716,32832
33040,31718,32708
33008,31725,32721
32956,31741,32612
32948,31751,32676
32940,31750,32671
32972,31751,32525
32992,31751,32544
32980,31735,32452
32968,31727,32517
32936,31724,32484
32952,31724,32455
32979,31738,32410
32980,31749,32287
33004,31761,32319
33017,31764,32164
33020,31759,32244
33044,31751,32100
33137,31734,32164
33201,31732,32012
33260,31716,32073
33288,31720,32006
33232,31739,32044
33184,31764,32028
33108,31773,31935
33088,31780,31956
33140,31751,31912
33132,31751,31887
33120,31745,31836
33096,31735,31809
33061,31734,31777
33025,31732,31648
33052,31748,31694
33062,31764,31583
33052,31780,31622
32988,31785,31587
33068,31776,31536
33132,31772,31418
33156,31751,31428
33156,31751,31319
33177,31748,31345
33152,31744,31276
33136,31759,31273
33080,31765,31182
33072,31784,31220
33040,31785,31187
33044,31789,31140
33069,31780,31108
33116,31764,31012
33136,31748,30999
33133,31744,31012
33144,31751,30842
33108,31764,30892
33064,31777,30872
33016,31791,30756
33001,31788,30761
33020,31784,30660
33088,31783,30704
33076,31770,30621
33072,31764,30647
33025,31751,30542
33028,31756,30552
32952,31769,30532
32920,31784,30462
32873,31798,30470
32833,31799,30421
32832,31804,30389
32864,31785,30327
32896,31776,30204
32924,31764,30228
32884,31751,30103
32748,31765,30160
32600,31781,30032
32416,31781,30074
32296,31809,29980
32168,31808,29996
31976,31796,29984
31692,31810,29856
31420,31791,29871
31128,31781,29809
30852,31780,29808
30632,31794,29768
30390,31796,29632
30084,31804,29661
29676,31822,29552
29528,31852,29588
29852,31840,29510
30768,31824,29524
32120,31797,29410
33448,31780,29436
34436,31771,29333
35176,31767,29368
35488,31776,29357
35548,31780,29262
35584,31791,29284
35596,31802,29225
35408,31805,29240
35016,31799,29200
34560,31784,29103
34148,31777,29157
33800,31776,29141
33480,31781,29065
33268,31780,29077
33104,31807,29012
32948,31808,29044
32832,31812,29026
32724,31826,28968
32692,31808,28978
32724,31797,28916
32728,31780,28941
32728,31788,28866
32716,31789,28903
32692,31796,28878
32668,31815,28789
32592,31819,28839
32560,31827,28825
32576,31831,28761
32536,31823,28774
32552,31807,28693
32600,31788,28743
32614,31788,28692
32620,31796,28718
32624,31803,28695
32612,31815,28668
32544,31831,28628
32532,31831,28680
32528,31831,28633
32548,31815,28668
32536,31802,28636
32532,31794,28676
32504,31793,28682
32460,31797,28677
32436,31805,28697
32408,31820,28669
32400,31832,28713
32392,31839,28679
32364,31836,28757
32356,31831,28745
32357,31812,28788
32352,31805,28814
32324,31795,28794
32340,31799,28840
32332,31791,28824
32264,31813,28892
32232,31838,28888
32240,31840,28928
32201,31830,28933
32240,31815,28976
32249,31817,28992
32248,31801,28972
32212,31801,29044
32208,31799,29057
32205,31815,29005
32200,31821,29080
32156,31840,29036
32159,31832,29126
32168,31822,29116
32157,31836,29159
32228,31817,29181
32328,31807,29126
32352,31797,29224
32320,31792,29224
32268,31814,29220
32228,31828,29200
32208,31841,29272
32212,31837,29221
32260,31837,29306
32280,31829,29292
32293,31812,29329
32296,31806,29349
32360,31797,29336
32360,31776,29349
32352,31810,29384
32312,31826,29332
32264,31833,29416
32232,31840,29400
32268,31843,29477
32280,31829,29492
32320,31812,29420
32364,31801,29517
32288,31792,29559
32280,31797,29572
32234,31804,29584
32153,31816,29532
32072,31839,29613
32032,31846,29604
31996,31844,29688
32008,31826,29716
32032,31817,29684
32002,31805,29752
31952,31796,29717
31920,31784,29815
31876,31815,29880
31844,31823,29852
31752,31833,29910
31692,31844,29880
31672,31838,30010
31700,31844,30021
31784,31814,30012
31848,31804,30080
31877,31796,30132
31884,31811,30108
31844,31808,30200
31804,31823,30204
31800,31837,30276
31816,31844,30304
31872,31816,30332
31932,31833,30352
32016,31815,30325
32136,31804,30416
32224,31804,30384
32277,31797,30448
32292,31792,30500
32288,31821,30504
32292,31828,30542
32332,31839,30470
32420,31837,30596
32464,31814,30584
32532,31808,30522
32600,31797,30660
32690,31784,30680
32712,31784,30705
32724,31804,30704
32760,31813,30757
32788,31821,30768
32824,31829,30732
32872,31821,30792
32960,31808,30753
33056,31802,30815
33100,31792,30740
33116,31783,30866
33156,31788,30867
33160,31791,30926
33224,31812,30911
33264,31821,30956
33288,31821,30877
33256,31826,30982
33360,31815,30956
33488,31792,30993
33572,31780,31049
33576,31780,30983
33540,31782,31109
33504,31787,31116
33488,31800,31124
33476,31815,31207
33388,31820,31236
33372,31820,31232
33428,31807,31196
33420,31796,31297
33421,31780,31258
33388,31768,31308
33356,31783,31224
33292,31788,31358
33220,31796,31277
33212,31819,31396
33220,31814,31327
33268,31796,31428
33312,31806,31356
33384,31788,31485
33408,31772,31430
33428,31777,31550
33420,31780,31517
33388,31783,31436
33236,31803,31570
33152,31800,31532
33133,31804,31617
33154,31808,31580
33208,31797,31664
33208,31790,31652
33228,31772,31690
33252,31764,31623
33196,31773,31678
33108,31775,31596
33072,31791,31708
33024,31790,31633
33066,31800,31727
33092,31799,31670
33068,31788,31751
33088,31780,31665
33068,31775,31776
33068,31756,31730
32984,31751,31808
32848,31777,31764
32816,31790,31852
32884,31781,31792
32976,31805,31864
33076,31784,31816
33108,31781,31889
33176,31761,31900
33249,31769,31897
33180,31765,31914
33096,31743,31924
33064,31767,31816
33016,31764,31896
33020,31781,31933
33068,31784,31858
33120,31783,31941
33141,31775,31855
33181,31772,31919
33188,31751,31874
33180,31749,31968
33136,31745,31906
33145,31751,31968
33156,31771,31924
33108,31778,32025
33120,31783,31943
33080,31780,32068
33040,31772,32052
33008,31759,32135
33008,31740,32028
33000,31735,32133
33012,31737,32108
33044,31748,32236
33076,31756,32254
33080,31773,32132
33104,31764,32303
33128,31776,32337
33048,31767,32240
32980,31734,32338
32964,31737,32290
32984,31728,32432
32964,31725,32482
32916,31735,32476
32892,31746,32508
32956,31762,32426
33000,31762,32583
33088,31765,32575
33100,31749,32519
33108,31733,32646
33088,31724,32644
33072,31716,32543
33081,31725,32710
33040,31729,32752
33008,31742,32744
33000,31751,32760
32972,31751,32692
32972,31751,32796
32972,31741,32748
32964,31730,32876
32988,31724,32801
32992,31708,32935
32944,31724,32948
32900,31724,32868
32878,31737,32968
32813,31744,32868
32840,31751,32996
32868,31740,33089
32880,31737,32985
32936,31724,33047
32968,31711,33148
32976,31712,33068
32976,31706,33125
33004,31716,33210
32989,31720,33139
33008,31725,33216
32981,31740,33106
32984,31736,33232
32984,31726,33189
33016,31716,33336
32960,31700,33324
32892,31693,33226
32868,31696,33360
32880,31701,33413
32904,31717,33321
32940,31725,33380
32892,31729,33349
32900,31712,33461
32952,31713,33444
32992,31707,33401
32965,31690,33557
32984,31690,33572
32956,31686,33464
32884,31688,33550
32837,31704,33500
32876,31712,33588
32924,31719,33540
32916,31713,33639
32928,31709,33656
32976,31690,33728
32993,31685,33709
32972,31666,33784
32936,31680,33792
32920,31684,33839
32952,31690,33849
32960,31704,33737
32928,31718,33861
32942,31704,33768
33004,31698,33870
33012,31684,33809
32960,31671,33888
32976,31668,33844
33028,31660,33967
33064,31668,33879
33056,31688,33988
33080,31696,33948
33104,31701,34001
33132,31696,33956
33158,31697,34078
33200,31681,34022
33196,31672,34132
33192,31661,34140
33140,31662,34134
33068,31668,34192
33000,31670,34191
32976,31687,34212
32952,31695,34178
33016,31689,34240
33052,31679,34151
33072,31649,34228
33120,31652,34209
33012,31647,34249
32832,31650,34256
32632,31652,34285
32444,31669,34308
32253,31689,34305
32108,31692,34264
31944,31697,34310
31756,31689,34328
31488,31678,34180
31208,31660,34296
31068,31644,34192
30932,31665,34335
30768,31670,34188
30552,31679,34277
30212,31698,34201
30184,31701,34277
30568,31701,34196
31460,31674,34333
32696,31647,34327
33844,31639,34340
34784,31623,34268
35476,31609,34311
35752,31628,34223
35764,31636,34304
35764,31646,34188
35732,31645,34255
35492,31649,34201
35092,31632,34280
34588,31632,34324
34180,31622,34167
33804,31609,34332
33528,31616,34308
33288,31628,34173
33108,31636,34236
32993,31642,34175
32896,31648,34304
32844,31635,34284
32812,31645,34264
32820,31625,34233
32900,31612,34176
32876,31613,34188
32828,31605,34060
32800,31616,34159
32732,31623,34026
32656,31634,34167
32637,31647,34129
32549,31634,34104
32548,31636,34081
32548,31621,34063
32608,31598,34030
32714,31604,34021
32680,31597,33990
32720,31598,33836
32684,31623,33916
32676,31636,33768
32684,31636,33865
32668,31633,33853
32676,31623,33837
32700,31605,33670
32700,31588,33700
32668,31591,33608
32664,31597,33648
32656,31600,33573
32632,31596,33609
32576,31623,33520
32624,31629,33598
32692,31618,33516
32676,31605,33590
32636,31604,33522
32692,31591,33564
32660,31586,33526
32633,31574,33369
32632,31593,33406
32620,31589,33401
32632,31617,33413
32596,31612,33324
32580,31612,33311
32612,31588,33169
32632,31594,33200
32628,31580,33080
32588,31565,33121
32596,31583,33024
32596,31574,33044
32602,31584,32972
32564,31601,33016
32536,31605,32964
32524,31609,32831
32532,31593,32877
32536,31582,32868
32528,31568,32815
32504,31566,32760
32516,31566,32721
32492,31569,32585
32441,31588,32626
32416,31596,32592
32400,31599,32472
32400,31596,32480
32400,31581,32293
32464,31569,32336
32512,31550,32364
32504,31548,32216
32460,31554,32243
32416,31556,32076
32364,31573,32129
32332,31582,32084
32357,31586,31940
32380,31585,31984
32356,31574,31844
32344,31558,31918
32372,31551,31747
32348,31540,31796
32308,31534,31660
32268,31549,31700
32248,31568,31708
32233,31581,31639
32196,31584,31520
32176,31578,31541
32140,31570,31419
32160,31552,31461
32156,31537,31429
32150,31535,31328
32132,31535,31336
32100,31533,31179
32068,31557,31228
32032,31564,31093
32020,31574,31144
32000,31564,31144
32009,31562,30989
32016,31548,31060
32012,31528,31028
32000,31520,30992
31993,31517,30844
32014,31537,30900
32004,31544,30868
32020,31558,30776
32047,31565,30755
32084,31552,30646
32144,31532,30702
32182,31540,30664
32240,31532,30572
32278,31516,30577
32308,31513,30460
32296,31524,30488
32304,31538,30349
32340,31546,30404
32404,31545,30327
32484,31541,30340
32524,31540,30214
32592,31517,30271
32716,31511,30136
32758,31506,30229
32828,31501,30190
32912,31508,30164
32960,31516,30106
33016,31524,29972
33100,31535,30032
33145,31532,29946
33204,31525,30008
33284,31513,29958
33344,31494,29842
33384,31488,29868
33432,31490,29760
33464,31495,29808
33496,31501,29698
33540,31521,29757
33576,31537,29700
33605,31525,29716
33636,31509,29633
33708,31495,29656
33724,31476,29597
33724,31463,29569
33722,31476,29468
33692,31488,29533
33701,31495,29512
33662,31508,29390
33612,31509,29437
33630,31508,29336
33648,31509,29405
33645,31488,29376
33644,31479,29280
33616,31473,29321
33568,31461,29217
33508,31477,29297
33524,31484,29268
33501,31484,29175
33464,31511,29220
33429,31501,29130
33420,31492,29182
33428,31473,29129
33460,31461,29142
33492,31453,29054
33509,31453,29100
33508,31468,29012
33484,31476,29037
33437,31488,28947
33428,31489,29005
33432,31494,28908
33456,31487,28964
33436,31471,28956
33416,31449,28949
33445,31449,28920
33448,31453,28908
33372,31465,28844
33340,31476,28872
33253,31484,28871
33225,31490,28788
33232,31489,28802
33224,31487,28792
33248,31468,28749
33236,31453,28775
33256,31442,28762
33250,31453,28740
33205,31457,28729
33184,31465,28713
33140,31469,28701
33128,31468,28666
33156,31471,28665
33173,31468,28598
33196,31451,28624
33212,31444,28584
33236,31445,28560
33230,31439,28564
33220,31441,28497
33174,31456,28540
33196,31476,28468
33160,31479,28525
33136,31471,28485
33172,31455,28508
33148,31453,28470
33120,31430,28485
33112,31428,28484
33088,31433,28476
33072,31428,28457
33036,31442,28390
33032,31460,28437
33052,31458,28383
33076,31463,28440
33089,31436,28417
33128,31436,28444
33185,31420,28432
33188,31419,28424
33156,31428,28383
33140,31425,28423
33120,31447,28412
33076,31452,28370
33124,31460,28401
33148,31455,28324
33176,31444,28376
33128,31428,28316
33168,31422,28368
33168,31416,28329
33128,31409,28364
33132,31421,28300
33100,31428,28334
33124,31445,28276
33140,31453,28328
33140,31438,28261
33156,31438,28324
33168,31418,28292
33184,31417,28316
33188,31408,28269
33168,31412,28300
33116,31414,28268
33072,31428,28260
33012,31441,28271
33016,31441,28217
33016,31424,28261
33016,31433,28205
33054,31421,28256
33036,31403,28271
32988,31390,28209
32968,31393,28252
32920,31399,28253
32888,31415,28244
32868,31427,28224
32856,31422,28240
32872,31421,28237
32900,31409,28180
32920,31389,28208
32932,31388,28192
32956,31380,28184
32956,31381,28196
32916,31399,28174
32864,31408,28207
32832,31422,28184
32828,31428,28133
32857,31428,28167
32900,31412,28159
32952,31405,28164
32972,31391,28148
33004,31383,28114
33052,31381,28128
33112,31391,28068
33096,31404,28135
33056,31413,28062
33021,31420,28117
33044,31408,28100
33072,31404,28069
33065,31396,28108
33040,31383,28108
33000,31367,28052
32936,31372,28036
32912,31383,28087
32880,31400,28065
32877,31407,28101
32880,31412,28092
32872,31412,28063
32892,31404,28104
32920,31372,28095
32920,31364,28101
32892,31364,28098
32917,31357,28130
32924,31375,28086
32924,31380,28141
32909,31396,28113
32940,31401,28135
32972,31398,28101
32960,31396,28156
32956,31381,28156
32916,31367,28140
32896,31352,28165
32876,31359,28152
32848,31365,28198
32816,31373,28191
32804,31397,28218
32792,31391,28224
32836,31393,28167
32825,31375,28236
32860,31375,28222
32873,31356,28232
32865,31349,28256
32868,31348,28218
32876,31364,28285
32860,31370,28317
32892,31384,28335
32924,31397,28334
32946,31393,28284
33030,31380,28373
33048,31365,28374
33032,31350,28359
32932,31340,28436
32672,31356,28458
32384,31360,28402
32188,31366,28468
32068,31381,28445
31964,31388,28516
31804,31388,28500
31584,31388,28576
31304,31377,28597
31084,31367,28572
30944,31360,28631
30729,31356,28628
30460,31358,28687
30040,31399,28652
29732,31401,28718
29920,31413,28714
30688,31409,28756
31884,31382,28740
33224,31367,28824
34268,31341,28833
35080,31332,28869
35524,31327,28828
35616,31333,28916
35624,31345,28952
35557,31354,28997
35400,31367,29023
35056,31365,29029
34620,31361,28999
34192,31353,29094
33828,31335,29089
33528,31333,29112
33284,31342,29177
33109,31340,29156
32932,31359,29196
32804,31367,29254
32732,31374,29220
32692,31367,29292
32660,31357,29318
32704,31349,29296
32688,31334,29372
32676,31332,29308
32676,31321,29389
32600,31333,29329
32504,31343,29444
32420,31356,29460
32416,31352,29479
32414,31357,29481
32432,31364,29520
32480,31342,29447
32516,31340,29533
32492,31328,29480
32444,31331,29556
32444,31335,29500
32376,31345,29588
32400,31356,29582
32420,31360,29639
32436,31367,29556
32432,31342,29665
32476,31336,29703
32548,31329,29715
32580,31316,29682
32628,31309,29727
32617,31329,29774
32548,31340,29768
32552,31354,29702
32542,31357,29828
32544,31349,29780
32604,31352,29865
32624,31340,29830
32593,31333,29948
32596,31319,29943
32584,31317,29978
32568,31329,29950
32564,31340,30041
32512,31350,30077
32512,31357,30100
32508,31350,30086
32480,31348,30032
32472,31328,30160
32476,31324,30158
32436,31318,30210
32420,31309,30196
32356,31333,30256
32288,31332,30256
32256,31348,30293
32220,31350,30300
32276,31353,30264
32300,31346,30329
32317,31328,30237
32320,31319,30343
32292,31304,30274
32224,31316,30396
32148,31319,30340
32080,31333,30406
32026,31343,30373
31969,31352,30456
31888,31358,30418
31868,31337,30480
31876,31323,30441
31909,31316,30509
31956,31306,30537
32052,31298,30533
32126,31325,30432
32220,31333,30516
32224,31345,30432
32252,31332,30536
32284,31340,30456
32288,31334,30556
32292,31325,30492
32292,31308,30578
32276,31302,30520
32192,31304,30616
32108,31318,30630
32056,31327,30604
32040,31342,30629
31984,31345,30601
31952,31333,30690
31938,31335,30652
31960,31330,30656
31984,31314,30694
32008,31313,30607
32004,31302,30727
31960,31325,30668
31929,31321,30766
31872,31333,30740
31864,31343,30792
31856,31341,30745
31840,31336,30823
31888,31319,30725
31888,31305,30820
31897,31296,30822
31936,31297,30871
31949,31305,30826
31928,31312,30890
31952,31312,30888
31994,31340,30901
31994,31340,30884
31992,31331,30865
32060,31319,30909
32140,31305,30869
32224,31300,30944
32336,31294,30847
32356,31307,30965
32400,31317,30864
32437,31321,30982
32452,31329,30911
32524,31326,31018
32600,31324,30920
32729,31307,31058
32784,31300,30973
32780,31279,31062
32820,31286,30959
32852,31295,31077
32877,31308,31072
32940,31318,31153
33008,31325,31148
33056,31321,31028
33112,31311,31157
33140,31300,31196
33172,31302,31124
33248,31288,31188
33268,31289,31121
33284,31288,31239
33292,31303,31254
33348,31309,31258
33389,31324,31188
33368,31322,31239
33336,31313,31204
33332,31301,31292
33364,31288,31186
33448,31272,31312
33440,31284,31277
33392,31284,31352
33364,31297,31292
33356,31317,31384
33376,31312,31429
33316,31327,31340
33264,31309,31440
33184,31300,31360
33152,31288,31462
33152,31282,31534
33212,31276,31495
33268,31288,31552
33304,31301,31438
33314,31295,31564
33312,31319,31489
33340,31309,31616
33308,31309,31532
33248,31303,31649
33172,31287,31556
33096,31276,31656
33081,31269,31604
33152,31289,31702
33205,31300,31616
33256,31312,31782
33276,31320,31776
33356,31314,31821
33436,31310,31844
33422,31295,31751
33376,31281,31844
33349,31269,31764
33352,31276,31879
33324,31283,31798
33296,31301,31934
33220,31295,31944
33168,31327,31981
33120,31308,31944
33084,31301,31982
33125,31277,32031
33180,31278,31932
33208,31279,32014
33256,31281,31932
33236,31280,32040
33204,31303,31948
33208,31310,32058
33204,31316,31998
33200,31324,32097
33228,31308,32024
33264,31301,32150
33232,31276,32164
33248,31276,32202
33197,31280,32222
33192,31278,32140
33176,31303,32236
33173,31295,32260
33172,31318,32270
33152,31308,32292
33164,31308,32301
33156,31293,32216
33133,31271,32273
33108,31269,32209
33088,31271,32303
33084,31276,32236
33108,31275,32337
33172,31306,32309
33208,31308,32376
33204,31318,32312
33228,31307,32453
33220,31295,32340
33160,31284,32464
33077,31268,32396
33004,31264,32528
32976,31273,32460
32948,31276,32556
32945,31288,32439
32956,31308,32551
32976,31304,32485
33033,31297,32570
33062,31287,32509
33088,31277,32652
33092,31268,32684
33069,31266,32590
33012,31276,32636
32948,31293,32576
32908,31304,32708
32876,31309,32636
32852,31303,32732
32812,31288,32604
32828,31291,32724
32864,31274,32615
32864,31264,32727
32856,31268,32644
32816,31276,32754
32796,31285,32669
32752,31298,32758
32720,31308,32708
32720,31308,32775
32741,31303,32737
32748,31285,32748
32784,31266,32696
32808,31269,32768
32812,31260,32774
32800,31268,32768
32824,31277,32764
32772,31293,32762
32716,31305,32760
32756,31302,32766
32756,31301,32749
32792,31284,32633
32904,31268,32677
32896,31256,32612
32952,31260,32702
32972,31270,32616
32968,31276,32670
32936,31284,32580
32884,31300,32676
32844,31305,32575
32872,31292,32668
32880,31277,32712
32880,31269,32695
32916,31265,32614
32964,31248,32669
32957,31268,32602
32940,31281,32684
32876,31293,32564
32828,31294,32642
32844,31297,32640
32904,31292,32533
32981,31272,32580
33008,31263,32500
33037,31261,32584
33056,31248,32526
33016,31264,32605
32996,31272,32568
32980,31285,32612
32932,31295,32597
32884,31296,32481
32880,31287,32532
32920,31276,32444
33016,31264,32568
33056,31258,32556
33068,31256,32553
33076,31264,32528
33052,31271,32484
33000,31287,32376
32976,31290,32484
32981,31293,32377
32992,31292,32462
33008,31277,32371
33032,31260,32484
33021,31252,32472
33032,31257,32348
33064,31260,32401
33032,31282,32318
32968,31292,32341
32944,31303,32382
32976,31294,32384
33004,31287,32296
32960,31277,32308
33017,31261,32229
33056,31258,32278
33044,31239,32201
32984,31263,32308
32952,31273,32260
32841,31274,32152
32706,31300,32219
32548,31300,32193
32440,31293,32058
32324,31280,32116
32196,31268,32002
32040,31263,32080
31760,31260,32021
31398,31284,32038
31048,31286,32008
30797,31308,31900
30562,31320,31892
30364,31321,31790
30204,31313,31887
29936,31300,31879
29900,31300,31836
30316,31288,31668
31268,31280,31772
32500,31269,31668
33624,31272,31736
34556,31278,31621
35188,31292,31693
35392,31286,31591
35516,31280,31652
35592,31266,31516
35592,31252,31588
35332,31239,31484
34832,31249,31572
34376,31262,31453
33936,31276,31520
33576,31293,31417
33284,31305,31468
33090,31300,31409
32985,31295,31428
32912,31278,31352
32868,31264,31425
32814,31256,31347
32764,31260,31384
32712,31257,31297
32660,31284,31308
32584,31292,31297
32548,31302,31172
32544,31300,31228
32580,31300,31132
32620,31278,31192
32654,31261,31076
32632,31260,31160
32596,31266,31026
32590,31269,31108
32576,31273,30972
32532,31292,31049
32488,31303,30928
32504,31303,31004
32568,31292,30884
32600,31276,30977
32664,31264,30980
32700,31263,30837
32728,31254,30881
32700,31267,30789
32652,31271,30865
32632,31284,30812
32616,31303,30852
32600,31300,30848
32592,31288,30714
32584,31277,30804
32620,31274,30837
32688,31257,30820
32712,31265,30828
32700,31264,30813
32684,31276,30805
32676,31292,30700
32640,31300,30760
32622,31296,30668
32628,31277,30776
32652,31280,30759
32676,31268,30624
32672,31258,30719
32640,31254,30645
32588,31269,30712
32512,31276,30703
32504,31288,30612
32492,31300,30664
32524,31293,30587
32496,31296,30624
32468,31277,30512
32460,31264,30588
32480,31257,30484
32524,31255,30565
32480,31264,30524
32428,31276,30561
32328,31288,30511
32296,31297,30524
32264,31296,30530
32316,31290,30505
32312,31274,30413
32257,31269,30447
32304,31252,30332
32280,31239,30424
32236,31272,30361
32192,31284,30413
32148,31298,30281
32136,31302,30357
32148,31301,30236
32108,31297,30321
32112,31287,30282
32109,31252,30321
32088,31261,30254
32052,31260,30172
32001,31264,30176
31972,31285,30220
31960,31298,30189
31932,31300,30073
31908,31302,30140
31916,31289,30052
31920,31289,30136
31909,31266,30100
31888,31261,30033
31896,31255,30045
31860,31271,29938
31836,31284,30028
31836,31295,30004
31808,31300,29940
31820,31296,29972
31824,31300,29924
31780,31281,29953
31804,31263,29837
31836,31264,29916
31852,31270,29813
31792,31275,29879
31744,31285,29833
31752,31296,29892
31736,31300,29849
31760,31300,29796
31804,31295,29865
31856,31279,29837
31928,31269,29744
31948,31261,29817
31940,31268,29812
31954,31266,29721
31964,31281,29763
31968,31298,29671
31996,31303,29736
32024,31300,29668
32096,31293,29725
32172,31281,29692
32272,31261,29733
32348,31259,29716
32416,31250,29660
32480,31257,29674
32492,31274,29652
32532,31290,29647
32572,31289,29684
32613,31293,29632
32640,31293,29656
32688,31264,29575
32772,31261,29637
32856,31254,29548
32936,31248,29644
32980,31252,29645
33016,31268,29548
33029,31284,29612
33092,31284,29540
33100,31294,29634
33136,31276,29573
33168,31279,29632
33224,31268,29604
33196,31252,29644
33204,31257,29593
33204,31255,29648
33220,31276,29575
33216,31288,29643
33300,31276,29565
33328,31292,29657
33317,31284,29580
33360,31269,29677
33392,31254,29624
33440,31253,29736
33384,31252,29729
33326,31253,29763
33256,31260,29780
33164,31276,29799
33124,31282,29799
33136,31285,29708
33128,31278,29845
33176,31271,29844
33224,31254,29772
33220,31261,29904
33252,31259,29895
33228,31268,29881
33236,31272,29914
33288,31280,29981
33356,31290,30010
33381,31296,29942
33408,31276,30004
33428,31272,30054
33352,31261,29997
33304,31255,30111
33268,31245,30116
33232,31261,30141
33236,31276,30202
33184,31289,30145
33180,31297,30297
33196,31285,30335
33200,31285,30260
33188,31266,30408
33168,31268,30460
33152,31260,30433
33088,31253,30500
33020,31253,30452
32976,31268,30590
32980,31272,30629
32954,31280,30702
33012,31287,30716
33088,31277,30653
33185,31273,30793
33200,31268,30768
33208,31252,30896
33175,31255,30940
33160,31260,30849
33140,31263,30997
33128,31279,30999
33150,31284,31101
33140,31280,31149
33096,31281,31074
33080,31273,31212
33048,31260,31156
33028,31239,31320
33020,31244,31386
32976,31248,31295
32940,31263,31470
32960,31269,31480
32981,31288,31564
33021,31288,31538
33020,31278,31641
33028,31269,31709
33048,31260,31780
33040,31246,31828
33038,31250,31798
32996,31256,31889
32984,31264,31833
33020,31280,32038
33004,31287,32061
32980,31288,32149
32932,31278,32176
32912,31260,32108
32856,31252,32244
32860,31236,32200
32860,31252,32344
32828,31260,32343
32800,31269,32453
32860,31278,32450
32968,31291,32545
33004,31284,32525
32956,31290,32628
32988,31268,32630
32980,31249,32746
32990,31248,32718
32984,31255,32841
33024,31260,32805
33052,31268,32952
33040,31277,32892
33048,31281,33068
33085,31284,33053
33096,31277,33181
33024,31270,33204
32948,31254,33324
32885,31239,33345
32817,31239,33308
32768,31263,33464
32800,31261,33414
32836,31280,33600
32904,31288,33654
32932,31289,33709
32920,31276,33760
32928,31268,33796
32976,31260,33721
33000,31254,33776
33016,31252,33949
32992,31255,34033
32932,31264,33940
32896,31285,34073
32840,31282,34037
32788,31287,34216
32752,31272,34268
32777,31265,34357
32892,31256,34392
32940,31248,34444
32882,31245,34455
32848,31255,34559
32840,31268,34620
32790,31287,34657
32772,31288,34717
32836,31292,34624
32852,31281,34743
32924,31271,34702
32928,31260,34878
32964,31254,34917
33016,31253,34855
33040,31257,35000
32988,31269,34928
32913,31284,35100
32888,31294,35204
32964,31289,35076
33060,31281,35192
33176,31277,35240
33188,31264,35360
33200,31257,35421
33232,31258,35296
33173,31271,35476
33052,31270,35407
33060,31277,35575
33052,31291,35565
33032,31295,35680
33044,31292,35724
33016,31269,35764
33008,31260,35847
32961,31257,35689
32917,31248,35831
32828,31260,35880
32789,31270,35953
32828,31285,36020
32868,31302,36056
32964,31296,36008
33010,31284,35980
33064,31268,36100
33124,31260,36103
33140,31255,36252
33084,31254,36316
32992,31253,36181
32832,31268,36325
32708,31288,36409
32712,31297,36256
32777,31286,36478
32892,31294,36428
33004,31283,36441
33076,31260,36574
33144,31260,36600
33168,31260,36568
33181,31266,36685
33160,31276,36676
33008,31285,36743
32948,31294,36632
32900,31298,36798
32944,31294,36829
33057,31281,36740
33088,31260,36885
33040,31254,36812
32935,31239,36885
32792,31268,36957
32633,31279,36912
32413,31301,36849
32292,31302,36840
32168,31306,37049
32008,31300,36967
31772,31286,37100
31472,31286,36919
31200,31273,37100
30972,31280,37164
30820,31282,36968
30612,31307,37077
30268,31302,37148
30008,31328,37230
30136,31332,37152
30804,31315,37192
31972,31284,37270
33240,31284,37188
34240,31267,37200
35068,31253,37312
35532,31258,37348
35668,31269,37208
35608,31290,37364
35576,31296,37406
35416,31293,37376
35132,31286,37424
34660,31285,37217
34180,31272,37326
33744,31279,37404
33420,31268,37249
33236,31287,37447
33096,31279,37287
33056,31300,37365
33004,31309,37348
32961,31308,37383
32912,31301,37332
32840,31300,37436
32773,31281,37378
32716,31268,37520
32684,31278,37456
32664,31284,37431
32616,31300,37544
32560,31312,37468
32533,31320,37412
32566,31324,37404
32588,31300,37423
32620,31290,37448
32628,31286,37532
32616,31282,37476
32604,31280,37485
32580,31288,37332
32560,31301,37416
32508,31327,37396
32458,31327,37501
32428,31319,37519
32416,31318,37504
32360,31314,37398
32384,31300,37380
32468,31293,37487
32500,31292,37392
32469,31300,37408
32480,31304,37476
32416,31327,37440
32400,31343,37336
32380,31332,37468
32376,31328,37511
32408,31312,37340
32424,31315,37458
32464,31306,37485
32450,31302,37245
32433,31308,37320
32416,31322,37337
32352,31338,37397
32328,31347,37389
32344,31348,37285
32364,31345,37352
32408,31327,37264
32432,31329,37332
32440,31311,37189
32472,31311,37264
32428,31319,37264
32356,31324,37078
32288,31354,37174
32252,31367,36956
32260,31361,36999
32288,31357,36938
32316,31353,36946
32320,31336,36833
32324,31335,36895
32304,31330,36940
32320,31335,36904
32296,31352,36849
32240,31368,36680
32132,31381,36760
32064,31388,36588
32104,31373,36660
32164,31372,36568
32168,31352,36613
32208,31343,36588
32288,31343,36352
32304,31348,36480
32288,31377,36232
32304,31380,36263
32292,31392,36136
32276,31389,36166
32264,31389,36120
32244,31380,36148
32240,31373,36094
32252,31364,35885
32264,31361,35975
32308,31375,35864
32288,31383,35696
32276,31401,35753
32228,31415,35751
32180,31405,35524
32132,31408,35524
32108,31407,35408
32135,31394,35408
32108,31376,35276
32117,31386,35335
32116,31397,35236
32116,31409,35220
32077,31420,35036
32056,31439,35063
32036,31444,34896
32009,31420,34928
32024,31413,34760
32072,31393,34824
32084,31407,34641
32088,31413,34640
32088,31422,34544
32108,31439,34592
32088,31463,34513
32084,31461,34488
32096,31465,34436
32128,31458,34244
32148,31449,34230
32196,31442,34140
32216,31422,34177
32252,31426,34116
32260,31441,34084
32220,31456,34000
32268,31454,33816
32300,31487,33880
32284,31487,33760
32352,31480,33805
32448,31469,33762
32528,31460,33572
32600,31452,33653
32680,31457,33476
32736,31468,33572
32808,31476,33399
32820,31492,33396
32858,31502,33255
32880,31516,33361
32960,31503,33328
33056,31493,33159
33172,31490,33177
33245,31487,33037
33240,31482,33102
33244,31493,32980
33280,31509,33045
33317,31524,32996
33320,31532,32976
33344,31524,32900
33400,31537,32769
33432,31531,32804
33480,31517,32652
33528,31502,32705
33572,31515,32588
33612,31526,32646
33580,31534,32528
33552,31559,32581
33540,31559,32465
33496,31563,32496
33484,31565,32455
33484,31557,32481
33532,31540,32431
33576,31550,32280
33548,31536,32316
33504,31549,32229
33472,31572,32286
33440,31584,32263
33424,31591,32097
33436,31601,32136
33444,31588,32044
33492,31585,32082
33548,31577,31970
33604,31564,32032
33620,31577,31896
33568,31583,31950
33536,31603,31860
33488,31613,31936
33430,31628,31893
33412,31637,31820
33424,31628,31856
33456,31620,31760
33432,31613,31788
33412,31606,31694
33400,31604,31741
33392,31612,31654
33320,31629,31619
33300,31649,31653
33252,31652,31628
33212,31675,31478
33197,31669,31568
33248,31661,31537
33268,31649,31405
33244,31639,31463
33248,31652,31384
33264,31657,31364
33208,31656,31372
33156,31694,31367
33120,31692,31349
33100,31703,31304
33092,31704,31213
33104,31694,31204
33108,31684,31092
33116,31686,31191
33089,31670,31143
33080,31692,31007
33056,31710,31089
33024,31721,31052
33010,31732,30989
33020,31742,30982
32972,31733,30856
33004,31732,30966
33020,31727,30944
33012,31719,30796
32992,31716,30876
32956,31728,30871
32904,31746,30860
32856,31762,30828
32864,31780,30740
32876,31789,30776
32884,31781,30760
32928,31766,30727
33008,31771,30721
33076,31760,30671
33060,31756,30703
33040,31764,30677
33012,31783,30612
32976,31801,30624
32952,31812,30512
32968,31812,30616
33012,31824,30620
33044,31814,30538
33008,31801,30556
33012,31807,30477
33048,31796,30565
33020,31813,30552
33032,31831,30494
33048,31844,30534
32992,31856,30414
32984,31869,30504
33000,31863,30508
32960,31850,30438
32912,31845,30470
32879,31840,30369
32872,31846,30470
32856,31854,30450
32832,31869,30344
32784,31885,30455
32784,31903,30436
32788,31901,30412
32776,31893,30367
32788,31900,30447
32856,31876,30406
32880,31884,30348
32880,31887,30350
32860,31905,30381
32864,31914,30406
32908,31927,30381
32888,31943,30300
32885,31946,30397
32952,31946,30378
32984,31940,30276
33020,31933,30389
33068,31924,30345
33064,31930,30260
32992,31937,30337
32956,31952,30249
32944,31973,30343
32944,31983,30344
33004,31976,30236
33053,31988,30326
33028,31985,30268
33080,31974,30339
33148,31974,30314
33121,31974,30213
33049,31977,30292
32956,31996,30286
32868,32007,30312
32856,32028,30302
32872,32036,30212
32944,32032,30292
33020,32005,30192
33080,32016,30267
33088,32012,30236
33104,32015,30190
33116,32020,30252
33060,32041,30214
33069,32060,30267
33068,32066,30253
33047,32064,30161
33049,32078,30254
33086,32068,30238
33077,32067,30140
33052,32040,30209
33020,32064,30244
32984,32070,30126
32920,32081,30241
32896,32100,30208
32948,32109,30149
32988,32120,30224
32985,32111,30215
33018,32116,30156
33066,32100,30199
33048,32092,30132
33068,32088,30200
33040,32111,30117
32992,32128,30177
32978,32142,30097
32956,32156,30173
32948,32164,30119
32980,32164,30180
33028,32153,30151
33052,32148,30052
33096,32143,30132
33088,32142,30036
33036,32156,30113
32892,32168,30030
32732,32191,30093
32632,32204,30092
32516,32207,30116
32428,32199,30088
32320,32197,29984
32104,32192,30065
31788,32200,30052
31440,32205,29958
31061,32216,30041
30800,32237,29985
30520,32231,30044
30320,32252,30016
30033,32254,30033
29644,32284,29932
29576,32286,29991
30059,32232,29957
31104,32229,29991
32437,32229,29933
33692,32248,29986
34597,32252,29925
35204,32261,29964
35476,32274,29865
35532,32270,29935
35572,32280,29868
35618,32263,29929
35408,32253,29916
34952,32252,29922
34504,32263,29921
34072,32285,29836
33716,32296,29892
33383,32317,29810
33140,32325,29885
32976,32332,29824
32876,32327,29863
32840,32313,29772
32812,32313,29832
32824,32309,29760
32788,32301,29834
32772,32322,29774
32777,32337,29809
32751,32356,29749
32697,32365,29784
32672,32375,29721
32608,32373,29776
32580,32352,29729
32576,32351,29761
32572,32351,29717
32560,32353,29734
32544,32367,29648
32548,32374,29688
32516,32388,29620
32460,32404,29677
32440,32414,29629
32412,32406,29652
32428,32397,29604
32468,32397,29630
32502,32381,29614
32504,32381,29525
32528,32401,29586
32504,32410,29508
32504,32432,29568
32522,32444,29516
32544,32431,29583
32560,32440,29551
32628,32432,29492
32668,32430,29564
32716,32420,29561
32720,32420,29568
32696,32428,29575
32652,32432,29569
32548,32461,29501
32452,32479,29552
32420,32468,29517
32412,32476,29583
32436,32470,29546
32496,32461,29588
32514,32455,29605
32512,32448,29588
32496,32469,29620
32448,32487,29609
32392,32508,29573
32408,32509,29631
32420,32515,29624
32428,32514,29589
32440,32505,29668
32476,32493,29660
32465,32488,29628
32456,32497,29697
32416,32508,29661
32352,32519,29732
32284,32517,29751
32228,32557,29752
32212,32556,29782
32204,32551,29792
32248,32541,29728
32296,32524,29806
32312,32524,29769
32300,32527,29849
32312,32539,29877
32332,32548,29813
32288,32575,29919
32212,32584,29932
32170,32588,29896
32164,32586,29952
32160,32577,29908
32170,32562,30003
32188,32560,29972
32192,32561,30060
32152,32577,30056
32141,32564,30010
32132,32607,30105
32096,32618,30047
32060,32623,30156
32064,32617,30112
32088,32606,30222
32104,32597,30231
32124,32590,30199
32092,32593,30276
32064,32601,30228
31994,32617,30328
31904,32633,30270
31836,32638,30344
31816,32649,30392
31780,32646,30396
31800,32644,30466
31904,32623,30471
31928,32620,30520
31888,32623,30540
31848,32630,30577
31828,32644,30569
31788,32661,30600
31764,32665,30617
31700,32669,30675
31724,32668,30680
31793,32656,30648
31972,32647,30716
32136,32637,30660
32232,32655,30772
32356,32654,30788
32432,32665,30758
32440,32685,30828
32464,32690,30772
32436,32687,30885
32444,32688,30856
32524,32685,30966
32604,32676,30900
32676,32671,30989
32754,32669,30980
32789,32676,31047
32760,32696,30988
32732,32701,31084
32736,32721,31072
32728,32725,31153
32772,32708,31085
32840,32705,31193
32948,32695,31142
33040,32689,31245
33064,32695,31173
33132,32700,31292
33228,32718,31238
33274,32733,31360
33280,32738,31344
33308,32737,31453
33332,32744,31489
33390,32734,31511
33452,32719,31547
33464,32713,31528
33448,32709,31593
33480,32723,31541
33524,32732,31654
33568,32761,31658
33572,32771,31740
33496,32775,31737
33417,32766,31738
33400,32751,31838
33440,32741,31777
33396,32739,31889
33360,32732,31948
33381,32736,31951
33380,32756,32022
33432,32774,32034
33464,32784,31969
33440,32784,32081
33452,32783,32023
33454,32772,32135
33476,32763,32129
33472,32759,32173
33480,32736,32229
33469,32773,32216
33452,32788,32336
33413,32799,32350
33324,32806,32272
33308,32813,32417
33264,32812,32404
33224,32805,32509
33212,32775,32457
33236,32775,32580
33276,32783,32612
33236,32789,32556
33152,32808,32644
33142,32804,32628
33106,32820,32656
33096,32817,32768
33132,32826,32684
33149,32804,32836
33156,32796,32896
33084,32802,32880
33048,32790,32951
33044,32800,32940
33040,32811,33002
33076,32836,32964
33132,32833,33074
33120,32843,33108
33108,32836,33129
33100,32829,33045
33069,32824,33153
33040,32812,33088
33040,32815,33208
32976,32820,33188
32992,32834,33257
32984,32842,33191
32992,32853,33341
33056,32859,33276
33084,32849,33375
33084,32840,33439
33092,32830,33443
33152,32836,33392
33124,32829,33516
33037,32832,33452
32948,32849,33516
32900,32861,33448
32836,32876,33588
32876,32876,33509
32952,32879,33646
33048,32868,33568
33132,32851,33672
33172,32851,33596
33152,32832,33733
33068,32850,33720
32945,32862,33808
32833,32885,33813
32770,32892,33880
32724,32889,33856
32780,32892,33817
32920,32873,33898
33036,32869,33832
33088,32860,33964
33184,32866,33887
33248,32869,34063
33192,32881,34076
33128,32892,34034
33044,32903,34113
32988,32903,34151
32964,32903,34197
32956,32903,34200
32916,32887,34116
32940,32884,34223
32957,32876,34301
32936,32869,34309
32944,32900,34332
32960,32909,34292
33012,32917,34412
33004,32914,34412
33010,32919,34311
33052,32916,34468
33096,32902,34393
33088,32891,34533
33068,32893,34556
32984,32901,34580
32936,32918,34588
32888,32924,34580
32856,32943,34597
32872,32940,34512
32912,32935,34612
32976,32924,34596
33080,32916,34716
33188,32913,34617
33182,32914,34725
33160,32924,34656
33184,32932,34820
33180,32948,34708
33156,32961,34852
33128,32958,34765
33112,32941,34861
33128,32951,34887
33144,32936,34888
33140,32924,34908
33116,32916,34840
33140,32935,34902
33092,32940,34823
33076,32959,34972
33080,32974,34993
33092,32982,34912
33052,32968,34980
33072,32956,34852
33148,32932,34945
33124,32930,34886
33093,32924,34967
33120,32948,34893
33104,32967,35044
33100,32980,34997
33156,32991,34908
33112,32999,35057
33109,32984,35049
33156,32982,35032
33204,32956,35012
33220,32964,34913
33216,32968,35045
33168,32978,34936
33112,32981,35060
33032,32999,35016
33024,32992,34916
32988,33012,35052
32980,33010,35033
32996,32996,34912
33004,32989,34963
33056,32965,34888
33048,32988,34951
33068,32998,34861
32992,33000,34965
32968,33004,34860
33012,33028,34966
33008,33031,34951
32984,33031,34810
32992,33025,34897
33020,33009,34790
33000,32994,34836
33000,33006,34718
32936,33013,34774
32728,33031,34695
32544,33030,34741
32396,33060,34605
32252,33071,34656
32120,33046,34681
31900,33056,34631
31708,33056,34613
31393,33040,34524
31140,33047,34500
30936,33056,34407
30744,33072,34397
30524,33092,34266
30280,33108,34304
30072,33116,34182
30202,33109,34230
30888,33100,34260
32060,33076,34191
33284,33065,34182
34324,33062,34141
35176,33063,34110
35605,33068,34028
35684,33087,34036
35664,33095,33992
35624,33096,33965
35528,33078,33927
35208,33091,33889
34752,33077,33791
34328,33076,33796
33980,33084,33722
33612,33086,33740
33344,33112,33701
33208,33128,33710
33076,33140,33660
32972,33136,33516
32896,33137,33567
32840,33136,33456
32820,33120,33511
32808,33110,33412
32750,33098,33437
32728,33135,33287
32656,33148,33367
32604,33159,33277
32608,33167,33336
32588,33175,33222
32581,33172,33241
32616,33142,33081
32640,33159,33157
32696,33150,33079
32708,33151,33090
32688,33159,33020
32640,33181,33027
32612,33189,32989
32600,33199,32869
32588,33214,32900
32592,33193,32769
32608,33198,32794
32684,33180,32707
32732,33181,32714
32788,33167,32584
32760,33190,32658
32724,33212,32589
32741,33220,32554
32712,33221,32609
32632,33250,32583
32628,33239,32564
32634,33233,32548
32608,33200,32516
32584,33217,32359
32584,33223,32436
32608,33224,32348
32628,33250,32429
32612,33265,32381
32596,33277,32300
32624,33287,32358
32596,33279,32212
32656,33273,32296
32717,33262,32161
32764,33244,32236
32760,33257,32113
32696,33269,32190
32600,33268,32092
32476,33304,32132
32436,33316,32157
32420,33324,32030
32400,33317,32076
32376,33304,32021
32392,33298,32032
32416,33302,31890
32392,33300,31949
32404,33314,31888
32393,33327,31840
32324,33335,31884
32276,33359,31774
32296,33357,31816
32256,33361,31761
32244,33357,31728
32280,33332,31743
32296,33348,31676
32248,33344,31703
32192,33359,31654
32160,33373,31513
32140,33383,31580
32112,33410,31578
32101,33388,31424
32108,33415,31495
32096,33389,31486
32112,33399,31317
32140,33381,31409
32144,33389,31373
32128,33398,31248
32064,33415,31301
31984,33436,31288
31976,33444,31140
31948,33436,31205
31928,33448,31203
31976,33439,31076
32004,33436,31110
32012,33433,31046
31965,33420,31037
31900,33452,31020
31864,33463,31033
31848,33483,30885
31805,33492,30892
31773,33497,30916
31796,33501,30863
31808,33495,30802
31828,33476,30831
31888,33479,30768
31864,33470,30741
31836,33500,30756
31832,33496,30760
31808,33528,30680
31785,33525,30688
31824,33548,30665
31858,33548,30536
31844,33543,30605
31868,33540,30594
31908,33527,30469
31940,33536,30508
32001,33524,30509
32036,33564,30390
32060,33573,30443
32088,33586,30397
32116,33602,30333
32192,33589,30352
32280,33591,30318
32380,33576,30238
32492,33559,30288
32572,33574,30257
32624,33577,30148
32681,33602,30199
32748,33608,30180
32742,33639,30068
32804,33635,30102
32878,33623,30046
32928,33627,30073
33008,33623,30028
33056,33618,29932
33072,33620,29981
33092,33629,29952
33104,33644,29844
33048,33637,29892
33008,33676,29844
33016,33680,29844
33098,33674,29825
33148,33676,29768
33180,33669,29757
33184,33671,29684
33156,33669,29716
33192,33661,29630
33218,33689,29665
33240,33714,29648
33252,33735,29589
33284,33722,29588
33324,33722,29517
33336,33709,29530
33332,33721,29460
33296,33716,29484
33264,33724,29468
33240,33732,29384
33208,33744,29416
33224,33762,29397
33224,33782,29316
33208,33784,29360
33248,33792,29329
33320,33756,29252
33372,33768,29294
33372,33769,29269
33348,33764,29255
33324,33765,29241
33332,33765,29220
33320,33812,29200
33292,33817,29172
33284,33829,29161
33260,33829,29161
33296,33799,29101
33284,33813,29108
33236,33817,29087
33156,33815,29086
33084,33825,29039
33016,33836,29061
32960,33849,29029
32960,33868,29053
32960,33877,29046
32961,33876,29032
32996,33866,29033
33044,33862,28983
33100,33854,29004
33064,33857,28992
32996,33869,28958
32976,33888,28964
33000,33903,28920
33028,33924,28948
33036,33924,28894
33012,33919,28924
32984,33919,28876
32972,33892,28894
32956,33902,28862
32956,33908,28873
32916,33896,28856
32908,33927,28864
32881,33946,28828
32876,33969,28852
32856,33972,28817
32860,33964,28824
32884,33957,28805
32920,33940,28823
32961,33949,28812
32944,33959,28796
32941,33960,28764
32932,33981,28789
32928,33996,28774
32892,34012,28796
32840,34009,28768
32856,34005,28794
32904,34004,28788
32952,33997,28782
32960,33989,28780
32924,33996,28751
32917,33992,28777
32909,34018,28770
32860,34040,28796
32840,34040,28803
32832,34063,28791
32840,34055,28817
32872,34054,28817
32856,34050,28829
32858,34021,28805
32852,34039,28859
32825,34051,28852
32820,34068,28840
32772,34084,28872
32748,34096,28860
32712,34100,28900
32660,34110,28913
32648,34100,28933
32616,34086,28940
32584,34087,28918
32574,34089,28980
32528,34102,28956
32516,34092,29004
32592,34126,28990
32596,34145,29044
32588,34146,29024
32601,34147,29072
32640,34149,29063
32696,34129,29116
32724,34125,29105
32760,34132,29151
32792,34132,29136
32796,34148,29192
32720,34164,29181
32626,34183,29248
32600,34188,29258
32577,34181,29303
32588,34181,29296
32668,34173,29342
32712,34161,29332
32720,34157,29397
32740,34172,29452
32781,34167,29478
32788,34196,29519
32810,34220,29486
32816,34225,29564
32800,34212,29559
32784,34205,29642
32772,34196,29677
32768,34192,29676
32772,34204,29754
32813,34204,29797
32856,34217,29788
32936,34230,29876
32932,34247,29861
32864,34253,29949
32788,34248,29952
32744,34240,30048
32768,34236,30028
32800,34220,30119
32800,34232,30116
32821,34240,30212
32824,34250,30245
32732,34276,30279
32616,34286,30356
32504,34290,30404
32468,34286,30404
32528,34276,30484
32608,34268,30471
32744,34249,30556
32764,34273,30533
32796,34264,30665
32724,34285,30660
32744,34309,30736
32720,34318,30746
32728,34324,30841
32728,34311,30829
32788,34300,30934
32896,34293,30896
33020,34288,31036
32992,34292,31020
32932,34305,31137
32896,34324,31128
32872,34335,31249
32876,34346,31230
32870,34356,31357
32880,34351,31347
32916,34345,31471
32905,34328,31504
32872,34309,31540
32784,34324,31636
32736,34330,31668
32656,34345,31756
32624,34340,31812
32616,34373,31824
32608,34384,31944
32497,34383,31932
32372,34375,32070
32312,34352,32092
32200,34361,32204
32069,34350,32268
31840,34357,32322
31540,34362,32388
31176,34400,32442
30928,34409,32508
30796,34410,32466
30692,34422,32624
30606,34408,32581
30400,34375,32724
30328,34405,32721
30770,34392,32839
31681,34396,32820
32904,34393,32978
34032,34412,32942
34860,34412,33088
35524,34414,33065
35752,34414,33200
35688,34391,33168
35640,34397,33341
35652,34384,33428
35552,34388,33476
35192,34393,33460
34748,34412,33557
34316,34401,33573
33964,34444,33672
33660,34455,33703
33352,34449,33817
33084,34412,33852
32984,34428,33932
32921,34421,33983
32892,34404,33877
32860,34428,34064
32788,34438,34121
32800,34452,34044
32797,34460,34161
32804,34468,34108
32816,34468,34268
32764,34463,34311
32740,34452,34253
32712,34447,34376
32640,34452,34316
32560,34438,34435
32484,34449,34412
32432,34471,34504
32384,34485,34460
32256,34494,34592
32200,34489,34588
32176,34480,34639
32264,34452,34596
32373,34463,34695
32408,34449,34648
32476,34460,34823
32488,34457,34858
32516,34489,34882
32624,34500,34840
32604,34508,34935
32564,34497,34924
32652,34484,35024
32680,34472,35055
32660,34440,34985
32568,34470,35104
32520,34479,35144
32556,34488,35052
32596,34500,35173
32636,34511,35124
32692,34504,35224
32708,34506,35189
32774,34509,35318
32780,34485,35376
32732,34483,35398
32724,34461,35433
32641,34481,35453
32576,34494,35466
32532,34486,35356
32492,34526,35440
32448,34524,35489
32448,34519,35388
32476,34508,35508
32497,34469,35421
32508,34500,35557
32472,34489,35583
32421,34487,35460
32336,34483,35526
32272,34516,35464
32248,34528,35576
32276,34532,35487
32348,34523,35591
32412,34516,35620
32412,34508,35656
32356,34492,35604
32349,34496,35564
32352,34502,35668
32308,34508,35700
32244,34519,35713
32240,34539,35652
32248,34537,35591
32256,34535,35636
32268,34518,35609
32242,34491,35721
32281,34505,35696
32260,34499,35591
32228,34501,35735
32144,34523,35736
32092,34529,35604
32108,34536,35702
32072,34542,35712
32084,34535,35652
32085,34517,35744
32048,34516,35607
32008,34503,35668
31968,34503,35590
31952,34495,35732
31904,34518,35728
31868,34532,35711
31836,34512,35724
31776,34545,35580
31752,34533,35620
31716,34530,35542
31752,34508,35637
31800,34511,35564
31788,34506,35612
31752,34508,35542
31750,34497,35620
31772,34532,35611
31744,34535,35599
31728,34542,35533
31744,34548,35534
31760,34529,35396
31764,34512,35463
31784,34508,35376
31768,34500,35448
31760,34508,35420
31825,34516,35455
31880,34533,35437
31904,34536,35282
31908,34511,35335
31944,34537,35276
32016,34528,35353
32092,34510,35328
32152,34505,35296
32196,34493,35238
32244,34496,35233
32312,34484,35207
32329,34527,35183
32336,34526,35157
32452,34532,35127
32552,34505,35071
32612,34517,34908
32712,34501,34996
32764,34484,34951
32800,34484,34961
32877,34485,34877
32928,34495,34745
32976,34517,34807
33008,34508,34796
33044,34509,34660
33052,34522,34684
33060,34503,34564
33160,34484,34645
33212,34485,34632
33216,34472,34502
33240,34484,34517
33256,34492,34382
33260,34504,34470
33316,34512,34468
33321,34516,34332
33328,34497,34392
33364,34471,34368
33428,34460,34332
33432,34449,34208
33428,34477,34225
33420,34468,34148
33445,34477,34183
33432,34495,34156
33376,34496,34055
33328,34511,34124
33292,34504,34070
33310,34489,34064
33332,34474,34037
33348,34465,33912
33352,34460,33927
33352,34471,33873
33360,34449,33927
33368,34484,33880
33368,34488,33749
33372,34488,33799
33392,34493,33680
33376,34472,33772
33380,34463,33671
33352,34446,33713
33330,34439,33565
33308,34448,33637
33228,34439,33505
33192,34477,33601
33164,34489,33543
33112,34476,33569
33088,34461,33517
33125,34463,33484
33152,34454,33444
33133,34436,33465
33172,34412,33400
33120,34438,33409
33117,34436,33325
33116,34460,33345
33116,34463,33238
33156,34479,33257
33156,34468,33266
33164,34452,33152
33196,34420,33172
33208,34433,33088
33208,34420,33120
33184,34421,33015
33100,34429,33068
32992,34448,32941
32916,34455,33038
32916,34432,33015
32916,34451,32948
32984,34437,32932
33036,34420,32838
33048,34408,32874
33060,34396,32799
33024,34386,32820
32988,34420,32768
32976,34429,32804
32924,34437,32751
33008,34436,32634
33048,34436,32686
33068,34423,32596
33104,34407,32652
33108,34398,32605
33092,34388,32608
33112,34396,32573
33096,34397,32463
33092,34414,32496
33026,34420,32396
32992,34426,32437
32948,34421,32313
32960,34405,32368
32904,34396,32252
32872,34380,32341
32876,34375,32186
32940,34357,32276
32900,34382,32146
32884,34397,32196
32884,34409,32084
32888,34405,32167
32840,34388,32124
32888,34390,32060
32892,34382,32081
32932,34364,31964
32984,34352,31997
33004,34363,31872
32950,34370,31948
32892,34385,31872
32844,34389,31900
32824,34391,31879
32832,34386,31847
32816,34360,31760
32820,34356,31778
32860,34329,31676
32920,34340,31712
32952,34322,31628
32944,34359,31664
32940,34364,31633
32924,34366,31585
32928,34374,31577
32917,34343,31480
32948,34333,31544
32933,34342,31496
32996,34320,31492
33008,34309,31366
33008,34300,31419
32872,34332,31322
32804,34340,31362
32752,34345,31352
32768,34351,31324
32780,34342,31248
32780,34332,31252
32832,34311,31192
32880,34300,31208
32920,34300,31153
32889,34292,31141
32842,34293,31088
32832,34322,31108
32792,34321,31080
32772,34305,30948
32772,34327,30997
32772,34311,30934
32800,34292,30917
32840,34270,30914
32844,34256,30822
32884,34268,30876
32901,34280,30794
32924,34292,30796
32904,34301,30727
32904,34301,30751
32892,34286,30642
32892,34284,30665
32868,34271,30676
32796,34250,30632
32796,34229,30532
32812,34252,30605
32764,34264,30576
32796,34278,30508
32758,34276,30502
32764,34285,30412
32800,34271,30462
32832,34248,30382
32840,34240,30409
32864,34213,30365
32869,34221,30380
32876,34222,30365
32828,34226,30332
32728,34250,30311
32573,34253,30231
32384,34256,30273
32280,34248,30276
32188,34236,30170
32117,34221,30215
31948,34215,30166
31688,34206,30155
31328,34215,30168
30904,34223,30087
30596,34239,30125
30337,34212,30044
30100,34248,30084
29816,34246,30009
29472,34212,30048
29480,34224,29965
30024,34212,30000
31080,34196,29943
32397,34182,29973
33672,34194,29934
34564,34191,29949
35160,34196,29901
35400,34189,29922
35456,34183,29910
35484,34169,29860
35476,34159,29864
35232,34151,29830
34781,34136,29869
34376,34144,29820
33964,34157,29825
33601,34166,29828
33352,34180,29772
33156,34183,29828
33044,34169,29831
32957,34149,29769
32908,34140,29800
32868,34135,29748
32856,34119,29786
32808,34121,29736
32768,34136,29780
32716,34144,29733
32692,34156,29767
32664,34148,29708
32668,34146,29746
32652,34135,29688
32664,34124,29732
32700,34102,29693
32676,34084,29728
32648,34100,29724
32592,34110,29657
32557,34117,29692
32544,34124,29657
32484,34130,29684
32485,34104,29673
32532,34093,29626
32556,34084,29654
32596,34077,29628
32629,34068,29656
32604,34065,29628
32565,34073,29616
32512,34092,29631
32568,34089,29609
32608,34092,29657
32616,34080,29662
32589,34070,29606
32592,34053,29642
32616,34041,29624
32620,34040,29676
32636,34038,29668
32616,34040,29684
32608,34039,29654
32621,34042,29693
32596,34048,29639
32548,34029,29716
32552,34029,29719
32592,34014,29728
32608,34008,29728
32564,34005,29712
32612,34004,29693
32568,34013,29760
32560,34025,29764
32544,34031,29701
32560,34039,29756
32528,34020,29722
32544,34012,29780
32560,33996,29753
32568,33968,29789
32564,33976,29788
32570,33974,29739
32560,33969,29781
32496,33993,29780
32460,33989,29818
32464,33998,29815
32440,33998,29784
32436,33973,29820
32448,33965,29831
32488,33932,29812
32524,33949,29838
32544,33946,29788
32552,33952,29845
32532,33944,29817
32516,33973,29828
32504,33972,29863
32516,33969,29857
32500,33952,29820
32516,33937,29865
32528,33921,29882
32456,33917,29804
32373,33917,29868
32320,33917,29872
32252,33941,29830
32232,33936,29864
32268,33924,29873
32272,33938,29831
32284,33920,29892
32272,33902,29897
32296,33895,29860
32237,33888,29896
32212,33890,29922
32200,33881,29896
32152,33913,29944
32128,33915,29897
32132,33919,29959
32068,33905,29956
32124,33894,29998
32176,33872,29997
32228,33857,29967
32216,33852,30026
32212,33856,29990
32208,33869,30026
32168,33868,29988
32092,33881,30049
32056,33884,30024
32064,33883,30079
32116,33857,30112
32228,33840,30037
32316,33829,30112
32356,33820,30128
32436,33822,30068
32465,33832,30121
32508,33839,30149
32512,33823,30128
32584,33852,30148
32634,33836,30092
32712,33815,30169
32769,33813,30191
32848,33795,30104
32908,33786,30202
32964,33780,30200
33004,33792,30134
33028,33807,30223
33072,33799,30204
33048,33806,30220
33104,33796,30260
33204,33791,30223
33268,33773,30281
33292,33764,30264
33276,33740,30309
33208,33751,30282
33260,33756,30372
33312,33760,30388
33337,33749,30420
33392,33773,30448
33456,33779,30488
33444,33754,30524
33504,33737,30471
33556,33722,30568
33584,33722,30536
33561,33705,30661
33512,33718,30644
33432,33736,30740
33392,33739,30700
33446,33747,30796
33508,33735,30805
33620,33718,30860
33700,33704,30928
33804,33692,30975
33900,33673,31071
33936,33684,31080
33876,33685,31077
33768,33701,31212
33740,33707,31237
33692,33710,31273
33752,33697,31373
33760,33684,31340
33744,33669,31476
33736,33655,31485
33744,33632,31612
33760,33649,31609
33720,33653,31743
33712,33671,31725
33677,33671,31855
33592,33671,31841
33504,33671,32005
33420,33664,31983
33376,33637,32128
33392,33628,32101
33389,33620,32298
33344,33620,32362
33260,33628,32456
33168,33642,32512
33088,33641,32452
33040,33645,32640
33124,33633,32629
33312,33625,32796
33520,33602,32775
33660,33594,32932
33752,33586,33012
33800,33577,32986
33724,33596,33104
33613,33604,33159
33520,33608,33186
33414,33621,33300
33352,33608,33344
33292,33594,33472
33284,33571,33488
33260,33562,33596
33260,33552,33588
33196,33549,33664
33092,33559,33665
32992,33566,33842
32901,33580,33884
32930,33573,33832
33073,33556,34015
33196,33568,34077
33344,33543,34040
33460,33531,34176
33512,33529,34130
33482,33521,34332
33456,33538,34296
33404,33543,34388
33336,33550,34380
33276,33552,34529
33232,33540,34641
33236,33524,34648
33248,33516,34732
33288,33495,34740
33264,33487,34888
33248,33497,34968
33252,33497,34930
33201,33516,35009
33196,33518,35047
33212,33516,35189
33172,33516,35193
33152,33504,35321
33172,33490,35263
33212,33462,35399
33216,33469,35364
33192,33470,35484
33109,33471,35486
33036,33478,35628
32920,33487,35591
32836,33492,35716
32800,33481,35712
32812,33479,35882
32768,33466,35994
32806,33447,35860
32865,33433,35980
32864,33433,35975
32860,33440,36092
32948,33456,36084
32896,33465,36229
32805,33460,36168
32764,33460,36343
32756,33448,36392
32804,33428,36444
32848,33404,36364
32884,33405,36484
32892,33409,36465
32904,33415,36580
32920,33415,36589
32960,33436,36728
33012,33440,36660
33012,33433,36807
32968,33417,36840
32958,33396,36904
32928,33389,36965
32848,33383,37001
32772,33382,37047
32724,33404,37096
32728,33398,37095
32805,33412,37016
32868,33415,37109
33028,33408,37088
33088,33398,37244
33104,33382,37263
33093,33354,37367
33096,33360,37407
33164,33367,37420
33161,33373,37445
33120,33352,37487
33056,33389,37540
33021,33389,37591
33024,33383,37621
33060,33377,37654
33056,33349,37680
32996,33340,37717
32944,33335,37708
32964,33337,37770
33076,33342,37758
33104,33334,37758
33164,33369,37732
33244,33368,37910
33308,33354,37953
33316,33340,37884
33268,33335,38007
33144,33312,38052
33064,33308,38092
33000,33311,38030
32968,33317,38145
32916,33325,38068
32904,33335,38128
32968,33343,38080
32988,33333,38236
33028,33320,38340
33068,33300,38404
33032,33287,38406
33040,33273,38340
33068,33281,38328
33056,33280,38468
32992,33305,38445
32885,33305,38529
32880,33318,38589
32896,33311,38380
32920,33293,38581
32909,33277,38407
32924,33262,38639
33020,33262,38541
33077,33264,38644
33060,33274,38560
33016,33285,38649
32884,33287,38564
32720,33286,38663
32592,33287,38671
32492,33287,38752
32404,33261,38708
32272,33246,38789
32016,33240,38828
31688,33246,38613
