ECG,EDA,RR
32876,29241,34273
32900,29232,34188
32932,29237,34336
32884,29236,34300
32876,29254,34236
32862,29263,34401
32792,29272,34332
32792,29271,34284
32821,29261,34445
32820,29242,34493
32836,29232,34345
32832,29236,34517
32832,29234,34430
32832,29254,34439
32816,29258,34468
32804,29262,34549
32796,29264,34630
32824,29269,34477
32840,29255,34640
32892,29244,34557
32926,29233,34645
32904,29229,34528
32904,29228,34695
32884,29238,34757
32832,29252,34583
32800,29260,34676
32784,29271,34725
32804,29266,34637
32848,29252,34800
32840,29241,34797
32828,29239,34852
32818,29220,34749
32833,29226,34760
32856,29236,34889
32844,29248,34861
32856,29262,34766
32853,29266,34897
32912,29262,34981
32916,29256,34786
33000,29245,34873
33004,29230,34896
32960,29224,35015
32992,29227,35044
32976,29233,34888
32976,29251,35035
32992,29257,35068
32960,29260,34932
32941,29257,35042
33004,29247,34972
33012,29241,35048
33020,29226,35004
32992,29217,35148
32938,29225,35143
32908,29236,35197
32904,29252,35204
32893,29260,35077
32892,29261,35244
32900,29259,35288
32944,29255,35276
32988,29247,35234
32996,29229,35306
32984,29220,35305
32988,29220,35324
32984,29231,35193
32965,29246,35332
32948,29257,35402
32944,29265,35206
32956,29263,35348
32976,29247,35356
33008,29232,35429
33032,29228,35377
33044,29214,35284
33056,29228,35364
33028,29229,35309
32984,29247,35463
32956,29255,35497
32872,29257,35509
32892,29256,35502
32912,29252,35396
32948,29233,35559
32944,29229,35591
32984,29228,35392
33032,29217,35500
33000,29236,35448
32968,29240,35609
32936,29255,35665
32925,29260,35617
32944,29261,35642
32948,29248,35500
32960,29236,35625
32960,29231,35513
32944,29222,35660
32924,29224,35695
32900,29232,35735
32832,29249,35772
32782,29264,35625
32760,29264,35788
32780,29262,35716
32824,29254,35820
32820,29241,35612
32788,29236,35719
32800,29224,35736
32761,29234,35840
32720,29244,35839
32696,29257,35893
32692,29271,35684
32712,29264,35880
32712,29264,35951
32748,29256,35770
32796,29248,35760
32820,29231,35898
32840,29231,35985
32829,29230,35816
32772,29252,35777
32716,29263,35998
32677,29260,35894
32596,29273,36008
32525,29276,35941
32520,29267,36053
32556,29252,35975
32624,29237,36022
32688,29241,36076
32732,29244,35980
32720,29249,35969
32704,29264,36076
32688,29276,36164
32672,29277,35953
32692,29277,36085
32732,29266,36021
32764,29263,36196
32757,29252,36153
32773,29245,36132
32800,29252,36228
32812,29253,36251
32816,29264,36100
32808,29284,36224
32844,29286,36183
32905,29287,36276
32940,29279,36320
32964,29261,36321
32972,29257,36279
32960,29248,36191
32900,29256,36332
32864,29269,36382
32868,29276,36374
32832,29292,36384
32784,29290,36257
32736,29301,36380
32736,29284,36460
32764,29278,36500
32780,29264,36297
32760,29256,36428
32720,29272,36359
32732,29279,36492
32732,29303,36572
32692,29302,36385
32720,29310,36511
32724,29311,36501
32752,29296,36608
32792,29292,36604
32788,29280,36636
32780,29274,36628
32824,29284,36692
32828,29292,36764
32784,29305,36528
32736,29319,36692
32764,29328,36657
32780,29324,36789
32812,29318,36848
32840,29305,36820
32852,29295,36846
32812,29288,36737
32812,29300,36880
32780,29309,36959
32764,29324,36929
32820,29336,36917
32828,29348,36753
32800,29351,36945
32804,29334,36938
32840,29329,36925
32852,29313,36908
32844,29310,37030
32840,29314,37093
32876,29326,37116
32858,29337,37180
32864,29351,36927
32816,29362,37100
32828,29365,37047
32810,29362,37184
32832,29340,37253
32748,29343,37045
32640,29340,37308
32452,29342,37260
32288,29350,37308
32168,29367,37108
32052,29391,37271
31908,29393,37121
31744,29396,37244
31560,29390,37332
31349,29376,37402
31180,29375,37429
31038,29380,37206
30908,29381,37328
30772,29396,37332
30552,29398,37369
30552,29424,37284
30952,29432,37472
31864,29420,37533
33054,29408,37598
34096,29396,37334
34896,29385,37540
35437,29380,37396
35636,29388,37580
35624,29393,37507
35540,29412,37656
35409,29423,37720
35156,29433,37702
34748,29438,37692
34300,29428,37596
33908,29422,37740
33584,29416,37844
33285,29420,37807
33056,29421,37812
32876,29437,37716
32749,29447,37844
32680,29461,37780
32604,29470,37895
32552,29473,37921
32544,29468,37941
32576,29460,37841
32580,29447,37836
32572,29447,37988
32536,29452,37968
32436,29476,37876
32400,29486,38020
32380,29498,37912
32356,29508,38016
32332,29504,37830
32380,29496,38036
32388,29496,38120
32376,29489,37964
32388,29485,37888
32440,29484,38023
32432,29496,38171
32392,29520,37935
32328,29533,38024
32336,29542,38188
32348,29548,37910
32348,29543,38032
32344,29532,38144
32364,29527,37944
32368,29524,38196
32332,29537,38229
32272,29549,38079
32228,29561,38263
32268,29572,38016
32296,29581,38314
32284,29586,38128
32304,29574,38317
32352,29568,38407
32372,29561,38221
32424,29564,38385
32420,29561,38460
32416,29585,38260
32380,29602,38368
32376,29607,38364
32388,29616,38487
32384,29624,38572
32364,29610,38308
32360,29612,38514
32365,29606,38588
32376,29600,38583
32404,29612,38653
32384,29615,38400
32328,29644,38609
32296,29648,38678
32264,29664,38650
32252,29665,38551
32320,29667,38740
32376,29658,38495
32372,29645,38604
32356,29641,38620
32404,29654,38752
32424,29660,38804
32404,29679,38780
32344,29698,38680
32332,29703,38775
32352,29703,38825
32336,29692,38708
32368,29703,38892
32361,29689,38684
32368,29691,38864
32352,29694,38837
32308,29708,38928
32254,29736,38688
32208,29754,38876
32152,29762,38902
32092,29760,38668
32109,29752,38905
32192,29751,38990
32216,29733,38817
32216,29743,38919
32192,29748,38864
32152,29764,38839
32072,29776,38937
31988,29795,39020
31904,29807,38821
31844,29810,38966
31816,29804,39029
31808,29797,38768
31804,29777,38975
31808,29792,39036
31821,29788,38855
31828,29798,38996
31841,29820,38992
31844,29841,38908
31824,29853,39013
31780,29855,39071
31738,29855,39020
31781,29845,39031
31804,29836,39006
31856,29828,39033
31840,29844,39025
31868,29854,39076
31885,29874,38780
31864,29893,38949
31904,29893,39109
31944,29908,38932
32008,29896,38805
32052,29889,39056
32084,29884,38948
32114,29892,39087
32156,29890,38858
32208,29905,39064
32224,29927,39072
32232,29938,39094
32284,29943,38856
32328,29953,39088
32380,29944,39062
32464,29941,39165
32496,29932,38981
32556,29925,38988
32616,29932,39124
32704,29944,38868
32772,29964,39072
32762,29973,39175
32760,29991,39004
32808,29988,39132
32856,29982,39028
32960,29981,39204
33005,29968,39012
33032,29966,39148
33128,29978,39108
33176,29997,39197
33188,30006,39068
33188,30018,38919
33228,30037,38957
33276,30037,39160
33278,30041,39193
33289,30028,39166
33272,30018,39004
33280,30023,39224
33264,30033,39108
33288,30044,39296
33264,30063,39124
33264,30079,39268
33308,30087,39196
33344,30085,39211
33396,30085,39303
33448,30073,39036
33492,30064,39303
33489,30064,39375
33472,30064,39324
33396,30095,39395
33263,30111,39101
33216,30120,39308
33232,30138,39397
33256,30118,39376
33252,30129,39428
33304,30121,39212
33304,30118,39358
33324,30109,39357
33280,30125,39414
33224,30136,39415
33216,30151,39416
33205,30169,39325
33196,30181,39421
33172,30182,39384
33204,30169,39445
33240,30177,39413
33256,30164,39487
33225,30160,39518
33208,30173,39522
33148,30183,39504
33128,30189,39536
33116,30206,39606
33108,30215,39320
33149,30220,39588
33189,30220,39356
33216,30215,39472
33240,30215,39484
33224,30212,39616
33212,30214,39655
33244,30231,39396
33240,30242,39547
33184,30264,39624
33132,30260,39668
33102,30265,39719
33080,30260,39431
33092,30252,39632
33080,30244,39758
33088,30248,39500
33088,30249,39656
33076,30262,39725
33076,30272,39708
33100,30296,39653
33188,30308,39639
33180,30310,39721
33172,30311,39653
33148,30294,39700
33068,30281,39479
33060,30280,39732
33056,30287,39772
33052,30304,39767
33036,30327,39788
33056,30337,39512
33068,30344,39740
33036,30346,39664
33072,30342,39773
33081,30333,39812
33080,30324,39824
33124,30325,39716
33096,30325,39829
33032,30343,39844
32988,30357,39751
32953,30375,39833
32916,30385,39880
32948,30382,39909
32988,30377,39889
33024,30373,39932
33072,30352,39921
33068,30364,39950
33048,30366,39676
32968,30386,39964
32916,30400,39680
32860,30405,39943
32832,30419,39732
32784,30414,39975
32808,30419,39836
32884,30405,39957
32952,30404,39881
32992,30401,39908
32992,30404,39772
32980,30420,39935
32924,30436,39937
32892,30444,40016
32876,30455,40056
32848,30448,40071
32836,30456,39992
32832,30442,39853
32876,30434,40024
32920,30430,39824
32980,30437,40122
32940,30450,40100
32952,30461,40006
32948,30484,40060
32928,30484,40032
32929,30487,40152
32928,30485,40220
32946,30482,40172
32970,30471,40196
32952,30464,40186
32980,30469,40076
32984,30493,40094
32976,30500,39943
32956,30503,40138
32933,30519,40063
32952,30525,40198
33004,30508,40236
33016,30516,40309
33024,30500,40260
33032,30497,40225
33020,30496,40249
33032,30511,40208
32992,30525,40228
33004,30540,40048
32976,30544,40340
33020,30538,40317
33044,30544,40181
33072,30526,40308
33116,30529,40057
33088,30523,40380
33012,30524,40304
32992,30539,40216
32912,30550,40372
32916,30560,40356
32936,30575,40233
32936,30572,40357
32980,30569,40358
33013,30560,40341
33026,30553,40305
33060,30544,40156
33056,30557,40444
32988,30565,40357
32896,30580,40132
32869,30580,40345
32856,30600,40314
32856,30596,40215
32894,30588,40304
32976,30574,40164
33041,30567,40497
33080,30572,40404
33101,30573,40260
33104,30586,40509
33028,30598,40420
32924,30614,40180
32897,30621,40491
32872,30614,40389
32889,30610,40327
32976,30607,40372
32976,30599,40436
32972,30597,40220
32989,30592,40341
32984,30604,40261
32960,30622,40424
32940,30639,40455
32945,30638,40375
32944,30644,40406
32936,30637,40308
32916,30631,40400
32940,30608,40400
32956,30612,40340
32980,30616,40206
32972,30626,40320
32972,30640,40140
32924,30640,40487
32912,30658,40415
32918,30661,40332
32900,30657,40344
32912,30637,40272
32912,30633,40324
32912,30624,40319
32871,30633,40343
32876,30642,40404
32864,30661,40317
32880,30666,40228
32896,30669,40268
32896,30674,40140
32944,30671,40148
32960,30656,40135
32968,30649,40199
32958,30644,40092
32924,30646,40181
32876,30654,40220
32868,30666,40185
32880,30676,40247
32872,30692,40153
32928,30688,40129
32920,30687,40116
32908,30673,40165
32916,30665,40071
32968,30659,40124
32960,30657,40053
32924,30666,40071
32853,30676,39879
32804,30692,39924
32736,30708,39836
32780,30692,39876
32832,30695,39733
32852,30683,39892
32877,30673,39952
32896,30660,39617
32856,30678,39801
32780,30677,39726
32762,30694,39752
32754,30712,39684
32824,30713,39656
32864,30706,39580
32940,30703,39644
33000,30691,39649
33072,30684,39645
33089,30672,39662
33060,30680,39359
33008,30692,39528
33020,30702,39564
33008,30712,39508
32952,30720,39540
32972,30719,39436
32988,30705,39348
32972,30703,39284
33001,30690,39316
32992,30692,39334
32944,30680,39349
32868,30696,39260
32840,30717,39108
32812,30726,39061
32800,30727,39141
32820,30727,38990
32824,30718,39076
32840,30712,39010
32828,30696,39012
32832,30688,38940
32804,30693,38804
32764,30708,38900
32768,30716,38823
32824,30727,38879
32798,30734,38611
32784,30727,38726
32800,30717,38649
32800,30708,38553
32816,30700,38612
32736,30700,38452
32740,30702,38492
32756,30717,38492
32744,30720,38445
32708,30736,38312
32680,30743,38145
32716,30734,38277
32756,30733,38316
32816,30719,38019
32869,30704,38088
32892,30708,38162
32908,30689,37981
32860,30716,38063
32796,30720,38013
32720,30741,38020
32693,30744,37741
32648,30740,37861
32628,30733,37865
32644,30718,37645
32648,30708,37741
32664,30709,37701
32688,30708,37497
32724,30723,37484
32740,30727,37415
32760,30727,37492
32744,30746,37444
32684,30740,37196
32588,30733,37224
32468,30724,37132
32308,30713,37218
32188,30714,37120
32064,30717,36968
31855,30724,36981
31644,30741,37016
31405,30749,36964
31104,30758,36919
30800,30756,36855
30532,30749,36697
30357,30749,36598
30200,30740,36691
29936,30738,36544
29708,30738,36552
29744,30736,36400
30268,30744,36376
31324,30756,36276
32636,30750,36284
33725,30749,36192
34660,30724,36205
35236,30710,36084
35464,30689,36133
35496,30688,36039
35460,30695,36046
35372,30701,35990
35124,30713,35975
34700,30732,35877
34244,30747,35685
33856,30734,35713
33588,30727,35613
33356,30719,35606
33180,30710,35556
33037,30693,35604
32933,30700,35575
32832,30704,35504
32732,30712,35397
32632,30737,35238
32580,30736,35248
32580,30741,35140
32612,30727,35249
32636,30720,35174
32628,30704,34980
32692,30699,35098
32733,30694,35037
32736,30708,34818
32732,30720,34917
32684,30727,34876
32616,30737,34644
32592,30726,34718
32632,30727,34590
32668,30711,34618
32661,30687,34437
32600,30692,34468
32576,30702,34332
32548,30705,34398
32524,30719,34236
32544,30725,34328
32542,30727,34260
32548,30720,34095
32533,30705,34159
32556,30705,33996
32628,30694,34018
32660,30684,33917
32669,30692,34034
32656,30692,33988
32624,30702,33798
32624,30719,33858
32584,30726,33728
32588,30722,33760
32637,30711,33653
32688,30700,33688
32716,30677,33593
32664,30673,33663
32584,30680,33509
32604,30686,33597
32550,30693,33476
32544,30709,33525
32486,30712,33404
32482,30711,33456
32508,30710,33380
32520,30689,33396
32524,30685,33293
32540,30675,33168
32568,30676,33220
32560,30676,33180
32546,30692,33080
32508,30698,33076
32440,30708,32960
32472,30705,33072
32504,30697,33002
32536,30681,32836
32581,30674,32943
32588,30649,32907
32556,30669,32732
32546,30668,32766
32532,30685,32622
32520,30676,32663
32492,30696,32540
32492,30693,32575
32497,30690,32445
32456,30672,32544
32460,30660,32484
32460,30655,32376
32417,30655,32433
32360,30663,32391
32320,30672,32340
32296,30680,32298
32332,30684,32203
32368,30688,32044
32364,30668,32075
32336,30660,31990
32356,30650,32044
32384,30645,32024
32368,30648,31956
32304,30650,31924
32241,30656,31844
32200,30676,31838
32096,30685,31773
32040,30677,31732
32032,30669,31541
32040,30656,31612
32028,30646,31524
32096,30644,31553
32136,30637,31524
32072,30646,31468
32024,30660,31440
31944,30673,31372
31916,30672,31345
31900,30668,31296
31920,30661,31168
31944,30651,31156
31956,30637,31168
31936,30628,31116
31898,30628,31084
31896,30633,31032
31866,30644,30999
31916,30658,30949
31948,30652,30827
32020,30661,30870
32064,30646,30753
32132,30625,30773
32176,30629,30669
32176,30620,30724
32244,30612,30679
32324,30629,30556
32368,30628,30580
32368,30644,30430
32364,30647,30493
32432,30644,30391
32584,30630,30432
32705,30616,30338
32784,30607,30367
32852,30597,30324
32932,30596,30208
32968,30605,30238
32992,30616,30109
33060,30625,30223
33088,30629,30183
33120,30625,30077
33144,30612,30088
33172,30604,29996
33252,30598,30053
33372,30582,30012
33382,30580,30028
33412,30590,29982
33425,30605,29836
33412,30613,29938
33392,30621,29907
33432,30616,29856
33432,30602,29756
33468,30599,29861
33488,30581,29792
33552,30572,29768
33532,30575,29801
33536,30576,29770
33504,30589,29688
33468,30596,29701
33436,30598,29589
33440,30596,29670
33468,30594,29620
33486,30575,29656
33480,30564,29612
33484,30556,29628
33500,30564,29565
33492,30564,29461
33472,30569,29575
33436,30591,29520
33416,30580,29408
33428,30584,29510
33440,30581,29500
33429,30560,29424
33440,30544,29432
33444,30533,29321
33428,30541,29421
33408,30548,29419
33364,30560,29294
33316,30561,29353
33332,30567,29316
33360,30569,29322
33329,30552,29301
33356,30551,29295
33384,30532,29251
33373,30528,29138
33328,30528,29225
33316,30532,29144
33292,30544,29176
33268,30556,29052
33288,30557,29124
33340,30558,29062
33321,30540,29092
33336,30533,28996
33304,30513,29053
33328,30508,29013
33344,30514,29037
33280,30526,28904
33224,30532,28973
33192,30540,28918
33208,30542,28959
33172,30548,28933
33140,30518,28821
33160,30508,28900
33148,30497,28844
33120,30489,28764
33141,30492,28823
33120,30500,28807
33104,30513,28723
33084,30527,28734
33072,30530,28679
33056,30516,28717
33024,30516,28693
33036,30500,28638
33048,30480,28577
33040,30471,28573
33057,30481,28580
32996,30495,28572
32992,30496,28546
32940,30505,28461
32920,30512,28488
32936,30513,28474
32904,30492,28369
32896,30480,28446
32896,30471,28405
32944,30460,28329
32956,30448,28391
32980,30468,28349
32976,30480,28350
32968,30489,28252
32934,30500,28260
32904,30485,28278
32876,30477,28277
32921,30464,28165
32972,30452,28244
32980,30446,28209
33020,30445,28132
33022,30452,28144
32980,30460,28148
32944,30468,28152
32960,30471,28039
32932,30481,28111
32964,30468,28100
32992,30449,27989
33020,30428,28055
33048,30428,28018
33036,30421,28020
32990,30436,27908
32984,30440,27981
32964,30449,27937
32960,30455,27945
32976,30456,27909
33004,30441,27877
33020,30428,27820
33052,30418,27865
33044,30407,27834
33085,30405,27788
33088,30416,27822
33092,30423,27736
33040,30439,27764
32984,30441,27720
32984,30437,27713
33020,30418,27713
33000,30406,27717
33012,30399,27620
32984,30383,27655
32976,30387,27594
32992,30384,27644
32964,30404,27630
32961,30413,27560
32928,30416,27568
32924,30414,27575
32956,30408,27522
32968,30394,27532
32984,30373,27457
33018,30367,27521
33036,30358,27474
33008,30372,27492
33012,30381,27464
32948,30397,27381
32957,30398,27431
32916,30399,27415
32924,30380,27412
32940,30369,27385
32952,30359,27348
32944,30348,27342
32928,30334,27333
32884,30357,27264
32848,30367,27314
32820,30373,27250
32776,30374,27286
32773,30381,27273
32784,30364,27214
32788,30356,27246
32788,30332,27246
32788,30320,27196
32776,30332,27215
32741,30340,27199
32724,30340,27124
32728,30359,27172
32780,30358,27151
32790,30348,27094
32768,30344,27136
32812,30328,27125
32844,30319,27060
32836,30311,27068
32848,30308,27081
32840,30305,27074
32832,30317,27009
32768,30341,27029
32760,30332,27018
32768,30341,26960
32820,30314,26996
32853,30306,26985
32848,30285,26926
32860,30282,26957
32880,30284,26944
32868,30290,26876
32808,30296,26884
32817,30306,26892
32852,30313,26884
32832,30304,26816
32856,30293,26846
32896,30276,26840
32896,30276,26774
32924,30260,26804
32912,30260,26768
32877,30268,26755
32805,30284,26754
32784,30293,26755
32776,30287,26684
32812,30289,26717
32832,30278,26692
32848,30260,26656
32856,30253,26651
32848,30247,26658
32788,30245,26645
32756,30248,26588
32700,30253,26626
32636,30264,26596
32640,30273,26588
32640,30276,26575
32605,30256,26524
32632,30245,26548
32632,30231,26526
32672,30225,26524
32644,30214,26468
32632,30226,26465
32624,30234,26475
32593,30249,26464
32580,30248,26420
32512,30251,26437
32480,30239,26432
32512,30221,26400
32580,30209,26386
32624,30199,26356
32596,30200,26358
32640,30207,26356
32636,30207,26358
32672,30223,26304
32692,30215,26328
32684,30220,26320
32685,30212,26276
32705,30200,26300
32745,30181,26288
32776,30175,26260
32748,30175,26248
32752,30182,26257
32758,30189,26229
32772,30192,26204
32776,30196,26228
32813,30190,26214
32848,30184,26212
32804,30169,26180
32832,30152,26183
32840,30150,26188
32824,30141,26137
32801,30148,26152
32796,30153,26148
32776,30172,26137
32756,30183,26121
32720,30172,26085
32732,30166,26092
32741,30150,26092
32813,30133,26064
32844,30116,26086
32864,30113,26068
32868,30135,26051
32832,30143,26038
32832,30151,26041
32864,30151,26027
32816,30149,26030
32788,30130,26024
32876,30124,25997
32874,30109,25994
32877,30096,25959
32848,30106,25992
32800,30106,25991
32764,30119,25942
32736,30125,25958
32769,30132,25952
32772,30124,25936
32800,30112,25950
32844,30092,25916
32848,30087,25928
32880,30074,25933
32888,30071,25896
32848,30084,25932
32772,30095,25924
32780,30098,25889
32789,30100,25919
32804,30104,25888
32836,30089,25900
32820,30076,25900
32900,30068,25856
32904,30056,25888
32812,30045,25868
32692,30069,25860
32552,30070,25869
32372,30084,25841
32216,30088,25863
32117,30080,25836
32008,30077,25848
31896,30064,25834
31644,30052,25844
31432,30044,25850
31148,30047,25816
30944,30053,25828
30738,30062,25828
30580,30076,25804
30412,30084,25821
30144,30087,25797
30108,30060,25826
30540,30053,25828
31456,30041,25816
32624,30012,25822
33744,30007,25817
34568,30021,25820
35176,30023,25792
35440,30030,25804
35508,30025,25804
35456,30022,25797
35397,30017,25807
35252,30000,25785
34848,29987,25816
34420,29982,25813
34008,29976,25789
33649,29996,25816
33348,30004,25813
33140,30010,25812
32972,30014,25789
32824,30015,25807
32756,30004,25788
32748,29992,25786
32728,29972,25814
32676,29964,25813
32656,29959,25772
32608,29972,25798
32596,29980,25807
32521,29980,25764
32508,29996,25797
32520,29983,25762
32524,29984,25782
32532,29964,25777
32534,29948,25780
32532,29943,25769
32540,29940,25769
32516,29940,25749
32492,29957,25760
32504,29965,25753
32477,29966,25749
32474,29971,25740
32480,29959,25746
32484,29940,25744
32492,29932,25710
32492,29924,25738
32496,29908,25713
32496,29923,25734
32488,29929,25714
32492,29946,25753
32520,29940,25739
32524,29940,25776
32516,29932,25772
32512,29920,25756
32532,29914,25788
32532,29898,25793
32552,29890,25824
32552,29893,25837
32500,29908,25846
32540,29925,25868
32508,29924,25832
32508,29926,25880
32506,29917,25852
32508,29902,25888
32524,29884,25877
32544,29872,25916
32528,29868,25909
32524,29873,25929
32472,29889,25903
32424,29895,25932
32452,29908,25919
32428,29900,25953
32396,29886,25948
32422,29876,25952
32416,29863,25935
32424,29842,25954
32388,29854,25928
32352,29855,25956
32352,29868,25957
32320,29868,25974
32312,29872,25982
32324,29881,25956
32340,29862,25991
32372,29852,25980
32376,29841,25986
32404,29831,25972
32388,29836,25998
32416,29841,26000
32392,29852,26000
32328,29856,26010
32300,29865,25976
32284,29857,26005
32226,29851,25984
32240,29824,26024
32288,29823,26018
32296,29797,25988
32284,29797,26018
32228,29813,25991
32185,29828,26016
32164,29841,25992
32104,29842,26021
32064,29833,25999
32072,29828,26020
32100,29827,26000
32116,29798,26021
32121,29804,26023
32092,29796,26004
32028,29799,26004
32000,29812,25978
31960,29814,26002
31956,29824,25966
31944,29821,26004
31913,29812,26006
31940,29792,25985
31982,29783,25992
32020,29779,25954
32012,29772,26004
31936,29772,25994
31908,29788,25950
31920,29801,25984
31888,29801,25958
31868,29812,25975
31908,29797,25959
31968,29776,25972
32048,29764,25952
32020,29756,25977
32085,29756,25944
32092,29752,25964
32116,29780,25949
32100,29781,25978
32120,29788,25942
32176,29780,25967
32252,29775,25940
32309,29753,25964
32392,29736,25938
32453,29733,25972
32492,29732,25932
32546,29735,25970
32576,29750,25973
32680,29759,25944
32780,29752,25980
32888,29753,25957
32912,29740,25981
32940,29735,25952
32988,29721,25977
33020,29703,25937
33089,29700,25962
33118,29713,25939
33168,29721,25973
33168,29744,25981
33168,29738,25966
33204,29737,25991
33260,29734,25980
33332,29717,25994
33332,29695,26000
33328,29692,25967
33376,29693,26009
33372,29694,26000
33376,29703,26014
33368,29717,25988
33388,29722,26020
33405,29718,25997
33412,29701,26041
33424,29692,26036
33424,29679,25998
33420,29668,26050
33464,29671,26059
33457,29671,26064
33436,29687,26052
33420,29698,26026
33416,29689,26074
33416,29696,26047
33424,29680,26094
33481,29676,26056
33484,29662,26105
33504,29658,26076
33540,29650,26137
33552,29655,26093
33516,29668,26140
33469,29664,26110
33508,29676,26156
33488,29687,26118
33500,29673,26180
33500,29662,26160
33480,29641,26178
33444,29632,26149
33448,29633,26188
33440,29632,26156
33364,29648,26207
33298,29660,26208
33264,29669,26237
33292,29666,26239
33312,29653,26247
33356,29637,26233
33356,29622,26261
33396,29613,26245
33420,29620,26264
33389,29621,26273
33364,29636,26252
33328,29636,26300
33292,29650,26260
33272,29644,26319
33248,29637,26320
33252,29629,26327
33268,29614,26341
33308,29598,26329
33308,29602,26346
33284,29609,26333
33280,29624,26360
33244,29633,26336
33228,29632,26392
33184,29628,26325
33176,29620,26394
33176,29616,26336
33164,29591,26405
33196,29590,26372
33188,29586,26433
33160,29596,26360
33104,29600,26425
33056,29609,26375
33008,29618,26445
33000,29612,26404
32992,29606,26460
33040,29596,26448
33044,29578,26405
33080,29558,26481
33068,29566,26477
33048,29575,26421
33032,29588,26492
33020,29588,26450
33028,29592,26520
33020,29598,26504
33032,29589,26468
33056,29574,26532
33121,29567,26524
33116,29559,26556
33080,29549,26570
33096,29559,26518
33048,29564,26564
33024,29581,26540
32984,29588,26599
32968,29577,26612
32976,29574,26565
32997,29560,26615
32992,29548,26564
33004,29541,26644
32992,29536,26668
32928,29550,26598
32880,29550,26666
32896,29564,26631
32928,29565,26708
32944,29569,26685
32929,29561,26738
32964,29545,26744
32948,29541,26724
32968,29524,26775
32992,29522,26796
32964,29534,26773
32916,29541,26826
32848,29549,26832
32832,29565,26806
32852,29556,26868
32864,29554,26785
32936,29540,26877
32944,29524,26854
32952,29519,26924
32964,29512,26916
32948,29527,26887
32888,29526,26965
32892,29540,26981
32848,29545,26996
32832,29549,27004
32840,29535,26959
32893,29520,27031
32897,29513,27045
32916,29498,27040
32889,29502,27073
32894,29511,27064
32888,29504,27124
32880,29535,27098
32824,29535,27151
32820,29534,27128
32868,29521,27169
32877,29508,27118
32880,29492,27214
32881,29485,27232
32900,29487,27199
32864,29498,27241
32816,29511,27276
32789,29520,27278
32776,29524,27294
32764,29520,27288
32832,29513,27231
32860,29493,27305
32896,29494,27252
32888,29482,27328
32904,29477,27278
32884,29486,27372
32888,29492,27358
32860,29502,27417
32820,29509,27410
32828,29510,27343
32873,29501,27444
32888,29484,27446
32901,29472,27431
32908,29471,27497
32936,29465,27501
32897,29470,27517
32816,29482,27485
32792,29494,27520
32789,29498,27545
32772,29498,27521
32812,29485,27552
32836,29480,27602
32856,29468,27560
32869,29464,27616
32836,29452,27553
32830,29457,27638
32820,29472,27580
32770,29486,27654
32789,29486,27597
32748,29488,27701
32736,29486,27721
32804,29468,27692
32888,29457,27744
32900,29447,27748
32888,29440,27708
32824,29447,27767
32828,29465,27776
32812,29470,27797
32796,29484,27800
32800,29472,27817
32812,29472,27820
32845,29452,27783
32832,29440,27835
32820,29444,27748
32800,29437,27816
32821,29442,27841
32812,29447,27757
32796,29460,27879
32744,29468,27874
32720,29476,27849
32768,29470,27901
32785,29447,27812
32824,29436,27922
32880,29426,27912
32872,29425,27960
32848,29426,27952
32836,29440,27891
32820,29452,27953
32852,29449,27878
32817,29461,28000
32844,29453,28008
32860,29442,27972
32848,29425,28009
32832,29416,27937
32816,29421,28052
32796,29425,28041
32796,29434,28029
32840,29447,28077
32800,29445,28023
32800,29447,28082
32804,29440,28028
32784,29434,28126
32780,29421,28126
32792,29406,28160
32752,29414,28105
32738,29420,28190
32676,29437,28151
32644,29438,28090
32596,29447,28201
32564,29445,28100
32556,29436,28204
32632,29429,28153
32609,29415,28237
32596,29405,28149
32576,29407,28236
32556,29421,28208
32556,29424,28295
32532,29424,28257
32524,29444,28306
32565,29441,28212
32596,29436,28311
32596,29425,28244
32637,29404,28359
32656,29393,28373
32652,29404,28286
32708,29404,28380
32704,29413,28343
32612,29431,28319
32612,29428,28420
32620,29433,28437
32629,29420,28327
32656,29412,28455
32672,29401,28430
32672,29390,28352
32768,29388,28460
32828,29393,28429
32736,29407,28464
32672,29420,28497
32617,29420,28404
32660,29428,28533
32708,29425,28551
32744,29405,28444
32760,29390,28544
32756,29385,28510
32750,29391,28577
32741,29386,28556
32736,29397,28532
32724,29402,28615
32776,29408,28624
32772,29412,28632
32808,29408,28605
32865,29390,28510
32912,29383,28627
32948,29372,28654
32960,29367,28612
32952,29381,28656
32932,29388,28581
32872,29393,28640
32828,29410,28562
32856,29412,28668
32884,29400,28581
32900,29380,28690
32900,29378,28630
32848,29370,28701
32832,29375,28668
32804,29372,28733
32792,29385,28647
32792,29394,28704
32784,29399,28665
32792,29404,28716
32804,29392,28668
32812,29388,28760
32888,29365,28772
32864,29357,28750
32878,29357,28718
32872,29366,28776
32864,29381,28783
32856,29389,28796
32828,29384,28807
32769,29406,28788
32720,29384,28809
32616,29380,28804
32476,29367,28740
32270,29360,28783
32096,29360,28720
32008,29367,28800
31880,29380,28732
31676,29404,28824
31396,29393,28763
31172,29402,28855
31012,29396,28853
30966,29380,28762
30960,29376,28840
30868,29365,28848
30642,29369,28756
30432,29381,28862
30644,29384,28840
31310,29389,28836
32384,29392,28848
33532,29385,28752
34480,29369,28872
35204,29355,28784
35588,29340,28877
35672,29332,28796
35648,29327,28933
35537,29336,28912
35328,29344,28864
34916,29364,28900
34428,29375,28821
34040,29378,28925
33656,29370,28885
33388,29357,28972
33168,29351,28956
32972,29329,28877
32900,29337,28938
32792,29341,28851
32696,29348,28957
32604,29367,28938
32524,29365,28935
32508,29375,28949
32484,29360,28868
32469,29349,29012
32504,29337,28988
32500,29332,28856
32481,29329,28996
32484,29336,29012
32428,29348,28961
32360,29360,29014
32356,29367,28920
32332,29369,29009
32336,29364,29020
32352,29343,28946
32356,29332,28996
32345,29332,28960
32309,29319,29036
32292,29328,29028
32264,29343,28908
32269,29356,29060
32284,29364,29024
32312,29362,29048
32336,29357,28976
32368,29341,29041
32432,29329,29088
32408,29319,28966
32404,29319,29101
32384,29323,29132
32376,29333,29053
32328,29348,29130
32280,29354,29175
32316,29356,29068
32352,29348,29172
32336,29341,29120
32368,29319,29233
32352,29311,29244
32280,29313,29124
32297,29319,29268
32300,29326,29269
32240,29344,29167
32160,29352,29260
32160,29344,29169
32140,29344,29272
32156,29332,29180
32160,29322,29334
32164,29302,29317
32188,29305,29202
32176,29316,29312
32176,29325,29336
32160,29337,29212
32116,29344,29356
32132,29353,29316
32125,29333,29298
32176,29319,29333
32152,29313,29353
32152,29301,29220
32181,29305,29380
32144,29308,29346
32138,29319,29380
32148,29335,29236
32132,29340,29382
32089,29334,29376
32096,29327,29285
32120,29325,29384
32160,29304,29337
32200,29301,29284
32264,29294,29390
32261,29301,29332
32156,29317,29244
32160,29324,29333
32132,29339,29236
32144,29331,29365
32140,29321,29356
32172,29305,29297
32136,29288,29372
32148,29284,29276
32160,29292,29304
32121,29296,29290
32084,29308,29268
32048,29319,29304
32012,29328,29240
32012,29333,29306
31945,29318,29230
31968,29306,29319
32004,29299,29264
31988,29284,29321
31996,29280,29311
31936,29292,29252
31932,29300,29270
31928,29308,29212
31892,29319,29238
31880,29319,29303
31932,29314,29261
31952,29303,29158
31956,29285,29278
32008,29281,29292
32016,29280,29152
32016,29283,29222
32024,29295,29253
32064,29308,29280
32044,29316,29288
32052,29313,29269
32128,29302,29278
32184,29294,29240
32284,29285,29130
32312,29266,29252
32349,29268,29126
32372,29273,29225
32400,29289,29159
32416,29305,29260
32454,29302,29263
32516,29300,29196
32540,29293,29216
32636,29286,29118
32716,29273,29241
32821,29256,29260
32932,29255,29120
32956,29269,29260
32988,29272,29224
33024,29278,29113
33064,29292,29252
33076,29287,29191
33152,29292,29264
33184,29276,29188
33216,29271,29264
33316,29253,29252
33408,29256,29272
33376,29260,29273
33352,29268,29204
33360,29276,29232
33364,29284,29177
33396,29288,29237
33396,29273,29174
33408,29271,29285
33444,29261,29184
33456,29238,29247
33484,29245,29173
33464,29253,29280
33440,29257,29164
33400,29276,29287
33396,29276,29262
33392,29273,29324
33416,29276,29269
33456,29260,29316
33464,29249,29242
33456,29234,29316
33492,29238,29222
33488,29232,29348
33512,29255,29326
33504,29268,29365
33480,29276,29319
33440,29277,29241
33432,29262,29324
33452,29257,29228
33460,29236,29392
33504,29234,29381
33496,29234,29268
33432,29237,29392
33384,29245,29360
33376,29262,29264
33368,29274,29392
33340,29263,29407
33336,29259,29272
33340,29249,29412
33344,29236,29375
33308,29222,29268
33316,29233,29400
33268,29234,29324
33224,29248,29417
33208,29257,29428
33220,29271,29444
33184,29265,29391
33182,29257,29322
33192,29246,29436
33168,29233,29381
33172,29220,29447
33176,29229,29376
33128,29226,29417
33044,29239,29329
32980,29249,29469
32936,29248,29437
32881,29249,29485
32892,29251,29356
32952,29230,29476
32992,29221,29421
33016,29217,29487
32980,29212,29378
32964,29220,29496
32952,29224,29512
32940,29245,29520
32916,29244,29525
32916,29249,29456
32916,29243,29496
32944,29228,29378
32976,29219,29476
32992,29215,29420
33034,29206,29528
33036,29210,29524
32968,29217,29468
32960,29230,29519
32980,29236,29408
32992,29239,29520
32988,29234,29541
32968,29227,29481
33032,29213,29517
33056,29202,29479
33032,29191,29560
33008,29200,29463
33004,29220,29554
33036,29224,29553
33052,29230,29532
33016,29235,29552
33029,29228,29486
33036,29214,29613
33100,29204,29616
33125,29191,29536
33133,29191,29613
33096,29191,29652
33044,29212,29512
33004,29220,29660
32992,29226,29545
32952,29221,29696
32964,29219,29711
32956,29205,29612
32976,29189,29689
32942,29181,29676
32893,29191,29669
32884,29188,29714
32860,29196,29668
32828,29212,29732
32796,29221,29694
32832,29221,29746
32820,29222,29657
32828,29205,29792
32816,29189,29781
32888,29177,29853
32900,29180,29812
32896,29189,29796
32856,29191,29855
32808,29211,29798
32772,29212,29888
32776,29205,29817
32840,29204,29920
32832,29191,29860
32844,29184,29937
32876,29172,29867
32856,29169,30016
32820,29172,30036
32812,29185,29982
32784,29196,30029
32744,29209,30009
32730,29214,30117
32748,29206,30140
32788,29191,30101
32758,29183,30172
32776,29173,30189
32788,29164,30127
32770,29172,30161
32740,29183,30093
32732,29196,30252
32785,29197,30268
32836,29193,30294
32825,29191,30236
32876,29180,30340
32868,29167,30256
32876,29161,30373
32864,29156,30364
32844,29167,30414
32804,29164,30432
32748,29191,30376
32736,29198,30464
32720,29199,30397
32744,29191,30432
32768,29181,30356
32774,29168,30520
32756,29152,30535
32724,29156,30414
32740,29158,30559
32744,29173,30462
32752,29183,30551
32728,29191,30484
32720,29191,30582
32740,29191,30536
32756,29164,30685
32772,29158,30650
32792,29156,30577
32824,29148,30750
32908,29150,30700
32888,29167,30626
32832,29176,30768
32816,29184,30771
32832,29181,30753
32848,29172,30781
32838,29160,30745
32832,29155,30900
32884,29143,30862
32872,29132,30805
32860,29148,30871
32840,29155,30892
32800,29168,30988
32800,29176,30920
32770,29180,30864
32800,29172,31000
32830,29154,31004
32808,29138,30928
32804,29132,31040
32800,29135,31092
32796,29135,30977
32772,29155,31074
32749,29157,31021
32760,29172,31157
32792,29166,31149
32836,29160,31040
32892,29155,31156
32948,29137,31203
32920,29128,31087
32880,29124,31229
32876,29128,31172
32857,29141,31176
32844,29157,31285
32836,29159,31289
32824,29164,31173
32829,29157,31244
32844,29147,31168
32884,29128,31334
32878,29127,31296
32864,29123,31364
32838,29120,31405
32820,29136,31280
32788,29149,31396
32794,29160,31317
32820,29156,31430
32828,29157,31296
32876,29136,31456
32952,29127,31345
32972,29120,31489
32984,29113,31436
33004,29113,31532
32984,29135,31478
32952,29146,31560
32916,29151,31581
32876,29151,31476
32876,29140,31605
32840,29129,31631
32876,29119,31641
32900,29105,31535
32905,29104,31584
32864,29110,31537
32824,29119,31621
32820,29133,31564
32801,29143,31720
32792,29134,31726
32773,29133,31602
32796,29120,31720
32836,29108,31628
32820,29101,31695
32825,29096,31662
32804,29097,31812
32740,29114,31796
32680,29132,31681
32672,29140,31804
32632,29134,31729
32620,29132,31876
32604,29121,31857
32620,29100,31751
32616,29096,31863
32660,29095,31764
32644,29092,31847
32592,29113,31800
32596,29127,31900
32580,29124,31813
32588,29126,31956
32593,29124,31900
32584,29111,31997
32648,29097,31990
32696,29090,31993
32704,29086,31934
32722,29093,32032
32704,29102,31984
32692,29108,32007
32712,29117,31944
32752,29126,32079
32764,29109,32103
32768,29100,31965
32792,29092,32112
32848,29076,32144
32840,29077,32014
32832,29085,32121
32845,29086,32037
32816,29110,32082
32796,29112,32037
32793,29110,32196
32740,29113,32148
32708,29105,32220
32756,29084,32240
32800,29076,32108
32788,29069,32229
32752,29080,32125
32752,29089,32192
32732,29105,32125
32700,29108,32246
32680,29116,32166
32676,29104,32237
32736,29094,32175
32784,29077,32320
32809,29063,32268
32816,29060,32344
32804,29069,32272
32808,29080,32396
32788,29092,32415
32728,29105,32268
32704,29097,32392
32696,29100,32388
32672,29087,32440
32692,29072,32468
32752,29063,32472
32736,29063,32496
32704,29063,32354
32652,29076,32405
32664,29095,32356
32656,29093,32481
32652,29094,32366
32648,29084,32511
32660,29073,32393
32676,29061,32546
32708,29058,32552
32736,29052,32580
32724,29055,32524
32660,29062,32431
32620,29080,32582
32620,29084,32572
32616,29088,32497
32612,29089,32534
32664,29072,32572
32708,29060,32638
32673,29047,32556
32581,29049,32580
32412,29048,32509
32164,29063,32572
31980,29076,32611
31856,29086,32665
31796,29090,32616
31688,29081,32544
31526,29066,32647
31364,29060,32530
31150,29049,32641
31072,29055,32594
31008,29063,32676
30900,29066,32608
30688,29077,32708
30496,29094,32644
30584,29099,32716
31112,29085,32737
32128,29063,32581
33344,29046,32684
34336,29030,32590
35084,29023,32653
35568,29021,32680
35681,29037,32768
35616,29054,32736
35520,29060,32637
35416,29056,32716
35148,29055,32608
34728,29040,32788
34340,29031,32804
33960,29024,32652
33648,29023,32775
33404,29033,32829
33204,29045,32677
33036,29055,32756
32940,29052,32684
32836,29061,32794
32772,29055,32697
32728,29036,32798
32684,29031,32676
32644,29025,32842
32613,29017,32775
32576,29017,32704
32552,29029,32856
32542,29052,32801
32516,29050,32692
32512,29059,32812
32524,29049,32687
32506,29030,32828
32532,29028,32812
32573,29013,32696
32576,29012,32760
32564,29022,32692
32488,29026,32840
32421,29031,32742
32376,29046,32728
32384,29046,32764
32372,29037,32697
32380,29031,32852
32412,29006,32888
32421,29008,32732
32401,29004,32800
32436,29004,32759
32429,29021,32828
32424,29028,32805
32434,29036,32919
32496,29036,32805
32544,29033,32888
32556,29027,32845
32544,29006,33030
32532,28995,33004
32526,28992,32900
32513,29007,32973
32466,29013,32958
32424,29017,33117
32404,29035,32965
32412,29034,33080
32392,29028,33010
32424,29015,33156
32474,29007,33175
32497,28993,33184
32464,28989,33216
32424,28994,33048
32396,29009,33213
32388,29016,33231
32344,29028,33244
32332,29028,33249
32312,29020,33261
32320,29004,33276
32324,28992,33294
32296,28988,33308
32284,28987,33216
32288,28993,33217
32276,28996,33180
32248,29012,33316
32248,29013,33332
32308,29020,33367
32332,29016,33376
32324,28999,33252
32344,28993,33300
32352,28972,33244
32324,28976,33397
32284,28978,33428
32254,28999,33444
32196,29002,33455
32140,29021,33458
32124,29012,33485
32137,29001,33479
32140,28997,33466
32192,28989,33476
32196,28973,33336
32208,28972,33477
32192,28982,33504
32136,28986,33392
32056,29004,33449
32012,29010,33433
31988,29013,33556
31952,29007,33556
32008,28989,33404
32008,28983,33524
32032,28975,33420
32008,28960,33548
31960,28970,33594
31936,28984,33441
31928,28993,33559
31924,29001,33549
31924,29006,33497
31893,28993,33565
31860,28991,33657
31855,28974,33503
31856,28961,33664
31876,28964,33645
31868,28967,33582
31868,28980,33697
31844,28983,33529
31882,28996,33700
31952,28993,33604
32064,28992,33580
32088,28978,33711
32112,28964,33620
32122,28958,33745
32142,28954,33668
32160,28953,33708
32168,28973,33772
32198,28973,33684
32224,28990,33701
32260,28993,33665
32320,28981,33720
32392,28972,33671
32476,28953,33844
32548,28949,33883
32632,28940,33710
32628,28948,33847
32708,28946,33912
32760,28968,33932
32772,28976,33814
32836,28978,33772
32892,28979,33948
33016,28952,33943
33104,28943,34008
33192,28937,33848
33250,28934,34020
33296,28948,34024
33360,28948,33953
33376,28957,34069
33361,28972,34084
33336,28972,33956
33393,28965,33956
33416,28953,34149
33432,28933,34140
33460,28929,34084
33484,28924,34180
33480,28926,34249
33469,28940,34221
33420,28949,34192
33420,28961,34127
33396,28965,34316
33448,28950,34276
33504,28948,34264
33568,28925,34216
33584,28911,34407
33582,28916,34321
33588,28925,34476
33560,28925,34311
33520,28945,34492
33520,28953,34493
33520,28952,34392
33496,28948,34396
33468,28935,34430
33496,28919,34588
33548,28909,34660
33564,28906,34492
33564,28918,34663
33560,28924,34596
33536,28932,34740
33540,28944,34756
33504,28945,34663
33528,28943,34622
33592,28926,34791
33636,28916,34784
33636,28910,34846
33612,28905,34872
33588,28908,34900
33572,28921,34908
33536,28934,34789
33557,28932,34748
33564,28942,34948
33570,28935,34925
33580,28920,34985
33520,28902,35025
33464,28905,34876
33388,28901,34904
33380,28903,35080
33368,28910,35015
33353,28931,35005
33344,28934,34959
33332,28935,35160
33308,28932,35156
33328,28916,35195
33392,28893,35156
33412,28888,35071
33425,28894,35244
33428,28891,35261
33428,28904,35180
33368,28924,35320
33360,28926,35241
33364,28922,35373
33352,28919,35308
33324,28909,35247
33280,28896,35424
33248,28892,35414
33224,28885,35449
33237,28893,35416
33204,28903,35332
33184,28916,35380
33188,28922,35540
33184,28926,35556
33188,28916,35500
33214,28900,35644
33212,28901,35577
33192,28885,35508
33144,28876,35695
33100,28884,35689
33060,28892,35620
33032,28910,35788
33036,28912,35711
33064,28916,35621
33024,28907,35847
33060,28891,35832
33048,28881,35919
33033,28876,35846
33042,28873,35944
33032,28879,35900
32992,28881,35932
32936,28896,35820
32932,28912,36024
32940,28904,36072
32976,28903,35988
33032,28887,36157
33020,28872,35949
33008,28869,36140
33008,28863,36229
33004,28871,36085
33016,28880,36072
33000,28889,36261
32996,28900,36292
32968,28900,36132
32952,28895,36333
32960,28878,36432
33008,28869,36255
33052,28858,36313
33056,28852,36484
32968,28864,36486
32884,28873,36552
32896,28880,36565
32952,28893,36422
33008,28898,36663
33008,28893,36666
32976,28876,36608
32932,28866,36805
32964,28855,36708
32972,28856,36662
32924,28857,36664
32864,28869,36884
32836,28881,36949
32824,28893,36902
32805,28888,36798
32824,28889,37068
32864,28877,37048
32912,28861,37140
32917,28852,37153
32938,28845,37156
32984,28853,37300
32976,28862,37300
32892,28879,37204
32836,28886,37192
32769,28887,37420
32744,28878,37426
32748,28868,37463
32768,28860,37540
32800,28842,37454
32784,28841,37622
32736,28849,37556
32752,28865,37660
32744,28876,37552
32752,28884,37764
32712,28876,37705
32700,28872,37812
32692,28860,37868
32688,28857,37828
32700,28840,37876
32672,28841,37998
32656,28844,37960
32620,28854,38055
32572,28866,37857
32554,28879,38092
32536,28880,38236
32536,28868,38047
32568,28859,38236
32632,28845,38201
32688,28830,38341
32696,28839,38297
32680,28836,38127
32688,28852,38343
32700,28856,38480
32704,28866,38340
32704,28868,38491
32736,28860,38478
32728,28846,38428
32804,28838,38559
32836,28829,38572
32816,28831,38696
32796,28829,38532
32760,28844,38700
32744,28852,38605
32704,28856,38798
32664,28864,38596
32668,28857,38777
32648,28846,38852
32704,28837,38828
32740,28833,38761
32760,28824,38742
32792,28824,38681
32776,28836,38924
32735,28844,38964
32712,28854,39013
32684,28857,38876
32700,28844,39046
32744,28844,38948
32770,28831,38956
32796,28816,39090
32824,28809,39076
32856,28823,39009
32824,28831,39204
32809,28841,39109
32776,28852,38912
32804,28855,39196
32804,28845,39200
32840,28837,39111
32828,28821,39244
32784,28807,39270
32760,28815,39156
32652,28823,39301
32560,28837,39284
32534,28847,39226
32533,28849,39120
32520,28852,39351
32584,28841,39293
32640,28831,39324
32720,28823,39396
32748,28812,39213
32704,28815,39361
32668,28817,39492
32594,28822,39300
32548,28832,39421
32540,28844,39487
32572,28847,39212
32656,28841,39382
32732,28828,39431
32768,28810,39308
32796,28799,39521
32768,28804,39621
32745,28807,39461
32684,28823,39585
32644,28834,39670
32620,28844,39604
32624,28847,39505
32640,28836,39636
32688,28821,39660
32768,28807,39692
32809,28793,39564
32836,28799,39687
32912,28796,39616
32860,28812,39692
32860,28829,39448
32824,28831,39735
32824,28828,39685
32848,28828,39782
32872,28812,39648
32876,28794,39514
32902,28786,39524
32924,28782,39803
32908,28785,39815
32928,28807,39701
32868,28820,39904
32822,28825,39567
32772,28826,39800
32804,28817,39936
32860,28807,39748
32900,28791,39880
32977,28783,39836
32972,28783,39925
32990,28785,39820
33000,28804,39908
33010,28807,39880
32980,28820,39815
32980,28820,39928
32948,28815,39837
32936,28804,40005
32928,28793,39685
32968,28777,39943
32961,28773,39901
32984,28777,40071
32953,28796,39917
32926,28796,39988
32896,28815,39888
32928,28812,40020
32900,28813,39764
32900,28799,40020
32868,28791,40078
32872,28780,40004
32888,28779,39936
32896,28781,40061
32888,28786,40056
32852,28801,39966
32828,28804,40013
32840,28806,39814
32888,28807,40088
32940,28789,40071
32932,28780,39996
32984,28768,40095
32988,28771,40165
33012,28773,40078
33008,28785,40068
32984,28796,40063
32992,28804,39822
32973,28796,40068
32928,28800,40040
32848,28783,40071
32692,28778,40132
32544,28772,40078
32432,28771,40145
32308,28772,40069
32172,28783,40094
31949,28800,40049
31680,28807,40114
31416,28805,40047
31160,28810,40100
30924,28788,39844
30688,28796,40017
30500,28784,39991
30240,28783,39876
30028,28799,39992
30160,28807,40052
30776,28807,39852
31948,28808,39953
33188,28804,40020
34184,28792,39822
35012,28775,39920
35536,28761,39877
35768,28745,39980
35772,28756,39653
35748,28748,39881
35580,28760,39830
35224,28776,39919
34784,28793,39620
34364,28795,39820
33980,28789,39812
33705,28776,39500
33504,28766,39740
33357,28756,39825
33244,28756,39500
33084,28762,39708
32960,28765,39641
32864,28782,39633
32800,28793,39656
32728,28794,39541
32705,28781,39589
32728,28772,39589
32740,28766,39431
32777,28752,39538
32796,28751,39248
32720,28757,39370
32656,28767,39344
32644,28774,39406
32576,28785,39364
32564,28790,39140
32564,28782,39265
32528,28768,39213
32516,28756,39094
32512,28749,39151
32528,28749,39184
32508,28751,38836
32476,28762,38948
32480,28774,39024
32464,28788,38780
32468,28783,38942
32464,28783,38828
32468,28774,38941
32512,28760,38702
32468,28747,38780
32452,28740,38808
32436,28751,38732
32376,28760,38765
32324,28764,38442
32300,28783,38621
32324,28780,38636
32328,28780,38588
32384,28757,38552
32404,28748,38407
32428,28740,38524
32440,28738,38504
32436,28744,38312
32412,28756,38394
32372,28767,38436
32337,28772,38117
32332,28773,38268
32396,28764,38272
32424,28764,38104
32436,28750,38186
32421,28736,38062
32436,28732,37992
32400,28743,38072
32380,28756,37956
32348,28760,37914
32332,28768,37948
32313,28772,37834
32320,28766,37767
32360,28757,37828
32400,28738,37746
32372,28734,37684
32350,28732,37692
32336,28740,37541
32276,28748,37552
32236,28761,37553
32232,28771,37476
32232,28777,37336
32244,28764,37420
32300,28757,37288
32320,28738,37339
32352,28730,37276
32376,28721,37220
32376,28736,37030
32344,28747,37033
32232,28760,36934
32216,28768,37008
32248,28767,36960
32244,28766,36708
32254,28756,36743
32280,28737,36712
32312,28728,36762
32352,28724,36672
32408,28736,36581
32372,28741,36590
32304,28748,36428
32192,28764,36384
32142,28764,36438
32132,28761,36413
32092,28752,36320
32044,28733,36306
32000,28728,36221
31968,28721,36192
31936,28724,35919
31876,28738,35956
31824,28744,35881
31768,28758,35925
31733,28761,35783
31748,28763,35892
31788,28748,35801
31828,28737,35652
31872,28721,35628
31913,28718,35482
31940,28725,35580
31948,28733,35583
31956,28746,35572
31972,28750,35477
31940,28752,35404
31968,28754,35241
31980,28743,35253
31996,28724,35140
32065,28720,35247
32112,28719,35156
32144,28720,35190
32172,28725,35108
32197,28741,34940
32200,28751,35004
32288,28750,35004
32328,28741,34806
32409,28732,34900
32544,28721,34725
32636,28717,34845
32717,28707,34813
32816,28703,34758
32840,28724,34599
32840,28734,34693
32876,28736,34439
32992,28737,34567
33084,28733,34532
33188,28724,34337
33260,28717,34445
33344,28703,34369
33380,28696,34220
33416,28703,34254
33448,28725,34242
33440,28731,34077
33465,28737,34164
33480,28737,34176
33481,28734,34044
33528,28717,33913
33576,28702,33991
33600,28700,33838
33584,28696,33925
33600,28705,33917
33548,28711,33880
33477,28733,33828
33464,28739,33645
33472,28734,33668
33484,28726,33624
33520,28716,33688
33524,28704,33622
33520,28701,33461
33508,28696,33582
33468,28697,33559
33465,28705,33367
33394,28719,33471
33356,28728,33472
33349,28730,33253
33376,28724,33353
33396,28701,33364
33416,28694,33158
33445,28693,33280
33460,28693,33157
33504,28695,33058
33500,28704,33172
33448,28714,33100
33436,28722,32999
33396,28725,33079
33345,28724,33054
33376,28708,32870
33381,28701,32889
33393,28689,32772
33356,28689,32894
33348,28692,32800
33324,28701,32832
33300,28712,32804
33264,28724,32740
33264,28728,32686
33248,28719,32681
33216,28711,32685
33180,28696,32647
33186,28688,32620
33180,28679,32445
33144,28688,32456
33072,28696,32376
33004,28707,32468
33000,28711,32388
33012,28717,32440
33000,28709,32413
32976,28695,32263
32972,28679,32268
32928,28677,32176
32928,28676,32217
32916,28676,32172
32888,28684,32253
32878,28705,32176
32900,28708,32175
32884,28708,32135
32904,28704,31975
32944,28692,32094
32944,28685,32076
32972,28676,31882
32960,28668,32009
32992,28674,31996
32948,28692,31845
32896,28700,31894
32852,28713,31796
32833,28706,31836
32812,28706,31705
32820,28695,31802
32828,28679,31700
32840,28670,31782
32844,28665,31773
32808,28677,31605
32796,28679,31653
32776,28700,31542
32788,28708,31676
32797,28711,31626
32836,28701,31525
32844,28695,31577
32848,28676,31516
32860,28661,31570
32840,28662,31487
32844,28672,31460
32836,28679,31380
32804,28696,31396
32796,28700,31421
32797,28703,31432
32780,28700,31370
32808,28692,31338
32832,28668,31225
32880,28664,31302
32920,28661,31179
32912,28671,31304
32886,28676,31281
32828,28692,31109
32840,28700,31196
32816,28696,31215
32844,28697,31044
32892,28686,31152
32900,28666,31079
32852,28666,31125
32816,28665,31060
32856,28660,30999
32856,28676,31028
32816,28679,31054
32772,28698,30886
32772,28696,30914
32780,28696,30942
32772,28679,30805
32748,28672,30951
32804,28662,30953
32761,28657,30788
32756,28660,30908
32800,28671,30884
32784,28679,30727
32753,28698,30844
32768,28703,30830
32796,28693,30727
32832,28678,30741
32865,28670,30676
32868,28654,30776
32900,28652,30776
32872,28656,30617
32864,28673,30697
32821,28679,30576
32808,28686,30680
32789,28694,30661
32796,28693,30533
32772,28672,30653
32760,28661,30641
32740,28656,30489
32744,28644,30617
32728,28662,30580
32692,28670,30424
32648,28679,30562
32632,28688,30548
32652,28688,30425
32672,28687,30449
32708,28672,30375
32708,28666,30405
32725,28649,30308
32720,28654,30424
32692,28649,30301
32644,28670,30372
32628,28679,30333
32616,28689,30288
32604,28693,30312
32636,28689,30212
32628,28677,30268
32632,28655,30160
32656,28647,30290
32676,28650,30147
32668,28652,30265
32613,28664,30245
32576,28677,30265
32556,28679,30192
32568,28688,30224
32604,28679,30169
32596,28668,30114
32620,28661,30180
32624,28642,30075
32628,28653,30072
32644,28648,29984
32648,28654,30087
32588,28669,29988
32604,28679,30048
32620,28679,29976
32632,28679,30016
32624,28662,29967
32680,28652,29999
32708,28644,29829
32687,28641,29900
32660,28640,29831
32604,28650,29869
32564,28666,29808
32568,28677,29809
32632,28669,29693
32648,28673,29772
32633,28664,29652
32660,28649,29753
32672,28643,29606
32672,28640,29712
32636,28645,29588
32624,28646,29669
32584,28663,29670
32576,28676,29671
32596,28673,29620
32684,28668,29511
32732,28662,29583
32760,28647,29476
32772,28632,29496
32744,28628,29394
32752,28638,29470
32712,28648,29341
32672,28654,29457
32672,28671,29300
32656,28673,29374
32700,28666,29260
32680,28660,29339
32672,28644,29226
32668,28633,29326
32612,28625,29204
32600,28637,29260
32590,28647,29138
32526,28653,29244
32500,28668,29122
32476,28668,29231
32536,28664,29053
32561,28653,29130
32580,28644,29024
32596,28631,29120
32592,28626,28992
32560,28634,29108
32534,28647,29084
32448,28659,29074
32416,28668,29056
32432,28668,28968
32488,28660,29003
32496,28653,29002
32524,28639,28928
32601,28628,28967
32668,28623,28948
32632,28629,28929
32592,28640,28892
32564,28655,28898
32568,28660,28857
32572,28660,28856
32596,28660,28824
32596,28655,28733
32648,28627,28746
32708,28626,28656
32740,28624,28760
32768,28628,28697
32788,28630,28640
32796,28644,28650
32756,28657,28580
32676,28671,28628
32696,28652,28644
32740,28652,28620
32764,28628,28536
32780,28624,28564
32824,28620,28472
32830,28622,28505
32800,28631,28388
32772,28644,28516
32784,28652,28492
32782,28653,28400
32832,28655,28436
32852,28638,28321
32856,28631,28408
32864,28618,28384
32896,28618,28396
32948,28613,28334
32932,28628,28212
32876,28641,28341
32856,28653,28294
32872,28652,28309
32872,28645,28285
32904,28632,28218
32944,28628,28228
32960,28612,28150
32973,28609,28173
32984,28614,28167
32964,28623,28132
32970,28640,28188
32948,28642,28167
32888,28652,28167
32877,28640,28127
32864,28633,28040
32892,28620,28096
32896,28614,27992
32896,28609,28094
32908,28617,28028
32884,28620,27942
32856,28637,28013
32796,28642,27924
32821,28645,27979
32840,28637,27940
32832,28634,27984
32770,28625,27877
32656,28612,27932
32488,28612,27933
32300,28610,27790
32172,28628,27908
32016,28644,27872
31880,28648,27748
31640,28661,27866
31425,28644,27848
31156,28640,27748
31026,28625,27804
30918,28623,27794
30812,28610,27716
30617,28628,27759
30312,28640,27729
30225,28653,27700
30600,28663,27708
31476,28660,27700
32664,28644,27639
33824,28631,27696
34712,28609,27698
35384,28596,27562
35640,28589,27682
35664,28593,27636
35576,28608,27655
35520,28616,27527
35344,28639,27634
34900,28629,27612
34440,28633,27512
34038,28623,27520
33684,28612,27594
33396,28603,27573
33172,28595,27464
33032,28603,27568
32944,28608,27536
32860,28624,27444
32797,28639,27530
32728,28636,27492
32724,28636,27396
32696,28628,27479
32685,28613,27402
32672,28596,27462
32672,28596,27460
32639,28599,27336
32580,28613,27428
32524,28622,27405
32492,28632,27324
32498,28636,27360
32508,28628,27308
32552,28616,27367
32560,28605,27364
32588,28596,27294
32592,28600,27309
32550,28596,27217
32540,28602,27285
32528,28620,27248
32525,28617,27239
32556,28624,27269
32552,28617,27244
32592,28620,27216
32608,28604,27244
32632,28590,27138
32580,28588,27247
32562,28588,27220
32584,28609,27216
32572,28621,27181
32512,28613,27232
32520,28628,27242
32532,28622,27168
32520,28609,27194
32552,28609,27236
32548,28582,27174
32520,28581,27269
32472,28588,27245
32448,28599,27160
32440,28615,27269
32425,28622,27271
32412,28620,27201
32377,28616,27272
32388,28615,27240
32412,28602,27249
32428,28582,27156
32416,28583,27268
32404,28584,27260
32396,28596,27165
32326,28612,27236
32324,28624,27211
32336,28626,27161
32340,28618,27236
32340,28604,27193
32345,28591,27205
32372,28586,27216
32380,28588,27208
32384,28584,27164
32364,28598,27213
32296,28613,27180
32280,28620,27177
32260,28623,27204
32248,28615,27226
32284,28600,27114
32280,28596,27201
32292,28583,27149
32296,28580,27216
32268,28581,27180
32244,28596,27094
32200,28612,27166
32156,28618,27124
32164,28624,27186
32202,28623,27164
32256,28609,27054
32260,28588,27132
32244,28580,27040
32212,28582,27114
32176,28585,27052
32180,28596,27125
32112,28615,27129
32074,28618,27120
32076,28621,27109
32076,28617,27020
32068,28601,27078
32068,28588,27081
32101,28577,27084
32064,28580,27060
32088,28580,27066
32076,28589,27060
32036,28607,26988
31973,28609,27020
31936,28624,26927
31952,28611,27029
32016,28607,27020
32024,28585,27028
32020,28577,27017
32020,28576,26934
32024,28580,26982
32004,28590,26904
32012,28604,26981
31988,28613,26959
31992,28613,26916
32054,28609,26948
32148,28598,26863
32232,28584,26944
32272,28572,26920
32304,28568,26964
32360,28574,26932
32412,28588,26944
32412,28604,26913
32420,28606,26940
32464,28606,26913
32544,28605,26928
32608,28589,26912
32696,28583,26818
32752,28575,26892
32848,28567,26811
32904,28564,26912
32976,28580,26876
32980,28589,26909
33028,28597,26894
33112,28600,26806
33188,28605,26896
33212,28593,26880
33284,28576,26842
33340,28567,26900
33416,28565,26916
33468,28571,26809
33500,28583,26909
33536,28589,26893
33528,28603,26909
33532,28597,26820
33532,28591,26922
33612,28580,26903
33656,28569,26849
33661,28557,26932
33660,28561,26930
33696,28556,26942
33700,28564,26921
33692,28580,26871
33688,28591,26949
33696,28592,26936
33692,28596,26879
33696,28583,26962
33740,28573,26962
33748,28553,26969
33764,28546,26870
33768,28553,26966
33732,28561,26948
33684,28580,26996
33652,28588,26991
33604,28588,26981
33637,28590,27010
33652,28583,27000
33652,28565,26972
33664,28556,27014
33656,28549,26968
33624,28556,26996
33632,28573,26924
33617,28577,27017
33600,28581,26932
33600,28589,27015
33564,28585,26967
33572,28572,27007
33596,28558,26972
33556,28557,27040
33540,28551,26952
33540,28544,27053
33500,28564,26973
33492,28577,27052
33480,28589,27020
33464,28589,27068
33484,28585,26997
33488,28567,27047
33488,28567,27036
33472,28551,27080
33456,28545,27084
33452,28550,27037
33464,28560,27108
33432,28573,27041
33440,28581,27076
33380,28591,27013
33380,28587,27113
33364,28572,27027
33380,28556,27104
33380,28548,27034
33400,28548,27116
33392,28550,27108
33368,28554,27103
33290,28570,27128
33238,28573,27040
33220,28586,27128
33216,28578,27081
33236,28573,27160
33272,28564,27068
33292,28551,27150
33296,28551,27128
33272,28549,27151
33212,28558,27074
33168,28576,27152
33164,28577,27116
33168,28580,27192
33166,28583,27192
33164,28559,27096
33176,28557,27177
33168,28544,27169
33164,28544,27200
33172,28551,27220
33200,28562,27180
33156,28572,27200
33112,28570,27173
33153,28581,27237
33116,28573,27161
33124,28567,27231
33160,28559,27164
33220,28549,27233
33208,28543,27181
33156,28548,27264
33156,28551,27201
33124,28567,27264
33056,28576,27192
33068,28577,27284
33060,28570,27224
33116,28561,27300
33152,28556,27237
33144,28540,27320
33136,28540,27297
33080,28544,27356
33024,28551,27380
32988,28557,27351
32957,28575,27399
32960,28577,27404
32960,28569,27370
32992,28556,27420
33037,28545,27396
33108,28540,27432
33089,28532,27356
33032,28536,27465
33028,28544,27417
32992,28556,27473
32984,28572,27396
32960,28575,27511
32940,28568,27430
32944,28557,27557
32964,28550,27517
32976,28540,27543
32957,28535,27584
32916,28543,27614
32884,28544,27544
32876,28564,27628
32800,28567,27553
32796,28575,27662
32797,28572,27600
32776,28556,27716
32840,28544,27719
32884,28535,27689
32832,28528,27740
32808,28536,27666
32752,28549,27796
32716,28564,27753
32680,28572,27784
32652,28569,27815
32636,28567,27742
32656,28564,27853
32724,28542,27863
32782,28534,27924
32812,28529,27927
32816,28536,27865
32784,28549,27956
32714,28559,27939
32724,28567,28000
32705,28572,28002
32736,28567,28029
32788,28556,28017
32808,28543,28033
32844,28532,27968
32856,28525,28062
32848,28527,28006
32852,28543,28049
32792,28554,28108
32778,28567,28125
32812,28565,28040
32772,28566,28180
32817,28549,28150
32788,28538,28086
32808,28529,28202
32841,28527,28188
32848,28533,28264
32804,28547,28260
32736,28557,28284
32704,28567,28252
32672,28571,28182
32672,28561,28320
32712,28551,28321
32760,28541,28233
32764,28532,28329
32817,28527,28271
32816,28533,28390
32816,28548,28389
32808,28549,28322
32769,28560,28396
32736,28568,28329
32784,28564,28452
32812,28551,28423
32836,28542,28440
32857,28528,28372
32868,28524,28486
32836,28532,28480
32869,28541,28389
32920,28551,28462
32948,28561,28534
32928,28559,28503
32908,28559,28559
32940,28557,28420
32968,28537,28581
32972,28529,28545
32980,28521,28526
32984,28527,28580
32976,28540,28570
32941,28548,28577
32960,28561,28500
32972,28564,28613
32960,28557,28632
32973,28548,28533
33002,28540,28616
33040,28529,28584
33012,28524,28662
32984,28525,28664
32960,28541,28616
32924,28549,28679
32900,28561,28614
32917,28569,28686
32880,28563,28640
32944,28551,28718
32976,28541,28664
32980,28520,28729
32988,28520,28732
32948,28532,28641
32924,28540,28705
32876,28551,28618
32864,28559,28754
32852,28564,28772
32848,28551,28719
32892,28545,28801
32904,28536,28741
32885,28519,28780
32828,28519,28792
32760,28529,28837
32772,28535,28788
32728,28549,28852
32704,28563,28846
32704,28559,28812
32712,28559,28889
32784,28549,28772
32812,28528,28880
32868,28524,28892
32892,28521,28869
32828,28524,28924
32768,28538,28808
32712,28548,28933
32680,28561,28828
32672,28562,28967
32689,28557,28932
32696,28545,28996
32696,28540,28989
32692,28527,28921
32672,28523,28984
32696,28525,28876
32678,28540,28998
32684,28545,28915
32720,28560,29057
32692,28564,28980
32772,28555,29021
32848,28544,29041
32920,28536,28973
32921,28524,29116
32920,28519,29132
32936,28519,29148
32912,28532,29140
32872,28548,29016
32884,28550,29124
32864,28564,29036
32848,28559,29172
32956,28549,29180
32996,28533,29216
32960,28521,29220
32909,28519,29151
32872,28529,29228
32794,28533,29116
32764,28548,29272
32760,28556,29234
32736,28564,29314
32748,28551,29314
32770,28544,29343
32780,28532,29285
32796,28524,29272
32797,28519,29269
32808,28524,29352
32804,28532,29396
32792,28541,29325
32756,28556,29410
32740,28560,29294
32756,28551,29404
32816,28548,29412
32840,28535,29368
32864,28516,29436
32912,28521,29478
32912,28522,29368
32884,28525,29470
32876,28551,29412
32868,28557,29439
32824,28559,29463
32828,28551,29456
32873,28543,29543
32912,28538,29552
32916,28525,29468
32936,28516,29533
32920,28529,29531
32868,28535,29504
32852,28548,29541
32840,28553,29452
32816,28558,29594
32796,28556,29509
32788,28545,29622
32824,28530,29632
32820,28522,29517
32812,28521,29669
32804,28520,29620
32844,28535,29679
32801,28540,29572
32752,28559,29646
32692,28556,29676
32628,28559,29580
32516,28543,29648
32376,28539,29616
32261,28526,29721
32137,28524,29703
31996,28529,29666
31768,28538,29737
31500,28557,29648
31280,28569,29717
31072,28567,29684
31032,28581,29652
30976,28560,29754
30884,28551,29679
30684,28545,29700
30532,28540,29780
30776,28543,29813
31496,28551,29688
32624,28551,29808
33760,28556,29840
34592,28557,29682
35296,28551,29827
35676,28532,29816
35740,28524,29796
35694,28516,29853
35584,28516,29880
35380,28519,29752
34960,28529,29860
34488,28548,29840
34020,28559,29752
33596,28562,29915
33280,28567,29880
33092,28551,29816
32940,28540,29948
32852,28528,29892
32816,28516,29802
32748,28530,29962
32636,28541,29906
32524,28547,29905
32460,28565,29876
32424,28565,29953
32404,28559,29849
32424,28548,29964
32464,28535,29956
32428,28530,29825
32420,28527,29976
32408,28526,29959
32388,28536,29921
32356,28551,29918
32348,28565,29950
32288,28571,29999
32316,28561,29978
32328,28540,29840
32340,28532,29988
32364,28529,29920
32376,28519,29988
32344,28531,29889
32324,28540,29938
32312,28551,29941
32252,28564,29900
32272,28559,29980
32300,28565,30016
32296,28556,29894
32272,28534,30013
32272,28524,29966
32264,28524,29908
32272,28533,30060
32244,28536,29992
32196,28551,30064
32137,28562,29988
32113,28574,30064
32168,28567,30081
32188,28551,29956
32204,28541,30126
32204,28530,30110
32208,28527,30000
32208,28532,30149
32192,28544,30087
32208,28551,30097
32194,28560,30039
32220,28575,30152
32236,28564,30156
32240,28551,30008
32244,28536,30188
32260,28529,30165
32252,28533,30064
32252,28535,30092
32224,28543,30173
32168,28559,30192
32146,28564,30057
32164,28572,30121
32164,28572,30215
32178,28551,30176
32196,28546,30142
32216,28532,30148
32224,28533,30210
32244,28536,30232
32260,28538,30093
32212,28553,30262
32216,28567,30204
32252,28572,30247
32258,28558,30103
32312,28550,30256
32377,28544,30250
32412,28541,30165
32340,28532,30196
32277,28535,30152
32231,28544,30268
32152,28559,30264
32140,28565,30144
32124,28577,30220
32096,28573,30143
32112,28557,30260
32132,28550,30248
32128,28541,30117
32148,28540,30220
32108,28546,30101
32076,28551,30213
32036,28556,30149
31988,28575,30245
31976,28574,30246
31964,28572,30087
31976,28559,30193
32007,28550,30116
32032,28533,30229
32008,28540,30180
31940,28540,30228
31904,28553,30216
31872,28562,30135
31888,28572,30200
31864,28575,30148
31872,28568,30215
31844,28559,30222
31864,28551,30068
31904,28548,30196
31914,28535,30207
31936,28543,30112
31908,28545,30202
31916,28561,30093
31936,28581,30164
31935,28576,30044
31960,28572,30129
31960,28567,30049
32032,28548,30136
32140,28547,30025
32200,28545,30150
32212,28541,30132
32214,28551,30164
32264,28562,30148
32312,28566,29996
32352,28580,30093
32392,28568,30010
32456,28562,30075
32534,28550,30036
32625,28536,30072
32704,28529,30032
32761,28535,30074
32812,28548,29989
32812,28557,30108
32772,28574,29988
32820,28572,30109
32868,28575,30105
32948,28556,30136
32976,28549,30094
33028,28535,29972
33084,28532,30136
33140,28541,30124
33172,28551,29994
33120,28558,30121
33136,28567,30080
33128,28578,30144
33176,28578,30136
33181,28573,30021
33236,28556,30117
33260,28543,30098
33320,28543,30172
33312,28543,30112
33308,28551,30032
33300,28564,30153
33272,28575,30181
33248,28580,30073
33300,28579,30124
33360,28564,30063
33368,28551,30189
33346,28543,30095
33312,28537,30132
33333,28543,30073
33360,28551,30191
33312,28559,30168
33292,28575,30232
33277,28580,30223
33284,28576,30238
33292,28559,30236
33280,28551,30112
33292,28548,30248
33288,28543,30176
33276,28545,30212
33268,28556,30117
33260,28570,30240
33240,28577,30208
33228,28584,30140
33280,28577,30144
33296,28575,30260
33284,28565,30248
33320,28543,30205
33332,28540,30145
33309,28543,30268
33324,28551,30205
33272,28569,30124
33253,28580,30244
33244,28584,30252
33276,28583,30128
33300,28565,30224
33345,28556,30200
33332,28551,30264
33312,28550,30188
33300,28549,30244
33256,28559,30128
33200,28577,30265
33156,28586,30164
33164,28589,30244
33128,28583,30193
33152,28561,30295
33180,28564,30306
33204,28551,30292
33180,28551,30161
33192,28551,30263
33128,28560,30171
33112,28564,30248
33080,28583,30146
33080,28580,30289
33072,28583,30176
33076,28572,30309
33080,28556,30284
33112,28548,30182
33104,28545,30268
33124,28551,30200
33080,28559,30314
33020,28573,30317
33012,28580,30229
33008,28591,30284
33000,28580,30180
33004,28573,30272
33037,28564,30180
33032,28557,30249
33052,28546,30193
33028,28549,30332
33018,28556,30341
32968,28573,30297
32984,28588,30234
32952,28582,30341
32928,28585,30253
32928,28573,30280
32988,28565,30192
32982,28557,30308
33000,28545,30256
33028,28550,30349
33008,28567,30258
33000,28574,30365
32960,28580,30343
32904,28596,30380
32888,28589,30383
32960,28574,30268
32988,28559,30327
33020,28549,30229
33020,28548,30364
32996,28548,30400
32972,28560,30266
32916,28575,30359
32856,28589,30292
32884,28588,30373
32892,28589,30280
32900,28572,30404
32888,28572,30412
32916,28559,30448
32984,28550,30444
33000,28556,30384
32960,28560,30415
32896,28578,30462
32864,28590,30368
32829,28596,30473
32808,28583,30437
32804,28580,30503
32798,28570,30518
32820,28553,30394
32832,28551,30464
32808,28556,30388
32800,28572,30541
32784,28577,30564
32768,28585,30445
32788,28593,30471
32760,28597,30564
32784,28575,30617
32808,28564,30468
32816,28558,30632
32764,28560,30617
32764,28557,30590
32752,28566,30540
32760,28587,30678
32746,28592,30610
32728,28593,30548
32728,28605,30688
32732,28577,30688
32756,28565,30732
32808,28563,30666
32792,28556,30669
32800,28556,30657
32816,28572,30717
32812,28582,30598
32748,28592,30738
32744,28597,30766
32725,28586,30672
32704,28586,30724
32744,28572,30693
32829,28557,30802
32820,28551,30809
32825,28556,30733
32828,28564,30787
32828,28580,30823
32828,28588,30844
32812,28597,30852
32772,28594,30865
32756,28583,30796
32824,28565,30744
32812,28572,30876
32780,28552,30801
32764,28564,30904
32780,28569,30882
32756,28582,30881
32776,28595,30796
32724,28596,30889
32728,28592,30791
32776,28584,30868
32756,28576,30834
32776,28567,30952
32780,28561,30870
32804,28560,30940
32796,28568,30825
32744,28584,30960
32752,28596,30976
32733,28601,30836
32736,28592,30999
32756,28587,30928
32828,28573,30968
32832,28562,30878
32824,28553,31012
32828,28561,31012
32820,28572,30914
32780,28586,30960
32796,28589,30903
32817,28596,31044
32844,28594,31001
32884,28581,30921
32904,28567,30960
32908,28571,31002
32902,28556,30937
32910,28552,31032
32880,28573,30948
32852,28586,31072
32816,28597,31100
32844,28607,30947
32832,28597,31100
32852,28590,31044
32900,28579,31116
32948,28566,31103
32984,28560,31124
32968,28558,31136
32940,28581,31060
32912,28588,31139
32860,28596,31016
32869,28597,31092
32880,28596,31002
32848,28589,31117
32904,28580,31038
32920,28564,31173
32904,28564,31105
32908,28567,31042
32908,28575,31180
32876,28583,31152
32836,28594,31204
32824,28601,31160
32856,28596,31201
32884,28588,31209
32908,28573,31236
32932,28564,31233
32904,28557,31232
32870,28559,31254
32872,28568,31135
32840,28581,31257
32840,28597,31264
32824,28596,31269
32813,28596,31120
32806,28583,31224
32840,28570,31173
32848,28568,31271
32872,28562,31244
32856,28556,31165
32784,28575,31220
32760,28591,31164
32712,28601,31232
32664,28596,31156
32688,28601,31307
32716,28583,31311
32728,28581,31220
32756,28568,31252
32744,28559,31171
32756,28566,31298
32700,28577,31228
32692,28587,31336
32676,28594,31214
32670,28604,31285
32712,28589,31222
32766,28589,31356
32816,28572,31349
32856,28560,31396
32872,28556,31336
32880,28565,31369
32900,28570,31383
32940,28580,31413
32908,28598,31409
32884,28599,31280
32920,28596,31397
32952,28583,31337
33012,28574,31447
33064,28552,31463
33088,28558,31325
33048,28553,31440
33020,28572,31492
33016,28576,31343
32932,28596,31454
32889,28599,31413
32860,28591,31512
32864,28589,31511
32884,28575,31423
32952,28564,31480
32912,28556,31408
32908,28561,31529
32848,28572,31525
32856,28588,31572
32852,28596,31513
32872,28604,31588
32928,28594,31590
32918,28581,31610
32908,28574,31479
32936,28564,31544
32964,28551,31617
32997,28559,31628
32956,28564,31628
32933,28580,31508
32928,28593,31604
32940,28590,31617
32964,28592,31527
32964,28580,31612
33008,28573,31572
33008,28559,31567
33028,28561,31580
33016,28557,31524
32980,28572,31594
32956,28583,31528
32908,28588,31688
32928,28593,31629
32924,28596,31549
32864,28583,31668
32900,28575,31655
32892,28567,31708
32870,28551,31668
32892,28556,31569
32888,28572,31668
32848,28583,31656
32832,28591,31725
32836,28590,31717
32852,28589,31608
32820,28580,31670
32788,28567,31594
32676,28565,31660
32496,28557,31696
32340,28559,31623
32188,28575,31655
32092,28586,31580
31934,28601,31712
31776,28597,31597
31580,28599,31734
31380,28588,31761
31212,28580,31618
31194,28564,31733
31132,28572,31728
31080,28566,31597
30860,28582,31777
30740,28593,31721
30996,28602,31676
31733,28605,31685
32848,28589,31697
34004,28581,31628
34896,28552,31783
35572,28545,31809
35908,28543,31653
35904,28544,31724
35792,28558,31662
35652,28564,31751
35448,28577,31661
35064,28583,31734
34612,28580,31664
34208,28572,31813
33800,28561,31765
33536,28548,31823
33244,28551,31770
33044,28551,31860
32900,28560,31848
32840,28570,31732
32796,28588,31820
32773,28589,31717
32740,28588,31852
32725,28577,31881
32744,28567,31724
32741,28549,31796
32692,28549,31712
32672,28554,31866
32653,28551,31844
32660,28571,31769
32597,28577,31824
32564,28591,31705
32537,28585,31866
32489,28577,31849
32508,28564,31874
32500,28551,31800
32540,28548,31700
32512,28557,31844
32500,28564,31836
32468,28575,31860
32440,28584,31781
32420,28581,31712
32440,28581,31856
32452,28575,31841
32496,28567,31716
32588,28559,31796
32532,28549,31868
32516,28551,31712
32468,28565,31772
32500,28572,31724
32480,28580,31879
32476,28580,31877
32484,28581,31764
32520,28560,31902
32588,28564,31775
32572,28551,31860
32604,28545,31764
32572,28549,31841
32497,28560,31789
32468,28562,31878
32456,28580,31867
32392,28583,31945
32380,28576,31928
32412,28565,31814
32456,28556,31861
32444,28545,31825
32472,28540,31949
32432,28543,31864
32440,28551,31792
32432,28573,31937
32424,28570,31924
32381,28587,31938
32377,28573,31956
32368,28572,31813
32441,28551,31933
32429,28540,31965
32416,28541,31805
32357,28542,31932
32284,28551,31911
32248,28572,31956
32289,28576,31870
32264,28580,31783
32248,28573,31912
32276,28564,31847
32340,28553,31932
32356,28546,31901
32352,28529,31808
32324,28540,31852
32308,28550,31823
32304,28562,31920
32276,28565,31853
32260,28575,31732
32236,28573,31860
32224,28572,31722
32232,28542,31823
32260,28541,31704
32260,28532,31840
32208,28548,31712
32196,28548,31832
32160,28560,31841
32064,28575,31680
32036,28572,31785
32016,28572,31696
31988,28567,31797
31968,28551,31784
31970,28541,31632
31936,28537,31732
31920,28535,31767
31912,28548,31596
31852,28557,31751
31820,28568,31698
31804,28562,31742
31818,28567,31568
31844,28557,31708
31888,28550,31616
31929,28540,31578
31916,28529,31666
31936,28532,31599
31900,28550,31656
31884,28550,31641
31884,28564,31516
31892,28573,31561
31910,28571,31590
31964,28556,31622
32016,28551,31573
32064,28533,31444
32088,28522,31556
32128,28533,31508
32124,28548,31573
32176,28556,31560
32232,28564,31465
32300,28564,31483
32356,28564,31468
32424,28549,31533
32532,28542,31489
32628,28535,31516
32656,28524,31455
32700,28525,31512
32768,28535,31438
32765,28548,31336
32824,28551,31487
32897,28553,31471
32956,28551,31366
33048,28541,31448
33124,28537,31428
33168,28529,31472
33212,28519,31468
33240,28519,31320
33240,28524,31425
33228,28545,31303
33224,28549,31437
33240,28561,31376
33276,28559,31449
33289,28544,31444
33304,28533,31313
33333,28517,31449
33325,28508,31460
33332,28516,31296
33332,28521,31412
33296,28539,31444
33312,28548,31341
33300,28551,31439
33324,28557,31308
33305,28538,31376
33348,28532,31282
33364,28512,31456
33352,28512,31461
33348,28512,31465
33336,28524,31468
33308,28527,31321
33325,28549,31416
33280,28550,31324
33300,28541,31403
33290,28539,31312
33292,28517,31396
33328,28510,31317
33368,28500,31449
33372,28504,31418
33388,28516,31478
33357,28525,31476
33316,28540,31332
33308,28536,31409
33288,28536,31320
33308,28532,31436
33308,28516,31367
33304,28505,31425
33300,28501,31329
33270,28503,31444
33218,28516,31367
33192,28532,31460
33172,28536,31425
33200,28545,31453
33236,28535,31330
33256,28532,31460
33309,28517,31430
33325,28511,31368
33309,28492,31463
33312,28501,31343
33308,28514,31391
33236,28526,31333
33160,28534,31424
33160,28543,31357
33136,28540,31480
33100,28524,31501
33152,28516,31388
33181,28511,31463
33164,28501,31397
33164,28494,31503
33160,28511,31508
33125,28516,31516
33104,28526,31356
33088,28535,31420
33088,28528,31349
33089,28521,31460
33112,28509,31335
33128,28498,31425
33104,28489,31357
33088,28485,31425
33044,28505,31360
32972,28517,31465
32952,28524,31393
32932,28521,31424
32908,28524,31349
32930,28516,31414
32940,28501,31436
32956,28497,31412
32976,28489,31516
32964,28492,31517
32972,28496,31389
32972,28510,31516
32976,28516,31434
32956,28525,31545
32985,28516,31460
32996,28513,31412
32996,28496,31565
33016,28486,31561
33004,28478,31583
33000,28484,31495
32992,28497,31434
32992,28508,31544
32972,28519,31484
32996,28513,31568
32984,28518,31534
33004,28504,31609
33032,28497,31604
33028,28484,31627
33060,28477,31606
33052,28476,31655
33053,28488,31503
33020,28505,31644
33025,28511,31684
33012,28517,31581
32980,28514,31655
33020,28504,31564
33038,28486,31700
33056,28480,31750
33088,28479,31628
33052,28479,31679
33028,28486,31613
32996,28496,31784
32972,28502,31751
32964,28514,31813
32932,28508,31860
32928,28501,31721
32956,28486,31836
32972,28484,31893
32996,28477,31916
32960,28469,31894
32893,28481,31916
32872,28492,31848
32870,28502,31960
32856,28511,31995
32836,28504,31903
32848,28503,32040
32864,28484,31945
32876,28472,31974
32888,28460,31943
32873,28464,32018
32864,28476,31968
32836,28490,32135
32836,28508,32180
32856,28500,32096
32852,28501,32192
32916,28492,32216
32929,28477,32233
32940,28469,32132
32932,28466,32221
32936,28461,32165
32920,28470,32262
32864,28492,32220
32850,28497,32340
32836,28498,32372
32840,28504,32263
32852,28488,32374
32884,28472,32284
32862,28463,32463
32928,28457,32495
32956,28461,32500
32952,28476,32542
32900,28480,32452
32864,28485,32465
32860,28496,32426
32896,28493,32468
32916,28480,32617
32956,28475,32652
32941,28457,32526
32948,28460,32600
32936,28453,32716
32928,28471,32572
32932,28478,32745
32904,28489,32713
32912,28489,32796
32912,28484,32632
32952,28480,32832
32989,28468,32768
32989,28454,32764
32996,28449,32761
32964,28454,32836
32938,28453,32876
32872,28472,32796
32864,28484,32964
32876,28484,32996
32872,28487,32848
32880,28478,33020
32912,28477,33040
32920,28456,32962
32916,28447,33088
32908,28453,33120
32908,28453,32972
32904,28473,33072
32868,28480,33133
32860,28482,33188
32876,28482,33169
32880,28468,33056
32852,28456,33224
32860,28448,33264
32864,28439,33104
32888,28447,33188
32880,28449,33148
32820,28466,33274
32820,28480,33351
32840,28487,33196
32836,28481,33330
32888,28464,33333
32920,28455,33398
32932,28447,33404
32960,28439,33254
32922,28436,33348
32884,28441,33281
32822,28463,33383
32784,28470,33310
32760,28485,33373
32765,28474,33460
32820,28465,33509
32856,28453,33429
32864,28433,33543
32842,28436,33384
32824,28442,33548
32760,28440,33533
32728,28457,33492
32705,28466,33415
32716,28473,33580
32688,28477,33616
32696,28462,33452
32724,28452,33576
32744,28437,33532
32732,28428,33646
32704,28436,33600
32656,28442,33508
32632,28455,33581
32620,28464,33532
32596,28468,33644
32580,28462,33543
32576,28454,33679
32600,28447,33624
32648,28434,33700
32612,28425,33753
32578,28423,33735
32540,28444,33671
32501,28455,33745
32492,28461,33600
32504,28464,33655
32512,28461,33588
32528,28444,33660
32500,28441,33608
32556,28422,33721
32552,28423,33619
32508,28423,33732
32481,28444,33620
32472,28439,33750
32484,28460,33775
32488,28462,33639
32464,28455,33798
32464,28452,33821
32512,28439,33629
32564,28428,33764
32624,28416,33828
32604,28422,33639
32592,28428,33741
32600,28446,33661
32640,28452,33729
32668,28454,33681
32712,28460,33826
32796,28437,33840
32849,28433,33838
32888,28421,33864
32896,28412,33836
32900,28413,33781
32900,28423,33840
32876,28439,33865
32820,28445,33868
32812,28454,33878
32808,28444,33872
32784,28442,33823
32760,28431,33700
32804,28419,33830
32824,28409,33719
32821,28413,33873
32844,28421,33864
32804,28429,33854
32796,28445,33728
32820,28447,33838
32860,28441,33748
32876,28436,33909
32916,28423,33799
32904,28413,33749
32896,28407,33887
32904,28407,33793
32876,28417,33912
32820,28428,33834
32800,28436,33793
32796,28444,33838
32780,28442,33927
32800,28430,33799
32816,28420,33920
32808,28402,33855
32868,28401,33980
32864,28404,33888
32828,28409,33850
32756,28422,33964
32700,28436,33908
32708,28436,34004
32724,28440,34026
32752,28429,34017
32768,28415,34028
32756,28409,33869
32788,28393,33941
32756,28393,33860
32728,28415,33980
32728,28422,33884
32692,28436,33996
32676,28439,33982
32676,28435,34052
32704,28423,34077
32732,28410,33893
32773,28397,33984
32760,28396,33921
32704,28396,33969
32605,28405,33928
32424,28420,34053
32228,28434,34084
32072,28444,34080
31970,28436,34039
31857,28423,33925
31720,28423,34094
31508,28405,33948
31272,28396,34129
31120,28397,34102
31025,28414,34023
30944,28421,34096
30848,28444,34128
30664,28448,34117
30633,28450,34152
30926,28436,34132
31724,28421,34136
32944,28388,33991
34116,28384,34137
34964,28380,33984
35600,28382,34190
35860,28397,34172
35852,28404,34072
35780,28414,34158
35652,28410,34072
35448,28401,34181
35085,28393,34172
34644,28388,34212
34222,28373,34180
33776,28388,34237
33452,28391,34183
33184,28405,34081
32984,28409,34148
32848,28413,34113
32720,28420,34249
32656,28410,34284
32590,28397,34310
32556,28390,34328
32544,28373,34316
32492,28382,34294
32476,28388,34148
32448,28400,34364
32388,28414,34348
32400,28417,34370
32440,28415,34344
32452,28401,34318
32456,28397,34356
32448,28378,34364
32424,28377,34264
32364,28372,34276
32380,28382,34224
32408,28391,34277
32396,28405,34223
32340,28410,34328
32304,28404,34235
32305,28404,34311
32340,28388,34234
32384,28374,34316
32468,28362,34277
32516,28372,34398
32522,28378,34284
32516,28390,34342
32456,28400,34324
32400,28405,34439
32384,28398,34494
32428,28391,34500
32464,28378,34541
32484,28372,34527
32453,28366,34400
32456,28364,34471
32460,28370,34431
32440,28384,34497
32424,28396,34472
32424,28402,34664
32408,28399,34622
32428,28390,34560
32476,28380,34660
32492,28361,34645
32504,28356,34652
32494,28359,34549
32504,28370,34636
32476,28383,34604
32452,28391,34716
32444,28391,34679
32448,28399,34716
32444,28388,34604
32493,28375,34624
32512,28359,34556
32528,28356,34740
32484,28356,34567
32400,28361,34724
32340,28372,34592
32296,28387,34781
32284,28391,34775
32332,28391,34796
32352,28380,34759
32368,28368,34805
32348,28361,34778
32334,28349,34801
32328,28350,34634
32324,28356,34703
32304,28372,34621
32298,28385,34732
32320,28388,34580
32336,28390,34685
32352,28373,34576
32384,28364,34725
32392,28349,34566
32370,28344,34685
32324,28348,34599
32284,28358,34636
32231,28367,34564
32180,28387,34689
32164,28389,34544
32176,28388,34758
32196,28373,34700
32220,28360,34643
32196,28356,34687
32172,28344,34614
32116,28345,34652
32052,28354,34500
32000,28368,34694
32000,28375,34565
31976,28383,34560
31984,28386,34528
32000,28376,34591
32032,28357,34512
32020,28356,34632
31960,28343,34492
31944,28340,34614
31928,28344,34505
31900,28360,34540
31908,28368,34484
31916,28374,34617
31936,28383,34572
32001,28366,34592
32056,28356,34645
32112,28349,34626
32128,28341,34624
32092,28343,34464
32058,28348,34644
32036,28364,34604
32036,28370,34543
32096,28379,34452
32196,28372,34577
32257,28365,34532
32370,28346,34566
32440,28332,34549
32520,28327,34588
32568,28333,34485
32622,28341,34517
32652,28348,34399
32684,28367,34500
32716,28367,34409
32792,28362,34576
32876,28352,34580
32956,28345,34557
33032,28332,34580
33100,28321,34567
33148,28325,34592
33208,28335,34404
33186,28357,34532
33160,28356,34587
33172,28365,34384
33204,28357,34525
33264,28350,34548
33338,28336,34404
33376,28329,34575
33396,28324,34625
33376,28324,34420
33336,28330,34540
33412,28338,34456
33442,28345,34518
33448,28357,34468
33496,28348,34628
33524,28344,34584
33564,28327,34661
33512,28318,34486
33476,28311,34609
33476,28307,34585
33428,28324,34561
33409,28330,34630
33404,28351,34632
33430,28345,34684
33424,28350,34576
33472,28345,34552
33492,28332,34698
33512,28320,34728
33492,28312,34605
33476,28309,34724
33428,28318,34560
33400,28329,34717
33356,28342,34622
33280,28349,34732
33300,28344,34607
33336,28334,34713
33368,28326,34740
33424,28316,34766
33432,28304,34772
33392,28303,34764
33324,28313,34664
33300,28327,34772
33280,28333,34716
33304,28337,34799
33308,28342,34703
33332,28332,34815
33348,28319,34833
33360,28316,34848
33340,28300,34816
33304,28300,34870
33286,28311,34808
33260,28324,34773
33252,28336,34700
33272,28341,34791
33268,28341,34820
33288,28329,34888
33286,28317,34816
33268,28316,34930
33264,28298,34991
33256,28303,34829
33204,28316,34980
33172,28321,34816
33116,28324,34908
33132,28335,34874
33145,28335,35038
33192,28324,35015
33196,28313,35045
33212,28308,35064
33228,28297,35079
33196,28293,35116
33140,28301,35104
33112,28309,35124
33168,28330,34940
33168,28329,35069
33184,28335,34976
33252,28324,35071
33220,28312,35079
33224,28301,35196
33200,28295,35236
33200,28294,35063
33180,28308,35152
33184,28316,35189
33136,28319,35285
33092,28324,35332
33076,28321,35231
33084,28308,35357
33144,28308,35380
33180,28295,35241
33120,28281,35364
33060,28285,35306
33024,28295,35405
32976,28303,35352
32958,28316,35417
32956,28319,35487
32960,28322,35573
32940,28317,35609
33004,28303,35431
33020,28293,35557
33040,28284,35526
33060,28283,35584
33109,28288,35591
33112,28300,35740
33088,28317,35804
33080,28317,35580
33108,28317,35700
33148,28303,35696
33164,28301,35832
33160,28292,35826
33180,28284,35911
33181,28280,35952
33132,28292,35964
32996,28292,35916
32916,28319,35959
32876,28314,36044
32876,28314,35967
32940,28303,36084
32962,28292,36132
32968,28277,36185
33004,28270,35980
33029,28277,36175
33000,28284,36144
32940,28293,36276
32892,28306,36222
32912,28310,36368
32892,28313,36176
32944,28300,36351
32956,28294,36441
32956,28277,36300
32932,28271,36460
32924,28268,36543
32924,28279,36428
32872,28292,36372
32836,28305,36536
32804,28311,36648
32804,28311,36412
32880,28295,36532
32932,28288,36600
32956,28270,36708
32924,28265,36780
32892,28268,36544
32856,28271,36720
32812,28288,36806
32800,28300,36836
32780,28301,36802
32748,28307,36725
32668,28295,36804
32616,28276,36814
32636,28277,36928
32668,28268,36980
32696,28263,37021
32716,28279,36976
32672,28281,36932
32648,28303,37076
32632,28309,37164
32656,28295,37012
32648,28292,37141
32660,28280,37214
32668,28269,37091
32644,28265,37229
32648,28263,37322
32644,28273,37065
32592,28279,37236
32524,28298,37372
32492,28301,37368
32476,28297,37350
32488,28295,37368
32544,28285,37213
32566,28260,37452
32624,28262,37556
32640,28262,37296
32652,28268,37517
32632,28280,37570
32616,28295,37588
32600,28295,37594
32608,28292,37636
32656,28289,37630
32688,28277,37556
32712,28261,37704
32664,28256,37796
32672,28258,37492
32664,28261,37652
32664,28276,37679
32664,28290,37788
32672,28293,37764
32708,28294,37833
32772,28285,37909
32760,28271,37629
32789,28260,37781
32774,28257,37744
32728,28246,37828
32736,28258,37833
32744,28279,37917
32728,28285,37959
32680,28288,37776
32660,28288,37894
32648,28284,37816
32660,28268,38060
32644,28252,38040
32656,28250,38010
32664,28253,38037
32688,28261,37952
32678,28265,38104
32633,28277,38092
32604,28288,38148
32608,28287,38101
32557,28278,38136
32588,28256,38204
32576,28254,37910
32596,28242,38119
32632,28252,38049
32604,28252,38089
32600,28269,37972
32580,28276,38084
32576,28291,38164
32568,28287,38229
32540,28276,38292
32504,28261,38106
32530,28249,38241
32548,28245,38244
32532,28247,38279
32560,28249,38361
32612,28262,38284
32648,28281,38312
32654,28280,38096
32672,28277,38346
32712,28267,38080
32728,28258,38288
32708,28248,38220
32748,28237,38329
32800,28238,38369
32897,28244,38389
32936,28249,38439
32940,28260,38293
32876,28276,38423
32856,28274,38350
32928,28261,38331
33032,28254,38439
33116,28236,38449
33108,28238,38364
33080,28240,38488
33040,28241,38468
32980,28252,38465
32948,28268,38285
32929,28268,38433
32900,28271,38440
32848,28260,38570
32788,28251,38625
32772,28236,38572
32836,28232,38482
32888,28228,38607
32956,28245,38576
32952,28245,38415
32929,28261,38608
32924,28264,38615
32906,28268,38693
32912,28255,38724
32924,28244,38728
32888,28234,38812
32904,28228,38767
32900,28224,38848
32844,28230,38780
32812,28249,38829
32756,28259,38542
32780,28265,38884
32816,28260,38599
32792,28250,38876
32796,28239,38848
32797,28229,38757
32790,28224,38848
32780,28221,38901
32712,28229,38975
32673,28240,38908
32656,28258,38981
32592,28271,38652
32576,28260,38900
32593,28252,38685
32628,28236,38822
32676,28226,38840
32672,28226,38948
32688,28226,39000
32684,28228,38960
32716,28244,38964
32792,28252,38948
32772,28263,38858
32692,28260,38930
32608,28252,38872
32524,28233,38893
32364,28222,38948
32208,28223,38980
32064,28231,39022
31872,28232,38716
31632,28242,39056
31336,28260,38735
31044,28266,38928
30792,28265,38844
30528,28260,38897
30388,28244,38918
30280,28226,39008
30037,28239,39089
29945,28236,39037
30280,28242,39111
31105,28254,39044
32288,28251,39012
33416,28249,38790
34352,28245,39009
35088,28232,39047
35420,28221,39064
35576,28213,39100
35592,28199,39054
35560,28207,39068
35324,28206,39076
34852,28221,39069
34340,28239,39081
33876,28249,38956
33488,28247,39047
33228,28242,39084
33060,28228,39063
32944,28215,39065
32848,28205,38919
32756,28217,38975
32682,28225,38976
32576,28236,39048
32516,28238,39012
32488,28245,39016
32500,28244,39100
32508,28236,39054
32473,28223,38972
32477,28212,38860
32508,28204,38962
32536,28212,38949
32544,28214,39015
32532,28230,38904
32528,28236,39098
32568,28245,39012
32556,28239,39104
32512,28232,39012
32488,28220,39032
32500,28207,38829
32520,28201,39014
32489,28205,38860
32388,28213,38965
32312,28220,38965
32276,28229,38831
32308,28238,38895
32340,28240,38889
32440,28235,38904
32473,28220,38965
32557,28205,38893
32584,28196,38964
32592,28193,38624
32588,28208,38918
32556,28216,38830
32508,28224,38872
32472,28237,38749
32444,28236,38761
32436,28223,38765
32420,28217,38741
32444,28203,38840
32472,28196,38820
32500,28196,38768
32544,28201,38757
32588,28216,38796
32604,28221,38836
32624,28228,38796
32632,28233,38840
32652,28218,38511
32664,28212,38728
32632,28202,38609
32608,28188,38647
32584,28196,38704
32528,28201,38423
32452,28217,38616
32404,28220,38407
32352,28229,38646
32324,28232,38432
32356,28220,38552
32356,28204,38636
32349,28189,38305
32360,28186,38456
32344,28193,38420
32344,28200,38436
32352,28207,38328
32301,28214,38292
32264,28221,38338
32272,28225,38340
32300,28217,38284
32316,28200,38304
32296,28193,38284
32312,28188,38245
32261,28189,38230
32196,28196,38180
32121,28208,38103
32108,28222,38081
32108,28223,37830
32096,28223,37996
32076,28217,37980
32108,28197,37716
32088,28189,37895
32068,28183,37740
32008,28183,37826
31920,28197,37852
31860,28204,37633
31848,28215,37724
31860,28218,37732
31932,28225,37529
31960,28207,37600
31972,28196,37600
31960,28189,37289
31909,28181,37424
31860,28184,37210
31804,28192,37288
31760,28206,37229
31729,28212,37305
31684,28220,37255
31700,28220,37210
31752,28197,37057
31816,28199,37134
31896,28180,37105
31940,28176,37044
31924,28174,37031
31900,28189,36957
31848,28196,36932
31852,28204,36836
31830,28215,36785
31864,28214,36760
31900,28205,36753
31960,28196,36444
32088,28183,36573
32176,28172,36420
32236,28167,36508
32309,28176,36487
32312,28196,36406
32324,28207,36252
32388,28209,36199
32500,28209,36072
32596,28197,36116
32712,28181,35944
32824,28167,36064
32872,28166,35836
32925,28162,35905
32956,28178,35780
32960,28180,35801
32944,28197,35688
32960,28196,35703
33024,28196,35556
33072,28191,35700
33208,28180,35670
33340,28164,35576
33464,28156,35532
33552,28159,35396
33616,28167,35421
33616,28183,35244
33637,28189,35396
33684,28194,35136
33668,28196,35300
33665,28185,35228
33665,28167,35175
33621,28164,35100
33616,28156,34932
33660,28156,34914
33688,28160,34788
33661,28167,34916
33612,28184,34882
33612,28194,34863
33624,28184,34789
33613,28187,34604
33640,28167,34665
33665,28159,34660
33636,28156,34624
33608,28156,34537
33620,28156,34370
33568,28167,34372
33544,28180,34268
33532,28182,34340
33508,28186,34276
33540,28183,34279
33632,28167,34073
33684,28151,34114
33696,28149,33977
33644,28146,33988
33600,28153,33901
33528,28161,33972
33516,28173,33972
33494,28180,33758
33441,28180,33828
33408,28175,33678
33404,28164,33682
33460,28151,33567
33480,28144,33596
33524,28143,33461
33540,28149,33572
33588,28159,33541
33532,28168,33509
33460,28185,33278
33452,28175,33316
33444,28165,33212
33492,28163,33292
33492,28143,33236
33504,28138,33224
33476,28136,33212
33444,28151,33141
33384,28161,33005
33344,28167,32908
33320,28173,32984
33336,28177,32880
33361,28164,32929
33376,28153,32852
33400,28141,32858
33380,28137,32666
33336,28143,32669
33310,28145,32678
33284,28163,32668
33260,28167,32647
33228,28176,32436
33264,28176,32481
33309,28164,32336
33328,28152,32366
33314,28148,32255
33280,28135,32284
33256,28135,32164
33280,28145,32252
33264,28158,32116
33212,28167,32172
33228,28176,32083
33248,28173,32117
33328,28164,32080
33356,28148,31916
33364,28132,32006
33396,28132,31961
33385,28132,31825
33340,28141,31857
33284,28151,31686
33256,28165,31759
33268,28173,31710
33272,28166,31724
33284,28167,31579
33276,28154,31489
33324,28129,31580
33336,28133,31436
33366,28126,31524
33348,28141,31496
33354,28154,31316
33344,28154,31341
33308,28164,31271
33344,28165,31340
33368,28156,31331
33388,28144,31175
33432,28135,31172
33424,28124,31073
33420,28135,31158
33356,28135,31142
33224,28148,30975
33216,28158,30993
33236,28166,30909
33261,28160,30948
33336,28148,30805
33348,28142,30877
33392,28130,30764
33384,28128,30812
33368,28120,30700
33316,28132,30809
33272,28145,30634
33208,28154,30724
33208,28159,30596
33193,28160,30651
33228,28149,30535
33224,28140,30577
33216,28125,30506
33168,28117,30598
33128,28116,30545
33104,28121,30396
33040,28140,30524
32952,28151,30424
32964,28152,30490
32984,28159,30453
33036,28140,30308
33092,28130,30332
33160,28126,30271
33200,28116,30264
33222,28117,30177
33229,28124,30292
33152,28129,30268
33140,28143,30117
33096,28150,30152
33036,28145,30084
33025,28140,30132
33088,28128,30046
33101,28116,30084
33104,28110,30012
33113,28109,30060
33064,28119,29943
33048,28127,30062
33080,28140,30044
33080,28144,29897
33040,28143,29966
33024,28140,29885
33068,28127,29948
33064,28118,29836
33052,28109,29862
32997,28104,29806
32953,28112,29873
32900,28128,29876
32892,28140,29852
32893,28149,29848
32888,28134,29824
32868,28132,29703
32852,28120,29748
32864,28116,29646
32868,28104,29732
32804,28103,29712
32764,28108,29633
32760,28120,29640
32762,28138,29528
32777,28133,29610
32816,28141,29524
32816,28130,29640
32840,28117,29596
32884,28106,29517
32928,28099,29543
32944,28104,29549
32916,28111,29593
32884,28112,29572
32840,28126,29404
32788,28129,29543
32804,28133,29537
32796,28132,29443
32864,28119,29513
32896,28100,29382
32896,28103,29441
32880,28102,29324
32842,28100,29461
32808,28119,29460
32760,28124,29309
32764,28140,29433
32737,28135,29398
32744,28129,29351
32752,28116,29352
32760,28109,29272
32736,28105,29332
32740,28095,29233
32688,28103,29340
32704,28112,29212
32720,28128,29325
32708,28132,29248
32724,28130,29330
32728,28127,29237
32748,28105,29319
32764,28092,29270
32804,28090,29150
32864,28092,29288
32816,28103,29280
32748,28107,29172
32724,28124,29220
32776,28130,29180
32808,28128,29132
32836,28121,29172
32868,28109,29060
32932,28093,29196
32988,28090,29196
32993,28091,29124
32985,28100,29124
32956,28103,29017
32948,28118,29133
32944,28124,29001
32941,28116,29132
32948,28119,29105
32952,28108,29035
32908,28092,29054
32876,28087,28976
32836,28088,29090
32812,28094,29071
32776,28098,28949
32788,28117,29052
32780,28118,28992
32820,28127,28904
32837,28112,29044
32852,28101,28952
32892,28086,28956
32900,28077,28857
32900,28087,28956
32916,28084,28885
32900,28090,28978
32876,28111,28935
32840,28120,28824
32852,28119,28916
32868,28110,28877
32868,28093,28773
32892,28089,28896
32884,28076,28828
32885,28076,28732
32864,28078,28868
32832,28086,28799
32756,28108,28748
32736,28116,28831
32772,28109,28748
32824,28108,28660
32865,28096,28785
32888,28081,28720
32912,28076,28679
32908,28073,28761
32892,28076,28700
32868,28098,28733
32844,28105,28566
32812,28113,28719
32796,28108,28662
32812,28101,28684
32812,28094,28534
32816,28078,28660
32820,28077,28586
32820,28069,28509
32828,28081,28537
32800,28087,28560
32720,28105,28494
32620,28109,28508
32440,28108,28528
32276,28108,28532
32156,28100,28372
32096,28084,28516
31993,28072,28468
31784,28079,28349
31520,28086,28378
31224,28104,28433
30912,28114,28417
30695,28120,28348
30504,28129,28356
30360,28120,28254
30140,28105,28380
29948,28103,28311
30056,28100,28213
30600,28087,28326
31664,28084,28298
32900,28095,28224
33896,28102,28224
34709,28098,28118
35272,28094,28238
35440,28093,28200
35476,28082,28084
35501,28060,28196
35432,28060,28104
35144,28052,28172
34680,28071,28090
34208,28084,28145
33821,28092,28128
33518,28105,27996
33281,28108,28066
33068,28093,27963
32908,28078,28076
32792,28077,28017
32709,28065,27901
32636,28063,27994
32592,28068,27918
32532,28081,27910
32512,28093,27928
32476,28103,27824
32488,28102,27933
32496,28092,27918
32542,28081,27856
32592,28073,27884
32616,28067,27796
32608,28060,27799
32612,28068,27728
32596,28078,27796
32520,28092,27772
32532,28092,27668
32532,28100,27724
32504,28084,27666
32501,28080,27696
32518,28062,27677
32532,28061,27601
32592,28061,27617
32604,28066,27493
32568,28076,27553
32544,28080,27488
32528,28097,27556
32548,28097,27556
32560,28088,27485
32592,28068,27524
32604,28068,27428
32612,28060,27512
32632,28058,27472
32636,28063,27538
32576,28072,27472
32496,28084,27502
32444,28095,27404
32452,28094,27399
32472,28080,27473
32512,28072,27367
32568,28060,27484
32528,28060,27472
32512,28052,27476
32456,28060,27456
32456,28069,27452
32452,28076,27435
32456,28092,27364
32396,28089,27398
32408,28084,27274
32404,28068,27369
32432,28055,27270
32385,28048,27366
32376,28050,27351
32361,28053,27260
32336,28071,27308
32284,28079,27225
32260,28093,27300
32276,28085,27284
32280,28072,27239
32304,28063,27249
32332,28057,27198
32360,28041,27270
32360,28045,27260
32348,28047,27194
32324,28062,27229
32332,28071,27224
32312,28084,27181
32280,28076,27204
32248,28078,27182
32252,28057,27132
32228,28059,27161
32200,28046,27061
32204,28047,27136
32188,28049,27121
32124,28065,27076
32068,28070,27102
32084,28080,26997
32064,28068,27041
32044,28079,26928
32072,28068,27022
32064,28050,26901
32040,28040,26988
32056,28043,26862
32032,28052,26960
31928,28064,26863
31948,28068,26911
31948,28085,26884
31944,28079,26856
31908,28071,26884
31868,28053,26768
31844,28045,26842
31776,28039,26732
31780,28047,26816
31764,28048,26750
31752,28058,26818
31722,28072,26812
31656,28076,26773
31623,28081,26772
31632,28077,26657
31704,28068,26726
31760,28053,26668
31810,28041,26702
31880,28038,26616
31908,28048,26684
31900,28049,26642
31892,28068,26689
31892,28074,26674
31932,28073,26559
31980,28068,26636
32016,28053,26602
32080,28037,26591
32184,28032,26628
32240,28037,26505
32286,28039,26584
32328,28045,26573
32364,28065,26583
32404,28063,26572
32492,28070,26488
32580,28060,26513
32612,28047,26428
32636,28036,26517
32724,28028,26503
32780,28023,26408
32836,28033,26468
32868,28039,26376
32889,28053,26444
32932,28062,26409
33044,28065,26424
33148,28047,26432
33248,28044,26356
33308,28030,26400
33388,28014,26316
33424,28028,26382
33428,28023,26408
33380,28039,26316
33377,28051,26364
33344,28061,26296
33340,28053,26351
33364,28053,26269
33348,28039,26344
33369,28021,26267
33416,28020,26332
33448,28015,26288
33456,28023,26357
33464,28037,26356
33432,28044,26321
33424,28053,26340
33460,28055,26310
33460,28046,26341
33444,28036,26320
33484,28028,26321
33472,28012,26296
33514,28012,26336
33480,28022,26248
33416,28028,26332
33388,28044,26337
33376,28047,26256
33372,28043,26313
33364,28039,26245
33376,28033,26313
33360,28016,26300
33368,28015,26284
33356,28012,26299
33308,28019,26229
33216,28033,26304
33196,28038,26304
33224,28044,26268
33252,28048,26307
33245,28039,26252
33248,28034,26279
33312,28020,26201
33332,28005,26272
33324,28007,26196
33292,28012,26296
33240,28028,26269
33200,28040,26200
33192,28044,26284
33216,28047,26271
33248,28039,26178
33280,28031,26269
33280,28016,26269
33292,28005,26280
33300,28004,26276
33296,28012,26288
33264,28026,26207
33208,28039,26276
33184,28040,26245
33136,28045,26276
33132,28033,26272
33164,28022,26194
33124,28005,26277
33072,28000,26197
33052,28004,26264
33016,28007,26193
33020,28015,26273
32989,28028,26225
32996,28036,26279
33004,28030,26200
32988,28029,26263
33028,28017,26180
33060,28009,26264
33129,27997,26260
33152,28000,26276
33128,28006,26274
33084,28014,26276
33072,28025,26268
33092,28036,26192
33120,28038,26244
33148,28030,26183
33164,28026,26276
33176,28005,26261
33188,27997,26212
33196,28001,26250
33200,28011,26208
33168,28017,26280
33156,28038,26296
33096,28028,26237
33068,28039,26280
33068,28020,26217
33068,28020,26295
33072,28007,26232
33104,27998,26279
33089,27996,26204
33084,28001,26294
33064,28010,26223
33052,28023,26308
33069,28029,26282
33092,28036,26322
33072,28021,26324
33080,28012,26246
33100,28005,26317
33088,27988,26269
33084,27997,26302
33052,27999,26328
33036,28009,26252
33008,28023,26335
32968,28029,26361
32944,28031,26368
32952,28021,26341
32960,28009,26372
32988,27997,26375
33016,27996,26345
33032,27989,26389
32992,27993,26338
32936,28007,26394
32908,28023,26361
32904,28022,26404
32892,28029,26425
32900,28020,26420
32932,28011,26367
32920,27996,26434
32904,27989,26444
32928,27982,26449
32936,27993,26459
32924,28009,26441
32948,28016,26487
32952,28028,26412
32976,28029,26474
32968,28020,26421
32984,28004,26498
33004,27993,26444
33032,27988,26527
33024,27986,26536
33012,27990,26448
32976,28007,26534
32960,28012,26529
32956,28017,26567
32920,28016,26591
32900,28018,26564
32924,28005,26580
32960,27988,26511
32956,27991,26589
32924,27989,26516
32880,27991,26604
32884,28000,26549
32860,28017,26630
32832,28023,26590
32832,28023,26670
32832,28015,26682
32892,27998,26622
32932,27993,26696
32952,27982,26612
32904,27982,26680
32864,27989,26608
32817,28004,26708
32788,28015,26700
32788,28020,26750
32780,28023,26757
32793,28009,26710
32804,28004,26772
32836,27989,26790
32848,27982,26798
32868,27977,26799
32848,27988,26814
32816,27999,26768
32820,28010,26836
32808,28017,26776
32780,28016,26852
32780,28015,26752
32840,27999,26876
32880,27984,26831
32892,27979,26892
32912,27982,26847
32900,27988,26914
32864,27996,26863
32828,28011,26933
32816,28008,26920
32776,28020,26956
32780,28012,26959
32768,28000,26976
32769,27984,26952
32772,27975,26881
32784,27978,26977
32772,27984,26900
32769,27996,27020
32736,28007,27028
32756,28020,26968
32788,28008,27034
32777,28009,26930
32792,27990,27028
32824,27978,26998
32816,27972,27076
32800,27975,27037
32776,27980,27081
32749,27997,27028
32768,28008,27072
32696,28016,27072
32728,28017,27120
32746,28002,27134
32760,27999,27054
32756,27985,27110
32776,27973,27056
32790,27968,27161
32772,27978,27172
32760,27996,27164
32756,28004,27117
32736,28015,27192
32732,28012,27200
32724,28005,27086
32722,27997,27185
32740,27976,27210
32756,27970,27242
32774,27968,27193
32764,27976,27244
32756,27992,27158
32728,28011,27264
32684,28015,27244
32680,28014,27225
32690,28008,27260
32676,27992,27172
32728,27982,27294
32720,27966,27234
32728,27972,27332
32692,27974,27303
32701,27988,27224
32688,28000,27348
32676,28015,27333
32680,28007,27385
32676,28004,27357
32652,27988,27257
32652,27989,27402
32636,27968,27396
32664,27975,27415
32700,27976,27364
32700,27988,27436
32704,28002,27432
32760,28007,27400
32772,28005,27428
32809,27998,27349
32837,27989,27425
32872,27973,27449
32892,27972,27368
32920,27968,27505
32881,27977,27489
32828,27980,27458
32832,27991,27497
32836,28005,27428
32852,28005,27550
32876,27993,27560
32896,27982,27548
32876,27979,27584
32836,27969,27471
32772,27972,27572
32736,27977,27620
32660,27991,27584
32608,28004,27624
32624,28006,27513
32628,28005,27634
32616,27998,27585
32656,27985,27670
32704,27972,27633
32744,27970,27674
32760,27969,27559
32760,27970,27697
32712,27980,27700
32700,27989,27575
32696,28000,27686
32692,28004,27719
32716,27996,27590
32740,27982,27702
32796,27973,27600
32796,27962,27702
32796,27960,27756
32784,27964,27669
32736,27977,27740
32736,27998,27668
32717,28001,27760
32668,28005,27768
32660,27994,27663
32656,27982,27756
32660,27972,27666
32620,27967,27783
32608,27958,27792
32604,27972,27783
32552,27978,27796
32549,27996,27688
32533,27993,27783
32528,28001,27704
32560,27991,27769
32584,27982,27670
32600,27972,27777
32620,27964,27707
32641,27962,27801
32620,27965,27783
32572,27978,27821
32476,27991,27692
32308,27998,27822
32154,27998,27812
32020,27993,27700
31932,27985,27796
31868,27972,27837
31760,27968,27711
31612,27968,27831
31388,27979,27816
31116,27991,27770
30852,27998,27789
30724,28015,27812
30604,28008,27785
30508,28012,27856
30298,28007,27858
30116,27992,27743
30328,27980,27837
31008,27976,27756
32116,27977,27887
33324,27976,27898
34268,27990,27837
35012,27988,27904
35456,27984,27848
35576,27980,27880
35568,27972,27782
35476,27960,27890
35308,27956,27940
34960,27949,27918
34516,27953,27850
34032,27973,27953
33604,27986,27963
33270,27994,27844
32974,27995,27952
32816,27984,27898
32724,27983,27978
32660,27967,27847
32612,27950,27965
32581,27952,27942
32524,27969,27970
32456,27972,28009
32452,27983,27884
32424,27985,28028
32388,27992,28031
32420,27986,27890
32444,27979,28000
32488,27967,28038
32497,27948,27972
32464,27957,28002
32436,27956,27953
32432,27972,28045
32412,27988,28062
32408,27990,27913
32392,27985,28029
32408,27982,28008
32436,27968,28047
32445,27961,28064
32464,27948,27987
32393,27956,28073
32404,27956,28020
32384,27971,28097
32352,27987,28054
32320,27989,28116
32308,27986,28073
32348,27984,28105
32384,27968,28068
32384,27959,28158
32380,27948,28153
32412,27951,28088
32460,27948,28184
32444,27969,28228
32448,27980,28189
32436,27984,28222
32449,27980,28140
32480,27980,28256
32508,27964,28167
32500,27952,28272
32528,27949,28248
32512,27944,28303
32496,27952,28253
32416,27961,28328
32376,27977,28287
32348,27983,28356
32356,27986,28322
32328,27977,28410
32348,27967,28441
32352,27952,28420
32364,27944,28384
32344,27943,28460
32330,27945,28335
32308,27967,28444
32272,27975,28424
32252,27977,28508
32268,27987,28481
32272,27973,28509
32288,27964,28468
32316,27952,28527
32320,27944,28475
32330,27947,28544
32352,27951,28503
32332,27964,28556
32268,27976,28535
32228,27983,28496
32200,27976,28525
32216,27977,28437
32236,27962,28556
32276,27948,28460
32284,27947,28593
32276,27940,28551
32272,27953,28529
32242,27962,28573
32196,27978,28612
32168,27980,28544
32160,27983,28572
32148,27976,28480
32126,27964,28613
32132,27948,28548
32152,27940,28630
32156,27948,28647
32140,27948,28656
32096,27958,28644
32041,27968,28661
31992,27978,28642
31952,27982,28517
31972,27972,28652
31988,27953,28668
32020,27944,28588
32012,27943,28616
31985,27932,28581
32000,27949,28581
31945,27962,28626
31964,27962,28548
31932,27976,28688
31924,27980,28668
31932,27972,28698
31944,27952,28698
32005,27950,28612
32044,27943,28668
32056,27937,28556
32048,27940,28716
32044,27958,28660
32064,27969,28581
32076,27973,28700
32108,27976,28640
32200,27965,28724
32312,27957,28718
32412,27937,28658
32416,27936,28709
32452,27937,28736
32516,27940,28724
32556,27952,28737
32584,27968,28688
32633,27975,28647
32708,27973,28702
32732,27965,28589
32844,27943,28735
32953,27937,28660
33044,27929,28727
33132,27927,28600
33156,27936,28712
33192,27952,28677
33208,27954,28762
33264,27964,28788
33312,27967,28772
33364,27961,28784
33364,27942,28673
33444,27932,28770
33480,27924,28669
33496,27925,28764
33516,27929,28674
33496,27937,28800
33436,27951,28700
33412,27957,28805
33440,27961,28711
33496,27952,28860
33552,27943,28828
33556,27931,28876
33520,27921,28783
33508,27920,28896
33476,27920,28886
33472,27940,28926
33472,27946,28860
33472,27958,28948
33485,27956,28933
33464,27948,28964
33448,27937,28975
33461,27920,28998
33436,27918,28920
33428,27918,29004
33388,27927,28913
33380,27936,29021
33368,27948,28975
33348,27953,29016
33344,27952,28959
33344,27949,29028
33388,27938,28993
33396,27924,29077
33360,27921,29020
33352,27916,29071
33340,27920,28980
33324,27928,29073
33292,27952,29028
33238,27958,29077
33192,27960,29020
33220,27940,29084
33204,27936,29021
33216,27924,29127
33264,27918,29084
33252,27911,29181
33236,27924,29136
33196,27934,29070
33146,27942,29191
33132,27941,29164
33096,27942,29062
33092,27942,29134
33072,27931,29196
33088,27917,29221
33088,27916,29120
33076,27904,29199
33028,27911,29205
33004,27925,29260
32980,27940,29248
32992,27945,29114
32980,27944,29277
32960,27938,29284
32948,27932,29148
32996,27911,29308
32956,27906,29301
32952,27911,29156
32904,27910,29264
32892,27928,29168
32844,27940,29308
32840,27941,29316
32856,27949,29180
32872,27938,29261
32884,27924,29292
32884,27911,29309
32880,27900,29226
32880,27911,29334
32900,27910,29349
32880,27925,29212
32852,27936,29373
32864,27941,29335
32848,27943,29284
32884,27937,29388
32920,27921,29396
33004,27911,29248
33044,27896,29401
33064,27902,29373
33068,27904,29332
33068,27920,29432
32996,27933,29393
32992,27941,29325
32984,27938,29373
32980,27935,29308
32976,27927,29447
33012,27910,29449
33040,27893,29407
33012,27902,29420
32992,27906,29367
32984,27917,29500
32976,27930,29506
32993,27932,29353
33004,27936,29513
32992,27927,29461
33008,27923,29536
33052,27905,29480
33056,27894,29390
33008,27897,29559
32980,27896,29581
32940,27911,29492
32888,27926,29549
32880,27933,29598
32888,27937,29496
32876,27924,29516
32893,27919,29604
32888,27907,29590
32876,27890,29647
32896,27892,29660
32944,27900,29574
32908,27910,29630
32878,27927,29533
32852,27926,29701
32848,27933,29697
32856,27920,29748
32844,27917,29736
32852,27902,29661
32884,27894,29701
32877,27893,29620
32852,27898,29760
32820,27908,29718
32828,27925,29820
32800,27928,29815
32748,27922,29752
32758,27924,29793
32798,27909,29717
32844,27901,29884
32832,27892,29772
32856,27892,29897
32836,27897,29870
32832,27908,29965
32816,27927,29926
32792,27927,29829
32768,27934,29936
32804,27920,29874
32840,27911,30023
32858,27892,30041
32852,27890,29948
32884,27886,30068
32889,27892,29980
32880,27911,30008
32840,27909,29985
32840,27918,30076
32924,27921,29953
32929,27914,30100
32918,27910,30120
32929,27902,30065
32908,27888,30136
32924,27886,30045
32908,27885,30174
32892,27894,30199
32872,27911,30118
32860,27924,30148
32836,27920,30087
32876,27917,30248
32912,27904,30268
32952,27892,30165
32949,27880,30245
32960,27881,30148
32932,27887,30292
32920,27900,30260
32920,27910,30202
32880,27917,30337
32872,27922,30332
32912,27908,30280
32960,27900,30319
32984,27893,30246
33024,27880,30413
32984,27883,30341
32960,27884,30284
32940,27898,30448
32888,27904,30372
32872,27921,30326
32848,27916,30408
32864,27908,30339
32892,27897,30460
32932,27892,30496
32964,27879,30356
32997,27880,30518
33004,27886,30508
33004,27903,30541
32940,27909,30543
32976,27911,30412
33008,27911,30515
33032,27904,30546
32997,27897,30517
33028,27884,30598
33018,27871,30493
33005,27869,30598
32964,27879,30449
32996,27892,30604
32981,27899,30560
32980,27909,30640
32921,27916,30645
32908,27906,30504
32928,27891,30668
32920,27877,30633
32928,27870,30518
32864,27868,30650
32860,27876,30536
32844,27884,30625
32800,27898,30572
32770,27911,30634
32784,27911,30592
32808,27907,30692
32828,27888,30714
32888,27878,30741
32896,27873,30756
32852,27865,30636
32920,27877,30704
32953,27879,30642
32954,27893,30780
32924,27902,30791
32948,27908,30661
32976,27902,30724
32960,27881,30703
33045,27872,30814
33072,27868,30805
33088,27868,30736
33044,27871,30776
32988,27880,30698
32892,27895,30852
32852,27904,30828
32832,27909,30696
32856,27899,30788
32984,27885,30764
32952,27868,30812
32988,27864,30736
33001,27862,30893
32952,27868,30892
32892,27885,30917
32880,27888,30913
32880,27901,30930
32834,27900,30904
32832,27896,30936
32865,27876,30952
32912,27869,30945
32936,27860,30809
32916,27856,30900
32869,27860,30950
32820,27873,30860
32768,27890,30917
32736,27896,30816
32760,27900,30976
32780,27890,31004
32816,27877,30894
32832,27865,30983
32828,27856,30860
32832,27858,31002
32828,27861,30970
32816,27867,31023
32820,27884,31044
32840,27885,31033
32840,27894,30952
32836,27880,30892
32832,27874,31052
32856,27863,31070
32880,27853,30916
32904,27849,31064
32884,27860,31088
32868,27871,30929
32885,27884,31076
32889,27886,31096
32944,27885,31108
32944,27879,31116
32948,27870,31118
32956,27863,31072
32980,27847,31004
32964,27852,31137
32957,27857,31120
32952,27869,30988
32900,27877,31140
32888,27885,31080
32885,27886,31160
32876,27879,31176
32844,27865,31045
32840,27858,31124
32877,27847,31165
32924,27844,31040
32896,27854,31157
32921,27863,31135
32952,27872,31204
32908,27884,31168
32864,27881,31181
32840,27874,31087
32844,27863,31132
32868,27850,31164
32896,27843,31221
32929,27832,31109
32904,27844,31197
32813,27852,31223
32772,27875,31132
32736,27884,31224
32748,27878,31204
32748,27877,31098
32760,27867,31265
32744,27854,31181
32760,27844,31222
32796,27837,31284
32836,27845,31201
32820,27860,31144
32800,27864,31212
32788,27881,31122
32724,27881,31304
32669,27874,31308
32704,27862,31188
32720,27851,31272
32712,27842,31253
32700,27836,31235
32656,27846,31321
32640,27856,31172
32596,27862,31344
32552,27873,31296
32468,27876,31209
32352,27875,31308
32192,27861,31309
32044,27858,31220
31960,27844,31328
31864,27838,31320
31728,27848,31250
31524,27860,31337
31281,27868,31380
31048,27886,31210
30940,27885,31372
30868,27876,31372
30808,27866,31221
30676,27860,31393
30484,27856,31375
30564,27850,31244
31000,27853,31385
31940,27848,31401
33132,27861,31268
34168,27864,31397
34980,27860,31376
35564,27856,31270
35808,27842,31432
35764,27829,31420
35637,27821,31288
35520,27813,31436
35240,27829,31396
34712,27839,31461
34252,27854,31396
33852,27857,31306
33480,27870,31473
33192,27868,31452
33012,27855,31324
32897,27831,31460
32840,27833,31492
32780,27820,31335
32692,27833,31500
32660,27847,31462
32608,27856,31407
32588,27860,31495
32528,27861,31449
32528,27858,31514
32592,27845,31417
32616,27836,31366
32612,27823,31399
32556,27820,31420
32484,27829,31369
32440,27838,31503
32436,27845,31488
32420,27861,31362
32429,27863,31472
32464,27853,31488
32444,27840,31334
32440,27824,31511
32472,27823,31428
32468,27818,31346
32444,27824,31495
32512,27839,31412
32448,27852,31469
32433,27853,31364
32420,27864,31488
32420,27850,31517
32420,27836,31367
32516,27828,31491
32569,27814,31512
32528,27812,31405
32504,27820,31410
32492,27829,31548
32448,27839,31575
32440,27853,31425
32352,27850,31552
32356,27848,31606
32404,27836,31504
32424,27822,31476
32448,27813,31604
32492,27810,31638
32448,27817,31490
32425,27829,31639
32368,27836,31677
32360,27847,31511
32376,27852,31648
32381,27839,31682
32400,27829,31540
32428,27816,31685
32410,27813,31596
32389,27807,31708
32368,27815,31532
32340,27812,31556
32312,27829,31709
32328,27840,31628
32328,27840,31708
32304,27836,31560
32336,27828,31733
32384,27813,31708
32364,27806,31694
32372,27805,31576
32388,27809,31712
32312,27817,31708
32312,27831,31608
32280,27840,31744
32248,27842,31668
32256,27839,31588
32244,27823,31741
32244,27810,31705
32252,27811,31572
32208,27805,31740
32212,27805,31648
32204,27823,31721
32176,27830,31589
32144,27839,31688
32132,27840,31596
32160,27832,31716
32161,27826,31613
32165,27808,31711
32192,27803,31708
32193,27801,31572
32184,27804,31671
32152,27813,31704
32140,27828,31525
32064,27836,31684
31980,27836,31607
31973,27833,31577
31980,27817,31668
32009,27805,31581
31972,27798,31540
31952,27797,31652
31928,27805,31640
31916,27807,31486
31892,27823,31623
31904,27828,31538
31877,27836,31558
31888,27828,31474
31892,27812,31601
31924,27801,31516
31944,27792,31591
31960,27796,31444
31948,27790,31549
31948,27812,31529
31893,27821,31465
31868,27828,31552
31840,27830,31573
31888,27823,31404
31960,27816,31552
32016,27804,31509
32128,27793,31450
32172,27789,31485
32200,27790,31490
32260,27798,31362
32236,27817,31385
32277,27827,31512
32360,27828,31452
32440,27821,31512
32508,27812,31332
32593,27788,31389
32620,27783,31466
32684,27780,31487
32728,27783,31444
32784,27791,31412
32776,27809,31460
32820,27810,31485
32896,27817,31352
32941,27812,31476
33008,27799,31470
33088,27783,31340
33145,27778,31453
33164,27777,31396
33208,27783,31409
33188,27793,31477
33192,27807,31392
33253,27815,31463
33264,27812,31340
33272,27806,31477
33296,27796,31450
33368,27783,31317
33376,27777,31494
33396,27765,31504
33422,27778,31373
33444,27788,31449
33436,27796,31356
33449,27804,31513
33452,27806,31484
33460,27805,31362
33496,27792,31472
33516,27782,31511
33524,27773,31390
33520,27770,31508
33508,27775,31548
33498,27777,31394
33460,27796,31462
33470,27798,31417
33452,27811,31471
33480,27792,31392
33488,27783,31486
33500,27772,31412
33512,27766,31564
33492,27761,31565
33488,27764,31423
33468,27777,31572
33436,27794,31567
33452,27796,31426
33460,27799,31564
33452,27804,31548
33444,27780,31446
33478,27769,31554
33508,27759,31445
33540,27764,31588
33536,27766,31508
33492,27776,31564
33448,27789,31444
33456,27793,31508
33464,27803,31428
33468,27794,31558
33478,27783,31533
33488,27770,31476
33508,27759,31524
33480,27756,31440
33460,27757,31610
33456,27772,31608
33432,27783,31449
33388,27797,31609
33396,27793,31580
33388,27785,31472
33328,27776,31616
33344,27770,31623
33368,27765,31502
33352,27751,31585
33364,27756,31468
33336,27770,31623
33272,27781,31642
33236,27793,31477
33196,27792,31592
33184,27780,31608
33208,27780,31481
33237,27767,31620
33217,27757,31560
33236,27748,31440
33240,27749,31621
33192,27762,31556
33152,27769,31444
33112,27783,31606
33088,27788,31566
33064,27781,31605
33008,27769,31470
33020,27756,31601
33016,27751,31622
33012,27747,31536
32953,27748,31503
32944,27764,31565
32904,27777,31633
32856,27783,31512
32836,27783,31489
32836,27776,31542
32841,27764,31465
32824,27757,31617
32844,27749,31612
32836,27740,31636
32816,27749,31580
32796,27759,31508
32760,27771,31572
32752,27778,31495
32712,27782,31661
32716,27779,31676
32748,27764,31521
32756,27751,31605
32712,27742,31524
32768,27740,31668
32788,27743,31684
32760,27759,31542
32756,27772,31685
32784,27773,31621
32772,27783,31696
32776,27768,31554
32792,27756,31736
32796,27749,31638
32812,27732,31621
32800,27730,31634
32820,27739,31721
32804,27750,31718
32820,27756,31616
32844,27770,31737
32844,27769,31751
32868,27769,31637
32908,27748,31796
32940,27740,31799
33000,27736,31645
32976,27730,31815
32956,27732,31733
32869,27748,31806
32820,27762,31701
32832,27767,31844
32840,27764,31800
32864,27760,31836
32908,27753,31892
32932,27737,31838
32936,27727,31777
32884,27724,31824
32832,27732,31839
32809,27740,31813
32816,27757,31943
32812,27765,31864
32772,27767,31838
32800,27759,31968
32856,27751,31884
32884,27729,31945
32868,27726,31992
32844,27732,31952
32805,27727,31829
32752,27741,32002
32760,27749,32031
32728,27759,31897
32716,27761,31952
32732,27764,31888
32780,27749,32036
32777,27740,32072
32796,27725,31976
32832,27721,31905
32784,27726,32023
32728,27733,32030
32692,27746,32096
32648,27759,32101
32628,27765,31948
32660,27756,32061
32688,27744,32067
32704,27735,32124
32712,27722,32135
32752,27717,32140
32756,27724,32060
32740,27728,32007
32720,27749,32148
32700,27758,32137
32720,27759,32017
32728,27749,32169
32728,27742,32184
32770,27726,32032
32808,27712,32176
32828,27713,32138
32816,27717,32105
32804,27733,32117
32788,27740,32061
32824,27750,32188
32800,27749,32156
32812,27748,32132
32860,27734,32197
32908,27716,32104
32928,27716,32230
32924,27705,32269
32892,27712,32263
32832,27725,32263
32800,27740,32270
32792,27749,32186
32805,27749,32121
32820,27744,32257
32800,27732,32252
32848,27720,32163
32872,27710,32196
32852,27711,32132
32796,27712,32269
32789,27724,32305
32792,27725,32160
32784,27740,32168
32780,27750,32230
32780,27740,32149
32808,27733,32310
32828,27712,32319
32872,27705,32172
32880,27706,32338
32920,27709,32175
32924,27720,32325
32864,27737,32346
32841,27740,32193
32828,27738,32341
32864,27733,32364
32860,27721,32206
32888,27716,32372
32860,27700,32271
32844,27697,32292
32812,27703,32378
32756,27718,32287
32696,27724,32245
32676,27733,32385
32680,27737,32324
32712,27733,32324
32720,27717,32263
32788,27709,32372
32792,27700,32425
32796,27698,32252
32780,27696,32388
32761,27712,32400
32736,27728,32272
32752,27735,32332
32772,27732,32276
32772,27728,32425
32776,27721,32337
32792,27708,32292
32832,27698,32438
32884,27689,32356
32856,27696,32336
32788,27713,32453
32764,27720,32415
32750,27730,32359
32724,27731,32416
32724,27726,32318
32708,27716,32413
32704,27701,32423
32756,27701,32461
32756,27693,32356
32756,27694,32325
32708,27704,32460
32692,27724,32482
32652,27727,32316
32660,27728,32480
32596,27726,32473
32588,27712,32379
32604,27701,32316
32632,27693,32445
32608,27689,32326
32612,27696,32388
32592,27708,32330
32532,27715,32429
32496,27720,32333
32462,27727,32495
32468,27721,32456
32468,27710,32462
32496,27701,32452
32532,27686,32501
32536,27684,32503
32532,27692,32516
32492,27703,32524
32484,27716,32519
32508,27720,32535
32588,27724,32372
32616,27722,32533
32620,27705,32364
32664,27697,32484
32712,27689,32376
32708,27683,32421
32692,27684,32377
32680,27698,32455
32636,27716,32385
32652,27716,32476
32684,27722,32553
32700,27717,32563
32732,27702,32556
32768,27688,32564
32844,27683,32427
32896,27679,32544
32884,27682,32406
32828,27692,32525
32756,27710,32430
32736,27719,32542
32696,27721,32446
32720,27711,32580
32740,27701,32497
32728,27695,32421
32704,27684,32540
32704,27678,32575
32708,27681,32436
32712,27688,32500
32704,27705,32482
32712,27716,32476
32704,27713,32505
32752,27711,32436
32808,27700,32588
32868,27685,32552
32848,27677,32476
32820,27668,32578
32820,27668,32582
32880,27684,32604
32852,27698,32582
32828,27708,32460
32844,27710,32612
32868,27705,32608
32860,27692,32464
32900,27677,32564
32922,27665,32464
32936,27673,32629
32932,27673,32576
32916,27683,32487
32852,27695,32640
32812,27707,32577
32824,27708,32505
32852,27701,32640
32848,27694,32657
32888,27679,32484
32932,27668,32584
32948,27665,32492
32960,27668,32598
32940,27683,32497
32944,27692,32652
32936,27700,32625
32980,27707,32486
32968,27696,32551
32956,27682,32495
32856,27677,32584
32700,27670,32494
32508,27664,32572
32408,27671,32533
32260,27676,32625
32146,27698,32584
32012,27704,32650
31804,27711,32669
31576,27709,32508
31380,27693,32607
31316,27681,32495
31272,27677,32552
31268,27676,32481
31137,27683,32551
30912,27685,32624
30925,27697,32505
31392,27708,32606
32364,27709,32668
33568,27696,32501
34628,27681,32604
35416,27676,32616
35956,27651,32519
36048,27655,32608
35924,27653,32505
35800,27670,32560
35601,27676,32504
35268,27684,32647
34824,27695,32652
34376,27686,32649
33984,27685,32667
33652,27676,32516
33380,27663,32665
33172,27668,32524
33020,27655,32544
32872,27673,32496
32788,27690,32634
32728,27684,32631
32660,27698,32647
32608,27693,32648
32648,27677,32480
32644,27663,32535
32625,27655,32472
32626,27654,32628
32604,27660,32519
32544,27674,32608
