ECG,EDA,RR
31936,5861,36820
31864,5898,36885
31784,6037,37014
31700,6048,37097
31672,6022,37229
31756,5997,37193
31852,5996,37383
31944,5820,37253
32032,5864,37284
32020,5768,37148
32028,5809,37404
31988,5909,37529
31924,5988,37412
31856,6110,37519
31816,6042,37511
31852,5972,37655
31968,5933,37821
32048,5799,37748
32120,5808,37900
32180,5774,37751
32176,5812,37800
32106,5929,38057
32040,6010,37900
31992,6046,37976
31944,6083,38060
31992,6013,37977
32100,5914,38121
32192,5835,38276
32288,5757,38173
32336,5840,38261
32293,5839,38213
32184,5900,38024
32069,6083,38500
31993,6083,38375
31932,6038,38404
31932,5992,38631
32001,5947,38519
32093,5844,38532
32220,5932,38478
32296,5802,38598
32296,5841,38764
32244,5984,38695
32165,6048,38876
32128,6150,38381
32132,6060,38889
32156,5990,38870
32217,5991,38983
32264,5838,38816
32316,5768,38935
32316,5831,38868
32272,5869,39029
32276,5918,39231
32228,6076,39109
32208,6104,39229
32268,6055,39165
32428,6051,39209
32576,5947,39151
32652,5832,39086
32718,5818,39254
32676,5795,39317
32561,5900,39244
32432,5951,39413
32292,6040,39143
32173,6084,39564
32184,6106,39417
32280,6033,39344
32449,6023,39544
32608,5869,39237
32732,5791,39712
32772,5852,39599
32796,5871,39687
32736,6008,39649
32624,6073,39732
32556,6237,39665
32536,6092,39716
32584,6013,39629
32684,6027,39314
32760,5877,39865
32768,5796,39455
32754,5878,39896
32677,5902,39796
32596,5947,39969
32492,6081,39844
32412,6109,39988
32382,6166,39860
32396,6054,39884
32468,5945,39751
32556,5910,39900
32616,5830,39919
32653,5959,39805
32626,5911,39567
32580,5955,40020
32540,6102,39868
32454,6110,40036
32388,6161,39860
32444,6053,39840
32508,5974,39919
32544,5860,39806
32668,5900,39828
32760,5851,39888
32812,5883,39764
32772,6039,39692
32660,6088,39916
32570,6120,39751
32564,6199,39500
32624,6096,39774
32708,5981,39620
32809,5862,39660
32916,5847,39574
32960,5836,39559
32924,5985,39561
32804,6006,39220
32642,6157,39515
32461,6150,39463
32328,6148,39549
32280,6063,39384
32372,5969,39364
32496,5967,39237
32604,5837,39241
32664,5848,39324
32685,5925,39130
32668,5976,39271
32549,6112,39053
32416,6124,39140
32436,6132,38520
32496,6045,38889
32560,6018,38866
32604,5881,38960
32732,5900,38756
32824,5885,38714
32844,5916,38741
32844,6063,38580
32781,6111,38657
32653,6217,38452
32596,6141,38485
32628,6133,38336
32648,6004,38245
32700,5889,38316
32741,5907,38109
32716,5873,38071
32708,5924,38023
32665,6040,38084
32584,6113,37912
32496,6144,37788
32468,6198,37774
32552,6089,37289
32696,5994,37718
32844,5884,37536
33024,5908,37481
33098,5883,37095
33056,5923,37483
32924,6070,37197
32832,6126,37198
32716,6145,37248
32668,6161,37020
32640,6065,36911
32652,6058,36772
32614,5904,36796
32692,5849,36820
32801,5891,36593
32868,5934,36487
32910,6042,36391
32960,6111,36373
32976,6205,36253
33004,6169,36329
33033,6075,36124
33092,6022,35981
33180,5896,35856
33100,5915,35868
32904,5883,35719
32644,6014,35832
32524,6042,35519
32716,6148,35510
33332,6156,35447
34304,6152,35249
35728,6077,35241
37408,6071,35088
39288,5924,34996
41288,5846,34960
43032,5951,34817
44408,5964,34904
45668,6024,34552
46848,6118,34608
47632,6225,34416
47672,6173,34560
46496,6170,34298
43276,6055,33953
38432,5911,34253
33424,5879,34181
29104,5976,33932
26120,6011,33725
23904,6052,33764
22792,6137,33386
22716,6221,33556
23685,6176,33640
25072,6119,33373
26453,6009,33342
27728,5949,33220
28832,5919,33016
29796,5912,33157
30576,5968,33020
31145,6033,32740
31604,6136,32665
31892,6244,32660
32008,6174,32540
31996,6106,32399
32044,6017,32464
32132,5967,32173
32260,5903,32144
32424,5931,31728
32545,5957,31924
32576,6103,31966
32553,6178,31668
32432,6177,31657
32408,6216,31535
32432,6112,31367
32461,6012,31485
32545,5996,31113
32640,5897,31180
32724,5897,30986
32868,6035,31125
32911,6072,30802
32800,6167,30948
32720,6179,30697
32736,6215,30446
32752,6125,30405
32740,6036,30481
32776,5919,30412
32870,5952,30333
32924,5913,30024
32940,5960,30231
33008,6122,30028
33032,6168,30064
33040,6211,29995
33112,6160,29826
33234,6142,29968
33408,6054,29629
33448,5935,29698
33420,5883,29356
33392,5920,29612
33360,5953,29399
33206,6094,29410
33092,6167,29223
32956,6262,29378
32788,6184,29108
32716,6098,28940
32833,6047,29029
33056,5924,28847
33236,6044,28884
33184,5940,28745
33088,5965,28714
33084,6117,28643
33152,6177,28596
33336,6191,28438
33408,6219,28599
33472,6110,28373
33476,6089,28349
33636,5946,28217
33760,5877,28382
33812,5973,28093
33800,5989,28174
33656,6054,28105
33476,6304,27972
33384,6242,28139
33436,6207,27829
33544,6108,27928
33604,6089,27772
33765,5960,27948
33852,5955,27713
33876,5929,27503
33860,5995,27676
33794,6211,27799
33696,6191,27572
33568,6193,27616
33548,6217,27470
33572,6111,27446
33664,6063,27519
33740,5926,27399
33824,5949,27592
33812,5933,27492
33832,5975,27345
33822,6133,27388
33640,6196,27238
33592,6199,27448
33668,6212,27244
33800,6108,27029
33876,6071,27375
33940,5958,27076
33984,6007,27168
34048,5933,27241
34056,5979,26983
33900,6088,26872
33500,6172,27148
33204,6236,27005
33088,6186,26788
33328,6182,27060
33589,6047,26818
33772,5923,26941
33758,5933,26804
33668,5951,27010
33656,6065,26801
33544,6121,26577
33356,6197,26790
33148,6203,26792
33012,6232,26598
33020,6132,26444
33084,6198,26535
32980,5966,26719
32720,5894,26532
32564,5966,26383
32608,6024,26585
32777,6184,26402
33020,6184,26387
33096,6287,26293
33108,6208,26065
33096,6121,26094
33060,6088,26320
32972,5947,26104
32860,5900,25860
32756,5946,26175
32612,6165,25981
32568,6106,25880
32480,6175,25876
32308,6249,25652
32144,6190,25842
32164,6153,25626
32208,6058,25694
32220,5936,25473
32177,5963,25632
32060,5966,25600
31940,6007,25490
31829,6085,25456
31696,6193,25397
31696,6238,25244
31702,6193,25404
31680,6193,25226
31581,6041,25016
31600,5937,25095
31652,5908,25245
31600,5974,24937
31572,6032,25024
31648,6085,24856
31608,6236,24962
31556,6239,24861
31520,6343,24804
31648,6153,24647
31760,6057,24863
31878,5927,24642
31908,5974,24650
31828,5961,24402
31844,6011,24696
31820,6126,24525
31824,6256,24488
31836,6244,24345
31933,6279,24222
32116,6143,24484
32161,6125,24325
32180,5965,24164
32186,5972,24260
32090,6010,24161
31980,6006,24164
31936,6114,23998
31909,6272,24024
31884,6236,24049
31864,6288,24060
31880,6138,23954
31928,6081,23959
31952,5935,23864
32004,5936,23737
32044,5939,23740
32012,6030,23526
31976,6105,23805
31892,6213,23644
31872,6216,23475
31884,6225,23653
31960,6135,23373
32036,6084,23441
32132,5975,23336
32208,5988,23244
32180,5969,23308
32096,6065,23303
32052,6101,23137
31986,6261,23183
31940,6253,23009
31976,6254,23170
32040,6139,23060
32102,6032,22829
32180,6004,22831
32272,5940,23015
32248,6012,22839
32136,6044,22656
32022,6246,22642
31936,6210,22860
31918,6213,22661
31940,6230,22644
32020,6135,22477
32153,6105,22581
32256,5956,22505
32328,6063,22472
32360,5964,22362
32288,6011,22260
32216,6127,22356
32120,6192,22181
32040,6286,22344
32068,6209,22236
32132,6121,22209
32258,6089,21989
32352,5969,22118
32416,5911,22101
32409,5998,22054
32300,6052,21848
32216,6105,21960
32134,6222,21865
32096,6222,21910
32128,6190,21758
32212,6149,21928
32320,6028,21838
32384,5996,21676
32468,5925,21888
32456,6025,21639
32384,6036,21709
32252,6102,21553
32196,6224,21767
32124,6217,21509
32104,6233,21615
32180,6114,21570
32268,6068,21559
32356,5962,21405
32444,5989,21565
32472,5963,21427
32436,6013,21532
32352,6186,21389
32202,6215,21617
32084,6217,21476
32064,6294,21537
32149,6142,21356
32288,6037,21509
32408,6009,21432
32500,5930,21544
32480,5954,21572
32424,6022,21390
32380,6148,21564
32316,6200,21477
32272,6289,21605
32209,6223,21461
32213,6118,21704
32320,6041,21518
32384,5934,21508
32492,5953,21536
32520,5946,21809
32513,6096,21604
32460,6127,21761
32404,6194,21640
32416,6291,21684
32456,6203,21945
32560,6127,21993
32658,6114,21812
32668,5957,21981
32686,5911,21856
32628,6098,21886
32496,6044,21999
32344,6118,22130
32236,6201,22005
32221,6260,22152
32328,6193,21996
32416,6207,22287
32436,6045,22183
32464,5939,22049
32548,6009,22160
32488,5970,22238
32232,6050,22213
31993,6116,22302
31860,6207,22144
31853,6286,22211
32008,6204,22341
32284,6115,22388
32480,6114,22414
32592,5953,22456
32729,5908,22390
32796,6012,22684
32796,6038,22555
32800,6114,22642
32800,6287,22520
32704,6242,22852
32692,6187,22664
32736,6164,22845
32756,6023,22930
32772,6061,22989
32688,5945,22880
32614,5960,23044
32528,6099,23076
32448,6153,23041
32428,6197,23228
32460,6268,23162
32528,6201,23408
32588,6111,23246
32688,6084,23272
32756,5962,23596
32808,5914,23412
32768,5981,23415
32672,6020,23599
32585,6149,23526
32476,6240,23709
32404,6216,23738
32444,6247,23657
32560,6142,23962
32680,6016,23874
32780,5945,24044
32804,5916,23788
32783,5986,23941
32756,6026,23837
32752,6195,24188
32776,6226,24101
32808,6245,24028
32908,6174,24124
33036,6185,24206
33080,6052,24358
33124,5930,24281
33188,5948,24454
33088,5968,24366
32776,6146,24452
32432,6144,24365
32136,6205,24353
32124,6233,24515
32499,6185,24659
33284,6140,24568
34420,6018,24522
35972,6004,24605
37737,5917,24692
39612,5994,24677
41692,6021,24821
43668,6150,24520
45396,6197,24624
47168,6251,24644
48816,6288,24781
50024,6153,24865
50252,6171,24839
49189,5969,24826
45176,5923,24844
39712,6004,24806
34104,6050,24805
29348,6227,24956
25805,6236,25125
23244,6239,25009
22112,6233,24924
22602,6143,25138
23849,6099,25054
25290,5971,25165
26540,5928,25116
27584,5995,25019
28454,6058,25160
29133,6199,24918
29832,6248,25185
30508,6226,25134
31100,6210,25136
31536,6116,25034
31820,6063,25037
31966,5957,25041
32044,5927,25080
32052,5992,24940
31992,6069,25136
31960,6137,25045
31928,6263,24922
31912,6244,25124
31956,6295,25095
32092,6143,25083
32204,6023,25076
32316,5973,25181
32393,5929,25065
32328,6048,25204
32212,6082,25073
32157,6218,25188
32104,6257,24896
32116,6324,25149
32256,6220,24986
32458,6191,24993
32620,6055,24990
32716,6042,25186
32828,5970,24964
32868,6056,25178
32820,6105,25140
32756,6169,25271
32732,6289,24958
32728,6280,25312
32764,6271,25189
32804,6171,25108
32872,6087,25269
32996,5957,25028
33072,5975,25221
33064,5979,25065
33024,6116,25294
32937,6191,25104
32820,6381,25468
32736,6268,25185
32749,6205,25460
32828,6161,25309
32960,6044,25376
33074,5976,25301
33172,5946,25494
33220,6009,25418
33169,6063,25530
33100,6182,25513
33020,6234,25566
32921,6275,25540
32956,6205,25561
32988,6180,25584
33064,6049,25668
33196,6030,25572
33316,5979,25800
33408,5996,25796
33408,6089,25894
33336,6165,25838
33312,6301,25717
33296,6268,25928
33312,6300,25946
33360,6159,25897
33437,6036,25852
33496,6038,25844
33524,5979,26151
33484,5994,26095
33472,6114,26207
33400,6183,26146
33316,6244,26087
33300,6295,26088
33380,6217,26073
33461,6198,26289
33632,6077,26316
33740,5950,26254
33776,6000,26351
33798,6020,26201
33709,6071,26526
33636,6239,26471
33557,6278,26422
33540,6250,26436
33620,6224,26511
33704,6133,26512
33764,6066,26503
33792,5957,26764
33820,6037,26788
33732,6032,26933
33600,6128,26861
33488,6161,26962
33452,6274,26938
33440,6255,27047
33428,6272,26997
33448,6151,26973
33464,6113,27072
33471,5977,27094
33468,5955,27217
33412,6021,27284
33348,6070,27306
33256,6191,27480
33082,6341,27180
32968,6271,27320
32924,6329,27460
32924,6157,27630
32892,6117,27428
32906,5980,27711
32920,6021,27606
32860,6027,27788
32788,6124,27593
32664,6175,27644
32556,6273,27732
32508,6244,27780
32473,6265,27893
32502,6134,27882
32576,6096,28050
32660,5957,27695
32676,5975,27828
32632,6081,28015
32553,6096,28033
32440,6203,28197
32336,6342,27951
32208,6261,28048
32148,6246,28185
32133,6116,28196
32165,6078,28264
32164,5962,28212
32140,5996,28181
32064,5999,28340
31964,6116,28329
31848,6193,28336
31716,6305,28349
31656,6269,28320
31672,6279,28300
31719,6152,28337
31728,6033,28613
31736,5973,28533
31756,5949,28564
31688,6050,28444
31624,6077,28436
31520,6202,28693
31456,6230,28693
31424,6277,28772
31480,6211,28708
31584,6112,28632
31648,6029,28833
31668,5944,28841
31736,6007,29007
31738,6026,28932
31632,6069,28945
31492,6199,29006
31364,6349,29132
31356,6261,29081
31472,6181,29090
31640,6129,29103
31772,6039,29196
31880,5942,29141
31932,6050,29149
31896,6011,29044
31844,6069,29456
31724,6190,29092
31628,6221,29431
31584,6275,29181
31676,6188,29527
31752,6151,29317
31900,6004,29468
32092,5967,29508
32202,5949,29565
32140,6079,29416
31996,6094,29673
31872,6225,29646
31812,6250,29748
31832,6257,29904
31872,6173,29708
32000,6162,29849
32132,6011,30050
32232,5993,29710
32336,5939,29892
32368,6029,29969
32320,6101,29980
32236,6159,30007
32152,6254,30105
32124,6286,30250
32204,6177,30228
32272,6146,30372
32372,5998,30270
32432,5980,30341
32453,5943,30274
32404,6004,30380
32312,6060,30464
32256,6189,30464
32184,6295,30612
32160,6223,30439
32252,6239,30532
32309,6130,30585
32392,6063,30629
32461,5939,30624
32560,5977,30676
32516,5983,30748
32442,6097,30911
32356,6160,30791
32296,6248,30974
32236,6213,30868
32264,6181,30772
32368,6158,30991
32461,6021,30977
32508,5933,30920
32560,5952,30944
32512,5978,30844
32452,6087,30988
32336,6155,31044
32284,6267,31213
32284,6209,31076
32292,6196,31264
32388,6085,31282
32492,6021,31438
32568,5927,31325
32612,5952,31510
32568,5985,31400
32464,6119,31576
32392,6171,31470
32304,6271,31647
32272,6211,31511
32320,6194,31665
32424,6083,31528
32520,6047,31376
32612,5942,31724
32636,5939,31636
32576,6023,31661
32484,6056,31700
32392,6186,31822
32304,6213,31748
32337,6257,31707
32372,6176,31719
32424,6179,31644
32488,6003,31804
32540,5929,31862
32568,5962,32009
32548,6017,31940
32464,6146,32095
32388,6190,31953
32348,6213,32111
32332,6224,32037
32344,6155,32201
32436,6101,32090
32550,5986,32199
32656,5947,32132
32696,5926,32295
32680,5998,31855
32541,6183,32294
32444,6171,32200
32372,6213,32237
32357,6229,32127
32416,6183,32404
32492,6077,32334
32600,6018,32444
32684,5918,32343
32672,5968,32489
32632,5984,32383
32520,6098,32328
32432,6194,32416
32368,6217,32609
32380,6215,32464
32464,6151,32613
32524,6142,32513
32632,5980,32412
32680,5965,32462
32724,5952,32536
32704,5980,32551
32652,6076,32581
32572,6149,32388
32476,6249,32692
32456,6199,32439
32465,6204,32546
32564,6077,32572
32686,6021,32668
32760,5926,32805
32820,6007,32695
32800,6010,32805
32693,6165,32720
32628,6192,32801
32536,6213,32732
32516,6220,32837
32544,6145,32409
32636,6088,32756
32712,5972,32461
32784,5973,32920
32848,5943,32820
32784,6041,32980
32680,6052,32555
32600,6202,32996
32544,6206,32708
32564,6228,32866
32636,6147,32729
32748,6151,33082
32848,6003,32748
32968,5920,33155
33006,5949,32836
32976,5980,33221
32924,6078,32933
32820,6156,33341
32757,6246,33047
32744,6222,33536
32800,6144,33444
32804,6093,33648
32832,5965,33568
32888,5988,33636
32868,5942,33622
32797,5985,33636
32656,6121,33614
32516,6185,33745
32424,6274,33796
32364,6228,33853
32392,6143,33821
32461,6088,33732
32540,5966,34109
32648,5948,34041
32740,5991,34146
32780,6008,34156
32676,6157,34142
32624,6194,33971
32605,6211,34510
32624,6223,34419
32716,6130,34560
32824,6142,34485
32892,5996,34628
32908,5997,34588
32896,5943,34671
32884,5987,34636
32709,6072,34727
32612,6311,34764
32496,6219,34873
32464,6189,34822
32564,6191,34939
32656,6085,34908
32762,6058,34967
32864,5950,34940
32886,6005,34958
32848,6009,34988
32812,6162,35055
32724,6180,35042
32640,6205,35063
32640,6229,35032
32728,6148,35188
32820,6136,35263
32900,5981,35189
32952,5909,35206
33004,5956,35237
32964,5993,35303
32892,6117,35401
32814,6169,35296
32782,6252,35284
32736,6193,35220
32785,6192,35031
32864,6094,35513
32968,5964,35370
33058,5964,35217
33050,5935,35553
32972,6162,35447
32860,6074,35436
32704,6163,35365
32476,6233,35368
32224,6265,35569
32072,6148,35551
32148,6085,35535
32489,5958,35252
33164,5926,35658
34140,5918,35670
35504,6024,35776
37076,6068,35664
38828,6289,35484
40824,6222,35804
42732,6176,35765
44348,6215,35709
45908,6084,35956
47476,5952,35821
48720,5967,35834
49328,5924,35780
48685,6057,35823
46452,6074,35777
41756,6302,35876
36260,6251,36004
31165,6199,35904
27204,6239,35796
24172,6092,36033
22456,5978,35937
22096,6013,35909
22986,5985,36128
24368,6007,35989
25703,6068,35685
26852,6230,36047
27816,6244,35867
28816,6192,35996
29748,6161,35974
30576,6060,35897
31236,6028,35582
31712,5940,35941
31918,5939,35923
31940,5991,35865
31901,6102,35540
31868,6173,36022
31844,6341,35822
31840,6229,35824
31918,6164,35788
32064,6055,35925
32228,5969,35730
32360,5965,35772
32404,5943,35834
32420,6072,35720
32392,6101,35641
32318,6247,35805
32288,6213,35372
32340,6241,35860
32428,6133,35745
32544,6064,35692
32716,6008,35874
32724,5923,35749
32768,6008,35688
32732,6013,35867
32685,6071,35716
32596,6177,35444
32536,6240,35870
32576,6210,35736
32660,6134,35684
32760,6089,35672
32864,5954,35737
32896,5971,35700
32916,5934,35700
32892,6031,35695
32825,6068,35644
32784,6206,35447
32752,6207,35746
32776,6225,35714
32856,6141,35807
32976,6065,35566
33076,5993,35596
33164,5909,35796
33204,5992,35686
33148,6023,35684
33104,6146,35557
33040,6193,35405
32988,6208,35732
33000,6245,35567
33072,6152,35612
33184,6126,35510
33296,5962,35497
33356,5943,35444
33364,5940,35431
33340,6019,35304
33276,6075,35045
33248,6242,35471
33236,6232,35303
33240,6271,35393
33284,6172,35260
33404,6125,35372
33504,5970,34999
33572,5954,35076
33576,6016,35139
33565,6005,35141
33512,6225,35089
33460,6215,35265
33428,6228,35180
33406,6257,35247
33500,6143,35169
33572,6108,35197
33573,5961,35196
33724,5959,35210
33821,5942,35207
33828,6054,35206
33800,6090,35161
33712,6270,34959
33636,6257,35434
33624,6200,35344
33692,6195,35425
33812,6090,35392
33872,6052,35421
33936,5948,35311
33984,5946,35105
33940,6065,35665
33840,6113,35532
33792,6187,35583
33702,6236,35577
33636,6204,35588
33668,6158,35552
33736,6053,35313
33728,6031,35813
33781,5944,35695
33740,5953,35583
33640,6040,35967
33541,6098,35830
33416,6266,35821
33268,6267,35754
33192,6200,35927
33212,6177,36002
33236,6073,35904
33252,6073,35669
33240,5963,36173
33206,5956,36052
33088,6086,36040
32956,6121,36149
32858,6211,36076
32744,6232,35820
32697,6277,36309
32744,6165,36049
32789,6073,36196
32842,5968,36268
32892,5967,36098
32880,5958,35956
32812,6088,36424
32700,6129,36296
32557,6196,36309
32448,6263,36187
32436,6241,35988
32444,6147,36512
32528,6087,36332
32564,5971,36519
32564,6010,36349
32544,5994,36276
32464,6122,36430
32332,6128,36393
32196,6271,36596
32092,6268,36455
32028,6209,36612
32040,6165,36088
32084,6070,36604
32105,6049,36463
32140,5959,36473
32128,6068,36396
32036,6047,36195
31888,6112,36676
31788,6279,36510
31685,6272,36209
31664,6244,36717
31637,6142,36494
31796,6103,36464
31862,5968,36518
31886,5994,36644
31872,5985,36844
31800,6067,36692
31744,6116,36820
31612,6294,36624
31544,6262,36732
31544,6211,36864
31648,6148,36647
31764,6127,36812
31884,5992,36841
31984,5946,36948
31978,6029,36863
31904,6067,36841
31841,6215,36847
31768,6232,36528
31696,6246,37112
31716,6221,36988
31780,6195,36966
31872,6090,36884
31984,5977,36885
32049,5973,37172
32052,5989,37097
32032,6044,37072
31960,6147,37049
31936,6233,37152
31888,6235,37108
31904,6279,37143
31996,6169,37173
32056,6072,37325
32144,6052,37209
32222,5980,37158
32204,6004,37346
32216,6041,37261
32134,6201,37134
32058,6252,37420
31952,6259,37293
31952,6351,37220
32032,6184,37444
32128,6080,37348
32192,6081,37328
32316,5966,37296
32352,5977,36949
32324,6112,37540
32132,6165,37377
32128,6213,37358
32104,6300,37375
32129,6243,37423
32224,6150,37508
32312,6145,37380
32408,6019,37175
32480,6027,37612
32448,6023,37455
32421,6066,37132
32328,6181,37456
32238,6240,37525
32193,6240,37527
32184,6250,37461
32260,6182,37191
32352,6077,37685
32456,6020,37539
32564,5962,37509
32526,5983,37574
32536,6051,37460
32472,6136,37556
32392,6270,37468
32324,6278,37665
32336,6229,37401
32417,6151,37538
32508,6170,37464
32576,6012,37537
32608,5974,37484
32620,6062,37508
32564,6072,37452
32448,6139,37440
32332,6282,37500
32320,6281,37326
32352,6220,36964
32421,6225,37497
32521,6117,37332
32596,5987,37393
32656,6031,37156
32684,6037,37228
32640,6090,37249
32500,6144,37046
32436,6260,36844
32401,6249,37214
32365,6291,37090
32412,6176,37204
32544,6235,37023
32600,6009,37028
32648,5972,36821
32652,6077,36772
32572,6096,36742
32512,6153,36444
32456,6263,36910
32428,6257,36740
32420,6262,36860
32501,6241,36668
32564,6097,36696
32592,5992,36581
32660,6003,36513
32684,6012,36620
32596,6069,36079
32525,6180,36606
32452,6238,36420
32392,6309,36468
32416,6244,36337
32508,6228,36380
32624,6116,36264
32672,5996,36206
32697,6003,36353
32708,6004,35876
32631,6127,36318
32517,6190,36174
32456,6253,36324
32372,6284,36176
32380,6225,36228
32473,6214,36125
32600,6101,36125
32672,5990,36030
32732,6006,35770
32749,6019,36247
32712,6154,36093
32628,6180,35908
32524,6263,36216
32425,6263,35990
32504,6294,35719
32568,6192,36220
32700,6089,36103
32736,6055,36139
32748,5988,35984
32732,6004,35719
32712,6119,36194
32560,6178,36108
32476,6370,36231
32444,6287,36085
32464,6236,36119
32548,6192,36063
32652,6099,36124
32712,6071,36278
32793,6010,35828
32760,6097,36188
32721,6097,36015
32634,6243,36184
32568,6272,36213
32516,6266,36352
32504,6274,36234
32576,6203,36216
32660,6231,36100
32748,6024,35884
32812,5983,36224
32825,6096,36040
32744,6100,36334
32636,6172,36316
32637,6330,36401
32496,6287,36284
32540,6234,36349
32608,6225,36292
32732,6110,36303
32804,5996,36335
32862,6035,36359
32868,6049,36551
32820,6084,36383
32748,6250,36137
32640,6283,36581
32592,6274,36438
32616,6316,36573
32704,6185,36469
32764,6080,36536
32873,6064,36487
32912,6001,36604
32928,6017,36493
32868,6145,36512
32812,6191,36479
32776,6260,36156
32716,6319,36670
32781,6258,36561
32865,6175,36524
32964,6101,36440
33060,6006,36572
33162,6013,36719
33084,6032,36606
33072,6179,36564
33008,6218,36703
32877,6274,36645
32732,6300,36805
32732,6313,36672
32728,6200,36799
32816,6089,36629
32864,6057,36716
32916,6005,36661
32832,6023,36862
32704,6171,36703
32552,6223,36727
32460,6305,36751
32404,6284,36864
32428,6309,36768
32548,6191,36813
32708,6162,36698
32808,6031,36441
32884,5991,36966
32904,6041,36829
32848,6096,36805
32765,6241,36709
32740,6300,36670
32740,6361,36802
32768,6270,36892
32796,6179,36956
32818,6164,36849
32884,6039,36865
32900,6077,36798
32829,6055,36764
32760,6104,36973
32692,6216,36999
32612,6276,37147
32600,6324,37016
32664,6353,37161
32696,6198,36999
32805,6180,37048
32928,6028,37037
32978,6033,37120
32980,6029,37081
32948,6124,37188
32868,6192,37092
32773,6309,37149
32724,6303,37056
32740,6319,36903
32812,6204,37312
32904,6165,37165
33004,6022,37241
33072,6039,37174
33057,6028,37176
33033,6126,37188
32948,6197,37192
32856,6320,37212
32836,6302,37241
32784,6352,37348
32869,6201,37189
32976,6089,37218
33088,6038,37205
33196,5992,37314
33068,6054,37263
32864,6108,37248
32553,6231,37324
32284,6279,37314
32288,6338,37455
32573,6265,37329
33308,6180,37438
34400,6120,37356
35912,6008,37402
37560,6060,37268
39328,6051,37361
41184,6108,37534
42896,6228,37260
44252,6272,37529
45496,6333,37471
46856,6250,37609
47916,6238,37488
48344,6086,37615
47616,6055,37495
45240,6009,37584
40512,6073,37328
35140,6290,37452
30232,6255,37476
26484,6311,37388
23677,6330,37460
22260,6279,37377
22185,6215,37423
23224,6222,37497
24724,6052,37215
26208,6010,37606
27408,6080,37481
28384,6124,37536
29320,6245,37057
30124,6389,37600
30756,6341,37147
31260,6340,37441
31720,6212,37396
32036,6205,37487
32196,6046,37127
32228,6065,37272
32260,6043,37366
32244,6171,37285
32237,6231,37292
32212,6355,37148
32148,6327,37231
32192,6336,37317
32284,6196,37196
32392,6172,37287
32544,6031,37164
32681,6066,37252
32720,6045,37110
32644,6139,37233
32524,6220,37116
32444,6316,37165
32396,6310,37057
32380,6308,37023
32416,6192,36988
32428,6127,36773
32525,6015,37054
32617,6031,36854
32612,6049,37185
32520,6141,37048
32448,6291,37188
32420,6306,37024
32484,6338,36926
32480,6431,37000
32560,6203,37039
32736,6142,37125
32992,6028,36957
33124,6049,36958
33160,6103,37101
33184,6125,36980
33136,6243,37082
33048,6303,36972
33020,6329,37113
33004,6380,36926
33000,6206,36822
32988,6120,37076
33020,6098,36573
33093,6007,36784
33160,6084,36908
33182,6130,36888
33100,6268,37038
33008,6385,36752
33048,6339,37033
33210,6313,36540
33320,6198,36932
33452,6134,36941
33606,6030,37036
33752,6034,36533
33756,6123,36912
33648,6131,37041
33584,6275,37031
33525,6363,37181
33480,6321,37076
33536,6341,37141
33624,6208,37109
33708,6141,37217
33804,6028,37113
33896,6041,37206
33878,6134,37291
33732,6142,37476
33604,6257,37012
33473,6308,37324
33340,6337,37101
33248,6282,37516
33244,6244,37551
33292,6114,37708
33356,6060,37613
33448,6067,37740
33618,6056,37297
33696,6153,37639
33640,6308,37799
33508,6335,37828
33368,6385,37984
33332,6284,37892
33428,6257,37973
33644,6112,37937
33884,6049,38071
34148,6098,38008
34204,6089,38118
34128,6221,38044
34016,6271,38119
33888,6368,38100
33780,6325,38225
33700,6305,38144
33664,6216,38318
33632,6137,38148
33524,6100,38346
33440,6036,38206
33412,6131,38373
33420,6149,38216
33358,6311,38364
33184,6356,38240
33056,6327,38252
33010,6308,38112
32996,6249,38244
33040,6110,37985
33076,6090,38244
33056,6055,37908
32960,6117,38188
32892,6151,38336
32860,6265,38247
32808,6470,38388
32695,6346,38185
32628,6290,38189
32608,6244,38142
32580,6117,38168
32608,6053,38068
32748,6033,37988
32800,6092,38148
32800,6150,38162
32676,6292,38348
32536,6329,38180
32436,6378,38254
32445,6288,38157
32436,6273,38272
32284,6127,38151
32328,6149,38230
32445,6046,38108
32416,6082,38080
32342,6196,38218
32136,6249,38080
31908,6359,38181
31792,6334,37624
31896,6329,38134
32040,6240,38007
32224,6193,38124
32248,6049,37686
32220,6084,38000
32108,6090,37929
31964,6214,38021
31884,6276,37849
31900,6392,37822
31856,6370,37711
31784,6288,37314
31864,6244,37796
32041,6124,37629
32185,6092,37735
32210,6039,37550
31976,6147,37493
31652,6177,37309
31368,6336,37340
31248,6351,37255
31372,6331,37284
31692,6339,37364
31865,6255,37108
31996,6123,36921
32036,6071,37195
32048,6036,37045
31932,6142,36998
31768,6203,36876
31648,6263,36900
31592,6379,36997
31448,6409,36782
31356,6309,36720
31572,6213,36708
31982,6143,36608
32256,6043,36644
32446,6106,36380
32452,6122,36117
32285,6179,36528
32032,6300,36320
31834,6350,35989
31744,6444,36326
31836,6310,36128
32008,6214,36146
32192,6161,36229
32444,6047,36020
32688,6106,35948
32684,6099,35862
32512,6223,35812
32204,6272,35724
31865,6385,35692
31680,6339,35580
31756,6341,35525
31952,6214,35436
32192,6167,35136
32384,6057,35564
32590,6094,35372
32632,6115,34988
32464,6179,35335
32325,6316,35169
32196,6411,35144
32044,6350,35044
31844,6356,34984
31764,6229,34885
31936,6174,34841
32156,6052,34740
32340,6080,34556
32412,6096,34719
32484,6202,34219
32408,6279,34528
32324,6372,34452
32216,6345,34452
32148,6341,34245
32280,6224,34079
32392,6187,34212
32488,6060,34013
32596,6091,34116
32640,6092,33906
32564,6214,33870
32468,6354,33426
32444,6381,33660
32440,6345,33517
32476,6312,33396
32436,6316,33252
32480,6141,33487
32544,6045,33308
32493,6084,33175
32392,6103,33098
32336,6215,32994
32340,6302,33129
32353,6414,32924
32202,6378,32772
32176,6292,32708
32373,6287,32707
32604,6129,32616
32669,6130,32487
32400,6086,32386
32097,6104,32410
32028,6247,32308
32164,6324,32160
32332,6344,32173
32393,6365,32068
32630,6294,32132
32936,6260,31938
33100,6126,31801
33180,6127,31904
33175,6090,31749
33024,6110,31604
32790,6200,31511
32636,6291,31317
32504,6357,31591
32428,6348,31173
32476,6335,31227
32644,6221,31200
32784,6142,31086
32808,6160,31040
32800,6081,31038
32668,6176,30914
32636,6186,30888
32612,6309,30831
32576,6449,30761
32596,6378,30714
32689,6339,30652
32780,6215,30570
32720,6152,30497
32676,6051,30433
32680,6092,30215
32672,6104,30140
32637,6218,30081
32472,6288,29957
32309,6395,30164
32260,6352,30009
32296,6343,30034
32444,6221,29822
32660,6157,29692
32797,6051,29575
32860,6083,29548
32848,6213,29413
32828,6215,29380
32781,6392,29293
32724,6378,29277
32621,6427,29268
32640,6326,29249
32604,6217,29093
32596,6137,29002
32809,6143,29034
32968,6081,29074
32900,6166,28901
32820,6191,28937
32696,6326,28560
32652,6361,28657
32616,6362,28463
32660,6362,28551
32604,6221,28474
32576,6133,28486
32748,6061,28524
32912,6084,28384
32988,6198,28436
32944,6198,27997
32762,6337,28085
32720,6375,27901
32704,6418,28061
32704,6315,27782
32732,6299,27952
32800,6133,27781
32892,6122,27732
32936,6068,27825
32892,6177,27728
32732,6234,27657
32602,6301,27608
32544,6384,27554
32448,6406,27561
32428,6308,27465
32592,6254,27438
32783,6128,27412
32916,6161,27292
32968,6098,27242
32953,6230,27190
32894,6217,27104
32865,6309,27018
32820,6379,26895
32888,6348,27172
32960,6332,27015
32980,6228,27105
32984,6168,26918
33008,6061,26929
33056,6121,26601
32864,6127,26665
32632,6247,26592
32481,6328,26624
32456,6414,26540
32472,6361,26503
32392,6352,26493
32320,6257,26356
32417,6117,26250
32636,6142,26455
32697,6089,26149
32764,6129,26396
32740,6238,26078
32588,6305,26141
32485,6405,25991
32574,6348,26215
32736,6333,25993
32900,6229,26212
32804,6180,26052
32740,6068,26042
32724,6145,25962
32656,6130,25956
32672,6257,25858
32652,6329,25788
32621,6421,25796
32636,6372,25704
32680,6336,25744
32808,6231,25612
32836,6154,25666
32872,6061,25785
32908,6109,25396
32920,6191,25496
32909,6211,25509
32868,6347,25476
32808,6366,25374
32712,6389,25312
32588,6295,25417
32556,6303,25286
32632,6156,25380
32828,6065,25342
32932,6110,25444
32929,6227,25276
32820,6234,25358
32744,6319,25214
32736,6418,25191
32776,6387,25086
32864,6299,25009
32988,6272,25186
33136,6159,25108
33308,6065,25210
33380,6127,25073
33312,6149,24940
33101,6209,25157
32800,6388,25015
32548,6388,24895
32608,6364,25062
32940,6299,24906
33612,6344,24788
34492,6147,25056
35836,6069,24929
37492,6076,24808
39280,6180,24888
41216,6249,24904
43248,6463,24904
45208,6414,24853
47168,6350,24781
49072,6318,24814
50632,6254,24644
51456,6113,24976
51140,6129,24837
48288,6122,24829
42832,6228,24808
37088,6259,24697
31744,6354,24760
27608,6385,24672
24752,6393,24716
23048,6316,24793
23015,6233,24648
24032,6172,24740
25378,6084,24558
26656,6163,24858
27536,6164,24752
28244,6226,24690
28762,6386,24695
29156,6405,24576
29690,6359,24771
30376,6345,24696
30976,6242,24569
31428,6183,24646
31716,6107,24562
31936,6165,24534
32016,6160,24487
31932,6215,24772
31797,6352,24438
31684,6378,24766
31660,6379,24604
31704,6304,24717
31784,6274,24476
31872,6139,24431
32008,6140,24694
32180,6104,24638
32192,6255,24732
32148,6263,24628
32184,6331,24622
32124,6405,24473
32072,6359,24524
32068,6322,24610
32092,6226,24527
32189,6185,24604
32316,6108,24448
32384,6089,24800
32432,6199,24676
32448,6265,24554
32402,6416,24642
32372,6409,24581
32408,6468,24655
32512,6327,24664
32644,6273,24719
32780,6123,24726
32941,6117,24700
32974,6118,24596
32781,6150,24772
32620,6264,24745
32464,6373,24728
32369,6376,24601
32413,6413,24634
32564,6307,24610
32705,6299,24630
32864,6144,24620
32996,6160,24634
33072,6110,24651
33056,6156,24549
32897,6264,24866
32744,6333,24732
32633,6436,24860
32644,6362,24564
32760,6320,24672
32848,6234,24543
32896,6138,24711
33008,6078,24536
33056,6117,24766
33036,6221,24635
33040,6244,24710
33025,6409,24624
32957,6409,24628
32944,6370,24750
33012,6360,24719
33220,6258,24704
33344,6131,24777
33440,6112,24780
33476,6091,24785
33404,6215,24706
33300,6244,24688
33236,6413,24631
33164,6416,24807
33184,6482,24655
33248,6340,24906
33348,6229,24680
33464,6143,24933
33653,6076,24917
33700,6151,25071
33668,6161,24742
33592,6308,25069
33492,6364,24992
33413,6388,24895
33388,6421,24903
33420,6317,24846
33501,6281,25077
33600,6160,25088
33652,6200,25100
33660,6145,25080
33608,6204,24966
33512,6240,25101
33360,6373,25138
33220,6383,25090
33172,6417,25220
33180,6308,25095
33264,6299,25361
33280,6139,25274
33276,6085,25251
33232,6125,25278
33200,6276,25221
33120,6267,25225
32996,6357,25265
32820,6427,25343
32656,6521,25367
32568,6326,25404
32732,6223,25333
32872,6160,25412
32888,6086,25351
32724,6168,25429
32672,6192,25519
32608,6251,25490
32548,6375,25487
32425,6385,25399
32444,6429,25740
32468,6338,25621
32444,6220,25559
32416,6183,25798
32504,6114,25711
32544,6224,25791
32516,6206,25717
32408,6254,25686
32305,6406,25804
32180,6409,25748
32104,6420,25813
32106,6327,25819
32112,6304,25924
32056,6159,26002
32086,6091,26081
32072,6189,26039
31988,6200,25939
31856,6277,26238
31774,6436,26155
31640,6429,26313
31620,6368,26210
31604,6358,26183
31645,6263,26215
31692,6137,26175
31688,6145,26196
31689,6138,26232
31625,6261,26320
31556,6293,26372
31480,6486,26396
31384,6427,26481
31244,6377,26426
31200,6325,26428
31312,6229,26241
31469,6162,26392
31610,6097,26412
31656,6145,26530
31484,6191,26669
31336,6283,26572
31256,6367,26661
31233,6432,26594
31256,6371,26601
31364,6336,26620
31504,6231,26688
31628,6160,26432
31680,6098,26535
31690,6163,26750
31632,6251,26721
31513,6270,26594
31420,6387,26701
31436,6564,26785
31452,6401,26916
31516,6432,26820
31601,6249,26981
31740,6211,26644
31872,6107,26753
31800,6181,26817
31696,6206,26868
31668,6339,26908
31644,6418,26995
31656,6412,27024
31744,6419,27032
31834,6320,27015
31896,6320,27271
31902,6183,27173
31986,6115,27188
32077,6202,27216
32104,6237,27175
32088,6295,27396
32081,6415,27326
32064,6414,27481
32056,6412,27182
32080,6402,27354
32126,6278,27332
32128,6164,27427
32148,6142,27514
32116,6152,27489
32080,6268,27425
31956,6302,27486
31868,6471,27485
31808,6446,27485
31861,6406,27560
31991,6359,27592
32112,6258,27570
32228,6185,27671
32353,6228,27856
32365,6180,27765
32328,6250,27689
32212,6310,27965
32024,6409,27712
31876,6483,27648
31912,6425,28031
32012,6503,27756
32068,6278,27872
32197,6188,27793
32324,6207,27996
32444,6202,27972
32412,6234,28127
32320,6353,27875
32144,6419,28045
32048,6466,28071
32024,6421,28058
32040,6431,27982
32108,6288,28353
32168,6186,28263
32272,6187,28373
32334,6186,28285
32216,6308,28234
32132,6334,28298
32148,6540,28181
32188,6477,28351
32276,6432,28260
32465,6390,28261
32620,6283,28328
32705,6238,28332
32774,6202,28319
32748,6197,28426
32656,6292,28287
32548,6344,28388
32416,6470,28565
32248,6468,28527
32196,6464,28617
32240,6371,28344
32376,6327,28478
32416,6209,28380
32440,6252,28501
32388,6224,28569
32336,6282,28640
32304,6446,28542
32308,6473,28621
32248,6483,28734
32252,6441,28688
32317,6459,28609
32344,6322,28526
32412,6226,28831
32520,6252,28548
32612,6229,28917
32552,6279,28833
32468,6395,28947
32432,6448,28887
32397,6505,28938
32404,6447,28679
32428,6453,29068
32400,6336,28951
32456,6218,28964
32512,6231,28866
32576,6246,28905
32514,6369,28964
32456,6400,29011
32376,6463,29037
32316,6530,29205
32336,6462,28806
32436,6454,29050
32588,6314,29015
32772,6284,29116
32948,6211,29119
32985,6228,29146
32928,6345,29292
32816,6388,28960
32664,6470,29037
32600,6518,29148
32540,6459,29207
32572,6456,29228
32652,6353,29232
32806,6340,29369
32916,6214,28988
32840,6233,29156
32548,6338,29204
32336,6425,29182
32264,6474,29227
32268,6551,29314
32352,6489,29493
32468,6472,29092
32584,6358,29329
32584,6229,29367
32632,6248,29412
32640,6271,29528
32672,6393,29166
32709,6414,29333
32700,6484,29383
32661,6554,29492
32660,6480,29626
32734,6487,29269
32812,6350,29633
32964,6234,29308
33132,6287,29440
33098,6274,29375
32976,6318,29550
32832,6456,29540
32712,6495,29635
32528,6558,29493
32512,6491,29573
32576,6533,29550
32656,6364,29598
32696,6267,29625
32784,6367,29621
32804,6276,29673
32756,6322,29700
32684,6471,29768
32601,6533,29894
32534,6516,29549
32528,6514,29701
32593,6437,29552
32680,6417,29668
32721,6275,29703
32802,6228,29771
32828,6332,29766
32821,6345,29831
32756,6416,29874
32728,6533,29849
32664,6524,29709
32677,6520,29890
32700,6424,29888
32824,6406,30032
32916,6268,29644
32976,6239,29862
32920,6310,29657
32740,6367,29972
32637,6582,29823
32596,6537,29826
32636,6531,29733
32704,6561,29912
32685,6463,29901
32568,6352,29866
32357,6325,29821
32389,6259,30012
32616,6279,30044
33152,6499,30200
33988,6484,30077
35364,6531,30017
37000,6543,30096
38920,6589,29890
41240,6455,30087
43488,6338,30080
45460,6300,30133
47456,6238,30236
49352,6347,30215
50740,6383,30272
51356,6426,30244
50621,6572,30281
47672,6566,30248
42376,6610,30244
36672,6473,30288
31436,6408,30228
27328,6277,30308
24289,6324,30080
22560,6322,30268
22294,6367,30359
23232,6480,30536
24584,6552,30413
25824,6553,30455
27028,6538,30433
28030,6445,30578
28968,6384,30450
29896,6277,30582
30700,6310,30436
31308,6308,30408
31641,6432,30382
31684,6473,30476
31640,6535,30606
31600,6567,30465
31664,6515,30510
31834,6509,30310
32004,6383,30332
32112,6292,30353
32240,6267,30333
32292,6320,30297
32260,6377,30540
32216,6455,30513
32172,6650,30596
32212,6574,30517
32280,6519,30667
32368,6569,30561
32440,6395,30631
32538,6283,30588
32572,6396,30652
32640,6326,30616
32616,6405,30764
32508,6453,30626
32404,6577,30680
32360,6574,30441
32448,6627,30677
32580,6474,30428
32728,6375,30759
32804,6370,30477
32908,6284,30669
32940,6305,30776
32848,6441,30776
32680,6488,30916
32500,6676,30492
32456,6586,30657
32612,6523,30717
32704,6512,30741
32880,6405,30692
33044,6291,30749
33053,6308,30721
32992,6322,30786
32892,6382,30727
32800,6498,30792
32756,6560,30836
32784,6624,30790
32904,6548,30800
33053,6458,30774
33148,6441,30722
33244,6308,30756
33385,6269,30848
33416,6389,30800
33356,6412,30861
33244,6482,30805
33105,6636,30928
33052,6562,30726
33144,6589,30718
33312,6476,30897
33432,6532,30834
33512,6324,30975
33532,6282,30855
33429,6364,30980
33365,6395,30784
33300,6543,30844
33232,6583,30800
33244,6594,30800
33320,6532,30636
33375,6545,31060
33428,6433,30961
33504,6329,31093
33588,6356,30868
33596,6343,30960
33532,6390,30959
33436,6564,30988
33414,6605,30861
33424,6613,31185
33556,6543,31133
33708,6522,31245
33808,6400,31184
33856,6309,31352
33920,6291,31250
33924,6367,31317
33881,6400,31300
33848,6567,31481
33744,6599,31357
33700,6613,31319
33704,6534,31279
33760,6544,31439
33820,6404,31570
33972,6337,31501
34052,6293,31452
34004,6391,31535
33852,6427,31612
33680,6514,31585
33492,6567,31748
33313,6684,31672
33240,6584,31704
33316,6502,31735
33420,6383,31721
33440,6371,31796
33456,6335,31813
33412,6370,31748
33308,6403,31915
33128,6556,31885
33016,6597,31844
32848,6604,31954
32752,6543,31965
32768,6570,31872
32768,6442,32162
32840,6337,31985
32830,6334,31845
32761,6339,32135
32692,6469,32080
32594,6528,32164
32482,6571,32164
32368,6589,32108
32310,6650,32343
32244,6507,32228
32265,6418,32172
32305,6315,32337
32324,6310,32208
32201,6339,32337
31997,6522,32313
31788,6560,32368
31624,6602,32393
31612,6601,32528
31636,6549,32372
31692,6583,32164
31804,6439,32610
31844,6325,32382
31832,6326,32535
31785,6379,32252
31660,6420,32692
31568,6503,32484
31520,6582,32647
31516,6627,32770
31566,6579,32676
31652,6476,32618
31736,6474,32884
31748,6349,32793
31725,6337,32808
31636,6368,32876
31481,6421,32854
31408,6509,32801
31332,6659,32860
31320,6623,32624
31368,6562,32959
31472,6633,32684
31604,6439,33165
31694,6342,33052
31740,6321,32998
31648,6351,33113
31544,6526,33104
31436,6542,33204
31372,6614,33104
31352,6595,33071
31380,6608,33108
31492,6494,33261
31640,6408,33420
31776,6400,33310
31840,6345,33428
31832,6361,33265
31745,6501,33100
31629,6552,33529
31548,6610,33485
31524,6596,33575
31598,6621,33503
31708,6511,33471
31821,6534,33548
31904,6340,33679
32048,6326,33596
32048,6422,33698
31926,6462,33633
31776,6521,33608
31632,6605,33656
31644,6640,33389
31772,6589,33878
31892,6479,33729
32029,6455,33688
32160,6368,33927
32268,6340,33697
32260,6395,33492
32160,6438,33905
31976,6601,33840
31884,6644,33813
31944,6644,34056
32028,6589,33908
32140,6500,33624
32205,6403,34125
32352,6316,33997
32424,6364,34022
32424,6388,33968
32312,6457,33949
32220,6622,34045
32148,6620,33840
32140,6603,33983
32224,6580,34055
32308,6498,34301
32405,6504,34181
32484,6356,34272
32556,6323,34209
32456,6411,34144
32340,6457,34145
32252,6539,33957
32140,6644,34439
32084,6631,34314
32108,6559,34413
32208,6505,34048
32352,6467,34244
32476,6349,34301
32536,6319,34356
32528,6389,34543
32476,6447,34388
32412,6582,34324
32344,6605,34470
32308,6666,34428
32308,6589,34568
32360,6489,34445
32440,6431,34581
32496,6337,34453
32527,6409,34524
32477,6398,34436
32405,6459,34433
32344,6563,34376
32292,6607,34360
32264,6692,34311
32344,6584,34356
32404,6641,34309
32464,6447,34101
32492,6356,34560
32528,6335,34392
32476,6533,34439
32406,6492,34324
32388,6588,34253
32376,6689,34348
32380,6631,34346
32389,6568,34311
32468,6527,34380
32549,6427,34177
32588,6339,34017
32608,6407,34366
32560,6413,34205
32493,6455,34357
32416,6629,34212
32372,6649,34213
32328,6615,34151
32356,6596,34121
32424,6497,34100
32498,6494,34084
32584,6367,34158
32604,6372,34089
32552,6393,34055
32484,6525,33983
32444,6572,33781
32404,6626,34232
32324,6626,34093
32469,6601,34132
32556,6530,34035
32672,6416,34009
32748,6401,34094
32782,6370,33730
32776,6518,34156
32668,6498,33798
32548,6564,34199
32508,6659,34085
32500,6653,34083
32552,6575,34044
32668,6507,33820
32754,6466,34197
32808,6385,34096
32828,6353,34169
32788,6401,34001
32740,6523,33961
32680,6603,33964
32656,6776,34054
32672,6654,34038
32729,6591,34068
32792,6509,33974
32832,6450,33768
32860,6375,34229
32856,6346,34096
32824,6462,34198
32740,6509,34092
32588,6598,34011
32444,6640,33932
32352,6660,33746
32320,6594,34082
32389,6511,34036
32393,6431,34160
32436,6355,34021
32508,6413,34106
32472,6425,34017
32428,6481,34085
32376,6647,33992
32420,6676,34008
32456,6649,34001
32512,6591,33976
32680,6574,33961
32908,6448,33775
32992,6353,34076
33000,6439,33705
32885,6444,34180
32768,6510,34055
32576,6668,34148
32436,6661,34055
32424,6639,33996
32448,6593,34086
32536,6560,34073
32666,6452,34166
32772,6349,34054
32810,6447,34112
32776,6448,33953
32740,6506,33751
32633,6583,34223
32524,6730,34068
32495,6670,34028
32592,6591,34085
32748,6583,34113
32848,6442,34244
32924,6372,34110
33000,6461,34252
33000,6438,34136
32916,6496,34143
32816,6663,34085
32808,6672,34185
32820,6639,34109
32879,6654,34087
32976,6550,34080
33028,6420,34114
33052,6432,34132
33084,6388,34127
33044,6421,34128
32976,6521,34191
32885,6592,34135
32712,6675,34174
32478,6642,34197
32268,6648,34293
32056,6523,33855
32044,6482,34086
32360,6393,34143
33020,6369,34181
34017,6447,34309
35504,6522,34237
37248,6595,34287
39240,6688,34206
41496,6634,34369
43636,6615,33878
45584,6642,34108
47496,6444,34172
49284,6355,34192
50693,6392,34260
51236,6421,34196
50368,6570,34182
47444,6639,33941
42156,6670,34130
36384,6679,33800
31232,6606,34214
27176,6556,34067
24108,6442,34070
22404,6427,34104
22120,6409,34089
23048,6439,34204
24396,6533,34068
25680,6634,34062
26924,6667,34044
27976,6665,34116
29072,6598,34004
30080,6603,34044
30852,6445,33957
31432,6379,34008
31776,6376,33926
31836,6462,33910
31832,6509,33829
31792,6701,33817
31780,6695,33758
31836,6671,33704
31884,6597,33744
32016,6553,33760
32172,6433,33757
32356,6423,33769
32444,6388,33872
32436,6427,33720
32332,6559,33767
32244,6616,33661
32176,6720,33734
32200,6663,33872
32292,6595,33722
32405,6599,33772
32508,6452,33728
32621,6393,33788
32676,6369,33661
32680,6461,33777
32604,6535,33704
32568,6601,33723
32524,6717,33729
32504,6684,33824
32580,6589,33732
32700,6552,33868
32840,6439,33741
32948,6445,33891
32952,6392,33744
32884,6426,33888
32812,6575,33721
32704,6618,33764
32645,6652,33602
32632,6686,33647
32701,6586,33711
32788,6570,33632
32877,6451,33620
32980,6363,33615
33052,6393,33592
33056,6428,33608
33036,6523,33736
32992,6602,33549
32940,6713,33476
32952,6659,33329
33001,6582,33660
33088,6591,33548
33200,6445,33644
33328,6423,33365
33412,6401,33388
33396,6517,33508
33320,6521,33384
33228,6604,33168
33164,6652,33568
33152,6690,33414
33184,6616,33370
33248,6505,33612
33356,6481,33492
33408,6376,33534
33460,6390,33377
33456,6422,33438
33340,6540,33381
33408,6610,33455
33396,6701,33401
33412,6674,33332
33456,6580,33677
33540,6568,33592
33640,6435,33570
33764,6377,33524
33816,6471,33586
33820,6445,33549
33736,6531,33692
33696,6606,33868
33656,6704,33748
33660,6671,33720
33752,6580,33673
33856,6575,33500
33932,6424,34014
34016,6370,33852
34036,6361,33751
33982,6518,34100
33880,6531,33972
33828,6639,33988
33736,6645,33943
33730,6708,34112
33808,6600,34160
33872,6509,34121
33856,6491,34136
33856,6388,34244
33792,6405,34268
33692,6430,34206
33596,6504,34311
33468,6682,34303
33392,6666,34051
33388,6659,34506
33444,6730,34420
33456,6560,34214
33448,6438,34537
33400,6350,34519
33364,6426,34506
33240,6460,34531
33040,6654,34577
32920,6631,34500
32836,6658,34342
32812,6633,34806
32820,6625,34624
32849,6508,34424
32892,6391,34823
32944,6418,34701
32960,6415,34789
32884,6452,34734
32760,6500,34703
32628,6637,34529
32508,6647,34992
32468,6700,34924
32432,6620,34922
32452,6500,34924
32452,6392,34693
32428,6399,35164
32440,6387,35012
32372,6541,35197
32229,6529,35109
32092,6603,35144
31964,6725,35069
31892,6646,35052
31872,6594,35349
31912,6488,35237
31952,6439,35220
31952,6382,35124
31912,6444,35237
31796,6453,35268
31688,6591,35380
31544,6632,35372
31444,6645,35503
31468,6678,35424
31478,6588,35560
31544,6482,35297
31608,6449,35433
31680,6377,35456
31733,6358,35532
31652,6465,35622
31550,6499,35220
31477,6647,35517
31381,6659,35581
31348,6620,35583
31392,6666,35654
31496,6504,35688
31576,6393,35702
31648,6340,35704
31676,6405,35771
31660,6423,35813
31632,6557,35829
31618,6637,35663
31557,6640,35829
31532,6664,35856
31600,6594,35813
31700,6488,35958
31804,6410,35993
31873,6332,36151
31870,6436,35994
31844,6437,35970
31776,6495,35960
31702,6682,35808
31632,6679,36261
31624,6636,36176
31720,6560,36319
31852,6578,36177
31969,6394,36265
32040,6340,35844
32068,6413,36204
32008,6440,36254
31960,6492,36388
31912,6666,35904
31848,6653,36320
31854,6613,35944
31918,6616,36261
32036,6508,35974
32140,6375,36340
32238,6373,36148
32272,6387,36541
32220,6417,36433
32162,6527,36576
32088,6613,36444
32008,6627,36585
32032,6679,36108
32116,6562,36524
32236,6477,36173
32316,6434,36428
32396,6358,36540
32420,6350,36701
32328,6505,36565
32196,6533,36524
32116,6606,36548
32044,6701,36628
32084,6631,36524
32200,6558,36548
32352,6468,36641
32452,6420,36660
32532,6352,36653
32600,6363,36518
32576,6418,36265
32520,6517,36836
32444,6587,36690
32356,6678,36799
32324,6636,36701
32360,6545,36708
32464,6507,36632
32528,6378,36385
32572,6339,36892
32592,6339,36720
32556,6468,36620
32484,6500,36747
32440,6593,36428
32368,6626,36988
32380,6650,36850
32442,6563,36813
32518,6468,36773
32576,6506,36703
32596,6371,36975
32588,6363,36860
32524,6410,36903
32448,6536,36511
32376,6610,36976
32352,6628,36511
32388,6730,36895
32476,6548,36868
32520,6456,36857
32592,6407,36916
32652,6336,36928
32660,6413,37081
32612,6443,36908
32540,6491,36967
32465,6654,36665
32380,6644,36878
32388,6593,36876
32484,6587,36871
32557,6476,36961
32656,6357,36916
32708,6349,37080
32701,6341,36516
32652,6464,36905
32565,6505,36905
32416,6589,36988
32324,6661,36768
32308,6601,36837
32368,6595,36942
32437,6492,36926
32496,6358,37047
32664,6357,36868
32733,6358,36901
32692,6556,36541
32576,6519,36821
32468,6591,36844
32372,6662,36761
32360,6628,36905
32420,6565,36850
32533,6444,36756
32628,6431,36869
32668,6355,36988
32716,6365,36840
32657,6409,36836
32568,6552,36783
32496,6619,36534
32478,6617,36868
32448,6610,36473
32510,6537,36972
32608,6453,36880
32740,6400,36911
32868,6338,36880
32868,6346,36900
32812,6461,36837
32728,6516,36893
32664,6586,36836
32604,6647,36852
32608,6581,36843
32639,6601,36820
32705,6473,37004
32744,6375,36934
32791,6320,37053
32768,6379,36903
32741,6442,36926
32669,6480,37005
32664,6657,36896
32641,6663,36953
32632,6582,37072
32728,6647,36981
32864,6454,36935
32984,6341,36967
33108,6404,36991
33133,6355,37151
33078,6405,37008
32960,6547,37099
32865,6597,36907
32828,6613,37012
32800,6663,37173
32796,6546,37033
32860,6467,36967
32884,6342,36928
32892,6339,36732
32892,6362,37086
32770,6404,36996
32596,6581,36740
32520,6617,37209
32440,6616,37080
32372,6691,37040
32380,6536,36969
32444,6441,36828
32544,6340,37204
32688,6365,37089
32820,6366,36768
32840,6427,37248
32788,6553,37080
32748,6606,37172
32706,6604,37113
32741,6617,37248
32865,6537,37108
32968,6434,37149
32992,6384,37084
33012,6333,37181
32952,6339,37127
32848,6421,37297
32724,6482,37132
32576,6603,37302
32508,6598,37149
32536,6573,37183
32600,6586,37099
32776,6451,37305
32897,6352,37189
32960,6311,37012
33000,6335,37294
32948,6469,37144
32880,6499,37216
32816,6578,37160
32744,6603,37319
32736,6603,37230
32800,6510,37285
32920,6492,37139
33004,6344,36961
33068,6296,37392
33060,6419,37211
32996,6454,37069
32924,6499,37212
32876,6578,37065
32852,6629,37269
32832,6567,36864
32908,6544,37290
32996,6416,37172
33072,6398,37289
33208,6337,37269
33161,6333,37420
33112,6392,37236
32972,6558,36946
32752,6631,37356
32504,6626,37249
32208,6564,37344
32072,6518,37309
32252,6414,37472
32700,6350,37297
33520,6304,37465
34724,6424,37308
36244,6428,37383
37944,6474,37292
39965,6693,37255
42052,6633,37253
43964,6595,37204
45628,6483,37332
47328,6584,37288
48956,6358,37238
50009,6318,37135
50096,6321,37264
48832,6515,37287
45112,6544,37100
39720,6599,37204
34144,6606,37256
29450,6570,37188
25912,6588,36984
23456,6471,37255
22316,6349,37136
22608,6330,36748
23769,6334,37228
25196,6406,37036
26416,6528,36725
27440,6601,37213
28360,6597,36988
29349,6560,36924
30256,6550,37050
30988,6420,36975
31536,6315,36998
31874,6366,36826
32020,6366,36885
32021,6412,36919
31909,6521,36724
31864,6567,36836
31866,6591,36790
31868,6554,36908
32064,6557,36676
32186,6441,36692
32284,6324,36705
32392,6286,36530
32444,6384,36630
32400,6409,36792
32308,6476,36641
32276,6627,36692
32256,6600,36544
32316,6548,36249
32384,6576,36745
32492,6442,36575
32616,6337,36248
32712,6290,36748
32713,6379,36604
32644,6408,36581
32612,6485,36457
32588,6564,36293
32548,6622,36596
32564,6562,36337
32656,6482,36736
32732,6475,36601
32840,6357,36644
32916,6321,36496
32918,6341,36586
32864,6391,36705
32800,6477,36522
32744,6593,36564
32737,6576,36535
32768,6582,36516
32836,6501,36577
32976,6387,36352
33080,6379,36391
33136,6317,36460
33165,6335,36404
33116,6396,36532
33010,6495,36326
32952,6571,36448
32900,6574,36277
32952,6608,36272
33000,6501,36136
33120,6415,35957
33208,6307,36161
33268,6351,36205
33312,6345,36118
33300,6411,36233
33248,6479,36100
33128,6562,35862
33072,6639,36192
33112,6565,35920
33216,6509,36076
33320,6388,35996
33413,6445,35924
33452,6345,36028
33484,6355,36112
33473,6412,35951
33389,6505,35652
33344,6562,36140
33328,6695,35984
33332,6620,35647
33404,6506,36140
33488,6396,36034
33612,6417,36090
33679,6305,36021
33720,6345,35999
33668,6398,36053
33644,6476,36089
33592,6640,36229
33556,6610,36097
33592,6538,36225
33676,6474,36092
33776,6433,36119
33848,6331,36136
33882,6280,36143
33876,6397,36108
33832,6409,35900
33762,6487,36396
33668,6564,36308
33596,6580,36328
33648,6594,36244
33672,6485,36055
33732,6397,36268
33813,6297,36252
33860,6387,36449
33768,6366,36210
33696,6428,36351
33596,6486,36476
33472,6630,36444
33368,6598,36487
33321,6545,36465
33312,6618,36376
33276,6421,36512
33305,6316,36654
33344,6317,36678
33253,6326,36548
33124,6471,36641
32980,6505,36692
32832,6563,36827
32736,6571,36721
32725,6595,36816
32732,6486,36740
32780,6375,36893
32864,6345,36734
32844,6298,36912
32808,6407,36752
32724,6423,36869
32600,6487,36744
32480,6594,36760
32372,6586,36793
32368,6615,36820
32360,6485,36925
32420,6391,36864
32442,6303,36972
32412,6339,36888
32344,6332,37008
32236,6401,36893
32104,6511,36900
31964,6569,37041
31862,6616,36949
31804,6574,36957
31820,6468,36916
31862,6452,36876
31792,6313,36920
31905,6287,36629
31908,6487,37116
31800,6436,37018
31668,6520,37184
31552,6558,37041
31488,6644,37191
31521,6564,37037
31621,6480,36936
31676,6391,37149
31704,6299,37103
31744,6341,37274
31765,6358,37149
31652,6406,37273
31584,6531,37188
31480,6590,37316
31416,6583,37181
31460,6617,37306
31536,6484,37157
31608,6370,37228
31724,6295,37202
31788,6293,37289
31796,6385,36928
31764,6418,37263
31684,6493,37056
31592,6647,37367
31548,6622,37290
31584,6573,37486
31680,6459,37396
31764,6448,37583
31852,6355,37460
31916,6309,37505
31928,6331,37445
31868,6449,37543
31808,6518,37417
31776,6577,37506
31716,6707,37548
31788,6574,37553
31892,6478,37550
31941,6379,37463
32012,6410,37220
32066,6325,37612
32084,6339,37565
31988,6408,37637
31936,6551,37480
31880,6605,37223
31860,6589,37716
31876,6690,37634
31972,6524,37631
32076,6407,37655
32168,6301,37668
32248,6393,37759
32268,6374,37712
32178,6436,37783
32092,6504,37694
32036,6581,37324
31992,6618,37895
32048,6570,37775
32132,6469,37767
32204,6531,37660
32302,6376,37820
32321,6365,37782
32332,6380,37914
32272,6415,37784
32228,6580,37735
32212,6600,37741
32156,6577,37844
32192,6573,38032
32260,6502,37895
32360,6377,38001
32448,6326,37917
32492,6298,38031
32484,6385,37908
32420,6449,38004
32340,6515,37689
32293,6641,37892
32273,6619,37932
32320,6540,37840
32388,6538,37952
32468,6407,37968
32522,6311,38013
32564,6321,37959
32548,6340,38101
32460,6501,38028
32412,6535,38079
32320,6584,37892
32244,6653,37639
32284,6563,38197
32396,6464,38055
32492,6418,38197
32532,6325,38056
32576,6307,38105
32600,6409,37960
32518,6451,37732
32400,6512,38183
32340,6667,38063
32277,6612,38209
32260,6559,38048
32352,6476,37964
32438,6452,38055
32504,6331,37728
32604,6308,37927
32588,6378,38009
32520,6451,38151
32432,6524,38030
32382,6602,37673
32348,6663,38141
32380,6569,38026
32440,6476,38076
32521,6428,37936
32586,6309,38033
32656,6373,38212
32608,6390,38097
32568,6564,38269
32444,6546,38188
32356,6593,38352
32332,6637,38247
32356,6579,38317
32444,6478,38214
32545,6425,38269
32624,6340,38324
32656,6321,38103
32668,6436,38585
32542,6458,38469
32468,6534,38589
32400,6663,38527
32377,6614,38734
32412,6647,38630
32464,6501,38766
32512,6393,38705
32572,6359,38844
32636,6355,38777
32632,6371,38948
32552,6507,38820
32477,6569,38868
32392,6605,38806
32380,6656,38580
32440,6561,38880
32520,6564,39040
32640,6403,39056
32672,6317,39148
32725,6385,39160
32728,6401,39327
32644,6441,39201
32576,6545,39178
32494,6655,39221
32460,6639,39325
32500,6595,39516
32564,6502,39375
32596,6394,39492
32716,6360,39456
32784,6328,39644
32736,6531,39524
32680,6489,39685
32596,6576,39591
32520,6612,39748
32477,6649,39649
32512,6592,39764
32600,6492,39663
32700,6467,39708
32792,6347,39636
32894,6329,39808
32840,6495,39733
32758,6492,39780
32672,6552,39717
32568,6690,39687
32568,6641,39907
32596,6581,39703
32688,6491,40098
32772,6476,39926
32848,6372,39550
32904,6353,40109
32840,6414,39909
32816,6463,39605
32733,6557,40224
32652,6724,40068
32636,6650,40216
32696,6605,40113
32814,6493,40161
32892,6406,40081
32980,6400,40143
33076,6361,40269
33076,6401,40141
32996,6468,40164
32928,6565,40167
32828,6631,40228
32802,6690,40285
32864,6597,40237
32928,6516,40300
32972,6411,40232
33020,6406,40101
33024,6382,40325
32940,6410,40270
32788,6468,40452
32696,6651,40288
32596,6675,40407
32545,6660,40260
32540,6572,40294
32576,6585,40310
32668,6436,39966
32712,6362,40436
32776,6348,40327
32773,6450,40503
32737,6512,40340
32680,6573,40517
32608,6679,40334
32644,6660,40504
32700,6583,40313
32784,6535,40258
32928,6400,40280
33036,6348,40274
33096,6402,40356
33060,6442,40455
32940,6478,40360
32812,6634,40500
32684,6673,40333
32624,6630,40450
32612,6687,40324
32681,6525,40398
32776,6411,40129
32884,6451,40520
32996,6376,40364
32988,6411,40388
32908,6481,40292
32784,6646,40316
32736,6663,40473
32712,6662,40254
32716,6597,40348
32776,6519,40332
32892,6421,40284
32980,6427,40320
33012,6401,40096
32985,6431,40477
32940,6505,40313
32876,6582,40356
32812,6720,40236
32788,6674,40246
32848,6602,40336
32921,6532,40252
33012,6415,40257
33096,6419,40116
33152,6398,39869
33176,6435,40324
33084,6487,40213
32952,6643,40253
32845,6683,40093
32708,6677,40151
32584,6596,40286
32420,6515,40152
32268,6460,40316
32476,6355,40108
32948,6476,40264
33668,6468,40081
34716,6530,40157
36192,6776,40087
37790,6711,40129
39720,6658,40055
41812,6678,40160
43652,6548,39588
45188,6415,39928
46680,6400,39864
48056,6383,39896
48920,6604,39601
48988,6546,39760
47832,6600,39519
44540,6714,39788
39420,6688,39792
34000,6608,39686
29416,6594,39740
26016,6456,39788
23604,6383,39496
22476,6422,39708
22605,6449,39796
23670,6519,39716
24960,6646,39708
26152,6696,39687
27304,6658,39344
28324,6661,39766
29408,6538,39685
30330,6433,39733
31032,6484,39636
31552,6409,39633
31852,6443,39605
31960,6588,39716
31948,6635,39614
31888,6700,39686
31873,6656,39596
31984,6681,39652
32128,6556,39583
32262,6431,39692
32380,6418,39564
32434,6421,39720
32452,6441,39524
32432,6556,39575
32376,6646,39567
32361,6670,39720
32388,6776,39569
32508,6633,39671
32600,6549,39552
32684,6434,39609
32776,6425,39493
32844,6428,39620
32832,6448,39536
32784,6559,39484
32796,6649,39543
32702,6671,39645
32694,6700,39580
32720,6632,39685
32820,6532,39719
32872,6492,39468
32992,6415,39732
33060,6397,39753
33032,6566,39886
32974,6572,39767
32945,6642,39864
32876,6676,39765
32844,6829,39884
32904,6677,39704
33016,6559,39741
33120,6436,39692
33192,6447,39892
33224,6431,39600
33176,6452,39780
33128,6667,39696
33073,6691,39748
33004,6702,39623
32972,6668,39589
33052,6613,39732
33160,6609,39596
33280,6477,39752
33388,6388,39580
33436,6564,39626
33404,6504,39468
33356,6553,39040
33284,6654,39640
33220,6686,39474
33188,6708,39568
33280,6645,39404
33300,6538,39360
33436,6508,38980
33568,6439,39516
33572,6427,39063
33520,6462,39300
33484,6581,39503
33424,6654,39417
33356,6698,39406
33352,6674,39367
33445,6670,39134
33504,6569,39314
33568,6441,39495
33660,6416,39482
33716,6438,39638
33676,6468,39487
33612,6545,39492
33568,6784,39417
33536,6733,39056
33526,6692,39632
33564,6628,39524
33652,6538,39591
33732,6540,39579
33880,6464,39556
33936,6438,39580
33840,6492,39556
33736,6552,39660
33692,6682,39621
33612,6726,39703
33616,6682,39655
33669,6648,39791
33736,6579,39668
33740,6444,39800
33864,6471,39541
33856,6447,39676
33740,6532,39733
33616,6565,39884
33504,6657,39709
33468,6746,39788
33380,6692,39694
33354,6621,39781
33364,6586,39748
33354,6475,39802
33372,6400,39648
33360,6443,39767
33261,6473,39753
33112,6595,39778
33024,6692,39662
32904,6809,39674
32800,6697,39718
32765,6623,39824
32832,6588,39815
32892,6451,39888
32980,6448,39812
32968,6437,39916
32880,6559,39816
32770,6576,39831
32652,6667,39807
32540,6765,39804
32500,6721,39973
32500,6636,39836
32538,6589,39960
32536,6475,39822
32588,6414,39992
32542,6495,39783
32398,6503,39889
32285,6567,39836
32148,6685,39996
32040,6708,39833
31964,6738,39937
31960,6633,39582
31988,6628,39943
32000,6479,39871
32036,6429,39980
32024,6430,39781
31896,6553,39912
31788,6581,39924
31674,6705,39956
31496,6718,39941
31484,6729,39993
31528,6702,40124
31644,6569,39836
31740,6539,39964
31764,6441,40122
31748,6535,40070
31712,6515,40182
31636,6624,40124
31572,6689,40105
31505,6797,40175
31492,6719,40112
31500,6640,40169
31588,6603,40130
31680,6475,40223
31724,6489,40165
31736,6467,40316
31672,6565,40256
31588,6612,40436
31500,6762,39868
31488,6746,40164
31524,6775,40388
31608,6681,40343
31700,6649,40232
31805,6563,40233
31896,6438,40374
31948,6442,40396
31904,6528,40404
31836,6587,40376
31788,6725,40436
31660,6719,40397
31708,6738,40521
31808,6646,39936
31888,6594,40416
31972,6549,40604
32045,6431,40445
32120,6479,40481
32088,6506,40524
32028,6612,40364
31948,6689,40502
31872,6744,40652
31876,6715,40497
31917,6677,40492
32069,6572,40686
32100,6509,40036
32225,6424,40465
32248,6493,40604
32192,6509,40574
32116,6641,40751
32064,6717,40569
31996,6738,40690
31993,6724,40540
32064,6674,40599
32168,6594,40780
32284,6475,40172
32340,6503,40497
32376,6490,40622
32217,6608,40645
32231,6630,40756
32192,6699,40284
32140,6753,40597
32172,6713,40692
32216,6696,40612
32276,6584,40542
32368,6534,40721
32480,6437,40308
32548,6508,40588
32457,6516,40664
32356,6613,40620
32284,6774,40620
32230,6741,40564
32232,6753,40656
32284,6652,40563
32353,6586,40484
32460,6485,40596
32512,6474,40612
32495,6533,40674
32496,6558,40569
32420,6685,40598
32364,6739,40711
32276,6850,40526
32300,6743,40564
32360,6652,40598
32448,6616,40557
32568,6488,40647
32616,6495,40124
32628,6480,40525
32552,6623,40708
32430,6625,40037
32352,6717,40476
32313,6753,40645
32304,6772,40564
32356,6653,39977
32468,6601,40368
32536,6482,40633
32588,6459,40089
32626,6466,40384
32544,6569,40544
32485,6606,40068
32420,6730,40337
32416,6741,40358
32393,6718,40377
32432,6685,39961
32476,6583,40324
32526,6480,40292
32576,6501,40348
32576,6487,40260
32520,6536,40197
32452,6629,40366
32376,6711,40173
32304,6782,40103
32280,6724,40238
32337,6680,40097
32420,6579,39966
32493,6502,40121
32576,6446,40055
32540,6520,40045
32497,6546,39657
32464,6607,39813
32341,6756,39923
32284,6759,39897
32317,6726,39996
32382,6688,39846
32444,6595,39944
32468,6579,39748
32560,6473,39864
32592,6501,39709
32512,6536,39847
32400,6669,39644
32320,6754,39741
32312,6747,39188
32344,6738,39488
32376,6823,39703
32462,6610,39478
32564,6562,39466
32628,6480,39616
32628,6476,39406
32604,6565,39516
32496,6620,39316
32448,6771,39197
32396,6775,39197
32408,6727,39212
32452,6687,39348
32549,6570,39220
32652,6489,39284
32736,6476,39151
32744,6481,39270
32664,6610,39104
32624,6655,39220
32472,6724,39044
32388,6764,39044
32396,6722,38940
32461,6699,38935
32544,6574,39113
32640,6532,38864
32648,6478,38843
32696,6478,38952
32636,6564,38852
32600,6626,38692
32533,6758,38879
32385,6883,38320
32392,6734,38756
32462,6703,38649
32617,6587,38861
32745,6526,38252
32796,6457,38604
32800,6513,38700
32752,6620,38581
32720,6641,38577
32653,6716,38700
32556,6788,38180
32557,6727,38463
32630,6713,38600
32716,6580,38469
32784,6553,38316
32817,6488,38460
32868,6488,38392
32840,6583,38294
32780,6689,38516
32668,6762,37908
32620,6757,38218
32620,6758,38388
32668,6776,37836
32736,6615,38285
32804,6489,38073
32860,6476,38164
32952,6479,38007
32928,6570,38053
32877,6632,38151
32776,6764,38044
32741,6781,38104
32756,6811,37976
32832,6677,37989
32896,6577,37824
33036,6555,37639
33080,6490,37724
33040,6483,37517
32992,6617,37849
32920,6666,37695
32800,6754,37269
32724,6791,37616
32676,6732,37733
32720,6669,37564
32740,6637,37445
32816,6513,37602
32824,6459,37016
32824,6533,37408
32776,6560,37085
32656,6708,37288
32556,6757,36845
32456,6771,37332
32460,6727,37181
32580,6754,37196
32720,6610,37095
32840,6514,37056
32952,6588,37015
32908,6513,37040
32868,6566,36871
32824,6720,36655
32788,6766,36918
32796,6760,36957
32784,6755,37100
32796,6660,36916
32817,6607,37060
32840,6487,36925
32848,6503,37037
32852,6497,36888
32716,6609,36932
32641,6643,36852
32614,6753,36944
32619,6844,36820
32676,6771,36852
32708,6732,36772
32820,6614,36823
32905,6645,36736
32928,6497,36839
32932,6500,36670
32884,6583,36772
32824,6652,36268
32764,6810,36621
32721,6781,36468
32704,6731,36540
32804,6724,36532
32924,6615,36537
32948,6617,36568
33048,6476,36524
33073,6498,36625
33016,6579,36484
32916,6645,36600
32820,6762,36422
32780,6772,36585
32752,6798,36404
32828,6669,36436
32950,6666,36103
33020,6509,36213
33028,6461,36204
32953,6532,36306
32660,6584,35984
32424,6662,36357
32352,6848,36216
32690,6781,36269
33424,6731,36303
34500,6729,36234
35996,6596,36231
37700,6486,36185
39604,6520,36190
41604,6517,36208
43328,6566,36165
44641,6691,36070
45880,6734,36136
47080,6836,36156
47964,6777,36144
48344,6762,36104
47552,6606,36109
44857,6488,36021
40060,6597,35792
34740,6543,36229
29940,6588,35761
26332,6722,36064
23653,6767,36079
22268,6778,36049
22236,6790,36073
23256,6691,36040
24718,6588,36054
26110,6542,35980
27333,6475,35997
28328,6566,35928
29308,6593,35725
30109,6663,36069
30692,6766,35649
31152,6774,35847
31552,6753,35903
31824,6669,35904
31974,6600,35701
32024,6493,36036
32184,6520,35872
32152,6500,35828
32168,6604,35806
32169,6656,35775
32164,6759,35798
32156,6770,35785
32148,6769,35764
32248,6701,35665
32356,6648,35752
32520,6526,35702
32637,6543,35808
32656,6531,35774
32601,6686,35804
32608,6691,35662
32584,6748,35725
32553,6814,35712
32584,6742,35836
32656,6670,35792
32748,6615,35864
32840,6494,35828
32848,6505,35917
32892,6494,35800
32898,6600,35716
32852,6659,35771
32808,6768,35835
32741,6767,35864
32800,6760,35424
32852,6678,35895
32950,6663,35429
33024,6510,35660
33068,6463,35708
33085,6540,35700
33056,6572,35688
33024,6716,35596
32948,6759,35676
32888,6831,35625
32904,6745,35556
33009,6665,35537
33140,6601,35381
33228,6487,35637
33344,6534,35277
33352,6538,35648
33300,6606,35460
33180,6816,35512
33120,6764,35479
33080,6761,35492
33136,6759,35420
33220,6658,35519
33296,6605,35508
33392,6486,35460
33436,6532,35444
33448,6517,35300
33412,6573,35600
33336,6692,35172
33285,6754,35444
33280,6826,35517
33316,6749,35441
33416,6745,35537
33500,6606,35561
33582,6615,35624
33640,6485,35501
33673,6500,35645
33633,6582,35776
33536,6685,35689
33480,6748,35657
33444,6765,35735
33496,6764,35743
33534,6687,35900
33637,6649,35773
33780,6538,35815
33820,6485,35794
33813,6504,35778
33756,6590,35732
33728,6665,35805
33640,6808,35856
33608,6785,35892
33652,6802,35844
33696,6688,35936
33780,6621,35990
33869,6505,36103
33936,6464,36018
33873,6522,36038
33784,6576,36060
33620,6678,36255
33568,6739,35736
33553,6819,36094
33592,6739,36028
33584,6721,36032
33576,6595,36132
33640,6583,36060
33636,6482,35916
33586,6521,36366
33472,6658,36263
33324,6698,36398
33164,6743,36266
33056,6806,36364
33008,6728,36308
32996,6723,36421
33065,6578,36312
33096,6550,36325
33024,6471,36412
33000,6606,36340
32896,6587,36512
32770,6735,36388
32628,6766,36504
32552,6929,36391
32548,6743,36516
32600,6761,36228
32670,6600,36292
32704,6480,36383
32784,6489,36312
32652,6507,36162
32576,6668,36524
32423,6682,36474
32296,6752,36516
32188,6796,36492
32156,6722,36615
32172,6697,36525
32232,6564,36633
32276,6515,36540
32256,6495,36561
32224,6494,36408
32161,6684,36567
31996,6728,36505
31879,6763,36644
31757,6759,36556
31760,6772,36684
31796,6656,36549
31829,6636,36629
31884,6493,36560
31912,6480,36536
31816,6505,36468
31736,6601,36535
31652,6677,36629
31520,6883,36628
31480,6782,36736
31472,6723,36633
31536,6697,36724
31632,6569,36340
31744,6556,36697
31777,6476,36689
31756,6490,36839
31740,6603,36341
31680,6695,36904
31612,6751,36780
31428,6828,36864
31528,6755,36736
31625,6674,36468
31704,6560,36837
31808,6477,37012
31992,6516,36888
31884,6505,36989
31796,6559,36894
31740,6740,36960
31672,6768,36901
31612,6761,36927
31684,6816,36967
31753,6694,36991
31888,6571,37028
32016,6471,37035
32100,6476,37185
32112,6494,37055
32056,6633,37168
32020,6694,37072
31844,6872,37188
31792,6781,37060
31780,6729,37166
31924,6721,37022
32104,6578,37157
32200,6473,37100
32252,6479,37140
32220,6491,37093
32169,6626,37093
32084,6688,37020
31949,6756,37118
31924,6805,37277
32004,6767,37104
32116,6654,37206
32224,6586,37148
32312,6471,37159
32384,6487,37120
32364,6495,37172
32320,6604,37172
32172,6660,37322
32100,6798,37164
32068,6763,37256
32148,6791,36787
32248,6684,37288
32317,6650,36924
32417,6489,37238
32508,6454,37164
32440,6543,37341
32388,6583,37215
32326,6748,37245
32265,6763,36919
32148,6766,37359
32158,6840,37201
32288,6670,37297
32404,6554,37065
32513,6561,37208
32556,6469,36824
32572,6493,37383
32508,6639,37244
32444,6707,37383
32380,6743,37214
32300,6835,37410
32356,6759,37246
32432,6791,37220
32534,6589,37289
32604,6569,37260
32640,6485,37117
32608,6582,37285
32524,6589,37276
32436,6677,37399
32328,6796,37218
32404,6769,37407
32364,6758,37262
32396,6682,36921
32489,6564,37365
32532,6558,37253
32612,6478,37244
32652,6496,37156
32576,6610,37198
32452,6694,37312
32361,6879,37244
32392,6806,37284
32424,6740,37236
32468,6654,37188
32560,6621,37172
32648,6480,37212
32700,6457,37236
32672,6571,37148
32594,6610,37157
32508,6674,37054
32436,6820,36999
32360,6783,37310
32332,6728,37156
32440,6725,37133
32572,6569,37085
32640,6475,36861
32628,6459,37295
32644,6505,37053
32580,6636,36892
32497,6706,37077
32428,6762,36965
32420,6788,37109
32448,6723,37158
32484,6813,37093
32560,6564,37164
32620,6481,37116
32716,6456,37180
32720,6610,36988
32646,6642,37110
32564,6707,37211
32418,6788,37083
32408,6772,37053
32456,6841,37119
32584,6712,37109
32676,6584,37132
32716,6459,37049
32768,6529,37156
32740,6532,37052
32652,6603,37058
32598,6686,36916
32508,6807,37093
32460,6767,37028
32508,6772,37021
32556,6647,36988
32628,6587,36992
32704,6468,36856
32796,6499,36921
32804,6509,36916
32732,6638,37103
32621,6694,36689
32536,6841,36805
32480,6793,36847
32512,6818,36893
32572,6688,37030
32684,6561,36841
32736,6500,36740
32812,6545,36840
32820,6527,36805
32766,6583,36852
32644,6734,36820
32562,6787,36836
32512,6773,36781
32584,6758,36935
32584,6652,36807
32748,6597,36919
32788,6507,36796
32852,6465,36849
32872,6578,36714
32788,6608,36732
32660,6702,36737
32532,6804,36790
32504,6775,36749
32536,6760,36909
32644,6650,36719
32728,6628,36804
32799,6510,36575
32836,6480,36662
32844,6536,36761
32736,6588,36714
32708,6738,36855
32640,6784,36711
32600,6849,36576
32608,6765,36748
32688,6767,36721
32832,6568,36853
32944,6478,36711
32970,6535,36780
32984,6531,36716
32952,6596,36828
32893,6723,36671
32936,6772,36800
32904,6814,36283
32880,6733,36828
32952,6731,36689
33046,6594,36824
33132,6475,36656
33221,6491,36765
33080,6516,36630
32973,6638,36643
32854,6701,36584
32712,6800,36648
32564,6779,36761
32572,6760,36596
32704,6669,36750
32732,6628,36580
32780,6503,36710
32756,6614,36193
32720,6551,36733
32654,6612,36567
32520,6821,36697
32472,6796,36212
32492,6858,36410
32564,6757,36556
32672,6715,36502
32792,6563,36636
32832,6536,36085
32932,6476,36436
32944,6577,36577
32953,6605,36436
32860,6768,36373
32764,6816,36433
32625,6786,36552
32617,6778,36228
32680,6664,36420
32756,6565,36404
32800,6524,36505
32828,6502,36401
32840,6617,36438
32768,6660,36372
32740,6736,36484
32676,6787,36065
32620,6808,36310
32628,6748,36335
32753,6799,36201
32832,6594,36263
32920,6503,36253
32964,6480,36322
33000,6578,36408
32872,6645,36231
32784,6761,36103
32736,6791,36445
32704,6795,36236
32764,6817,36196
32828,6688,36128
32932,6566,35847
32992,6484,36357
33120,6597,36140
33100,6587,35954
33004,6641,36306
32884,6754,36204
32784,6800,36304
32760,6837,36190
32788,6782,36244
32732,6810,36180
32688,6587,36261
32648,6506,36136
32600,6498,36168
32684,6596,36084
33030,6638,36023
33728,6723,36125
34698,6886,36119
36108,6818,36176
37748,6749,36069
39712,6782,36068
41800,6581,36037
43584,6488,36140
44940,6530,36053
46156,6544,36048
47156,6753,36000
47744,6774,36148
47720,6794,35975
46536,6884,36039
43408,6788,35624
38526,6701,36060
33368,6581,35896
29024,6567,35580
25724,6544,35868
23376,6567,35463
22262,6735,35876
22456,6766,35780
23452,6818,35775
24864,6871,35409
26148,6779,35682
27412,6683,35640
28488,6587,35644
29562,6516,35600
30472,6512,35560
31064,6582,35510
31496,6672,35525
31732,6745,35496
31852,6872,35604
31900,6823,35060
31956,6789,35549
32072,6675,35329
32184,6626,35172
32212,6498,35397
32364,6538,34932
32425,6564,35137
32368,6663,35260
32340,6742,35127
32288,6836,35255
32264,6810,35060
32332,6785,35007
32430,6673,34991
32496,6599,35015
32600,6502,35093
32664,6559,34951
32704,6596,35062
32696,6784,34567
32608,6774,34868
32548,6910,34837
32556,6826,34806
32576,6759,34754
32596,6692,34672
32780,6569,34708
32861,6527,34663
33004,6511,34485
33000,6638,34532
32952,6662,34496
32908,6757,34333
32812,6906,34343
32809,6827,34303
32916,6754,34267
32936,6724,34261
32960,6598,34339
33088,6507,34151
33164,6539,34219
33160,6564,34000
33096,6770,34084
33025,6773,33582
32956,6818,33684
32956,6872,33661
32932,6777,33622
33064,6669,33702
33121,6601,33546
33252,6503,33368
33348,6570,33417
33300,6581,33412
33268,6771,33477
33184,6772,32956
33173,6821,33350
33104,6910,33160
33216,6789,33087
33280,6707,32943
33416,6566,32968
33500,6564,32869
33564,6548,32919
33513,6564,32841
33480,6765,32847
33336,6786,32808
33320,6814,32914
33280,6828,32791
33288,6753,32749
33404,6700,32576
33524,6560,32636
33600,6549,32761
33632,6516,32614
33724,6628,32591
33628,6672,32503
33566,6852,32489
33484,6834,32541
33444,6806,32501
33477,6768,32464
33572,6666,32365
33636,6595,32425
33752,6517,32465
33816,6580,32380
33796,6597,32484
33780,6642,32325
33692,6778,32172
33552,6816,32292
33540,6845,32270
33540,6752,32302
33629,6823,32199
33708,6580,32228
33728,6499,32165
33750,6510,32307
33704,6612,32124
33644,6667,32140
33524,6836,32039
33432,6848,32100
33312,6807,32216
33272,6790,31741
33328,6672,31940
33428,6639,31938
33496,6518,31966
33492,6529,31931
33360,6569,31991
33192,6664,32064
33024,6753,31679
32904,6848,31816
32824,6802,31948
32856,6797,31957
32892,6693,32060
32908,6555,31927
32940,6529,31912
32912,6505,32028
32860,6613,31932
32789,6664,32067
32653,6763,31914
32512,6846,32032
32464,6838,31928
32500,6744,32068
32513,6715,31930
32560,6573,31978
32596,6495,31889
32608,6504,31879
32500,6589,31879
32413,6642,32007
32288,6820,31989
32173,6842,32129
32164,6865,32020
32084,6767,31986
32132,6712,31968
32150,6546,32097
32152,6531,32231
32212,6523,32125
32100,6563,32201
31968,6668,32134
31860,6756,32137
31728,6869,32026
31684,6809,32119
31688,6789,32213
31772,6653,32234
31836,6567,31972
31852,6494,32220
31908,6535,32302
31825,6611,32293
31732,6644,32380
31628,6795,32300
31534,6808,32188
31472,6826,32388
31480,6796,32358
31580,6692,32502
31692,6634,32102
31788,6499,32335
31800,6502,32324
31784,6581,32316
31768,6743,32598
31780,6790,32159
31756,6806,32380
31692,6820,32423
31736,6730,32461
31888,6671,32592
31932,6624,32548
32016,6522,32606
32050,6567,32511
32060,6568,32566
31984,6701,32657
31920,6759,32629
31828,6861,32559
31836,6796,32581
31908,6787,32663
32040,6661,32745
32124,6612,32710
32184,6513,32677
32176,6571,32628
32220,6584,32732
32169,6639,32452
32060,6798,32768
31988,6804,32623
31966,6846,32701
32008,6760,32789
32142,6704,32852
32276,6539,32943
32304,6552,32621
32312,6497,32862
32284,6580,33057
32264,6710,32838
32132,6758,32912
32044,6855,32992
32073,6786,32996
32204,6756,33073
32292,6639,32763
32392,6581,33016
32468,6486,32743
32492,6534,33116
32448,6551,32861
32404,6672,33096
32328,6755,32841
32252,6825,33063
32249,6781,33103
32328,6742,33057
32404,6651,32993
32504,6539,33183
32568,6496,33156
32620,6487,33237
32596,6576,33361
32516,6644,33298
32448,6784,33400
32356,6797,32989
32336,6801,33295
32412,6726,33140
32548,6655,33225
32588,6530,33365
32676,6515,33382
32748,6494,33468
32692,6568,33217
32613,6720,33340
32565,6768,33337
32456,6801,33296
32460,6817,33097
32508,6721,33575
32612,6688,33440
32688,6528,33468
32772,6539,33164
32788,6488,33341
32731,6582,33553
32640,6645,33444
32564,6829,33377
32494,6824,33476
32480,6783,33569
32536,6753,33508
32664,6647,33430
32764,6530,33660
32876,6493,33248
32864,6494,33482
32812,6579,33439
32724,6642,33477
32577,6810,33429
32452,6817,33532
32468,6863,33508
32564,6730,33648
32660,6704,33668
32712,6532,33712
32808,6627,33692
32840,6524,33956
32808,6558,33864
32672,6718,33991
32576,6777,33896
32504,6812,33980
32520,6842,33980
32592,6744,33985
32672,6630,34000
32781,6541,34125
32856,6560,34106
32840,6526,34188
32804,6667,34055
32708,6663,34114
32664,6751,33910
32544,6839,34404
32444,6803,34305
32488,6829,34428
32620,6654,34417
32716,6622,34549
32780,6485,34157
32808,6497,34540
32764,6597,34583
32596,6678,34777
32376,6760,34687
32213,6817,34894
32212,6781,34823
32270,6773,34967
32492,6659,34948
32772,6518,35136
32908,6508,35073
32937,6521,35112
32936,6552,35071
32872,6741,35285
32812,6803,35444
32752,6824,35416
32756,6767,35278
32836,6750,35591
32936,6655,35663
33052,6510,35889
33100,6526,35844
33076,6526,35996
32973,6558,35988
32832,6697,36118
32684,6782,36023
32628,6797,36231
32616,6840,36448
32664,6724,36379
32764,6616,36488
32868,6563,36536
32924,6492,36621
32909,6591,36740
32904,6576,36824
32736,6644,36892
32596,6788,36964
32440,6804,36966
32376,6774,37181
32416,6763,37196
32504,6656,37332
32636,6515,36983
32700,6522,37527
32780,6512,37431
32756,6561,37633
32692,6726,37741
32556,6787,37767
32508,6900,37941
32521,6796,37892
32588,6763,38117
32688,6629,38013
32876,6579,38193
32984,6506,38071
33024,6495,38189
33000,6629,38240
32988,6685,38151
32952,6757,38340
32908,6879,38338
32960,6807,38447
33044,6716,38433
33068,6663,38476
33036,6509,38132
32900,6598,38702
32644,6563,38636
32504,6592,38580
32424,6692,38652
32364,6765,38780
32365,6858,38660
32373,6789,38770
32474,6698,38825
32672,6683,38700
32800,6548,38807
33016,6478,38992
33008,6524,38838
32932,6564,38960
32720,6686,38804
32472,6758,38847
32327,6835,38748
32224,6775,38481
32292,6746,39076
32480,6625,38903
32721,6569,38949
32869,6511,38813
32896,6655,38972
32865,6586,38900
32856,6660,38789
32740,6888,39008
32670,6834,38953
32742,6807,38812
32828,6704,39016
32904,6682,38812
33004,6534,38492
32992,6471,39077
32920,6571,38919
32832,6587,38935
32812,6656,38828
32778,6794,38821
32656,6791,38788
32688,6791,38764
32724,6693,38654
32780,6672,38330
32812,6518,38701
32928,6533,38692
32968,6514,38797
32880,6613,38584
32708,6684,38644
32596,6828,38513
32535,6814,38437
32596,6769,38276
32736,6752,38373
32920,6640,38493
33048,6518,38236
33112,6498,37965
33056,6521,38304
32992,6573,38069
32996,6690,37908
32916,6766,38010
32817,6853,37975
32744,6774,38033
32688,6754,37854
32802,6639,37948
33174,6504,37692
33816,6545,37732
34668,6514,37688
35809,6565,37516
37156,6733,37173
38668,6800,37654
40512,6791,37433
42256,6820,37430
43824,6725,37305
45360,6730,37092
46776,6536,37251
47820,6465,36949
48176,6566,37005
47263,6576,37029
44528,6742,36940
39676,6789,37060
34528,6818,36884
29768,6794,36941
26460,6821,36540
24213,6642,36648
23020,6625,36596
22848,6499,36455
23800,6515,36432
25106,6620,36327
26300,6687,36349
27325,6823,36288
28224,6830,36245
29096,6769,36072
30056,6730,36020
30948,6607,35964
31649,6542,36048
32024,6472,35847
32288,6567,35848
32296,6611,35676
32200,6787,35604
32096,6788,35143
32000,6803,35351
32000,6796,35288
32097,6849,35204
32180,6623,35175
32320,6507,35046
32440,6490,35052
32508,6509,34945
32524,6597,34950
32496,6662,34751
32466,6807,34664
32417,6793,34602
32433,6816,34687
32570,6698,34474
32669,6694,34488
32808,6524,34324
32896,6474,34398
32896,6522,34184
32840,6577,34129
32736,6692,33977
32672,6765,33815
32588,6853,33969
32568,6797,33776
32620,6837,33693
32692,6642,33620
32880,6573,33631
32880,6471,33520
32948,6541,33546
32953,6572,33329
32892,6697,33399
32808,6767,33189
32764,6826,33181
32800,6764,32923
32884,6710,32897
33012,6596,32914
33164,6549,32736
33293,6492,32785
33336,6593,32579
33236,6610,32633
33149,6777,32120
33000,6810,32328
32972,6884,31973
32976,6796,32252
33040,6779,31905
33188,6637,31989
33332,6513,31749
33424,6507,31828
33404,6574,31799
33312,6607,31784
33192,6742,31819
33064,6811,31724
33052,6878,31824
33033,6780,31372
33136,6750,31524
33244,6619,31552
33404,6583,31437
33504,6503,31302
33476,6572,31593
33428,6591,31452
33344,6722,31468
33200,6779,31142
33100,6864,31321
33184,6791,31132
33320,6756,31184
33428,6618,31260
33612,6564,31284
33704,6486,31421
33720,6548,31034
33660,6591,31217
33564,6731,31089
33464,6775,31096
33448,6826,31151
33476,6934,31220
33509,6700,31300
33601,6652,30960
33696,6524,31276
33758,6512,31132
33720,6510,31227
33648,6600,31317
33532,6754,31109
33446,6813,31164
33300,6865,31360
33324,6764,31147
33466,6720,31239
33480,6691,31285
33508,6525,31172
33544,6479,31140
33578,6537,31252
33480,6581,31299
33328,6697,31278
33176,6778,31044
33056,6838,31168
32964,6837,31268
33004,6693,31342
33028,6644,31440
33050,6511,31364
33052,6564,31337
32988,6541,31326
32852,6599,31302
32648,6759,31225
32465,6815,31267
32368,6892,31313
32248,6795,31519
32264,6764,31396
32420,6627,31493
32544,6618,31396
32600,6496,31540
32596,6513,31402
32544,6625,31525
32416,6692,31389
32341,6852,31472
32232,6812,31104
32212,6825,31248
32252,6720,31159
32276,6686,31261
32328,6544,31286
32360,6490,31251
32336,6539,31301
32216,6596,31341
32060,6723,31364
31894,6785,31380
31748,6858,31361
31816,6799,31282
31844,6774,31335
31894,6617,31409
31904,6580,31348
31852,6517,31397
31856,6520,31364
31780,6625,31366
31720,6692,31390
31538,6811,31445
31452,6884,31614
31476,6804,31515
31501,6753,31609
31568,6595,31217
31686,6531,31406
31717,6514,31396
31712,6579,31550
31637,6606,31564
31528,6768,31552
31436,6818,31487
31340,6863,31585
31384,6774,31702
31496,6738,31655
31564,6604,31741
31696,6528,31395
31788,6559,31628
31784,6530,31677
31732,6638,31751
31660,6704,31817
31596,6850,31765
31540,6813,31813
31589,6814,31812
31681,6696,31845
31773,6674,31815
31876,6507,32004
31964,6514,31876
31924,6532,31991
31820,6626,31905
31784,6709,32032
31752,6829,31952
31669,6817,31961
31753,6798,31839
31844,6700,31743
31992,6637,32145
32004,6531,32050
32020,6604,32130
32040,6561,32029
32024,6610,32034
31960,6740,32006
31896,6802,32040
31824,6851,32112
31824,6789,31914
31952,6758,32182
31996,6598,32120
32168,6544,32172
32244,6498,31936
32264,6598,32374
32212,6630,32239
32077,6862,32172
31992,6822,32261
31976,6815,31981
31996,6810,32112
32056,6703,32077
32180,6661,32353
32257,6525,32268
32376,6573,32380
32348,6573,32262
32280,6699,32329
32200,6741,32286
32132,6885,32300
32096,6831,32196
32164,6925,32223
32168,6720,32200
32228,6612,32100
32352,6540,32233
32440,6658,32437
32444,6569,32416
32364,6764,32501
32320,6745,32309
32261,6842,32452
32166,6826,32463
32200,6893,32420
32264,6723,32364
32424,6612,32489
32493,6558,32468
32560,6591,32449
32533,6574,32508
32464,6782,32478
32352,6754,32428
32276,6868,32500
32262,6851,32661
32288,6880,32828
32348,6724,32686
32460,6678,32832
32548,6550,32748
32576,6506,32836
32608,6599,32736
32512,6667,32612
32372,6810,32700
32316,6843,32859
32308,6824,33040
32343,6848,32913
32412,6718,32916
32496,6712,32877
32638,6560,32896
32708,6628,32919
32660,6588,32915
32580,6791,33073
32496,6754,33045
32404,6819,33236
32340,6897,33118
32360,6815,33165
32448,6715,33117
32524,6693,32873
32568,6560,33321
32684,6510,33205
32693,6651,33140
32638,6676,33274
32552,6766,33119
32460,6891,33128
32396,6852,33214
32388,6795,33073
32536,6735,33282
32628,6619,33344
32668,6597,33393
32720,6513,33372
32692,6580,33508
32656,6641,33386
32588,6758,33548
32484,6821,33426
32436,6885,33388
32452,6814,33576
32544,6718,33433
32600,6678,33380
32752,6544,33352
32868,6525,33500
32848,6621,33417
32778,6673,33621
32684,6774,33464
32608,6826,33516
32544,6884,33616
32578,6820,33388
32672,6734,33513
32785,6725,33636
32956,6559,33487
33028,6529,33228
33036,6649,33508
32988,6674,33616
32860,6757,33475
32748,6920,33252
32708,6859,33625
32800,6799,33501
32772,6772,33292
32840,6628,33692
32888,6544,33425
32942,6563,33349
32888,6586,33671
32774,6761,33519
32624,6782,33340
32484,6840,33509
32405,6882,33601
32376,6821,33526
32408,6789,33564
32508,6658,33559
32512,6544,33524
32676,6561,33548
32736,6583,33484
32708,6678,33612
32648,6759,33600
32608,6880,33612
32544,6864,33591
32592,6859,33647
32788,6745,33556
32877,6633,33573
32972,6568,33616
32984,6549,33670
32956,6661,33575
32820,6671,33569
32752,6812,33671
32596,6851,33799
32466,6913,33535
32524,6827,33668
32684,6729,33695
32836,6695,33527
32848,6593,33644
32932,6544,33724
32888,6663,33602
32784,6690,33341
32672,6765,33764
32592,6884,33325
32632,6853,33539
32684,6860,33597
32773,6774,33564
32830,6727,33533
32901,6584,33614
32980,6559,33381
32929,6601,33753
32932,6707,33620
32872,6796,33564
32792,6930,33540
32720,6888,33665
32680,6925,33631
32801,6751,33743
32956,6632,33588
33124,6633,33537
33184,6572,33495
33112,6601,33585
32984,6753,33726
32896,6821,33589
32736,6871,33519
32484,7013,33508
32328,6874,33588
32400,6769,33687
32732,6804,33548
33426,6582,33660
34408,6547,33536
35744,6643,33676
37260,6681,33212
38913,6836,33676
40836,6862,33552
42720,6946,33585
44272,6839,33508
45680,6737,33564
47004,6665,33502
48008,6558,33542
48504,6646,33423
47973,6637,33448
45784,6688,33473
41160,6847,33420
35836,6878,33422
30800,6910,33460
26976,6839,33484
24204,6790,33495
22624,6679,33388
22370,6627,33479
23300,6587,33521
24589,6711,33436
25850,6713,33362
27020,6799,33290
27968,6955,33544
28844,6911,33346
29804,6853,33468
30624,6753,33508
31320,6673,33412
31825,6568,33437
32076,6583,33087
32121,6625,33361
32100,6730,33040
32024,6799,33287
32016,6912,33327
31956,6877,33308
32032,6844,33445
32200,6752,33284
32320,6684,33354
32448,6568,33196
32540,6596,33255
32540,6708,33339
32484,6737,32897
32440,6868,33079
32400,6884,33149
32364,6930,33164
32476,6842,33124
32572,6779,33096
32684,6682,33198
32792,6577,33280
32804,6609,33189
32880,6626,33159
32836,6758,33144
32752,6807,33122
32680,6930,33146
32652,6883,33287
32704,6866,33157
32828,6757,33287
32900,6665,33147
33028,6638,32974
33052,6582,33044
33056,6654,33108
32952,6709,33222
32876,6846,33071
32840,6879,33136
32852,6939,33039
32928,6857,33120
33022,6855,32988
33068,6692,32988
33108,6642,32961
33240,6586,32906
33184,6692,32764
33156,6737,32580
33120,6899,32904
33076,6908,32833
33056,6892,32929
33073,6859,32774
33141,6761,32757
33240,6700,32683
33337,6581,32735
33364,6601,32677
33360,6631,32665
33304,6757,32589
33241,6829,32458
33184,6900,32678
33176,6925,32560
33221,6919,32688
33304,6779,32544
33428,6743,32620
33508,6624,32535
33553,6672,32551
33584,6673,32377
33532,6724,32381
33484,6856,32565
33388,6973,32506
33384,6908,32655
33412,6974,32510
33480,6781,32668
33604,6670,32434
33696,6647,32333
33712,6609,32699
33652,6640,32560
33640,6779,32664
33613,6847,32516
33532,6901,32341
33452,6961,32548
33604,6879,32518
33710,6851,32518
33801,6698,32594
33888,6592,32564
33940,6616,32647
33808,6646,32712
33752,6774,32732
33664,6841,32911
33580,6970,32797
33589,6939,32730
33600,6877,32824
33648,6761,32852
33696,6732,32775
33712,6628,32713
33752,6592,32687
33696,6685,32962
33568,6725,32732
33376,6889,32937
33184,6902,32753
33076,6970,33031
33068,6867,32652
33140,6920,33148
33212,6701,33037
33232,6618,33012
33176,6598,32996
33068,6676,32765
32960,6735,33202
32741,6924,33096
32608,6931,33148
32532,6896,33068
32545,6879,33129
32592,6762,33117
32724,6715,33124
32820,6612,33065
32764,6698,32928
32760,6686,33300
32580,6739,33263
32456,6869,33428
32364,6902,33309
32308,6950,33412
32277,6884,33280
32272,6770,33237
32312,6689,33276
32384,6604,33412
32400,6742,33508
32288,6685,33392
32140,6740,33413
32028,6911,33424
31876,6945,33526
31740,6903,33526
31736,6916,33533
31756,6788,33620
31858,6657,33636
31904,6691,33608
31917,6633,33580
31864,6655,33600
31700,6792,33584
31597,6881,33828
31508,6912,33788
31444,6948,33948
31460,6850,33844
31544,6843,33872
31652,6689,33844
31740,6601,33660
31748,6670,34070
31725,6684,33909
31648,6748,33897
31525,6852,33985
31476,6960,34009
31516,6945,34068
31514,6846,34005
31712,6860,33780
31692,6703,34225
31840,6619,34100
31944,6675,34212
31932,6694,33804
31864,6821,34084
31724,6883,34200
31669,6923,34290
31680,6977,34209
31756,6853,34343
31892,6811,34245
31961,6665,34255
32024,6676,34105
32064,6648,34215
32044,6676,34285
32016,6800,34220
31973,6900,34040
31928,6926,34520
31852,6942,34420
31896,6884,34380
32012,6872,34344
32096,6708,34477
32164,6623,34341
32164,6630,34512
32128,6781,34495
32096,6783,34549
32012,6876,34481
31936,7009,34220
31928,6938,34684
32000,6884,34461
32112,6784,34594
32212,6726,34616
32292,6625,34644
32364,6628,34634
32288,6780,34328
32245,6793,34756
32104,6879,34529
32032,7090,34684
32072,6993,34614
32160,6901,34823
32260,6826,34677
32356,6680,34393
32413,6619,34789
32413,6725,34852
32380,6717,34709
32399,6776,34660
32280,6956,34645
32224,6974,34754
32204,6934,34807
32232,6895,34620
32328,6799,34769
32436,6692,34708
32496,6695,34884
32561,6670,34753
32500,6734,34734
32436,6793,34897
32356,6884,34809
32256,7077,34791
32232,6981,34616
32364,6906,34916
32452,6801,34724
32560,6688,34804
32624,6712,34713
32616,6677,34894
32556,6739,34652
32521,6798,34756
32428,6936,34821
32332,6985,34719
32344,6934,34700
32400,6930,34624
32520,6802,34663
32636,6754,34749
32724,6652,34789
32776,6666,34813
32721,6710,34705
32626,6838,34527
32556,6936,34900
32464,6957,34764
32392,6961,34780
32476,6877,34727
32512,6847,34767
32653,6718,34756
32764,6698,34797
32759,6668,34772
32660,6718,34821
32540,6843,34628
32404,6921,34775
32396,6957,34912
32412,7012,34750
32448,6915,34444
32576,6823,34892
32708,6690,34757
32704,6638,34471
32768,6704,34796
32728,6738,34639
32608,6828,34773
32496,6911,34756
32524,7030,34703
32500,6968,34761
32568,6908,34684
32632,6797,34776
32692,6849,34612
32728,6719,34740
32760,6755,34462
32788,6776,34773
32657,6819,34554
32568,6911,34700
32488,7056,34664
32465,6984,34799
32488,6914,34648
32568,6797,34572
32688,6714,34589
32767,6650,34535
32800,6746,34442
32776,6757,34548
32700,6822,34633
32656,6918,34487
32628,7000,34500
32620,6950,34440
32708,6916,34575
32808,6797,34192
32856,6727,34500
32960,6654,34364
32973,6730,34437
32912,6770,34321
32888,6804,34455
32848,6971,34317
32704,6986,34266
32720,6956,34249
32756,6933,34284
32804,6829,34321
32796,6720,34208
32804,6657,34404
32761,6733,34300
32656,6757,34286
32576,6836,34348
32464,6969,34246
32341,6969,34017
32276,7036,34401
32365,6913,34256
32460,6814,34250
32504,6743,34216
32656,6682,34148
32708,6680,34381
32729,6767,34204
32676,6825,34345
32660,6993,34240
32560,6983,34361
32596,7010,34212
32736,6914,34358
32768,6817,34201
32844,6764,33925
32896,6716,34232
32846,6724,34074
32733,6755,34072
32657,6876,34236
32569,6953,34188
32452,7062,34324
32448,6988,34208
32500,6901,34337
32708,6884,34214
32816,6739,34256
32892,6667,34180
32888,6756,33872
32828,6779,34348
32805,6863,34221
32672,6950,34213
32661,7046,34055
32656,6993,34218
32704,6943,34182
32797,6821,34063
32912,6739,33908
32992,6677,34340
33016,6772,34141
32968,6796,34119
32862,6848,34288
32796,7021,34180
32788,7015,33956
32740,6973,34244
32775,6932,34124
32916,6824,33908
33004,6753,34292
33088,6681,34163
33180,6754,34209
33044,6782,34097
32852,7009,33905
32600,6982,34191
32372,7002,34164
32405,7055,34189
32804,6936,34125
33556,6829,34194
34584,6758,34329
35996,6692,34186
37624,6783,33884
39328,6814,34373
41232,6862,34252
43000,6992,34217
44372,7008,34168
45612,7054,33965
46876,6966,34335
47656,6834,33948
48100,6815,34438
47376,6719,34335
45044,6818,34416
40252,6838,34336
34848,6888,34360
29944,7028,34272
26316,7048,34004
23680,7070,34380
22365,6959,34361
22384,6862,34421
23456,6815,34217
24878,6747,34149
26248,6748,34446
27388,6824,34311
28308,6897,34476
29172,7031,34335
30040,7036,34340
30764,7058,34300
31336,6972,34268
31776,6853,34112
32040,6841,33916
32196,6748,34303
32237,6768,34061
32228,6819,34178
32188,6956,34110
32132,7045,34012
32128,7194,33932
32156,7046,34066
32252,7022,34007
32296,6894,33980
32516,6866,33716
32652,6745,34065
32680,6754,33988
32640,6881,34096
32580,6943,33980
32580,7098,34032
32540,7070,33936
32560,7036,33668
32712,7015,34093
32776,6909,33965
32808,6770,33912
32856,6792,33958
32901,6795,33959
32948,6839,34084
32884,6968,33924
32716,7041,33884
32704,7064,33957
32712,7050,33588
32768,7037,33772
32892,6890,33600
32932,6783,34000
32984,6773,33865
33060,6811,33808
33052,6840,33676
32997,7001,33796
32956,7068,33696
32917,7075,33629
32908,7115,33704
32968,6998,33706
33038,6897,33508
33168,6878,33316
33260,6776,33718
33248,6787,33437
33216,6950,33216
33160,6981,33576
33120,7082,33415
33000,7076,33379
33040,7108,33300
33068,7001,33358
33192,6889,33247
33300,6869,33441
33404,6786,33244
33492,6792,33172
33278,6907,33073
33260,6973,32878
33157,7124,33297
33044,7113,33159
33113,7050,33275
33232,7018,33096
33380,6893,33052
33556,6873,32955
33556,6783,33092
33584,6792,33223
33536,6901,33074
33484,6963,32988
33432,7114,33073
33328,7113,33090
33344,7066,32761
33428,6987,33133
33496,6984,32952
33612,6840,32764
33676,6778,33183
33684,6796,33056
33664,6898,33009
33616,6989,33148
33548,7058,33093
33480,7118,33022
33505,7064,33003
33572,6989,32800
33696,6917,33253
33724,6803,33104
33812,6773,33015
33824,6817,33144
33792,6867,33153
33702,7009,33292
33569,7084,33159
33504,7090,33156
33513,7105,33159
33546,7009,33143
33524,6900,33248
33616,6872,33253
33620,6789,33332
33584,6804,33236
33452,6937,33207
33328,7000,33152
33197,7056,32996
33044,7117,33188
33005,7074,33164
32976,7065,33256
33040,6913,33044
33044,6802,33543
33064,6813,33416
33012,6809,33498
32920,6925,33436
32840,6962,33550
32692,7116,33448
32556,7100,33443
32564,7132,33416
32568,7007,33449
32648,6898,33684
32680,6944,33544
32706,6791,33660
32714,6806,33588
32588,6941,33592
32437,7008,33684
32376,7087,33652
32312,7108,33609
32196,7061,33680
32236,7009,33696
32256,6893,33880
32280,6843,33769
32320,6800,33775
32244,6911,33761
32148,6897,33727
32028,6974,33857
31948,7116,33540
31820,7126,33853
31788,7185,33829
31840,7010,33935
31888,6898,33639
31884,6877,34140
31916,6793,34017
31880,6810,34144
31820,7024,34054
31724,6987,34190
31552,7071,34088
31512,7164,34055
31516,7091,34060
31620,7005,33828
31676,6995,34304
31760,6819,34232
31870,6791,34213
31880,6806,34232
31816,6950,34304
31781,6998,34453
31717,7155,34320
31644,7102,34332
31660,7055,34268
31704,7010,34228
31828,6893,34580
31924,6858,34497
31972,6798,34519
31988,6805,34452
31896,6900,34477
31720,6959,34455
31494,7117,34276
31428,7120,34679
31472,7048,34692
31588,7136,34748
31768,6919,34690
31925,6794,34677
32080,6842,34625
32156,6823,34790
32108,6907,34777
32156,6974,34772
32108,7127,34862
32076,7106,34785
32084,7057,35029
32136,6982,34785
32192,6929,34957
32280,6825,34917
32228,6770,35044
32181,6896,34999
32160,6921,34963
32192,7011,35132
32120,7064,35076
32069,7148,35040
32108,7070,35016
32176,6981,35141
32280,6958,35078
32424,6816,35309
32544,6788,35164
32580,6803,35202
32509,6972,35188
32452,7032,35245
32360,7086,35282
32268,7100,34932
32280,7134,35436
32328,7009,35206
32376,6900,35180
32484,6788,35469
32560,6851,35335
32576,6829,35348
32520,6878,35392
32506,7024,35100
32496,7099,35548
32500,7087,35374
32413,7114,35521
32474,6995,35543
32588,6887,35476
32644,6852,35389
32652,6811,35719
32644,6834,35584
32572,7001,35557
32480,7013,35758
32400,7075,35639
32376,7084,35636
32404,7103,35552
32492,7011,35389
32588,6879,35735
32712,6872,35697
32720,6814,35590
32708,6823,35740
32612,6886,35557
32485,7052,35692
32368,7090,35668
32292,7114,35676
32282,7043,35687
32429,7019,35685
32624,6909,35591
32728,6800,35556
32928,6799,35492
32800,6809,35388
32776,6939,35565
32580,6996,35332
32457,7147,35700
32397,7115,35598
32512,7052,35640
32528,7035,35540
32732,6908,35518
32844,6793,35608
32808,6803,35216
32660,6819,35680
32728,6958,35164
32632,7006,35652
32511,7087,35500
32585,7092,35359
32520,7095,35151
32636,7005,35462
32769,6882,35111
32652,6838,35584
32684,6789,35431
32660,6884,35508
32664,6921,35332
32646,7008,35389
32513,7074,35416
32456,7143,35282
32520,7070,35248
32576,7118,35205
32660,6916,34897
32714,6884,35260
32776,6791,35182
32736,6813,35313
32616,6920,35153
32577,6984,35220
32396,7128,35072
32484,7094,35108
32540,7109,35023
32596,6992,35116
32804,6958,34943
32736,6809,34973
33037,6773,34814
32942,6886,34725
32772,6907,34771
32704,6989,34703
32657,7118,34752
32684,7108,34567
32714,7133,34496
32768,6987,34421
32900,6874,34362
32996,6837,34150
32858,6809,33874
32824,6820,34279
32704,6949,34012
32576,7023,33876
32456,7146,33849
32388,7124,33832
32436,7138,33661
32300,6993,33604
32384,6883,33420
32632,6874,33249
32600,6825,33308
32668,6836,33100
32652,6887,33036
32624,7062,32847
32522,7102,32672
32540,7084,32472
32577,7105,32180
32712,6988,32501
32800,6877,32247
32828,6794,32074
32788,6804,31909
32792,6818,31763
32644,6940,31676
32432,6998,31537
32256,7152,31318
32252,7108,31044
32312,7047,31349
32576,7064,31072
32752,6887,30892
32676,6797,30744
32900,6863,30426
32881,6856,30598
32848,6924,30402
32764,6999,30260
32620,7076,30124
32608,7140,30021
32650,7056,29871
32740,6992,29709
32796,6868,29356
32884,6900,29636
32936,6801,29365
32968,6822,29303
32936,6897,28968
32908,7021,28790
32804,7084,28972
32777,7089,28740
32760,7089,28535
32888,6998,28388
33004,6864,28257
33160,6838,28360
33097,6796,28190
33104,6821,28047
33092,6903,27840
33000,7046,27874
32852,7106,27921
32620,7172,27698
32484,7063,27438
32633,6968,27568
33000,7010,27440
33604,6837,27301
34596,6791,27150
35844,6821,26989
37388,6956,27266
39044,7015,27071
40928,7075,27133
42728,7101,26948
44264,7034,26869
45552,6954,26680
46648,6927,26780
47440,6827,26728
47716,6769,26663
46872,6870,26501
44344,6922,26592
39620,7006,26521
34328,7189,26500
29508,7132,26304
26129,7070,26188
23824,6979,26500
22573,6924,26321
22560,6804,26192
23632,6785,26305
24988,6828,26229
26268,6950,26042
27448,7019,26288
28352,7079,26119
29140,7085,25993
30008,7098,26194
30825,6979,26024
31560,6865,25793
32080,6884,26097
32348,6803,25948
32388,6839,25741
32316,6998,26064
32240,7025,25872
32252,7098,25696
32196,7071,25771
32272,7113,25979
32464,6979,25736
32604,6888,25889
32733,6778,25788
32660,6892,25962
32740,6838,25904
32724,6913,25796
32724,7139,26064
32640,7108,25834
32684,7092,26003
32680,7045,25914
32792,7015,25953
32896,6875,25940
32986,6861,26182
32989,6809,26160
33048,6823,26102
33056,7030,26372
32904,7026,26269
32836,7089,26117
32824,7221,26332
32869,7061,26388
32960,6950,26364
33040,6863,26400
33069,6770,26432
33168,6832,26748
33156,6831,26623
33151,6892,26598
33116,7041,26596
33092,7086,26560
33040,7167,26980
33032,7066,26788
33156,6968,26932
33292,6847,27093
33424,6876,26962
33452,6807,26846
33404,6853,27176
33352,6897,27247
33220,7003,27159
33180,7099,27097
33176,7081,27423
33220,7108,27311
33316,6963,27271
33488,6843,27385
33464,6828,27462
33580,6791,27421
33516,6845,27450
33416,6898,27604
33352,7005,27722
33312,7119,27671
33236,7095,27552
33241,7049,27812
33396,6951,27732
33520,6845,27910
33564,6768,27988
33560,6803,27990
33580,6843,27885
33517,6887,28245
33460,7104,28090
33412,7137,28284
33356,7097,28236
33456,7021,28399
33552,6939,28476
33672,6881,28423
33801,6788,28468
33772,6759,28660
33716,6853,28705
33664,6903,28640
33612,7001,28828
33569,7117,28800
33640,7078,28976
33500,7016,28996
33772,6976,29121
33876,6844,29014
33980,6756,28919
33972,6840,29360
33920,6861,29188
33780,6943,29343
33696,7031,29289
33492,7063,29285
33504,7103,29367
33492,7044,29613
33540,6932,29566
33652,6903,29613
33688,6775,29556
33684,6797,29685
33632,6809,29820
33493,7042,29799
33344,7036,29798
33200,7079,29736
33072,7058,29843
33060,7079,29904
33028,6961,30004
33032,6828,29807
33084,6833,29988
33160,6779,29920
33008,6811,29960
32869,6935,29912
32720,7004,30188
32592,7118,29862
32528,7099,30268
32520,7005,30126
32604,6960,30148
32680,6834,30129
32804,6865,30128
32820,6803,30408
32792,6852,30297
32714,6896,30249
32584,7026,30229
32505,7081,30364
32328,7120,30373
32196,7024,30373
32348,6924,30398
32388,6850,30452
32356,6750,30453
32272,6886,30364
32168,6832,30256
32168,6886,30708
32120,7049,30582
32013,7079,30565
31884,7164,30492
31888,7017,30384
31956,6919,30789
31980,6870,30726
31989,6775,30835
31997,6916,30748
31920,6825,30764
31840,6885,30761
31744,7032,30770
31796,7095,30965
31692,7210,30662
31660,7028,31085
31784,6927,30990
31880,6944,31074
31944,6803,31071
31940,6782,31081
31920,6808,31047
31860,6948,31116
31696,7015,31213
31636,7056,31291
31640,7098,31221
31688,7028,31226
31828,6922,31366
31844,6833,31407
31932,6750,31345
31936,6831,31511
31960,6841,31516
31916,6890,31532
31832,7011,31561
31828,7062,31556
31840,7068,31564
31870,6992,31440
31972,6953,31893
32064,6839,31796
32136,6812,31912
32192,6760,31628
32224,6932,32022
32192,6909,31631
32136,7139,31870
31980,7072,31906
31924,7056,32199
31996,7051,32076
32128,6943,32233
32236,6875,31938
32300,6760,32078
32322,6749,32153
32216,6834,32212
32152,6878,32323
32176,7041,32293
32048,7081,32308
32006,7040,32338
32072,7011,32367
32184,6908,32576
32320,6863,32492
32316,6762,32524
32352,6751,32596
32305,6864,32728
32268,6890,32433
32197,7049,32572
32124,7055,32673
32128,7070,32743
32176,6979,32856
32296,6972,32505
32388,6817,32810
32504,6730,32546
32520,6821,33031
32520,6838,32820
32436,6898,32960
32255,7008,32889
32200,7044,33142
32244,7099,33054
32340,6996,33109
32313,6901,33102
32360,6823,33166
32528,6748,33133
32584,6838,33135
32562,6834,33072
32588,6878,32925
32504,7117,33234
32492,7070,33149
32492,7031,33107
32481,7005,33230
32584,6903,33344
32624,6867,33449
32702,6755,33320
32648,6743,33472
32564,6818,33198
32512,6883,33399
32464,7012,33516
32336,7046,33372
32342,7050,33364
32457,6973,33312
32620,6919,33369
32696,6802,33368
32688,6809,33378
32732,6773,33484
32772,6877,33189
32612,6905,33447
32524,7019,33340
32324,7036,33285
32412,7081,33164
32512,6999,33309
32688,6885,33348
32796,6845,33202
32744,6747,32917
32736,6761,33336
32596,6796,33136
32576,6960,32909
32464,7034,33141
32488,7066,33165
32512,7057,33129
32380,6969,33017
32592,6979,33200
32740,6811,33042
32824,6736,32893
32796,6740,33158
32790,6829,32997
32640,6907,32984
32663,6988,32847
32564,7119,32664
32549,7054,32957
32592,6987,32885
32700,6885,32770
32772,6820,32853
32868,6737,32833
32840,6892,32821
32817,6814,32748
32813,6878,32692
32704,7009,32677
32685,7049,32773
32696,7025,32681
32725,7025,32645
32760,6898,32636
32868,6777,32636
32960,6756,32396
32992,6743,32793
33012,6796,32672
32944,6917,32553
32796,7021,32736
32692,7037,32639
32608,7087,32604
32664,6981,32612
32676,6912,32580
32800,6781,32505
32829,6765,32431
32880,6746,32477
32808,6861,32402
32680,6900,32517
32480,6999,32537
32304,7037,32488
32280,7083,32424
32304,6979,32430
32456,6876,32184
32724,6840,32521
32844,6755,32151
32785,6730,32573
32808,6844,32449
32800,6904,32426
32716,6991,32336
32592,7061,32359
32544,7149,32356
32529,6986,32372
32665,6871,32358
32708,6824,32313
32696,6737,32305
32680,6731,32077
32640,6840,32484
32641,6875,32216
32568,7007,32334
32488,7195,32416
32476,7051,32364
32552,7029,32466
32672,6885,32364
32740,6760,32481
32810,6736,32334
32852,6728,32286
32806,6828,32310
32676,6878,32477
32648,7036,32328
32608,7049,32477
32604,7107,32306
32628,6982,32352
32740,6874,32066
32834,6792,32359
32932,6717,32040
33006,6791,32215
32924,6818,32288
32846,6871,32308
32784,7120,32396
32680,7045,32535
32704,7004,32410
32784,6991,32556
32900,6868,32437
32980,6826,32414
33072,6718,32436
33052,6774,32549
32913,6786,32551
32712,6917,32709
32488,6996,32604
32384,7023,32661
32600,7056,32513
33152,6980,32711
34008,6875,32621
35196,6748,32836
36704,6748,32500
38340,6722,32969
40160,6881,32902
41920,6886,33064
43360,6981,32969
44440,7106,32972
45397,7028,32940
46164,7093,33068
46536,6859,33181
46172,6806,33387
44376,6728,33304
40268,6815,33465
35216,6801,33333
30196,6914,33444
26540,6997,33645
23961,7055,33580
22436,7018,33682
22154,6983,33412
23016,6875,33636
24432,6816,33644
25857,6732,33984
27024,6735,33900
27949,6861,34084
28716,6894,34004
29514,6990,34036
30200,7043,34102
30864,7108,34215
31436,6977,34244
31852,6885,34420
32144,6752,34348
32288,6752,34567
32340,6725,34484
32348,6825,34687
32260,6947,34585
32152,6987,34626
32144,7070,34752
32202,7007,34965
32312,6970,34919
32476,6859,35079
32512,6766,35088
32549,6778,35268
32588,6746,35229
32622,6787,35321
32529,6897,35396
32473,6980,35457
32452,7057,35585
32480,7001,35732
32608,6983,35868
32796,6861,36030
32968,6829,36126
33092,6740,36388
33188,6830,36359
33157,6820,36525
33028,7014,36429
32916,7014,36661
32924,7173,36836
32940,7026,36999
32980,7015,37221
33056,6871,37240
33140,6801,37476
33143,6702,37079
33073,6784,37548
32928,6796,37627
32764,6928,37684
32644,6994,37888
32566,7081,37999
32596,6999,38252
32696,6983,38244
32852,6852,38464
32952,6769,38444
33060,6780,38553
33128,6740,38568
33157,6868,38736
33196,6905,38816
33152,6995,38940
33116,7121,38837
33076,7036,39015
33124,7079,39076
33172,6887,39205
33220,6744,39172
33268,6743,38916
33288,6752,39596
33248,6899,39518
33200,6901,39660
33136,6983,39649
33110,7054,39730
33208,7023,39748
33341,6935,39873
33468,6876,39992
33548,6764,39888
33552,6700,40060
33460,6808,40026
33324,6818,40311
33160,6909,40189
33108,6989,40271
33056,7027,40369
33104,7079,40508
33296,6951,40425
33520,6852,40585
33628,6761,40516
33644,6706,40721
33524,6777,40589
33484,6816,40815
33440,6958,40693
33380,7009,40873
33296,7020,40743
33196,7030,40750
33160,6962,40967
33304,6839,40784
33468,6819,40327
33528,6721,40933
33552,6796,40876
33532,6832,41005
33480,6980,40879
33412,7008,40900
33320,7019,41045
33336,7020,40872
33452,7047,40838
33480,6879,40896
33532,6818,40824
33456,6739,40533
33412,6817,40940
33284,6819,40951
33132,6889,41052
33001,7018,40966
32884,7023,40958
32742,7048,40904
32780,6967,40900
32800,6847,41093
32744,6783,40996
32712,6709,41183
32760,6821,40985
32736,6842,41024
32688,6965,40977
32624,7024,41055
32584,7112,40967
32600,7030,41048
32660,7079,40965
32628,6874,41047
32444,6739,40925
32346,6745,41065
32320,6744,40863
32332,6809,40831
32364,6908,40737
32413,6988,40925
32416,7084,40772
32416,7013,40806
32472,6924,40693
32460,6913,40727
32392,6765,40647
32321,6711,40625
32221,6765,40460
32080,6824,40516
31960,6901,40637
31844,7012,39952
31784,7019,40420
31748,7053,39909
31812,6937,40280
32000,6945,40300
32096,6761,40392
32126,6704,40201
32084,6804,40333
31960,6824,40070
31724,6921,39662
31496,7002,40140
31276,7087,39943
31232,7010,39884
31272,6922,39717
31412,6878,39749
31596,6740,39596
31824,6759,39368
31892,6747,39606
31948,6856,39364
31972,6905,39508
31832,7139,39431
31768,7050,39444
31654,6996,39269
31648,6996,39237
31726,6860,39044
31822,6742,39110
31856,6738,39156
31868,6754,38565
31824,6807,39092
31768,6927,38836
31856,7012,38699
31872,7126,38740
32032,7016,38628
32140,6920,38749
32176,6900,38535
32136,6767,38428
32125,6711,38260
32044,6804,37911
31964,6843,38429
31920,6961,37778
31828,7000,38181
31740,7105,38070
31760,7035,38076
31888,7066,37935
32108,6875,37959
32272,6819,37812
32313,6731,37868
32244,6737,37687
32096,6852,37673
31956,6932,37436
31724,7004,37506
31588,7055,37529
31708,6999,37368
31800,6967,37447
31970,6846,37228
32160,6818,37238
32280,6722,36892
32304,6789,36925
32252,6817,36960
32172,6974,36789
32100,7029,36633
32020,7116,36780
32084,7012,36348
32336,6969,36653
32452,6852,36597
32480,6736,36615
32552,6806,36444
32570,6774,36412
32512,6818,36490
32444,6950,36316
32404,7001,36299
32328,7051,35823
32301,6995,36156
32328,6956,36016
32444,6851,36001
32524,6780,36061
32580,6788,35900
32536,6749,35856
32380,6885,35752
32200,6919,35865
32152,7042,35632
32184,7040,35736
32204,7071,35540
32296,6962,35540
32324,6926,35438
32488,6757,35505
32525,6786,35316
32460,6756,35345
32352,6898,35159
32312,6938,35068
32340,7000,34917
32400,7050,34932
32436,7007,34857
32512,6967,34844
32660,6839,34773
32792,6804,34760
32857,6751,34667
32756,6909,34657
32580,6840,34618
32492,6910,34543
32348,7068,34424
32244,7061,34297
32200,7095,34374
32360,6946,34412
32576,6834,34412
32708,6796,34361
32768,6752,34279
32744,6755,34037
32668,6852,34368
32608,6924,34332
32492,7086,34460
32408,7063,33988
32436,7164,34287
32612,6949,33972
32860,6839,34300
32992,6769,34183
33008,6724,34183
33064,6776,34156
32988,6820,34149
32910,6951,33935
32760,7021,34212
32636,7092,34181
32600,7015,34310
32640,7006,34168
32624,6875,34301
32608,6819,34160
32752,6744,34293
32900,6751,34172
32864,6857,34288
32668,6925,33839
32524,7060,34175
32458,7032,34044
32481,7036,34181
32537,7000,34322
32600,6849,33837
32676,6796,34100
32660,6725,33862
32620,6761,34331
32718,6866,33844
32652,6987,34119
32556,7016,34270
32516,7068,34164
32484,6998,34048
32528,6949,34132
32652,6833,34161
32764,6800,33980
32776,6724,34272
32776,6812,34191
32824,6856,34255
32900,6925,34132
32932,7051,34177
32896,7063,34085
32837,6998,34005
32788,6958,33996
32776,6834,34053
32884,6811,34100
33024,6755,34119
33096,6755,34191
33092,6886,34055
32941,6952,34100
32704,7017,34023
32600,7066,34094
32524,7036,34020
32529,6934,33951
32576,6857,33693
32596,6747,33932
32705,6755,33856
32580,6904,33772
32428,6855,33574
32352,6920,33871
32404,7073,33849
32588,7042,33949
32784,7051,33782
32968,6933,33817
33104,6904,33701
33276,6753,33796
33308,6788,33626
33200,6774,33732
33160,6829,33517
33132,6961,33556
33072,7105,33500
33032,7055,33438
33060,7001,33389
33085,6959,33428
33080,6958,33338
33016,6781,33336
32796,6852,33281
32620,6785,33220
32788,6837,33061
33180,7015,32864
33684,7041,33138
34304,7026,32924
35472,7017,32925
37192,6928,32832
39184,6849,32864
41364,6744,32744
43596,6759,32804
45584,6762,32677
47352,6914,32670
48888,6970,32774
49944,7010,32709
50284,7069,32781
49464,6999,32406
46828,6974,32544
41740,6946,32372
36536,6772,32369
31576,6808,32328
27720,6782,32408
25116,6903,32291
23452,6970,32356
23260,7037,32165
24092,7074,32134
25358,7008,32037
26628,6959,32092
27552,6872,31759
28361,6771,31781
29048,6732,31655
29693,6799,31693
30380,6898,31649
30984,6939,31367
31296,7074,31304
31444,7041,31389
31496,7039,31279
31664,6926,31205
31920,6858,31065
32068,6742,30967
32120,6759,30895
32064,6767,30865
31996,6885,30855
32012,6937,30756
32097,7067,30708
32124,7037,30604
32132,7052,30593
32164,6932,30438
32292,6851,30241
32420,6742,30193
32476,6776,30145
32472,6772,30073
32408,6860,30032
32356,6937,29884
32360,7044,29764
32384,7039,29778
32428,7029,29797
32557,6998,29497
32696,6863,29475
32736,6838,29421
32640,6745,29444
32588,6815,29464
32560,6842,29065
32576,7002,29178
32532,7059,28866
32548,7156,28908
32633,7021,28775
32732,6928,28936
32892,6831,28820
33028,6783,28800
33100,6728,28647
33126,6815,28672
32964,6845,28291
32848,7021,28444
32736,7041,28125
32632,7037,28404
32688,7013,28189
32888,7022,28117
33060,6842,27916
33188,6741,27878
33300,6763,28016
33276,6827,27713
33236,6852,27744
33124,6984,27718
33020,7035,27364
32940,7044,27641
32941,7017,27457
33064,6927,27388
33088,6902,27303
33173,6770,27265
33140,6791,27232
33112,6784,27282
33136,6915,27113
33156,6977,27204
33136,7034,27037
33144,7066,27015
33232,7143,26948
33320,6959,26801
33357,6858,26823
33356,6745,26606
33428,6750,26816
33492,6778,26773
33544,6916,26871
33536,6980,26716
33393,7027,26741
33264,7056,26657
33248,6990,26736
33308,6950,26610
33496,6821,26705
33724,6808,26570
33884,6743,26548
33940,6765,26500
33920,6914,26386
33800,6977,26421
33624,7119,26396
33564,7054,26426
33560,7082,26564
33636,6943,26228
33668,6898,26361
33724,6775,26314
33749,6874,26264
33733,6784,26293
33660,6845,26356
33504,6983,26272
33340,7024,26360
33193,7073,26273
33124,6994,26304
33084,6969,26241
33060,6834,26340
33052,6819,26116
33028,6747,26477
32920,6781,26318
32788,6866,26374
32596,7015,26294
32440,7045,26208
32269,7032,26301
32230,7038,26303
32221,6954,26212
32208,6955,26268
32192,6771,26316
32252,6787,26248
32328,6781,26300
32332,6904,26245
32341,6970,26368
32348,7093,26238
32416,7056,26119
32534,6994,26092
32664,6938,26303
32804,6874,26219
32796,6756,26276
32664,6822,26212
32560,6791,26108
32468,7012,26210
32324,6965,26167
32152,7031,26225
32032,7054,26137
31937,6990,26136
31972,6960,26132
32008,6818,26092
32000,6785,26138
31972,6725,26228
31876,6801,26376
31729,6848,26023
31596,6969,26102
31456,7027,26174
31356,7065,26249
31316,6989,26313
31352,6936,26240
31448,6962,26254
31498,6743,26256
31504,6769,26358
31468,6768,26068
31352,6876,26244
31316,6957,26260
31212,7077,26277
31156,7034,26113
31228,7058,26244
31356,6928,26148
31456,6810,26221
31568,6761,26097
31628,6752,26468
31612,6774,26316
31548,6920,26153
31452,6986,26496
31444,7031,26384
31424,7056,26430
31445,6989,26301
31559,6977,26304
31680,6838,26273
31788,6860,26208
31818,6757,26524
31832,6783,26406
31772,6914,26405
31704,6983,26405
31577,7022,26329
31496,7068,26301
31538,7012,26426
31620,6911,26559
31744,6853,26405
31844,6763,26253
31888,6727,26560
31773,6820,26457
31704,6877,26488
31656,7024,26455
31540,7063,26451
31480,7103,26468
31588,7004,26520
31756,6908,26478
31912,6835,26446
32045,6731,26485
32112,6754,26404
32100,6803,26626
31990,6856,26527
31860,6975,26605
31784,7171,26556
31816,7062,26618
31973,6984,26581
32157,6923,26581
32320,6813,26594
32421,6741,26540
32546,6727,26637
32504,6811,26689
32397,6931,26717
32240,6972,26665
32092,7030,26744
32052,7069,26726
32068,7013,26977
32152,6908,26895
32308,6862,26824
32368,6743,27062
32456,6732,26994
32452,6783,26928
32365,6896,26978
32280,6975,26911
32152,7028,27264
32060,7099,27165
32068,7009,27172
32168,6941,27120
32294,6808,27052
32389,6798,27381
32420,6768,27301
32384,6775,27478
32358,6908,27351
32292,6963,27334
32248,7111,27375
32188,7064,27220
32217,7080,27494
32296,6924,27408
32428,6845,27519
32512,6729,27610
32544,6795,27580
32512,6812,27732
32380,6856,27634
32260,6988,27733
32140,7027,27665
32060,7065,27783
32112,6980,27711
32217,6978,27714
32364,6831,27605
32564,6729,27526
32640,6815,27882
32641,6804,27789
32556,6860,27886
32476,6991,27804
32424,7031,27868
32384,7124,27768
32448,6996,27748
32568,6902,27737
32716,6849,27637
32789,6750,27831
32844,6875,27651
32800,6832,28058
32708,6898,27918
32568,6996,27701
32460,7035,28034
32392,7049,27714
32365,6978,27970
32384,6939,27748
32428,6799,27968
32516,6758,27858
32516,6731,27892
32472,6842,27832
32346,6891,27941
32256,7039,27972
32160,7054,28016
32184,7025,28091
32276,7029,28248
32352,6929,28124
32472,6798,28078
32609,6760,28113
32678,6728,28068
32716,6822,28031
32716,6882,28014
32668,7066,28077
32604,7071,28120
32500,7152,28098
32496,6989,28135
32544,6905,28148
32584,6830,28183
32632,6723,28261
32688,6752,28216
32586,6783,28228
32600,6892,28230
32570,6959,28232
32496,7090,28220
32440,7065,28524
32469,6982,28388
32545,6930,28319
32628,6796,28296
32714,6779,28245
32742,6727,28382
32732,6820,28406
32668,6858,28468
32616,6998,28542
32556,7032,28559
32465,7075,28668
32544,6980,28581
32628,6948,28609
32732,6798,28620
32848,6780,28600
32876,6748,28637
32868,6820,28727
32812,6866,28678
32728,7002,28597
32648,7086,28620
32624,7034,28747
32688,6994,28887
32760,7007,28761
32816,6819,28917
32772,6777,28774
32512,6738,28862
32220,6840,28568
32040,6865,28829
32152,6995,28720
32600,7036,28901
33441,7063,28879
34764,6969,29044
36544,6917,28663
38616,6785,28903
40980,6739,28836
43340,6731,28903
45285,6824,28872
46936,6868,28927
48548,7049,28780
49820,7052,29148
50492,7031,29050
50080,7002,29016
48040,6892,29060
43296,6836,29120
37904,6737,29114
32588,6775,29114
28194,6869,28876
24824,6910,29124
22556,7043,28908
21760,7060,29270
22396,7040,29164
23728,7041,29224
25141,6923,29065
26400,6815,29228
27597,6786,29357
28564,6751,29200
29440,6785,28964
30192,6924,29361
30732,6988,29203
31146,7042,29000
31412,7106,29359
31608,7007,29241
31776,6892,29221
31940,6834,29190
32004,6741,28996
32100,6750,29361
32072,6788,29093
32100,6967,29249
32020,7003,29264
32049,7038,29252
32140,7088,29345
32208,6994,28983
32300,6900,29380
32376,6813,29244
32440,6730,29240
32496,6877,29241
32504,6807,29207
32432,6868,29294
32384,7005,29397
32384,7029,29324
32420,7064,29331
32488,6992,29208
32548,6980,29228
32609,6810,29440
32724,6721,29391
32784,6792,29405
32800,6806,29260
32788,6876,29433
32740,6973,29490
32608,7065,29446
32604,7039,29434
32608,7041,29480
32732,6931,29480
32901,6789,29457
33041,6753,29386
33108,6754,29545
33108,6790,29532
33092,6889,29592
33004,6975,29537
32926,7057,29615
32900,7027,29492
32964,7031,29452
33057,6903,29484
33184,6840,29521
33300,6723,29560
33412,6773,29608
33392,6789,29556
33322,6905,29620
33248,6991,29538
33174,7131,29472
33156,7040,29441
33212,6967,29476
33320,6909,29420
33452,6780,29319
33540,6797,29688
33604,6749,29553
33530,6791,29516
33412,6896,29500
33317,6976,29466
33284,7109,29788
33236,7041,29692
33341,6966,29770
33412,6953,29664
33564,6800,29764
33633,6809,29865
33652,6752,29800
33628,6874,29922
33620,6886,29825
33580,6981,29709
33533,7041,29948
33524,7044,29896
33584,6965,30074
33673,6943,29984
33780,6795,30029
33904,6724,29902
33920,6759,30087
33888,6804,30008
33792,6962,30244
33657,6989,29879
33558,7097,30329
33568,7055,30198
33564,6966,30118
33680,6941,30312
33737,6802,30303
33847,6844,30496
33892,6769,30400
33814,6788,30549
33698,6920,30469
33598,6990,30484
33492,7076,30517
33420,7025,30408
33420,6981,30485
33444,6944,30623
33416,6788,30782
33512,6768,30676
33520,6747,30788
33392,6861,30748
33272,6886,30878
33096,7043,30816
32924,7055,30811
32796,7083,30826
32761,7000,30793
32800,6888,30814
32878,6793,30797
32984,6718,31042
32965,6808,30977
32856,6828,30976
32736,6877,30992
32620,7015,31053
32500,7100,31081
32400,7037,31253
32408,6969,31101
32444,6897,31092
32480,6881,31101
32544,6742,31134
32520,6771,31244
32432,6789,31304
32316,6896,31303
32172,6984,31305
32044,7064,31276
31936,7033,31374
31914,7053,31404
31932,6897,31321
31967,6775,31455
32000,6764,31614
31944,6736,31535
31848,6843,31611
31716,6871,31580
31588,7050,31680
31452,7074,31644
31420,7098,31671
31468,6980,31698
31488,6938,31853
31532,6797,31751
31620,6807,31864
31589,6755,31815
31520,6798,31872
31421,6914,31828
31344,6985,31824
31276,7081,31794
31256,7047,31672
31308,7021,32007
31380,6892,31732
31520,6836,32204
31624,6738,32052
31692,6743,31844
31624,6866,32300
31536,6912,32208
31414,7048,32236
31382,7048,32276
31392,7047,32432
31440,6957,32316
31580,6903,32485
31690,6934,32102
31760,6743,32558
31788,6735,32484
31808,6822,32617
31725,6881,32509
31660,7051,32540
31588,7066,32508
31620,7026,32449
31700,6980,32520
31824,6969,32643
31932,6807,32676
32028,6829,32655
32012,6756,32604
31980,6910,32636
31904,6909,32704
31832,7075,32737
31768,7074,32704
31792,7100,32648
31833,6992,32902
31972,6988,32565
32141,6811,32990
32236,6775,32837
32272,6751,32801
32224,6848,32884
32172,6889,32916
32100,7018,33004
32052,7036,33012
32032,7036,33092
32069,6971,33028
32196,6912,33140
32296,6775,33056
32380,6745,33214
32388,6739,33089
32356,6839,33021
32264,6885,32958
32164,7010,33096
32196,7040,33072
32228,7043,33070
32340,6963,33108
32416,6898,33102
32452,6935,33177
32524,6753,33136
32556,6736,33081
32524,6830,33134
32416,6887,33204
32348,7047,33000
32261,7036,33140
32264,7060,33217
32296,6959,33302
32424,6923,33432
32520,6767,33008
32592,6779,33433
32596,6743,33062
32504,6824,33366
32380,6951,33493
32284,7000,33067
32264,7074,33309
32269,7023,33391
32332,6983,33316
32428,6876,33157
32516,6813,33594
32588,6724,33482
32612,6793,33631
32536,6821,33487
32440,6971,33426
32324,7029,33360
32252,7042,33210
32208,7056,33630
32252,6952,33536
32356,6923,33585
32436,6768,33573
32556,6737,33641
32588,6836,33576
32510,6819,33722
32432,6959,33592
32368,7033,33672
32344,7039,33582
32328,7061,33452
32408,6966,33575
32508,6932,33482
32620,6778,33516
32692,6733,33625
32704,6773,33625
32644,6958,33620
32540,6912,33777
32396,7140,33639
32312,7062,33761
32280,7024,33644
32348,6992,33687
32448,6881,33577
32521,6821,33581
32557,6735,33589
32593,6821,33700
32576,6837,33636
32548,6905,33644
32492,7058,33636
32428,7065,33652
32412,7015,33534
32504,7028,33366
32613,6894,33613
32740,6772,33485
32860,6743,33602
32880,6826,33582
32853,6844,33647
32804,6964,33799
32744,7042,33655
32656,7042,33730
32656,7043,33678
32676,6954,33668
32816,6895,33676
32972,6924,33609
33032,6745,33553
33037,6755,33572
32976,6852,33638
32858,6900,33543
32672,7023,33412
32513,7117,33573
32448,7060,33370
32524,7075,33799
32600,6893,33713
32672,6776,33724
32736,6795,33626
32684,6786,33460
32608,6886,33660
32576,6904,33665
32488,7065,33644
32440,7067,33601
32436,7094,33660
32548,6960,33789
32672,6901,33728
32768,6770,33904
32888,6795,33760
33017,6781,33783
32992,6885,33756
32844,6933,33823
32684,7017,33785
32533,7061,33916
32448,7021,33789
32452,6984,33868
32472,6870,33792
32588,6840,33750
32664,6747,33770
32704,6756,33812
32748,6856,33916
32736,6940,33823
32724,7008,33913
32640,7071,33808
32660,7022,33924
32700,6978,33532
32740,6870,33712
32800,6816,33664
32856,6729,33726
32784,6776,33788
32672,6820,33836
32596,6940,33969
32584,7082,33543
32564,7065,33972
32576,7023,33871
32664,6996,33988
32804,6875,33584
32898,6789,33732
33012,6725,33852
33092,6774,33861
33080,6895,33777
32964,6936,33781
32864,7012,33540
32784,7111,33776
32772,7038,33807
32800,7015,33812
32864,6906,33798
32900,6770,33732
32776,6755,33881
32512,6757,33884
32172,6853,34009
31982,6909,33568
32052,7031,33807
32492,7054,33812
33365,7071,33740
34732,6985,33724
36488,6871,33837
38440,6806,33566
40736,6740,34020
42980,6829,33882
44868,6844,33956
46492,6903,33823
48056,7074,33832
49448,7085,33732
50232,7055,33968
50016,6948,33848
48404,6953,33975
44128,6820,33824
38736,6892,33841
33248,6790,33476
28674,6903,33740
25096,6963,33732
22840,7035,33732
21924,7091,33821
22436,7076,33748
23804,6968,33734
25293,6892,33660
26629,6780,33618
27748,6769,33638
28760,6831,33672
29732,6836,33782
30452,6972,33632
31004,7041,33653
31408,7118,33287
31654,7058,33437
31820,6969,33470
31960,6914,33479
32080,6851,33580
32176,6758,33428
32216,6766,33467
32180,6884,33402
32164,6939,33494
32084,7023,33348
32069,7109,33196
32102,7062,33320
32212,6953,33287
32364,6910,33415
32488,6773,33272
32598,6796,33388
32660,6770,33168
32624,6898,33157
32612,6948,33220
32588,7026,33212
32573,7093,33218
32596,7063,33157
32644,6961,33166
