ECG,EDA,RR
41257,55647,40683
42189,55636,39821
42031,55637,40125
42034,55633,39867
42476,55647,39721
43488,55615,39417
44365,55623,39093
44184,55615,38791
43012,55605,38644
41327,55592,38319
39769,55551,37471
38016,55599,37691
36885,55591,37521
35956,55607,36606
35280,55508,36685
35060,55583,36477
35164,55579,36069
35100,55589,35719
34764,55505,35524
34040,55559,35093
33629,55537,34719
33612,55551,34373
33744,55485,34119
33958,55535,33625
34245,55535,33319
34157,55539,32884
33516,55524,32657
32968,55463,32285
32720,55527,31549
32728,55517,31302
33092,55499,31049
33400,55491,30727
33120,55487,30479
32798,55495,29793
32720,55495,29469
33296,55485,29142
33716,55480,28815
34038,55471,28605
34080,55459,27868
33524,55415,27530
32644,55444,27244
31860,55457,26932
32058,55437,26668
32296,55447,25964
32502,55431,25685
32912,55447,25364
33074,55439,25095
33368,55367,24828
33156,55423,24168
32560,55429,24020
32233,55340,23847
32404,55399,23278
32733,55404,23076
32676,55322,22852
32788,55399,22189
32848,55407,21931
32697,55397,21691
32560,55398,21509
32548,55303,21335
32705,55377,20813
32820,55366,20654
32790,55287,20479
32443,55351,19955
32228,55359,19826
32072,55359,19463
32148,55351,19267
32524,55303,18844
32756,55357,18766
32893,55335,18405
32948,55322,18411
32804,55325,17883
32589,55314,17789
32570,55269,17398
32412,55303,17153
32380,55237,17089
32328,55303,16751
32372,55239,16516
32508,55303,16421
32932,55215,16249
33292,55278,15829
33280,55236,15798
33032,55271,15514
32464,55277,15385
32005,55284,15087
32016,55259,14913
32400,55196,14745
32288,55271,14618
32378,55283,14547
32592,55265,14351
32557,55227,14220
32660,55215,14048
32852,55235,14018
32588,55233,13879
32200,55239,13868
32209,55239,13781
32220,55235,13501
32149,55231,13609
32148,55207,13605
32116,55231,13457
32050,55212,13265
32292,55207,13335
32213,55189,13211
32031,55199,13289
31552,55189,13175
31392,55215,13057
31524,55199,13192
31696,55199,13045
32128,55205,12982
33113,55185,13192
33608,55175,13033
33654,55173,13180
33476,55124,13008
33199,55167,13166
33000,55165,13104
33112,55167,13161
33172,55175,12985
33081,55165,13206
32720,55167,13195
32633,55110,13094
32644,55148,13161
32480,55151,13195
32604,55047,13163
32413,55124,13364
32217,55132,13281
32292,55135,13478
32324,55079,13289
32588,55141,13284
33472,55124,13462
34324,55107,13335
34596,55125,13559
34464,55028,13268
34276,55081,13319
33773,55095,13225
33148,55029,12830
32984,55099,12772
33108,55076,12542
33068,55103,12442
33329,55023,12061
33881,55085,11968
34160,55060,11892
34121,55071,11778
34086,54983,11371
34448,55047,11396
34664,55063,11202
34700,55047,11004
34720,55076,10827
34229,55060,10811
34007,55069,10649
33570,55044,10361
32989,55047,10334
32628,55047,10221
31761,55037,10078
30904,55045,9991
30456,55029,9627
30132,55039,9671
29996,55047,9538
29680,55011,9368
29774,55037,9191
29953,55025,9193
29804,55031,9063
29535,55011,8943
29711,54919,8771
29624,55015,8795
29304,54975,8629
29442,55020,8601
29633,55021,8455
29812,55023,8481
30172,55001,8414
30392,55015,8328
30481,54999,8381
30488,55007,8166
30820,54909,8243
30978,54983,8242
31200,54983,8197
31422,54989,8307
31500,54999,8111
31404,54919,8224
31876,54981,8345
31895,54983,8381
31824,54983,8384
31880,54983,8554
31840,54975,8484
31961,54907,8679
32000,54967,8674
32118,54964,8671
31812,54977,8856
31352,54892,9022
31078,54980,9159
30956,54955,9010
30902,54963,9285
30852,54953,9294
31073,54943,9290
31356,54957,9540
31427,54951,9557
31412,54919,9494
31444,54949,9761
31346,54959,9759
31204,54948,9714
31196,54935,9959
31300,54947,10057
31393,54929,9978
31676,54919,10021
31868,54919,10057
31813,54919,10111
31764,54943,10142
31868,54926,10187
31889,54919,10267
32328,54929,10219
32860,54919,10351
32791,54919,10183
32592,54897,10309
32192,54917,10282
31460,54909,10265
30842,54916,10213
30776,54919,10277
30917,54908,10263
30896,54911,10097
31056,54909,10241
31374,54903,10220
31284,54812,10258
31181,54900,10004
31012,54884,10113
30636,54901,10158
30164,54895,10166
29972,54828,9997
29940,54895,10109
29844,54903,10058
29949,54823,10035
30305,54887,10199
30540,54893,10118
30808,54855,10214
31070,54869,10148
31112,54863,10263
30974,54887,10256
30993,54864,10171
31168,54879,10224
31244,54879,10389
31145,54791,10316
31190,54855,10477
31100,54871,10341
30820,54779,10579
30881,54850,10526
30880,54863,10676
30648,54791,10648
30722,54852,10871
31064,54869,10979
31188,54787,10838
31377,54847,11013
31468,54863,11213
31392,54767,11337
31164,54839,11295
31148,54839,11530
31221,54755,11469
31252,54839,11766
31410,54823,11605
31596,54827,11877
31630,54840,11876
31753,54839,11861
31992,54826,11972
31942,54837,12153
31755,54745,12077
31741,54821,12234
31732,54821,12100
31716,54830,12197
31872,54752,12351
32284,54812,12239
32412,54791,12435
32529,54809,12283
32616,54820,12485
32416,54829,12567
32072,54759,12423
31872,54812,12423
31708,54819,12447
31414,54821,12632
31492,54817,12616
31864,54753,12564
32124,54815,12659
32482,54791,12833
32750,54821,12880
32964,54821,12802
32896,54743,13042
33016,54810,12969
32950,54791,13082
32620,54807,13128
32308,54815,13396
32189,54815,13349
32364,54821,13612
32511,54791,13528
32560,54807,13797
32612,54820,13933
32600,54787,13883
32564,54807,14149
32501,54823,14148
32297,54758,14503
32532,54831,14377
32628,54815,14520
32604,54839,14807
32716,54823,14989
32949,54823,14895
32964,54825,15186
32862,54831,15181
32977,54807,15467
33025,54791,15420
32862,54823,15706
32712,54843,15710
32798,54851,16068
32784,54826,15972
32796,54847,16095
33025,54837,16223
33077,54791,16345
33045,54853,16628
33192,54828,16665
33301,54839,17021
33189,54847,16842
33185,54847,17155
33420,54847,17213
33480,54859,17485
33564,54779,17356
33740,54841,17536
33781,54847,17777
33678,54791,17680
33760,54843,17981
33752,54821,17918
33604,54779,18010
33544,54843,18253
33576,54854,18441
33540,54855,18213
33588,54855,18295
33672,54843,18445
33644,54837,18575
33621,54836,18445
33849,54827,18648
34004,54839,18669
33880,54783,18660
33892,54831,18735
33957,54831,18532
33649,54830,18487
33572,54839,18581
33486,54769,18520
33320,54821,18558
33213,54843,18347
33237,54831,18387
33260,54831,18384
33188,54830,18121
33116,54829,18210
33225,54831,18210
33372,54769,17901
33404,54839,17972
33620,54828,17789
33701,54775,17665
33621,54819,17735
33656,54820,17783
33320,54823,17415
32862,54821,17399
32576,54823,17298
32341,54823,17351
31780,54828,17390
31069,54781,17001
30428,54823,17073
29985,54823,17133
29475,54831,16768
29338,54821,16757
29232,54827,16833
28869,54732,16525
28412,54830,16601
28181,54837,16548
28044,54852,16457
27976,54853,16269
28928,54859,16338
31004,54759,16100
33679,54848,16207
36641,54827,16169
39273,54783,15917
41508,54836,15869
43056,54833,15954
43810,54851,16005
43916,54837,15724
43728,54847,15703
43303,54777,15743
42534,54831,15609
41404,54823,15577
40292,54832,15607
39140,54823,15524
37793,54831,15508
36692,54846,15665
35912,54831,15553
35076,54855,15531
34444,54759,15695
34134,54836,15570
33924,54833,15640
33560,54755,15780
33437,54821,15931
33292,54823,15735
33034,54835,15860
32932,54839,16037
32926,54844,16238
32988,54756,16082
33288,54831,16372
33247,54815,16553
33328,54815,16460
33308,54807,16751
33504,54791,16904
33532,54815,16873
33260,54791,17179
33188,54757,17207
33197,54823,17631
32959,54815,17639
32801,54823,17651
32826,54765,17987
32917,54817,18263
32968,54791,18203
33086,54721,18530
33108,54791,18820
32904,54821,18832
32816,54755,18863
32788,54791,19247
32520,54809,19236
32552,54791,19703
32796,54791,19715
32984,54737,19749
32904,54791,20121
32904,54783,20453
32782,54791,20369
32526,54789,20679
32492,54791,20932
32652,54791,20912
32633,54791,21212
32689,54791,21538
32868,54711,21358
32902,54789,21628
32703,54785,21951
32720,54743,21865
32800,54777,22219
32620,54786,22555
32500,54703,22370
32549,54773,22655
32332,54730,22877
32260,54787,22812
32436,54787,23100
32540,54727,23404
32475,54775,23301
32556,54775,23609
32560,54687,23870
32348,54779,23741
32333,54785,24000
32470,54711,24201
32364,54783,24207
32212,54765,24454
32310,54763,24545
32262,54765,24868
32161,54783,24607
32268,54685,24993
32400,54754,25284
32380,54695,25015
32448,54763,25252
32572,54703,25442
32476,54759,25668
32489,54775,25872
32676,54771,25921
32684,54759,25892
32476,54759,26177
32496,54711,26305
32436,54749,26431
32245,54711,26218
32204,54757,26638
32273,54700,26604
32156,54759,26825
32185,54759,27079
32344,54748,26817
32292,54739,27139
32208,54744,27021
32256,54743,27351
32174,54739,27109
31936,54753,27437
31873,54745,27478
31892,54751,27616
31756,54742,27311
31810,54751,27567
32025,54751,27807
32095,54732,27479
31976,54727,27719
32028,54659,27719
32048,54727,27709
31936,54655,27785
31852,54733,27722
31892,54699,27807
31887,54718,27521
31962,54733,27801
32176,54724,27599
32188,54743,27764
31984,54717,27756
31972,54715,27539
31968,54663,27787
31753,54717,27503
31801,54713,27620
31908,54725,27669
31847,54703,27421
31905,54639,27487
32118,54703,27495
32101,54708,27260
31964,54703,27219
32088,54700,27311
32086,54703,26981
31944,54703,27095
31901,54631,26951
31933,54695,26966
31841,54700,26846
31812,54693,26791
31936,54631,26566
31936,54695,26569
31872,54663,26298
31889,54692,26270
31863,54693,26282
31680,54685,26059
31744,54695,25999
31947,54612,26021
32020,54685,26053
32116,54663,25576
32208,54685,25767
32190,54663,25575
32057,54639,25713
32036,54677,25521
31892,54677,25597
31420,54637,25372
31188,54683,25658
31237,54685,25399
31324,54695,25223
31560,54683,25465
31908,54663,25575
32080,54655,25373
32268,54663,25491
32536,54673,25405
32729,54663,25607
32622,54655,25382
32660,54601,25577
32868,54660,25444
32872,54687,25676
32892,54676,25693
33190,54679,25659
33502,54596,25767
33588,54676,25585
34081,54676,25739
34228,54663,26015
33805,54673,25851
33720,54615,26109
33728,54660,26332
33282,54695,26143
32804,54615,26349
32504,54663,26335
32357,54663,26509
32268,54604,26431
32312,54663,26286
32192,54671,26594
31964,54663,26718
31816,54679,26555
31708,54682,26688
31557,54695,26559
31572,54679,26808
31781,54663,26629
31845,54620,26750
31932,54679,26645
32237,54695,26871
32548,54663,26621
32825,54663,26704
33018,54623,26687
33452,54687,26645
33656,54695,26730
33702,54623,26566
33857,54687,26487
33702,54684,26414
33364,54695,26482
33228,54687,26229
33148,54685,26355
32960,54695,26175
32760,54695,26207
32884,54687,26047
32992,54639,26092
33143,54709,25672
33492,54709,25853
33738,54695,25687
33688,54695,25617
33849,54693,25566
33940,54695,25276
33913,54629,25348
33856,54692,25256
34056,54621,25105
34326,54703,25001
34294,54639,24979
34324,54713,24962
34600,54711,24597
34600,54701,24567
34632,54703,24554
34464,54636,24607
34020,54695,24500
33572,54685,24399
33148,54711,24190
32696,54719,24349
32277,54727,24428
32080,54727,24099
31812,54719,24194
31540,54727,24080
31460,54639,24165
31566,54719,23943
31624,54733,23983
31768,54725,23767
32129,54729,23991
32394,54740,23652
32789,54751,23703
33340,54727,23642
33804,54735,23325
34167,54728,23336
34428,54724,23342
34382,54729,22917
34045,54735,22902
33824,54743,22768
33676,54676,22575
33460,54751,22206
33468,54685,22275
33668,54759,21853
33804,54717,21604
33888,54770,21564
34092,54759,21231
34160,54759,21129
33948,54757,20772
33662,54767,20459
33261,54770,20391
32698,54779,20071
32588,54711,20079
33236,54777,19749
34551,54752,19353
35928,54705,19239
36669,54771,18828
36581,54789,18853
35756,54703,18359
35108,54781,18226
34753,54791,17801
34112,54791,17547
33081,54805,17447
32396,54802,17273
31768,54820,16798
31318,54815,16687
31428,54821,16471
31676,54821,16214
31758,54825,15871
32038,54815,15879
32410,54823,15430
32632,54825,15157
32893,54837,15084
33172,54820,14954
33280,54831,14586
33288,54837,14351
33396,54847,14113
33393,54841,13922
32953,54849,13877
32488,54778,13663
32184,54855,13335
32132,54868,13288
32460,54821,13113
32860,54861,12793
33039,54859,12749
32952,54869,12404
32952,54887,12391
32812,54885,12116
32640,54895,11829
32673,54895,11941
32877,54895,11526
32948,54829,11406
33084,54903,11332
33228,54909,11342
33240,54887,11111
33140,54913,11201
33100,54895,10857
33094,54919,10882
32897,54892,10921
32720,54866,10807
32812,54919,10871
32792,54941,10854
32769,54949,10835
32780,54869,10821
32788,54956,10749
32614,54959,10793
32640,54943,10896
32636,54959,10803
32528,54957,10815
32516,54965,10913
32593,54958,11033
32570,54982,11220
32568,54956,11321
32672,54989,11351
32696,54991,11583
32576,54997,11700
32620,54999,11736
32708,54993,11855
32596,54995,12117
32578,54999,12186
32801,55015,12472
32773,55016,12460
32736,55033,12833
32790,55015,12873
32542,55039,13039
32037,55044,13308
31648,54951,13638
31524,55045,13960
31628,55047,13945
31926,54988,14350
32380,55047,14444
32356,55069,14785
32228,55077,15142
32349,55079,15220
32353,55084,15660
32260,55085,15836
32341,55087,16291
32373,55087,16399
32340,55084,16869
32429,55108,17321
32621,55033,17395
32632,55031,17733
32636,55119,18235
32641,55135,18502
32480,55127,18815
32254,55143,19335
32149,55047,19796
32386,55119,19908
32549,55111,20515
32665,55149,21036
32801,55140,21204
32780,55143,21749
32858,55173,22092
33112,55167,22577
33055,55175,22972
33092,55127,23363
33037,55164,23804
33006,55175,24131
32917,55188,24455
33006,55207,24997
33084,55183,25436
33016,55215,25836
32901,55219,26239
33000,55215,26820
33012,55215,27163
33008,55231,27756
33024,55220,27955
32977,55221,28445
32844,55209,29084
32866,55239,29079
33066,55244,29814
33100,55217,30337
33077,55269,30535
33068,55269,31015
33132,55261,31567
33159,55271,31625
33352,55223,32281
33538,55271,32801
33445,55294,32956
33420,55295,33487
33608,55286,33973
33684,55300,34351
33675,55301,34670
33798,55303,34917
33808,55303,35457
33700,55323,35965
33746,55335,36166
33928,55327,36557
34117,55329,36736
34256,55343,37351
34276,55351,37205
34096,55367,37825
33854,55289,38097
33829,55365,38407
33772,55367,38677
33665,55383,39130
33676,55380,38919
33533,55301,39489
33172,55377,39681
32624,55391,40020
31920,55406,40239
30918,55423,40499
30223,55425,40775
30064,55415,41004
30160,55383,41156
30541,55431,41639
31168,55455,41111
31568,55444,41891
31652,55453,42415
31903,55463,42180
32156,55482,42821
32305,55487,43271
32400,55505,43390
33026,55423,43871
34384,55497,43999
35956,55511,44429
37684,55517,44551
39476,55447,45029
40796,55526,45191
41701,55524,45461
42252,55535,45783
42472,55540,45988
42334,55581,45893
41996,55559,46592
41376,55559,46743
40289,55517,46943
39112,55575,47260
38324,55525,47525
37511,55599,47772
36680,55608,48037
35900,55544,48167
35198,55623,48497
34794,55652,48519
34616,55583,48868
34304,55639,49124
34009,55663,49359
33852,55615,49535
33761,55645,49239
33548,55663,50031
33525,55595,50119
33624,55687,50436
33660,55714,50499
33750,55709,50843
34055,55699,50983
34393,55637,51125
34329,55727,51287
34183,55735,51605
33924,55655,51693
33488,55728,51975
33233,55761,52119
33092,55719,51803
32912,55770,52519
32925,55791,52550
32998,55772,52863
33112,55796,52888
33157,55719,53053
33212,55789,53298
33229,55815,52725
33232,55815,53511
33220,55815,53679
33372,55763,53686
33304,55845,53895
33273,55863,53877
33356,55849,54121
33424,55855,54136
33596,55873,54215
33735,55791,54361
33757,55884,54407
33637,55876,54471
33464,55897,54607
33400,55859,54567
33288,55910,54805
33296,55932,54809
33320,55938,54965
33241,55939,55039
33116,55949,55119
33232,55943,55303
33405,55943,55255
33472,55943,55447
33560,55971,55544
33641,55943,55516
33568,55991,55581
33344,56016,55750
33064,56011,55873
32676,56014,55871
32444,56023,56071
32409,56008,56105
32538,55959,56149
32632,56031,56357
32977,56052,56101
33500,56048,56465
33836,56060,56605
34060,56071,56724
34256,55999,56808
34192,56095,56839
33852,56012,57028
33549,56095,57159
33346,56063,57185
33028,56111,57234
32828,56071,57423
32836,56135,57528
32810,56155,57561
32900,56151,57717
33161,56121,57823
33356,56151,57693
33231,56111,57860
33241,56175,58079
33228,56183,57620
32865,56191,58193
32573,56181,58375
32485,56214,58341
32247,56167,58485
32154,56229,58630
32238,56248,58704
32324,56242,58823
32344,56263,58864
32536,56263,59047
32676,56199,59140
32672,56268,58679
32584,56290,59321
32573,56300,59331
32424,56300,59492
32296,56311,59541
32400,56327,59620
32601,56327,59715
32889,56352,59649
33104,56319,59867
33084,56353,59869
32906,56377,60024
32837,56373,60057
32892,56393,60095
32710,56391,60292
32592,56423,60227
32816,56415,60317
33445,56431,60420
33800,56433,60551
33548,56449,60655
33114,56455,60544
32828,56463,60711
32692,56471,60815
32736,56455,60815
32708,56509,60967
32830,56494,61055
32992,56517,60935
33028,56501,61031
33125,56541,61141
33260,56471,61263
33250,56532,61292
33148,56567,61380
33004,56583,61479
32945,56607,61439
32782,56613,61543
32740,56642,61607
32833,56631,61613
33037,56565,61724
33158,56645,61792
32968,56583,61791
32536,56658,61908
32929,56598,61823
32677,56649,61996
32612,56677,61341
32748,56711,61988
33005,56730,62087
33376,56710,62168
33456,56743,62265
33404,56757,62215
33296,56761,62343
33221,56724,61719
32944,56785,62343
32757,56711,62385
32956,56799,62471
33113,56761,62517
32604,56823,61919
32921,56796,62525
32742,56839,62599
32512,56775,62644
32156,56869,62671
32240,56869,62765
32233,56893,62853
32124,56887,62800
32076,56860,62919
32044,56917,62800
31920,56884,63007
32084,56943,62931
32076,56868,63079
32038,56951,62948
32013,56951,63143
32012,56967,63087
31976,56967,63199
31944,56990,63199
32012,56999,63266
31968,56999,63229
31912,57020,63311
32150,57019,63315
32312,57029,63295
32464,57047,63315
32653,57031,63253
32748,57034,63456
32885,57053,63479
32828,57068,63492
32892,57079,63495
33044,57095,63599
33304,57091,63111
33156,57055,63519
32940,57095,63455
32662,57094,63665
32672,57127,63276
32732,57116,63727
32624,57124,63673
32692,57143,63748
32904,57143,63741
32960,57175,63751
32825,57161,63727
32868,57135,63751
32988,57175,63719
33164,57092,63732
33284,57173,63599
33145,57119,63669
32704,57204,63485
32662,57130,63495
32813,57223,63447
32814,57223,63449
32839,57223,63431
32832,57251,62983
32723,57252,63193
32600,57271,63069
32570,57260,63015
32678,57245,62741
32717,57286,62855
32732,57223,62767
32880,57303,62775
33028,57319,62716
33164,57317,62173
33212,57309,62455
33312,57255,62375
33176,57335,62215
33144,57263,62191
33164,57349,61983
33064,57351,61935
32928,57373,61772
32909,57351,61658
32924,57319,61575
33166,57391,61540
33460,57332,61245
33364,57415,61255
33157,57415,61127
33218,57391,61038
33224,57351,60935
33108,57445,60825
33397,57445,60760
33441,57455,60642
33196,57477,60631
33228,57469,60551
33336,57439,60456
33332,57479,60415
33110,57479,60311
32960,57503,60221
33024,57499,60200
33038,57527,60157
32932,57516,59957
33040,57543,60063
33341,57539,59911
33316,57479,59964
33716,57561,59655
34068,57479,59783
33892,57557,59767
33316,57575,59644
33188,57564,59509
33380,57589,59479
33300,57515,59557
33465,57585,59303
33300,57585,59338
33267,57607,59231
33184,57607,59316
33088,57639,58932
32968,57651,59194
33088,57634,59111
33176,57553,59027
33100,57644,59069
33152,57591,59055
33300,57660,58320
33480,57607,58855
33448,57679,58887
33464,57631,58801
33338,57685,58845
33260,57693,58905
33309,57692,58863
33367,57626,58927
33172,57709,58853
32900,57727,58870
32693,57733,58967
32588,57733,59049
32523,57767,59063
32615,57741,58933
32632,57735,59079
32553,57709,59024
32560,57748,59111
32516,57767,59001
32460,57764,59015
32532,57773,59060
32479,57700,58927
32408,57783,58941
32300,57709,58849
32360,57795,58785
32433,57810,58615
32577,57798,58549
32716,57815,58375
32856,57799,58245
33150,57821,58111
33456,57817,57967
33629,57821,57781
33772,57789,57543
33905,57840,57349
33844,57813,57063
33516,57815,56839
33124,57783,56575
32956,57857,56274
33012,57827,56055
33117,57863,55647
33033,57829,55344
33092,57863,55085
33200,57897,54620
32793,57893,54375
32569,57901,53976
32664,57901,53405
32696,57903,53180
32872,57909,52743
33096,57845,52545
33160,57911,52207
33200,57845,51756
33314,57924,51329
33261,57932,50813
33180,57957,50451
33200,57935,49895
33157,57953,49429
33064,57952,48919
33056,57957,48511
33084,57951,48001
33176,57863,47487
33340,57981,46919
33377,57895,45927
33182,57965,45860
32986,57991,45262
32968,57991,44645
33100,57991,44069
33112,58007,43254
33306,57988,42871
33448,57991,42342
33477,57975,41697
33534,58015,41135
33652,57951,39988
33664,58031,39916
33772,57965,39491
33824,58043,38913
33728,57967,38579
33799,58053,37913
33785,57959,37263
33804,58029,36845
33790,57991,36263
33732,58079,35863
33823,58075,35473
33916,58101,34535
33890,58103,34446
33924,58117,33973
33932,58097,33564
33925,58119,33125
33927,58100,32689
33896,58036,32308
33781,58113,31863
33634,58067,31535
33640,58125,31002
33693,58159,30584
33728,58167,30087
33744,58159,29780
33872,58183,29461
33744,58183,28994
33460,58181,28583
33452,58183,27879
33534,58173,27791
33601,58119,27589
33740,58201,26991
33770,58237,26733
33824,58239,26213
33900,58247,25911
33796,58247,25671
33812,58247,25448
33440,58247,24887
33252,58247,24658
33388,58269,24245
33368,58279,24133
33150,58215,23564
33076,58311,23225
33016,58327,22911
33060,58319,22677
32932,58324,22458
32652,58327,22295
32310,58261,21849
31744,58325,21631
31140,58341,21064
30512,58369,20915
29951,58373,20833
29592,58388,20265
29460,58301,20175
29757,58397,20068
30245,58404,19662
30695,58417,19319
31064,58409,19055
31474,58429,18973
31976,58356,18591
32336,58453,18573
32928,58420,18359
34093,58495,17981
35712,58511,18025
37300,58503,17592
38830,58515,17415
40349,58519,17300
41594,58503,17112
42264,58516,17071
42352,58484,16796
42108,58543,16704
41825,58559,16595
41296,58559,16279
40496,58583,16386
39556,58580,15942
38607,58597,15901
37444,58605,15749
36341,58588,15428
35308,58575,15239
34430,58537,15104
33790,58612,15021
33372,58590,14775
33024,58645,14700
32812,58676,14354
32813,58663,14349
32752,58655,14214
32668,58679,13910
32542,58669,13667
32448,58679,13646
32308,58687,13325
32286,58692,13323
32277,58711,12938
32225,58717,12958
32177,58745,12669
32136,58663,12605
32118,58727,12248
32180,58695,12193
32192,58727,12058
32194,58741,12026
32045,58751,11713
32038,58732,11562
32149,58695,11325
32168,58783,11268
32077,58812,11210
32160,58796,11135
32353,58799,10820
32452,58727,10800
32556,58799,10697
32422,58759,10433
31996,58807,10247
31980,58831,10117
32172,58836,10025
32161,58855,9922
31968,58812,9863
32036,58840,9615
32244,58855,9483
32284,58879,9294
32279,58861,9337
32164,58864,9210
32040,58831,8936
31928,58879,8987
31966,58887,8905
31957,58921,8600
31916,58921,8632
31992,58887,8572
32080,58917,8323
32004,58887,8288
31848,58913,8086
31732,58931,8073
31696,58946,8017
31757,58951,7781
31836,58887,7692
31888,58972,7647
31936,58959,7453
31893,58983,7446
31777,58951,7302
31636,58983,7210
31628,58989,7083
31692,58975,7070
31649,58996,6947
31672,59015,6759
31820,59015,6789
31945,59031,6741
32000,59047,6512
32192,59047,6511
32285,59055,6467
32228,59047,6271
32246,59053,6253
32271,59047,6205
32245,59075,6008
32324,59062,6008
32220,59095,5933
32120,59087,5785
31944,59119,5761
31941,59101,5735
31700,59015,5570
31276,59101,5535
31112,59011,5487
31164,59095,5351
31340,59111,5302
31724,59117,5281
32044,59141,5141
32181,59143,5100
32295,59143,4999
32372,59159,4980
32480,59124,4899
32477,59165,4827
32536,59127,4797
32613,59143,4688
32556,59179,4643
32448,59199,4554
32400,59191,4528
32492,59127,4455
32534,59207,4404
32712,59165,4350
32685,59201,4285
32484,59231,4234
32420,59209,4179
32640,59213,4135
32672,59235,4053
32372,59247,4010
32068,59271,3970
32112,59271,3900
32428,59287,3859
32748,59239,3809
32637,59236,3750
32226,59288,3705
31909,59282,3661
31756,59291,3611
31504,59271,3569
31334,59239,3514
31434,59303,3474
31492,59263,3427
31300,59343,3379
31204,59352,3339
31256,59351,3295
31274,59356,3250
31284,59269,3208
31360,59343,3159
31290,59373,3119
31256,59380,3090
31428,59391,3041
31599,59397,3009
31664,59399,2973
31728,59399,2917
31792,59399,2892
31852,59375,2856
31907,59399,2804
32094,59423,2777
32008,59439,2750
31856,59447,2695
31897,59455,2655
31838,59463,2637
31753,59479,2607
31864,59461,2575
31960,59479,2531
31836,59492,2505
31599,59479,2489
31200,59477,2424
30988,59495,2392
30980,59500,2393
31036,59503,2350
31030,59429,2308
30956,59527,2296
31042,59541,2244
31052,59521,2214
30961,59543,2201
30928,59476,2163
30988,59527,2118
30960,59549,2132
30936,59475,2075
31045,59567,2076
31181,59567,2025
31129,59591,1984
31176,59500,1992
31244,59591,1960
31246,59605,1955
31300,59583,1893
31340,59575,1865
31232,59564,1889
31056,59609,1849
31016,59584,1848
31044,59627,1810
31101,59655,1810
31157,59635,1757
31172,59644,1781
31040,59551,1748
30964,59639,1715
30861,59639,1667
30728,59587,1692
30660,59655,1655
30815,59679,1626
30900,59679,1592
31064,59697,1620
31352,59695,1559
31382,59609,1550
31261,59676,1549
31172,59695,1502
31128,59687,1500
30998,59708,1488
30942,59715,1431
31092,59727,1413
31284,59719,1444
31396,59741,1387
31492,59743,1381
31524,59687,1359
31445,59743,1378
31360,59741,1319
31413,59717,1315
31372,59744,1323
31309,59753,1284
31414,59773,1269
31468,59783,1222
31628,59767,1267
31988,59783,1204
32144,59781,1190
31916,59781,1168
31574,59781,1206
30988,59719,1148
30656,59796,1154
30748,59792,1115
30992,59813,1135
31300,59835,1105
31396,59843,1076
31348,59751,1073
31129,59823,1056
30902,59843,1087
30853,59751,1079
30772,59835,1056
30592,59847,1012
30580,59857,990
30889,59863,978
31136,59879,989
31278,59879,966
31456,59887,939
31545,59815,939
31425,59876,962
31220,59877,940
31165,59883,899
31100,59828,904
31106,59903,878
31228,59863,912
31284,59911,867
31293,59929,858
31308,59911,840
31365,59911,875
31132,59911,819
30996,59911,814
30954,59911,809
30973,59935,835
31048,59875,833
31176,59943,775
31196,59967,779
31154,59911,777
31240,59959,793
31280,59959,742
31048,59942,733
30877,59903,724
30766,59969,761
30724,59989,720
30905,59991,721
31300,59908,740
31606,59999,752
31740,60000,798
31884,60007,771
32028,60007,806
32021,60013,837
31977,59975,897
32012,59911,932
31958,59997,936
31869,60007,981
31736,59999,1012
31532,59951,1104
31533,60029,1182
31806,60039,1217
32021,59959,1259
31970,60031,1393
31918,60020,1424
31784,60037,1533
31644,60037,1592
31608,60039,1738
31726,60052,1807
31736,60063,1924
31760,60069,2000
32008,60071,2156
32223,59993,2232
32084,60063,2367
32008,60069,2484
31976,60061,2613
31644,60052,2726
31242,60095,2860
31152,59991,2990
31108,60097,3128
30893,60127,3255
30748,60079,3394
30848,60101,3531
31024,60071,3672
31244,60115,3830
31559,60105,3978
31788,60128,4112
31824,60039,4239
31686,60149,4399
31664,60167,4548
31660,60167,4698
31724,60167,4844
31810,60197,4936
31608,60167,5103
31645,60167,5225
31780,60167,5333
31925,60185,5490
32119,60212,5613
32485,60213,5784
32729,60231,5824
32868,60231,5925
33004,60240,6081
32969,60164,6199
32752,60260,6334
32472,60257,6313
32296,60253,6490
32148,60255,6564
32048,60282,6712
31960,60307,6699
31989,60305,6724
31990,60340,6864
32121,60335,6911
32340,60340,6889
32396,60337,7023
32378,60355,7024
32224,60269,7025
32005,60357,7049
31885,60295,7156
31956,60389,7126
31952,60413,7219
31840,60415,7075
31544,60423,7156
31198,60415,7149
30860,60421,6985
30624,60343,7050
30662,60413,7023
30832,60423,6825
31196,60423,6805
31845,60423,6776
32468,60455,6689
32973,60447,6531
33374,60449,6407
33620,60359,6332
33372,60415,6265
33013,60415,6034
32709,60423,5985
32420,60455,5881
32240,60359,5828
32276,60455,5626
32304,60423,5563
32276,60485,5504
32316,60485,5340
32513,60479,5273
32504,60420,5153
32449,60495,5099
32424,60495,5040
32317,60495,4892
32266,60487,4830
32322,60519,4746
32325,60484,4638
32214,60541,4585
32164,60548,4504
32084,60539,4453
31920,60551,4337
31860,60551,4269
31973,60567,4204
32033,60571,4143
32072,60587,4051
32060,60543,3986
31784,60599,3919
31344,60629,3859
31216,60533,3800
31189,60605,3730
30845,60639,3665
30340,60615,3608
30040,60605,3550
29460,60637,3509
28853,60636,3455
28746,60647,3405
29135,60659,3375
29660,60676,3341
30141,60669,3311
30296,60637,3282
30480,60679,3251
30873,60679,3247
31413,60583,3231
31511,60679,3223
31876,60679,3227
33204,60672,3228
35146,60724,3235
36964,60743,3236
38884,60716,3260
40725,60721,3260
42092,60751,3293
42532,60730,3319
42533,60737,3350
42016,60742,3382
41116,60733,3418
40164,60709,3462
39064,60764,3505
37744,60781,3555
36492,60769,3606
35384,60767,3652
34245,60759,3708
33296,60764,3766
32637,60743,3817
32076,60679,3873
31652,60765,3944
31544,60709,3993
31524,60783,4063
31589,60802,4122
31912,60777,4202
31804,60775,4250
31265,60758,4332
31078,60771,4412
31060,60781,4509
30784,60782,4551
30552,60804,4653
30584,60705,4765
30976,60807,4877
31588,60743,4934
32450,60807,5073
33104,60807,5183
32984,60799,5335
32661,60757,5378
32332,60784,5549
31990,60807,5713
31652,60807,5757
31648,60823,5961
31596,60825,6133
31532,60807,6219
31604,60831,6352
31641,60823,6438
31576,60807,6665
31600,60782,6802
31686,60775,6976
31557,60807,7071
31300,60823,7279
31242,60743,7462
31244,60835,7563
31196,60760,7729
31432,60829,7882
31573,60839,8111
31472,60853,8314
31400,60821,8292
31344,60785,8597
31228,60831,8802
31116,60827,8758
31180,60831,9065
31216,60847,9186
31095,60855,9359
31058,60852,9470
30848,60841,9590
30591,60845,9656
30510,60843,9920
30564,60839,10104
30544,60783,10285
30633,60853,10457
30953,60845,10398
31320,60863,10563
31708,60777,10820
32108,60859,10925
32324,60863,11141
32276,60857,11036
32136,60845,11253
32021,60847,11453
31817,60838,11545
31708,60839,11467
31726,60807,11735
31701,60848,11902
31623,60863,11867
31670,60783,11995
31724,60852,12211
31620,60871,12168
31564,60855,12435
31584,60863,12308
31516,60775,12516
31350,60853,12566
31272,60871,12694
31381,60867,12782
31502,60847,12975
31720,60887,13035
31912,60787,13065
31860,60876,13161
31801,60789,13385
31861,60871,13193
31793,60871,13477
31624,60895,13571
31678,60887,13430
31748,60881,13675
31693,60895,13640
31764,60829,13613
31904,60885,13841
31908,60844,13753
31852,60887,13775
31818,60887,14010
31768,60903,14132
31696,60900,13967
31758,60895,13981
31881,60918,14022
31942,60917,14059
32140,60864,14224
32296,60909,14336
32266,60868,14114
32204,60887,14289
32220,60834,14181
32218,60895,14383
32125,60871,14177
32233,60927,14365
32334,60927,14245
32359,60925,14460
32506,60917,14205
32564,60837,14236
32487,60903,14407
32406,60835,14261
32436,60900,14435
32416,60861,14234
32357,60909,14374
32460,60917,14316
32605,60905,14181
32612,60916,14162
32731,60825,14249
32796,60911,14276
32764,60823,14100
32752,60900,14231
32750,60839,14287
32673,60893,14040
32654,60877,14140
32716,60895,14199
32748,60905,13953
32732,60911,13966
32872,60839,13883
32964,60884,13999
32921,60807,13917
32832,60850,13765
32810,60883,13885
32696,60895,13693
32623,60892,13817
32604,60911,13669
32474,60911,13537
32412,60927,13672
32512,60903,13503
32568,60900,13480
32450,60900,13548
32342,60895,13436
32325,60807,13281
32261,60887,13427
32176,60887,13251
32252,60895,13145
32328,60919,13273
32317,60828,13135
32394,60904,12951
32440,60859,13089
32368,60909,12927
32229,60839,12989
32272,60895,12877
32273,60893,12862
32225,60895,12709
32232,60887,12549
32332,60839,12659
32269,60919,12396
32300,60903,12533
32293,60911,12535
32040,60903,12289
32058,60903,12249
32208,60885,12141
32397,60852,12204
32516,60908,12061
32697,60895,11876
33060,60913,12017
33408,60880,11848
33320,60924,11748
33572,60895,11833
33402,60908,11839
33175,60855,11645
33032,60892,11542
32707,60913,11413
32408,60932,11560
32556,60932,11495
32512,60867,11480
32156,60935,11492
32112,60892,11281
32344,60935,11279
32400,60935,11147
32369,60865,11307
32508,60927,11304
32608,60909,11197
32788,60935,11293
33024,60935,11324
33176,60917,11313
33147,60959,11288
33110,60964,11267
33096,60908,11232
32944,60935,11183
32833,60935,11412
32784,60916,11295
32748,60917,11475
32776,60935,11331
32865,60957,11566
32797,60959,11647
32588,60927,11513
32528,60961,11699
32641,60911,11787
32712,60957,11711
32860,60895,11733
33033,60959,11771
33176,60935,11927
33264,60974,12049
33364,60967,12029
33541,60991,12219
33680,60983,12193
33780,60913,12352
33729,60967,12372
33540,60893,12289
33454,60943,12529
33490,60887,12643
33484,60983,12516
33415,60983,12628
33480,60979,12552
33373,60975,12779
33143,60927,12753
33088,60975,12733
33132,60895,12987
33024,60935,13118
32853,60973,12937
32871,60975,13195
32828,60972,13319
32799,60935,13217
32884,60975,13255
32961,60905,13244
32916,60935,13473
33021,60999,13486
33148,60991,13313
33132,60983,13499
33020,60975,13511
33020,60975,13298
32960,60989,13413
32865,60997,13426
32907,60989,13144
32990,60999,13260
32960,61007,13071
33065,60935,13090
33184,60995,12877
33136,60983,12917
33056,60985,12745
33068,60903,12472
33012,60983,12439
32962,60999,12433
33016,60996,12178
33082,61023,12009
33073,61007,11881
33156,60975,11872
33272,60969,11587
33220,60991,11646
33128,60991,11228
33189,60972,11285
33080,60983,11019
33025,60901,10913
33089,60988,10739
33160,60988,10706
33104,61015,10599
33180,60999,10231
33270,60997,10158
33260,60975,9872
33144,60919,9901
33154,60957,9749
32973,60981,9495
32807,60965,9427
32896,60980,9224
32996,60991,9105
32958,60999,9001
33056,60975,8695
33133,60980,8701
33052,60991,8485
32988,60927,8465
33052,60959,8132
32974,60925,8126
32948,60977,8004
33032,60982,7941
33085,60975,7623
33064,60999,7630
33184,60981,7481
33286,60977,7362
33188,60959,7280
33071,60953,7209
33005,60917,6934
32928,60957,6907
32858,60879,6815
32905,60963,6655
32961,60983,6544
32876,60975,6503
32977,60967,6411
33112,60927,6215
33081,60963,6147
33031,60964,6093
33080,60887,5973
33028,60935,5954
32893,60980,5747
32827,60965,5717
32776,60927,5607
32717,60935,5538
32730,60967,5409
32863,60879,5355
32845,60951,5310
32824,60901,5155
32964,60935,5109
32940,60951,5044
32824,60935,5027
32884,60935,4935
33008,60879,4930
33015,60964,4930
33080,60935,4955
33189,60935,4941
33104,60965,4954
33036,60935,5037
32988,60935,5087
32928,60925,5196
32782,60935,5232
32781,60961,5368
32812,60958,5505
32713,60967,5600
32700,60935,5792
32788,60860,5932
32776,60935,6116
32648,60935,6253
32692,60933,6482
32481,60893,6664
32381,60935,6801
32506,60869,7123
32662,60959,7385
32673,60962,7475
32768,60964,7762
32872,60935,8085
32844,60935,8172
32690,60935,8452
32712,60935,8621
32629,60935,9022
32528,60935,9331
32600,60956,9455
32684,60935,9732
32672,60967,9897
32706,60935,10316
32776,60895,10513
32749,60919,10718
32688,60935,11108
32705,60909,11245
32575,60919,11680
32516,60935,11871
32633,60967,12064
32679,60957,12505
32628,60871,12821
32681,60935,12958
32800,60935,13223
32724,60916,13414
32654,60935,13873
32684,60919,14233
32700,60935,14261
32549,60925,14585
32444,60873,14770
32356,60935,15195
32000,60959,15419
31692,60967,15581
31310,60935,15926
30664,60935,16270
30067,60924,16266
29544,60927,16510
29025,60927,16794
28786,60871,17142
28926,60935,17234
29452,60857,17444
30129,60959,17820
30848,60935,17905
31700,60892,18116
32488,60884,18468
33200,60925,18815
33730,60932,18916
34328,60927,19022
35324,60880,19212
36836,60935,19581
38444,60887,19649
39816,60935,19930
40960,60935,20236
41788,60935,20563
41972,60925,20631
41853,60932,20672
41692,60917,21069
40876,60925,21037
39924,60919,21447
39064,60933,21660
38100,60933,21681
36952,60935,22002
35904,60917,22279
35032,60844,22244
34149,60925,22511
33445,60909,22799
32998,60871,22909
32677,60861,22780
32373,60911,23148
32268,60823,23269
32256,60907,23454
32224,60829,23505
32200,60895,23758
32165,60823,23831
32040,60895,24171
31932,60883,24135
31924,60855,24109
31821,60871,24469
31772,60791,24541
31754,60887,24611
31769,60859,24850
31732,60905,24735
31775,60799,24996
31902,60879,25111
31900,60815,25165
31912,60867,25084
32000,60855,25419
31952,60856,25418
31758,60879,25677
31729,60869,25633
31788,60871,25773
31761,60877,25757
31836,60847,26022
31893,60773,25737
31896,60847,26004
31872,60763,26190
31942,60833,26212
31936,60829,26189
31905,60847,26484
31956,60853,26156
31998,60845,26401
31949,60775,26551
31952,60845,26250
31972,60743,26583
31880,60829,26503
31816,60780,26559
31866,60805,26686
31852,60727,26701
31828,60830,26409
31869,60807,26564
31993,60829,26660
32030,60823,26730
32085,60829,26850
32206,60807,26715
32172,60735,26525
32089,60805,26796
32061,60735,26700
32068,60794,26609
31965,60780,26822
31940,60799,26695
32024,60807,26810
32076,60815,26644
32216,60796,26502
32388,60807,26666
32412,60789,26659
32380,60743,26619
32388,60775,26585
32324,60769,26639
32280,60781,26325
32298,60775,26463
32356,60727,26652
32252,60783,26551
32277,60698,26459
32380,60771,26676
32384,60773,26300
32382,60756,26401
32457,60765,26532
32460,60743,26548
32446,60756,26571
32568,60759,26328
32672,60736,26543
32591,60763,26682
32592,60773,26273
32641,60759,26389
32584,60743,26500
32457,60737,26598
32492,60696,26678
32497,60729,26631
32484,60679,26524
32552,60731,26540
32671,60743,26543
32708,60758,26534
32784,60726,26564
32879,60727,26631
32821,60731,26735
32744,60710,26921
32721,60711,26569
32657,60705,26805
32608,60716,27007
32644,60715,26799
32724,60679,26916
32766,60719,26804
32866,60713,27073
32904,60701,27018
32813,60700,27065
32804,60679,27001
32836,60674,27143
32805,60671,27216
32772,60669,27125
32832,60676,27267
32926,60647,27331
32788,60679,27246
32774,60663,27383
32857,60673,27417
32896,60679,27507
32973,60653,27419
33121,60551,27556
33213,60628,27767
33204,60588,27588
33300,60647,27749
33296,60643,27895
33149,60665,27557
33117,60660,27758
33152,60647,28069
33072,60647,27895
33028,60637,28062
33065,60625,28065
33012,60537,28119
32992,60629,28201
33160,60623,28222
33215,60637,28183
33260,60641,28269
33360,60629,28449
33417,60629,28388
33337,60613,28441
33226,60612,28575
33228,60599,28706
33141,60581,28682
32986,60607,28674
32892,60550,28667
32877,60597,28801
32784,60551,28851
32769,60591,28777
32792,60605,28847
32688,60597,29003
32592,60583,28943
32652,60583,28979
32617,60580,29121
32486,60551,29055
32481,60575,29121
32529,60495,29069
32576,60589,28930
32596,60500,29076
32656,60564,29182
32557,60572,29265
32429,60535,29180
32452,60551,29181
32375,60548,29223
32141,60564,29337
32087,60551,29292
32194,60551,29360
32268,60567,29235
32317,60573,29335
32405,60543,29485
32464,60463,29338
32454,60537,29303
32508,60445,29461
32512,60484,29428
32512,60540,29301
32652,60533,29367
32737,60516,29444
32668,60535,29549
32716,60535,29178
32856,60524,29391
32864,60525,29479
32788,60507,29519
32767,60487,29406
32646,60503,29528
32524,60423,29518
32574,60494,29521
32644,60423,29399
32576,60509,29492
32641,60423,29581
32652,60515,29447
32472,60487,29397
32416,60495,29501
32452,60479,29349
32488,60471,29186
32365,60478,29367
32324,60463,29292
32359,60479,29210
32320,60487,28879
32360,60487,29033
32432,60471,29039
32416,60447,28992
32378,60439,28949
32412,60455,28981
32413,60388,29039
32344,60463,28853
32348,60455,28777
32408,60461,28619
32342,60462,28471
32359,60455,28493
32440,60445,28457
32448,60455,28439
32401,60423,28377
32469,60420,28435
32492,60415,28231
32444,60423,27991
32431,60421,28055
32380,60415,28023
32236,60413,27783
32218,60423,27979
32278,60396,27645
32236,60405,27663
32184,60407,27508
32242,60404,27807
32212,60368,27609
32114,60399,27699
32164,60399,27263
32276,60391,27285
32276,60407,27319
32352,60399,27351
32458,60375,27391
32471,60379,27228
32400,60293,27048
32365,60359,26839
32325,60359,27092
32254,60315,26721
32284,60327,26874
32391,60359,26758
32380,60359,26721
32428,60351,26647
32541,60340,26631
32496,60333,26655
32496,60333,26310
32536,60311,26357
32512,60251,26421
32448,60333,26266
32501,60301,26259
32604,60313,26079
32608,60327,26028
32700,60295,25735
32780,60221,25713
32744,60292,25703
32724,60279,25733
32738,60273,25519
32648,60263,25532
32590,60287,25487
32671,60273,25256
32760,60271,25283
32734,60212,25231
32772,60261,25039
32884,60231,25073
32852,60263,24959
32838,60236,24868
32869,60231,24623
32825,60231,24559
32760,60231,24569
32799,60217,24069
32876,60183,24055
32850,60227,24199
32880,60167,23685
32982,60167,23655
32940,60119,23805
32916,60191,23502
32892,60167,23473
32812,60167,23339
32760,60183,23117
32764,60196,23129
32904,60187,23117
32893,60189,22868
32944,60167,22647
33016,60163,22575
32968,60167,22551
32920,60155,22316
32964,60061,22237
32884,60123,22246
32808,60133,22074
32877,60135,22176
32969,60125,21818
32932,60151,21789
32949,60135,21801
32972,60135,21797
32916,60113,21676
32810,60105,21790
32845,60092,21653
32836,60095,21510
32736,60108,21421
32772,60061,21474
32861,60095,21474
32924,60116,21506
32980,60063,21487
33108,60081,21486
33113,60072,21494
33036,60039,21492
33034,60063,21632
33012,60039,21489
32945,60069,21542
32981,60003,21350
33090,60069,21388
33068,60063,21479
33129,60014,21612
33196,60039,21780
33136,60039,21551
33038,60031,21771
33104,60013,21945
33062,59941,21743
32996,60031,21920
33044,60021,21771
33141,60021,22093
33104,60023,21812
33060,60031,22049
33121,60005,22216
33108,59911,21937
33014,59999,22149
32988,59911,22224
32952,59991,22109
32837,59965,22119
32804,59941,22327
32862,59983,22281
32788,59911,22180
32733,59983,22215
32756,59969,22306
32628,59887,22347
32592,59959,22419
32743,59941,22460
32776,59861,22309
32744,59951,22284
32831,59943,22361
32960,59863,22453
32976,59951,22582
32938,59927,22345
32996,59941,22549
32996,59911,22747
32910,59866,22401
32940,59901,22487
32876,59867,22632
32717,59911,22738
32688,59901,22837
32736,59831,22597
32652,59892,22672
32623,59901,22842
32663,59893,22955
32612,59879,22884
32448,59877,23000
32448,59856,22947
32308,59871,23145
31984,59860,23189
31704,59879,23188
31448,59860,23294
30770,59887,23191
30240,59861,23267
29774,59859,23431
29348,59837,23316
29116,59767,23539
29259,59829,23319
29694,59735,23503
30288,59819,23717
31037,59732,23516
31716,59821,23671
32292,59823,23824
32864,59843,23457
33308,59813,23565
33812,59823,23647
34837,59813,23693
36392,59738,23738
37932,59781,23357
39324,59795,23524
40512,59759,23478
41412,59777,23549
41728,59751,23287
41560,59799,23305
41188,59781,23246
40504,59783,23239
39564,59753,23212
38672,59687,23095
37686,59735,23106
36688,59719,22807
35918,59749,22815
35072,59687,22788
34190,59749,22639
33465,59751,22612
32892,59733,22415
32448,59719,22338
32160,59611,21958
32136,59710,22021
32144,59695,21781
32148,59619,21732
32302,59708,21539
32496,59684,21463
32620,59652,21375
32654,59695,21117
32760,59655,21062
32680,59615,20589
32572,59647,20475
32574,59559,20350
32549,59631,20237
32525,59639,19985
32568,59551,19836
32660,59623,19741
32576,59551,19173
32581,59633,19083
32671,59611,18701
32609,59520,18627
32432,59591,18276
32373,59580,18133
32285,59583,17612
32148,59572,17495
32256,59577,17095
32412,59581,16993
32364,59573,16633
32426,59508,16455
32501,59527,16214
32397,59463,16053
32278,59543,15749
32246,59508,15461
32292,59423,15268
32246,59524,15177
32348,59517,14923
32522,59519,14762
32638,59471,14471
32751,59460,14372
32877,59421,14203
32800,59495,13875
32577,59477,13687
32444,59447,13394
32264,59380,13384
32166,59461,13275
32309,59463,12877
32472,59463,12772
32545,59454,12446
32694,59391,12467
32925,59399,12099
33020,59431,12137
32956,59428,11989
32984,59399,11650
32908,59415,11559
32848,59399,11275
32887,59327,11335
32921,59399,11232
32848,59399,10935
32816,59399,10756
32861,59389,10555
32836,59285,10612
32748,59381,10465
32766,59360,10269
32737,59364,10144
32640,59348,9990
32630,59321,9965
32775,59366,9804
32806,59352,9798
32884,59367,9746
32997,59349,9630
33020,59247,9604
32968,59314,9401
32998,59279,9338
32932,59294,9178
32837,59302,9316
32844,59305,9310
32880,59289,9124
32796,59308,9125
32812,59319,9024
32896,59303,9188
32884,59277,9193
32808,59213,9167
32816,59271,9097
32762,59271,9062
32638,59260,9225
32668,59268,9098
32764,59271,9334
32752,59260,9420
32856,59269,9434
32948,59253,9586
32948,59165,9513
32850,59239,9722
32836,59237,9727
32784,59223,9765
32740,59225,10060
32744,59221,10207
32832,59199,10161
32823,59236,10350
32852,59191,10321
32900,59205,10535
32848,59207,10592
32760,59175,10661
32800,59180,10775
32831,59191,10671
32800,59207,10761
32852,59199,10720
32929,59197,10866
32902,59221,10745
32961,59133,10937
33108,59190,11027
33076,59175,10853
32940,59185,10921
32917,59143,10859
32853,59110,11085
32756,59159,11120
32744,59159,11118
32860,59143,11117
32837,59143,11157
32836,59173,11161
32921,59143,11119
32961,59143,11076
32901,59143,11065
32940,59135,11186
32888,59141,10898
32815,59129,11059
32748,59068,10916
32756,59140,10992
32647,59124,10789
32630,59125,10864
32657,59029,10699
32584,59127,10714
32436,59103,10703
32416,59095,10765
32336,59093,10718
32198,59061,10834
32126,59072,10755
32107,59041,10867
32040,59059,10788
32049,59077,10873
32152,59055,10941
32076,59077,11034
31920,59063,11045
31888,59047,11368
31844,59047,11466
31708,58965,11605
31674,59044,11771
31700,58959,11759
31660,59061,12076
31676,59039,12219
31706,58943,12463
31650,59015,12461
31560,59015,12607
31620,59015,12738
31608,59015,13061
31604,59015,13183
31760,59005,13384
31840,59012,13735
31809,58935,13797
31834,59005,13982
31932,59005,14276
31860,58991,14643
31808,58991,14676
31864,58973,14968
31877,58975,15084
31801,58905,15469
31847,58981,15766
31896,58975,15918
31830,58887,16015
31840,58919,16215
31904,58959,16585
31908,58881,16860
31784,58940,16867
31748,58935,17173
31660,58941,17406
31564,58931,17765
31688,58935,18063
31860,58943,18121
31840,58943,18559
31783,58935,18885
31816,58935,19127
31756,58909,19347
31765,58814,19898
31897,58887,19897
31872,58887,20295
31808,58887,20830
31872,58887,21046
31922,58887,21539
31893,58887,21932
31904,58887,22229
31960,58887,22742
31917,58829,23160
31837,58849,23541
31868,58815,24153
31828,58855,24350
31708,58855,24900
31724,58863,25174
31816,58855,25916
31814,58855,26135
31904,58847,26699
32037,58785,27061
31978,58827,27508
31865,58743,28076
31852,58807,28583
31848,58807,28962
31804,58759,29407
31932,58813,29840
32060,58717,30438
32048,58815,30655
32096,58805,31207
32228,58756,31566
32228,58785,32079
32130,58783,32490
32168,58773,32809
32188,58755,33303
32132,58775,33756
32142,58759,34277
32224,58749,34615
32228,58717,34855
32286,58759,35388
32414,58743,35749
32408,58663,36315
32256,58727,36575
32312,58701,37015
32380,58709,37263
32388,58709,37805
32493,58663,38151
32581,58703,38653
32588,58668,38329
32661,58695,39239
32774,58607,39548
32728,58692,39919
32665,58677,40264
32720,58663,40653
32703,58660,40944
32604,58575,41253
32666,58669,41591
32841,58644,41965
32834,58655,42175
32880,58631,42517
33020,58625,42887
33000,58629,43196
32892,58612,43548
32949,58516,43693
32992,58597,43939
32924,58599,44311
32886,58535,44687
32908,58589,44921
32909,58589,45228
32988,58581,45407
33068,58549,45757
33067,58537,45959
32984,58558,46203
32968,58493,46447
32917,58493,46637
32813,58543,46979
32837,58555,47223
32960,58532,47465
32966,58455,47649
32988,58549,47869
33136,58503,48127
33141,58519,48415
33096,58503,48488
33188,58495,48868
33188,58487,49000
33112,58487,49265
33156,58481,49507
33286,58479,49671
33244,58487,49948
33335,58487,49957
33516,58467,49887
33592,58479,50557
33545,58436,50765
33546,58343,50247
33520,58415,51103
33432,58375,51335
33509,58422,51503
33704,58341,51039
33673,58447,51892
33649,58427,52063
33760,58375,52151
33756,58401,52407
33689,58375,52501
33676,58375,52783
33624,58375,52317
33565,58375,53085
33618,58375,53284
33780,58372,53383
33748,58364,53495
33789,58319,53759
33892,58315,53924
33920,58353,54007
33828,58359,54212
33800,58327,54316
33780,58271,54453
33732,58327,54663
33785,58303,54823
33878,58330,54814
33841,58279,54989
33920,58295,55141
34032,58237,55374
33996,58303,55500
33933,58215,55349
33876,58287,55751
33805,58271,55943
33700,58301,55913
33705,58295,56085
33776,58301,56292
33745,58287,55902
33760,58207,56455
33884,58269,56681
33884,58183,56215
33799,58260,56837
33804,58247,57029
33768,58247,56908
33660,58244,57213
33664,58197,57316
33712,58245,57274
33581,58207,57503
33481,58247,57607
33324,58231,57263
33000,58239,57783
32568,58221,57863
32124,58223,57589
31524,58204,58023
30817,58137,58055
30401,58199,58101
30324,58221,58199
30468,58235,58260
30911,58229,58013
31490,58119,58331
31885,58199,58369
32285,58197,58535
32918,58189,58583
33461,58181,58525
33849,58189,58671
34889,58175,58741
36524,58205,58164
38168,58215,58767
39860,58205,58887
41508,58194,58748
42836,58172,58821
43441,58177,58996
43564,58111,58849
43220,58181,59031
42552,58183,58796
41722,58115,59015
40908,58187,59093
39888,58195,59060
38848,58191,59085
37895,58175,59060
36869,58183,59143
35836,58164,59175
35136,58073,59039
34637,58159,59053
34120,58079,59143
33812,58168,58996
33681,58165,59087
33520,58141,59063
33420,58165,59124
33380,58159,59125
33208,58169,58973
32999,58151,58941
32972,58069,58967
32904,58149,58999
32812,58140,58944
32800,58110,58919
32844,58149,58867
32769,58161,58887
32820,58167,58711
32892,58151,58733
32900,58071,58733
32792,58135,58533
32768,58119,58563
32716,58119,58541
32626,58119,58503
32632,58143,58460
32758,58119,58313
32757,58141,58328
32780,58153,58284
32836,58143,57881
32816,58143,58095
32756,58100,57958
32788,58119,57780
32764,58039,57833
32644,58135,57756
32704,58133,56836
32848,58153,57428
32900,58151,57365
32968,58087,57311
33080,58132,57239
33025,58140,57063
32928,58095,57023
32937,58127,56711
32960,58119,56710
32881,58063,56663
32934,58149,56505
33072,58141,56455
33058,58077,56251
33028,58166,56167
33116,58156,56026
33076,58095,55964
32964,58167,55877
32972,58133,55639
32960,58151,55595
32900,58156,55464
32933,58107,55285
33024,58156,55135
33068,58119,55015
33125,58158,54933
33244,58086,54828
33183,58183,54748
33052,58165,54604
33077,58165,54279
33040,58164,54327
32993,58143,54188
33001,58183,53919
33104,58183,53815
33036,58199,53767
33061,58195,53565
33183,58119,53359
33208,58183,53271
33100,58199,53198
33128,58182,52999
33102,58199,52770
33028,58213,52743
33008,58223,52468
33074,58221,52325
33044,58231,52263
33060,58197,52103
33164,58231,51831
33185,58221,51649
33040,58231,51580
33020,58229,51439
32997,58229,51167
32954,58247,51061
32996,58241,50813
33108,58247,50747
33093,58277,50589
33092,58277,50292
33196,58272,50116
33233,58263,50079
33136,58197,49797
33181,58277,49703
33160,58207,49535
33112,58292,49067
33189,58299,49169
33298,58311,48879
33304,58331,48791
33356,58325,48511
33488,58303,48340
33500,58308,48223
33420,58247,47943
33432,58337,47749
33384,58324,47579
33316,58301,47509
33317,58348,47265
33398,58353,46997
33370,58375,46813
33412,58373,46663
33493,58357,46391
33508,58375,46209
33368,58375,45975
33372,58375,45751
33388,58356,45721
33327,58393,45463
33380,58341,44817
33501,58413,44967
33508,58403,44887
33532,58423,44191
33633,58364,44495
33659,58437,44244
33588,58375,43744
33604,58435,43671
33609,58431,43655
33544,58439,42927
33556,58477,43057
33652,58487,42919
33610,58503,42757
33626,58503,42596
33722,58500,41697
33700,58428,42081
33575,58525,41940
33531,58508,41669
33440,58535,41593
33277,58527,41223
33260,58461,41131
33345,58567,40811
33301,58565,40747
33236,58580,40367
33278,58583,40007
33204,58591,39959
33016,58591,39683
33014,58589,39535
32944,58596,39250
32836,58628,39185
32798,58623,38839
32856,58655,38567
32869,58655,38427
32900,58627,38189
33008,58679,38183
33002,58669,37603
32948,58687,37511
32937,58679,37381
32960,58681,37188
32888,58655,37116
32937,58708,36836
33030,58713,36773
33041,58743,35982
33076,58755,36177
33172,58743,36039
33127,58751,35847
33040,58671,35653
33060,58759,35412
33009,58759,35308
32936,58783,35101
32976,58813,34918
33074,58799,34660
33065,58735,34525
33088,58847,34487
33160,58823,33871
33160,58743,33850
33056,58855,33743
33108,58839,33595
33094,58843,33455
33012,58873,33261
33026,58883,33215
33153,58820,32503
33122,58925,32571
33128,58915,32591
33180,58935,32364
33224,58927,32167
33150,58886,32163
33172,58932,31575
33164,58869,31699
33080,58975,31629
32989,58957,31329
33049,58989,30887
33028,58933,31029
33060,59015,31020
33174,59015,30542
33193,59015,30567
33108,59031,30249
33120,59031,30289
33088,59015,30059
32996,58988,29873
33024,59047,29907
33064,58996,29615
33013,59045,29433
33029,59101,29271
33146,59111,29268
33149,59095,28935
33108,59111,28885
33160,59100,28820
33101,59111,28484
32964,59133,28436
32977,59071,28399
33098,59143,28188
33108,59135,28162
33146,59172,27823
33240,59125,27796
33242,59189,27484
33176,59124,27468
33167,59191,27441
33140,59127,27126
33072,59237,27324
33025,59165,26969
33032,59271,26925
32977,59271,26969
32776,59236,26500
32588,59287,26614
32480,59295,26703
32417,59311,26375
32517,59300,26388
32705,59239,26323
32826,59324,25941
33172,59326,25953
33524,59345,25973
33652,59387,25973
33632,59375,25915
33652,59323,25707
33592,59389,25756
33464,59350,25759
33437,59399,25607
33216,59399,25685
32988,59399,25252
32944,59431,25298
33077,59453,25307
33085,59479,25292
33185,59477,25230
33420,59473,25207
33533,59479,25159
33504,59398,25230
33492,59495,25340
33325,59489,25191
33220,59519,25244
33300,59527,24884
33616,59543,24943
33924,59511,25018
34158,59559,25079
34344,59503,25183
34372,59574,25082
34285,59500,25017
34228,59599,25001
34149,59591,25087
33996,59607,25238
33910,59620,24882
33933,59567,24957
33856,59645,25044
33860,59655,25144
33889,59655,25258
33776,59676,25165
33513,59625,25013
33498,59677,25259
33477,59687,24947
33348,59715,25199
33276,59735,25247
33332,59734,25159
33356,59751,25269
33428,59767,25108
33632,59751,25445
33710,59759,25064
33652,59783,25302
33657,59766,25526
33656,59783,25313
33573,59797,25445
33608,59815,25581
33759,59821,25442
33716,59855,25538
33700,59847,25519
33756,59869,25565
33668,59860,25613
33560,59871,25610
33550,59870,25795
33500,59879,25716
33422,59894,25578
33434,59911,25843
33532,59911,25580
33505,59911,25850
33501,59943,26052
33644,59957,25933
33652,59943,26087
33560,59893,26191
33624,59951,26239
33628,59956,26425
33558,59989,26187
33582,59988,26431
33700,60007,26623
33776,60013,26287
33749,59973,26529
33808,60015,26549
33890,59956,26793
33712,60039,26799
33653,60028,26877
33676,60037,26997
33620,60079,26887
33639,60071,27188
33732,60103,27201
33712,60115,27178
33752,60119,27493
33870,60119,27148
33934,60127,27363
33864,60108,27528
33893,60076,27700
33908,60127,27834
33804,60069,27765
33788,60159,27794
33850,60162,27903
33876,60159,28103
33868,60191,28327
33940,60123,28271
33965,60199,28412
33912,60201,28263
33888,60215,28535
33854,60215,28735
33732,60203,28726
33712,60231,28690
33832,60255,28805
33772,60279,28890
33748,60278,29076
33840,60277,29230
33822,60271,29401
33697,60199,29412
33712,60261,29381
33693,60223,29519
33592,60261,29633
33584,60300,29695
33656,60341,29869
33580,60341,30056
33553,60348,29831
33621,60359,30039
33448,60364,30215
33078,60359,30316
32808,60349,30519
32440,60359,30187
31892,60292,30414
31336,60395,30529
30864,60404,30531
30464,60423,30663
30400,60423,30755
30684,60423,30831
31136,60405,30748
31573,60455,30947
32076,60423,31111
32748,60447,31084
33324,60423,31132
33920,60471,30951
34437,60499,31100
35112,60487,31147
36352,60509,31239
37996,60495,31295
39492,60519,31223
40816,60517,31308
42052,60519,31456
42828,60484,31277
42928,60567,31335
42645,60567,31437
42156,60551,31420
41468,60591,31492
40628,60603,31420
39676,60607,31479
38560,60613,31467
37361,60524,31543
36320,60601,31440
35384,60551,31545
34614,60613,31381
34136,60645,31686
33788,60655,31258
33444,60667,31619
33167,60679,31540
33048,60669,31737
32880,60599,31657
32689,60679,31575
32564,60619,31814
32412,60677,31460
32250,60701,31660
32183,60655,31855
32180,60724,31822
32104,60709,31985
32044,60761,31549
32132,60757,31788
32096,60762,31927
31936,60775,31971
31933,60735,31879
31930,60767,32149
31808,60807,32089
31792,60807,32069
31868,60799,32205
31869,60837,31939
31853,60832,32229
31901,60839,32412
31933,60791,32245
31829,60837,32391
31780,60839,32495
31826,60845,32313
31737,60855,32496
31716,60863,32685
31796,60785,32261
31796,60871,32553
31836,60855,32839
31964,60892,32702
31936,60859,32799
31801,60909,32931
31880,60807,32511
31932,60901,32871
31812,60933,33064
31757,60932,32613
31820,60935,32927
31765,60967,33185
31785,60964,33020
31845,60972,33137
31829,60967,33009
31784,60999,33222
31824,60967,32807
31840,60935,33114
31760,60964,33389
31753,61007,33249
31864,60935,33447
31830,61023,33364
31801,61007,33129
31878,61029,33393
31861,61031,33332
31760,61039,33513
31744,61020,33319
31700,61039,33455
31682,61063,33287
31688,60999,33607
31786,61077,33525
31781,61079,33415
31752,61103,33481
31784,61085,33516
31801,61087,33477
31684,61087,33405
31606,61096,33637
31616,61020,33615
31585,61101,33215
31652,61084,33548
31808,61097,33380
31876,61127,33639
31956,61151,33139
32060,61143,33519
32144,61133,33469
32076,61155,33649
32036,61052,33506
31944,61140,33326
31732,61159,33527
31646,61083,33468
31698,61167,33637
31748,61191,33453
31849,61191,33510
31964,61191,33535
31905,61123,33607
31773,61180,33132
31820,61191,33477
31816,61177,33611
31725,61191,33405
31716,61135,33487
31693,61213,33429
31617,61251,33428
31676,61239,33471
31788,61241,33373
31807,61236,33413
31741,61191,33471
31816,61223,33413
31792,61233,33404
31796,61253,33436
31896,61255,33383
32036,61272,33556
31980,61191,33064
31880,61279,33415
31812,61295,33543
31847,61286,33428
31856,61281,33287
31896,61188,33455
31984,61269,33447
32037,61247,33303
32192,61301,33455
32429,61317,33447
32540,61318,33407
32592,61287,33353
32744,61236,33423
32748,61292,33479
32652,61277,33415
32621,61319,33331
32599,61270,33460
32505,61340,33462
32448,61351,33341
32477,61340,33572
32464,61357,33237
32522,61285,33435
32548,61357,33564
32540,61319,33081
32364,61367,33335
32292,61369,33535
32222,61365,33516
32092,61383,33503
32120,61383,33189
32152,61399,33439
32086,61407,33471
32016,61356,33535
32044,61396,33677
31992,61315,33547
31847,61385,33453
31874,61324,33687
31872,61399,33581
31780,61415,33468
31772,61412,33591
31816,61437,33663
31820,61439,33695
31810,61442,33597
31838,61439,33671
31841,61431,33709
31760,61405,33671
31804,61437,33738
31820,61431,33845
31721,61439,33724
31704,61380,33837
31758,61447,33404
31674,61375,33729
31644,61447,33934
31704,61447,33404
31744,61447,33791
31700,61441,33927
31695,61374,33565
31650,61447,33767
31608,61379,33913
31620,61479,33914
31757,61493,33773
31808,61495,34073
31804,61509,33917
31853,61509,34003
31893,61487,33951
31821,61509,33848
31768,61479,33992
31713,61479,34143
31608,61511,34105
31636,61489,33941
31778,61479,34239
31772,61525,34113
31808,61533,34156
31932,61525,34201
32020,61447,34373
31998,61527,34177
32036,61519,34303
32044,61519,34432
31966,61527,34294
31896,61543,34391
31989,61543,34391
31992,61548,34356
31980,61463,34477
32076,61534,34476
32064,61493,34423
31962,61540,34545
31964,61532,34549
31921,61551,34543
31847,61540,34641
31813,61549,34614
31878,61551,34567
31885,61573,34617
31904,61575,34719
31972,61501,34581
31948,61557,34853
31792,61573,34795
31822,61557,34945
31801,61575,34627
31695,61561,34854
31647,61575,34931
31746,61575,34883
31737,61604,34765
31750,61524,35086
31778,61597,34892
31837,61599,34991
31709,61591,35069
31712,61569,34944
31740,61541,35063
31664,61575,35228
31660,61575,35079
31740,61605,34965
31756,61621,35113
31780,61613,35183
31904,61616,35119
31901,61615,35117
31808,61575,35175
31828,61607,35197
31833,61584,35271
31748,61599,35228
31697,61613,35271
31796,61619,35281
31796,61637,35427
31856,61639,35343
31964,61617,35348
31956,61601,35136
31861,61541,35266
31881,61613,35428
31856,61613,35434
31788,61631,35511
31736,61631,35453
31766,61628,35468
31752,61631,35427
31752,61659,35487
31770,61629,35588
31738,61629,35463
31732,61647,35527
31796,61621,35679
31709,61631,35198
31621,61543,35517
31649,61639,35561
31748,61639,35614
31724,61657,35706
31678,61661,35563
31812,61647,35661
31904,61659,35799
31884,61637,35709
31924,61617,35724
31932,61631,35711
31844,61647,35777
31824,61659,35882
31912,61639,35797
31878,61667,35804
31824,61663,35812
31900,61647,35865
31952,61603,36012
31900,61655,35885
31888,61645,35821
31854,61637,35896
31758,61620,35897
31742,61653,36043
31814,61657,35937
31695,61621,36103
31632,61668,35523
31696,61665,35847
31773,61653,35919
31700,61663,35989
31776,61647,36143
31748,61651,35549
31726,61557,35911
31808,61661,36048
31964,61679,36007
32037,61671,36067
32050,61665,35537
32137,61658,35843
32148,61607,35975
31983,61653,36004
31908,61615,36060
31881,61645,35945
31724,61667,35991
31718,61575,35895
31688,61655,36087
31612,61667,35907
31596,61587,35938
31625,61671,35882
31646,61668,35942
31636,61677,36007
31696,61575,35695
31782,61645,35908
31724,61667,35719
31790,61663,35909
31844,61639,35847
31913,61671,35975
31960,61679,35789
32135,61657,35637
32204,61651,35838
32135,61657,35317
32176,61649,35727
32180,61659,35881
32046,61663,35711
32052,61564,35732
32126,61671,35561
32090,61684,35780
32125,61685,35674
32279,61679,35612
32268,61663,35583
32100,61656,35687
32060,61655,35223
32084,61648,35539
31980,61655,35676
31961,61661,35612
32058,61653,35437
32012,61644,35685
32022,61583,35195
32136,61663,35579
32140,61661,35449
32060,61565,35599
32095,61647,35102
32196,61647,35468
32181,61653,35621
32152,61647,35257
32212,61655,35471
32224,61661,35599
32245,61668,35421
32297,61548,35373
32240,61632,35531
32144,61653,35196
32127,61623,35359
32180,61609,35159
32096,61645,35419
32101,61549,35215
32232,61639,35219
32112,61647,35089
32100,61591,35282
32124,61625,34879
32158,61623,35087
32148,61635,34943
32248,61615,35100
32288,61615,34677
32254,61621,34916
32262,61614,34711
32344,61527,34947
32364,61623,34769
32336,61627,34739
32416,61623,34629
32440,61615,34726
32328,61607,34423
32321,61609,34535
32294,61503,34428
32080,61603,34537
31878,61599,34304
31741,61605,34307
31348,61607,34124
30896,61585,34279
30452,61573,34035
29864,61591,34066
29252,61591,33823
29021,61575,34011
29080,61564,33612
29357,61575,33820
29815,61493,33703
30424,61575,33670
31021,61575,33671
31737,61511,33495
32448,61572,33516
32940,61575,33541
33343,61565,33590
34396,61573,33420
35926,61551,33252
37376,61557,33477
38892,61495,33049
40328,61559,33287
41320,61575,33223
41624,61503,33333
41572,61551,33116
41213,61551,33159
40526,61549,32976
39728,61549,33124
38796,61501,33077
37636,61527,33001
36476,61549,33102
35477,61447,32997
34492,61535,32758
33672,61549,32957
33225,61524,32894
32840,61503,33038
32416,61447,32935
32160,61503,32503
32016,61501,32886
31777,61447,32860
31606,61503,32957
31601,61477,32867
31463,61495,32491
31367,61509,32851
31445,61495,32817
31405,61497,32772
31268,61495,32823
31264,61479,32889
31273,61370,32848
31112,61447,32695
31010,61447,32971
31064,61479,32809
31089,61383,32864
31094,61463,32703
31196,61447,33023
31200,61447,32611
31084,61447,32879
31052,61447,33057
31072,61341,32768
31012,61423,32941
31008,61445,32783
31124,61431,32975
31160,61437,32645
31184,61431,33002
31295,61415,32988
31288,61404,33071
31208,61415,32870
31190,61405,33062
31176,61341,33008
31096,61398,33175
31127,61396,32773
31232,61383,33119
31184,61317,32951
31185,61397,33114
31349,61394,33156
31366,61379,33049
31284,61386,33125
31268,61287,33199
31370,61351,33319
31282,61375,33145
31192,61359,33215
31220,61357,33367
31133,61373,33041
31144,61367,33153
31328,61349,33201
31420,61351,33279
31393,61255,33255
31504,61327,33223
31546,61319,33308
31462,61343,33159
31546,61319,33257
31688,61293,33327
31757,61279,33436
31754,61327,33125
31872,61332,33210
31924,61267,33431
31844,61299,33271
31836,61292,33337
31777,61265,33479
31649,61297,33228
31541,61303,33346
31471,61277,33160
31424,61300,33396
31421,61315,32987
31598,61191,33271
31748,61279,33437
31720,61284,33055
31805,61268,33143
31886,61263,33220
31845,61191,33276
31840,61255,33061
31927,61269,33303
31924,61273,33196
31952,61267,33091
32100,61252,33287
32037,61237,32867
31777,61159,33101
31572,61220,33217
31408,61220,33213
31208,61191,32950
31160,61237,33033
31393,61223,32876
31569,61147,33090
31688,61223,32901
31944,61207,32551
31988,61231,32861
31982,61223,32967
32033,61183,32631
32140,61191,32850
32078,61191,32789
32056,61191,32893
32206,61191,32719
32268,61191,32712
32320,61180,32582
32398,61191,32603
32324,61125,32416
32152,61168,32450
32085,61159,32369
32104,61153,32445
32025,61155,32407
32029,61165,32469
32106,61157,32116
32127,61093,32261
32153,61152,32191
32257,61137,32071
32309,61148,32070
32234,61156,32087
32252,61140,31759
32232,61127,31823
32140,61127,31844
32156,61101,31403
32241,61095,31525
32254,61127,31494
32260,61109,31276
32376,61119,31301
32400,61077,31047
32270,61119,30997
32264,60999,30737
32268,61079,30446
32148,60997,30405
32060,61095,30359
32068,61093,30054
32010,61095,29995
31977,61101,29939
32088,61063,29949
32108,61076,29532
32005,61055,29527
32016,61063,29477
32068,61037,29396
31908,61031,29115
31801,61012,29241
31799,61047,29087
31796,61063,28821
31702,61031,28797
31664,61031,28767
31600,60975,28809
31516,61021,28479
31557,61017,28465
31553,60999,28230
31468,61001,28229
31432,61012,28133
31508,60998,27871
31517,61009,27887
31500,61021,27791
31584,60999,27599
31615,60957,27463
31492,60900,27399
31477,60959,27457
31476,60961,27006
31316,60903,26905
31301,60958,26973
31422,60967,26493
31430,60975,26596
31464,60935,26441
31588,60933,26148
31620,60935,26085
31504,60935,26023
31508,60911,25445
31504,60911,25492
31424,60924,25253
31400,60932,25103
31449,60903,24905
31461,60915,24496
31402,60822,24554
31512,60903,24207
31566,60900,24324
31488,60839,23908
31409,60863,23617
31372,60859,23588
31317,60863,23519
31366,60885,23082
31497,60795,23045
31585,60861,22650
31658,60795,22685
31736,60863,22223
31716,60853,22151
31564,60829,22142
31532,60807,21885
31568,60814,21586
31440,60831,21380
31358,60829,21333
31444,60805,21191
31560,60827,20773
31608,60823,20612
31680,60771,20499
31705,60797,20440
31632,60785,20367
31552,60775,19917
31484,60767,19959
31324,60743,19766
31305,60759,19613
31373,60775,19436
31413,60773,19367
31468,60768,18923
31645,60751,18924
31681,60743,18852
31596,60699,18513
31524,60695,18337
31464,60639,18306
31384,60703,18008
31392,60711,18045
31533,60709,17996
31576,60703,17586
31564,60619,17599
31677,60679,17283
31724,60679,17256
31620,60628,16981
31598,60641,17025
31612,60551,16931
31540,60641,16593
31545,60621,16615
31600,60631,16314
31672,60607,16265
31708,60571,16205
31836,60631,16040
31900,60619,15943
31846,60525,15845
31810,60583,15606
31708,60486,15459
31548,60580,15518
31572,60511,15430
31780,60565,15292
31901,60487,15009
31924,60551,15022
32008,60551,14797
32109,60551,14687
32008,60540,14559
31969,60524,14619
31956,60423,14491
31856,60524,14389
31818,60519,14359
31860,60509,14146
31928,60503,14124
31889,60501,13826
32005,60493,13878
32104,60471,13583
32052,60461,13509
32024,60359,13383
32129,60415,13281
32061,60423,13252
31985,60388,13258
32032,60423,13132
32018,60423,13125
31950,60354,12966
32039,60413,12815
32108,60399,12759
32081,60404,12567
32154,60379,12393
32209,60276,12484
32117,60365,12233
32118,60293,12064
32222,60343,12183
32293,60359,11978
32286,60371,11973
32352,60255,11918
32324,60327,11659
32212,60284,11592
32212,60295,11378
32204,60231,11462
32210,60287,11205
32196,60295,11206
32293,60254,11005
32340,60291,11131
32363,60295,11014
32560,60287,10971
32665,60269,10912
32516,60244,10813
32398,60161,10551
32370,60199,10706
32308,60218,10650
32293,60229,10614
32422,60207,10451
32437,60231,10551
32389,60204,10508
32448,60207,10422
32572,60188,10452
32572,60188,10325
32564,60151,10337
32460,60161,10189
32264,60151,10276
32090,60159,10159
32117,60143,10337
32108,60151,10300
32188,60063,10286
32290,60127,10327
32452,60115,10140
32564,60113,10148
32573,60107,10044
32532,60084,10232
32412,60095,10087
32424,60077,10188
32520,60077,10220
32541,60087,10103
32476,60087,10084
32464,59981,10083
32404,60039,10066
32288,59967,10081
32224,60039,10215
32236,60015,10071
32172,59927,10209
32214,60004,10060
32386,60015,10087
32481,60031,10030
32536,60020,10046
32736,59911,10018
32809,60007,10116
32660,59989,9998
32608,59893,10059
32733,59956,9933
32704,59967,10122
32596,59959,10039
32657,59957,10123
32628,59885,10077
32622,59952,10093
32660,59943,10164
32617,59943,10089
32500,59935,10130
32469,59911,9981
32453,59909,9951
32472,59885,9854
32546,59895,10025
32809,59815,10050
32888,59895,9869
32694,59871,9828
32604,59896,9797
32526,59870,9767
32364,59828,9734
32360,59860,9820
32436,59777,9703
32580,59843,9673
32704,59771,9584
32868,59829,9677
32921,59823,9550
32928,59847,9638
32957,59815,9519
32936,59783,9408
32777,59747,9496
32639,59805,9497
32600,59799,9442
32428,59783,9459
32352,59815,9333
32472,59795,9217
32653,59789,9346
32848,59797,9271
32948,59759,9190
33045,59767,9174
33017,59759,9159
32957,59687,9019
32988,59732,9173
32958,59729,9095
32879,59749,8927
32913,59655,9068
32842,59737,9065
32744,59749,8901
32765,59727,8898
32804,59719,8932
32665,59721,8788
32468,59687,8885
32187,59655,8896
31832,59617,8662
31460,59693,8784
30937,59701,8708
30376,59677,8656
29832,59625,8671
29446,59653,8554
29248,59655,8685
29344,59662,8719
29712,59647,8570
30352,59631,8609
30816,59643,8661
31356,59655,8455
31968,59559,8584
32602,59647,8521
33198,59647,8381
34212,59645,8455
35504,59610,8509
36718,59559,8447
37916,59623,8313
39246,59540,8434
40420,59593,8353
41025,59559,8260
41180,59615,8297
40908,59615,8342
40416,59551,8373
39993,59591,8222
39464,59519,8270
38656,59569,8278
37740,59494,8185
36871,59567,8172
35898,59559,8072
34940,59555,8183
34269,59545,8187
33705,59492,8052
33282,59559,8156
33077,59469,8203
32873,59525,7985
32590,59451,8060
32300,59525,8064
32142,59503,7953
31898,59514,8078
31805,59508,8022
32020,59500,7940
32058,59503,8075
32012,59399,8073
32244,59495,8063
32284,59479,8030
32164,59461,8095
32104,59455,8025
32048,59433,8063
31828,59399,8041
31664,59455,8117
31688,59437,8070
31657,59455,8038
31684,59455,8163
31892,59449,8147
31920,59429,8061
31886,59399,8140
31885,59315,8181
31872,59395,8300
31713,59399,8138
31668,59399,8211
31692,59395,8268
31690,59367,8335
31800,59391,8221
31924,59351,8313
31960,59381,8405
31933,59303,8301
31912,59341,8366
31928,59346,8322
31828,59351,8398
31826,59359,8314
32000,59335,8452
32028,59291,8401
31969,59348,8532
32108,59343,8414
32164,59331,8509
32076,59279,8417
32042,59303,8581
31952,59293,8540
31813,59285,8622
31760,59269,8710
31823,59297,8563
31850,59223,8717
31888,59303,8669
32004,59288,8683
32048,59271,8799
31887,59244,8847
31798,59239,8794
31843,59201,8881
31836,59263,8820
31772,59255,9022
31832,59244,9125
31872,59167,9015
31865,59260,9090
32036,59195,9044
32130,59231,9260
32032,59159,9302
32024,59207,9260
32050,59207,9457
31984,59215,9469
31894,59219,9408
31894,59207,9660
31836,59214,9763
31745,59211,9685
31895,59202,9848
32100,59188,9887
32157,59195,9941
32236,59091,10045
32268,59143,10102
32180,59161,10178
32052,59165,10359
32078,59143,10408
32097,59083,10399
32122,59164,10613
32252,59143,10734
32280,59143,10727
32220,59079,10977
32252,59127,10847
32335,59127,11081
32304,59108,11143
32250,59117,11267
32380,59047,11415
32380,59115,11554
32292,59127,11575
32336,59111,11863
32384,59109,11935
32300,59095,12023
32340,59046,12285
32381,59079,12282
32273,59076,12355
32241,59079,12700
32428,59079,12869
32542,59069,12839
32546,59087,13158
32636,59065,13339
32694,59063,13280
32605,59053,13617
32600,58967,13809
32632,59015,13808
32569,58983,14075
32525,59015,14269
32630,58956,14215
32680,59045,14571
32685,59031,14638
32775,59015,14743
32828,59013,15058
32814,58996,15209
32748,58989,15214
32784,58933,15565
32736,58983,15639
32681,58945,15788
32828,58983,15918
32876,58983,16217
32880,58982,16261
33009,58983,16429
33101,58959,16735
33021,58951,16960
32928,58951,17095
32924,58887,17215
32820,58916,17324
32732,58862,17639
32842,58949,17872
32836,58943,17990
32804,58932,18169
32823,58925,18220
32805,58871,18453
32652,58919,18775
32558,58887,18763
32549,58887,18934
32415,58815,19255
32296,58885,19508
32377,58815,19701
32356,58855,19786
32224,58887,20127
32212,58887,20480
32245,58887,20505
32140,58876,20942
32172,58855,21193
32188,58821,21434
32108,58849,21788
32045,58847,21958
32078,58849,22316
32109,58860,22757
32097,58853,23055
32252,58799,23291
32297,58741,23767
32240,58823,23975
32180,58811,24399
32200,58807,24549
32064,58807,24984
31996,58807,25387
32040,58758,25891
32036,58797,26391
32068,58812,26359
32200,58785,26853
32353,58759,27418
32276,58773,27812
32300,58685,28250
32397,58757,28393
32344,58759,28880
32312,58759,29194
32365,58759,29641
32425,58685,30085
32414,58767,30556
32520,58759,31093
32588,58732,31052
32520,58743,31714
32580,58733,32195
32644,58719,32564
32516,58724,32492
32417,58719,33212
32468,58727,33596
32536,58719,34043
32535,58663,34557
32652,58725,34807
32716,58693,35279
32652,58693,35203
32640,58693,35879
32668,58677,36405
32632,58687,36693
32645,58679,36973
32733,58588,37396
32801,58679,37739
32773,58663,38164
32821,58677,38436
32884,58669,38879
32829,58661,39086
32764,58652,39456
32822,58631,39839
32753,58557,40302
32716,58631,40547
32819,58631,41039
32861,58647,41220
32864,58631,41672
32972,58574,41223
33061,58623,42228
33020,58615,42308
32916,58599,42711
32876,58575,43097
32804,58589,43373
32772,58591,43571
32878,58597,43869
32966,58588,44182
32972,58591,44437
33036,58581,44207
33054,58565,44916
32981,58575,45135
32964,58493,45037
32980,58532,45537
32913,58469,45831
32908,58532,46152
32989,58471,46343
33044,58559,46524
33052,58543,46749
33124,58551,46893
33183,58525,47283
33144,58531,47477
33105,58503,47580
33132,58503,47861
33028,58496,48083
32976,58519,48172
33008,58489,48419
33021,58503,48692
33040,58503,48221
33140,58479,49060
33216,58407,49119
33144,58468,49404
33136,58375,48978
33220,58452,49636
33200,58375,49881
33152,58463,49895
33220,58455,50071
33249,58431,50087
33244,58461,50357
33293,58351,50530
33292,58427,50663
33212,58423,50695
33208,58437,50685
33212,58414,50933
33110,58327,51023
33020,58421,51128
33049,58412,51277
33052,58431,50687
33047,58421,51325
33137,58340,51495
33208,58399,51503
33116,58390,51621
33109,58372,51390
33100,58373,51735
32956,58287,51783
32924,58375,51807
32992,58365,51775
32961,58323,51892
32889,58375,51943
32996,58375,52008
33092,58359,51301
33053,58330,52064
33064,58336,52087
33166,58325,51884
33124,58321,52079
33060,58247,52187
33172,58309,52167
33165,58279,52186
33169,58343,52015
33261,58331,52197
33332,58319,52294
33357,58247,51780
33361,58301,52300
33354,58215,52327
33236,58292,52141
33148,58243,52325
33198,58292,52199
33272,58301,52316
33295,58300,52221
33441,58293,52217
33543,58287,52199
33465,58231,52176
33388,58271,52213
33404,58183,52097
33340,58239,52164
33339,58247,52119
33441,58269,52020
33478,58247,51999
33452,58213,52003
33545,58247,51902
33612,58247,51935
33540,58231,51793
33534,58229,51799
33516,58119,51671
33437,58207,51703
33372,58173,51493
33457,58213,51549
33456,58225,51463
33388,58228,51415
33461,58231,51295
33512,58207,51193
33464,58205,51207
33384,58191,50525
33389,58191,51071
33285,58173,51012
33223,58172,50455
33364,58173,50789
33404,58175,50727
33404,58187,50713
33417,58172,50603
33453,58164,50139
33420,58151,50471
33384,58069,50407
33416,58145,49988
33300,58135,50157
33168,58119,50069
33208,58145,50071
33228,58077,50015
33156,58151,49949
33045,58132,49869
32836,58143,49671
32429,58119,49773
31980,58116,49671
31532,58111,49527
30925,58061,49444
30293,58117,49347
29952,58036,49324
29828,58087,49305
29864,58031,49180
30244,58109,49159
30644,58055,49111
30856,58091,48933
31268,58088,48863
31768,58079,48808
32020,58021,48773
32348,58071,48716
33500,58093,48637
35292,58092,48671
37188,58103,48516
39145,58103,48421
40928,58079,48475
42253,58087,48429
42840,58071,48300
42940,58068,48300
42540,58053,48212
41816,58081,48113
41048,58063,48007
40096,58047,48007
38972,58079,48022
37940,58001,47879
36903,58043,47785
35828,58045,47732
34958,58055,47785
34366,58031,47633
33822,58031,47648
33420,58050,47589
33240,58037,46901
33080,57967,47389
32917,58009,47282
32850,58031,47359
32784,58031,47273
32612,58015,46717
32420,58015,47057
32392,57991,47077
32236,57991,47053
32119,57959,46967
32152,58007,46929
32136,57991,46788
32068,57949,46804
32122,57991,46599
32180,57976,46495
32092,57991,46579
32024,57978,46503
32072,57975,46444
31980,57964,46307
31880,57981,46351
31936,57967,45799
31936,57974,46223
31976,57965,46172
32069,57911,46061
32160,57951,45959
32053,57863,45880
31980,57932,45959
31946,57925,45861
31884,57943,45788
31874,57924,45693
31972,57927,45261
32015,57943,45486
32042,57935,45527
32141,57885,45517
32180,57919,45413
32124,57846,45301
32072,57911,45149
32124,57815,45149
32064,57909,45187
31940,57903,45078
32080,57893,44534
32135,57900,44825
32108,57917,44919
32212,57817,44475
32285,57884,44823
32242,57831,44676
32236,57863,44311
32240,57860,44603
32182,57863,44461
32113,57863,44461
32152,57863,43919
32208,57863,44332
32200,57863,44255
32292,57823,44119
32400,57855,44142
32324,57806,43893
32284,57855,43941
32353,57844,43908
32272,57831,43796
32184,57815,43765
32248,57831,43645
32294,57838,43657
32289,57844,43527
32364,57804,43471
32404,57735,43311
32313,57804,43221
32213,57791,43159
32254,57805,43239
32176,57813,43060
32113,57814,43015
32204,57805,42865
32268,57809,42951
32256,57735,42239
32352,57781,42703
32446,57733,42485
32410,57795,42692
32356,57785,42501
32372,57772,42437
32289,57782,42234
32212,57735,42420
32308,57783,42238
32400,57795,42093
32396,57719,42046
32485,57783,41847
32537,57780,42009
32477,57773,41975
32392,57759,41239
32432,57735,41703
32356,57735,41767
32345,57751,41291
32454,57759,41519
32524,57759,41606
32548,57691,41332
32640,57735,41268
32609,57655,41360
32456,57733,41188
32420,57672,41108
32509,57725,40897
32432,57671,41143
32376,57735,40828
32502,57692,40820
32574,57733,40727
32613,57735,40780
32758,57719,40661
32872,57647,40623
32884,57685,40527
32808,57637,40478
32850,57687,40409
32839,57607,40373
32825,57703,40292
32910,57607,40135
32992,57697,40266
32984,57695,40111
33133,57703,39917
33252,57683,40155
33184,57695,39977
33172,57671,39898
33269,57677,39759
33188,57660,39984
33084,57685,39771
33151,57671,39737
33180,57687,39559
33110,57671,39703
33153,57587,39620
33188,57644,39463
33074,57663,39566
33036,57659,39495
33037,57643,39401
32933,57649,39303
32792,57561,39519
32828,57639,39263
32860,57589,39313
32784,57656,39366
32852,57640,39335
32838,57659,38843
32712,57631,39183
32569,57637,39113
32588,57581,39239
32464,57637,38991
32364,57624,39016
32429,57569,39188
32492,57607,38951
32432,57639,38991
32456,57607,38819
32542,57607,39085
32462,57589,38966
32420,57607,38539
32453,57553,38857
32404,57607,38677
32372,57607,38945
32465,57607,38621
32457,57607,38760
32424,57631,38707
32556,57607,38823
32623,57607,38663
32604,57605,38645
32702,57607,38591
32736,57580,38764
32690,57548,38561
32656,57595,38569
32721,57535,38407
32768,57595,38676
32650,57607,38068
32596,57603,38469
32649,57601,38508
32549,57607,38597
32480,57575,38457
32532,57561,38391
32368,57575,38361
32361,57573,38421
32400,57583,38515
32444,57591,37991
32397,57588,38289
32461,57573,38429
32620,57575,38303
32692,57519,38271
32741,57559,38388
32809,57565,38329
32777,57575,38303
32728,57572,38124
32852,57479,38343
32956,57560,38269
32864,57575,38220
32908,57581,38287
32982,57559,38271
32857,57509,38253
32768,57551,38316
32784,57455,38208
32662,57543,38221
32540,57548,38301
32616,57519,37863
32672,57559,38148
32628,57556,38279
32708,57559,38197
32812,57537,38322
32764,57543,38013
32669,57527,38165
32673,57529,38167
32616,57527,38132
32492,57519,38151
32528,57511,38151
32576,57455,38144
32508,57535,38093
32576,57532,38052
32669,57511,38245
32616,57511,37977
32518,57511,38077
32485,57511,38183
32402,57492,38021
32332,57519,38037
32389,57503,37940
32480,57508,37985
32452,57527,38100
32557,57503,37999
32641,57479,37877
32636,57495,37871
32640,57479,37767
32696,57479,37895
32696,57445,37926
32644,57473,37793
32736,57479,37203
32748,57499,37666
32684,57415,37603
32740,57479,37434
32792,57479,37623
32694,57469,37172
32544,57423,37457
32532,57385,37435
32557,57447,37404
32600,57471,36839
32694,57447,37252
32770,57431,37314
32796,57381,37180
32949,57447,36634
33047,57453,37070
32998,57431,37010
32960,57429,36999
33008,57375,36915
32944,57416,36764
32720,57430,36973
32528,57404,36607
32381,57415,36729
32292,57415,36735
32348,57407,36689
32364,57332,36114
32292,57383,36529
32216,57279,36359
32436,57351,36572
32656,57324,35943
32951,57351,36288
33248,57300,36423
33307,57367,36071
33240,57367,36229
33292,57351,36261
33412,57351,36241
33337,57265,36012
33212,57329,36037
33266,57301,36119
33228,57309,35815
33216,57295,35872
33376,57309,36009
33492,57327,35601
33444,57309,35734
33400,57323,35900
33352,57290,35679
33224,57299,35687
33295,57301,35586
33297,57223,35565
33042,57287,35646
32994,57244,35485
33145,57287,35171
32936,57245,35429
32772,57280,35399
32765,57263,35297
32878,57232,35447
32828,57263,35287
32762,57260,35261
32849,57236,35205
32813,57220,35319
32782,57177,34889
32940,57239,35143
33089,57252,35063
33080,57255,35099
33188,57247,35020
33272,57223,34900
33148,57207,35069
33007,57137,34753
33088,57215,34869
33057,57184,34868
33017,57215,34863
33104,57223,34580
33161,57143,34746
33121,57213,34627
33149,57222,34703
33240,57199,34535
33192,57199,34562
33044,57207,34529
33092,57183,34444
33044,57183,34276
33013,57168,34497
33084,57183,34327
33148,57175,33844
33157,57189,34172
33276,57199,34073
33365,57136,34223
33330,57164,33845
33314,57181,34007
33412,57071,33868
33437,57167,34025
33388,57183,33716
33464,57159,33788
33466,57159,33674
33420,57171,33798
33434,57164,33561
33557,57092,33579
33452,57151,33516
33375,57073,33415
33285,57127,33415
33228,57061,33492
33224,57132,32921
33237,57095,33287
33348,57147,33089
33373,57156,33140
33388,57153,33156
33385,57145,32724
33252,57115,33059
33207,57089,32965
33256,57133,33077
33164,57139,32603
33143,57132,32762
33150,57115,32847
33233,57142,32892
33173,57157,32671
33218,57063,32909
33352,57127,32585
33281,57121,32768
33172,57127,32843
33168,57133,32707
32965,57125,32708
32613,57123,32559
32681,57127,32567
32420,57077,32627
32096,57155,32576
31769,57155,32613
31230,57149,32559
30604,57143,32375
30033,57077,32661
29825,57127,32385
29743,57151,32503
30030,57150,32469
30604,57152,32516
31109,57147,32247
31601,57151,32474
32312,57125,32285
33056,57151,32545
33300,57157,32495
33728,57171,32366
34976,57077,32420
36604,57135,32287
38270,57095,32557
40012,57151,32348
41560,57173,32431
42558,57175,32407
42892,57170,32489
42852,57092,32347
42320,57159,32097
41504,57140,32455
40580,57140,32311
39488,57132,32553
38082,57095,32405
36924,57152,32471
36008,57095,32447
35113,57183,32459
34324,57095,32507
33893,57161,32465
33633,57189,32492
33316,57175,32628
33200,57157,32553
33157,57136,32364
32848,57168,32556
32837,57201,32637
32802,57191,32530
32453,57167,32640
32412,57165,32637
32314,57193,32765
31740,57209,32677
31881,57180,32351
32233,57183,32767
32352,57146,32791
32233,57205,32863
32162,57212,32530
32153,57207,32903
32156,57223,32869
32248,57207,33095
32436,57193,32935
32448,57148,33029
32409,57205,33060
32423,57215,33233
32376,57209,33119
32186,57239,33159
32188,57223,33045
32188,57242,33359
32093,57173,33284
32148,57235,32921
32198,57220,33380
32140,57253,33287
32044,57247,33573
32103,57255,33427
32088,57263,33507
31934,57255,33525
32050,57261,33541
32148,57295,33643
32064,57291,33238
32108,57287,33669
32228,57199,33759
32270,57273,33661
32296,57223,33734
32381,57287,33773
32386,57303,33733
32376,57303,33765
32360,57319,33939
32388,57333,33869
32296,57252,33789
32305,57341,33455
32356,57343,33879
32236,57343,33764
32165,57272,33904
32249,57349,33908
32212,57300,33777
32115,57351,34047
32085,57365,33663
32110,57385,33921
32134,57390,33867
32208,57391,33905
32368,57389,33975
32472,57407,34087
32381,57380,33967
32692,57351,34092
32506,57407,33609
32238,57405,33951
32257,57415,34055
32520,57437,33925
32636,57447,33990
32638,57437,33877
32597,57445,34107
32493,57447,33799
32356,57423,33988
32349,57389,33812
32214,57453,34055
32125,57469,33726
32230,57469,33941
32348,57471,33949
32432,57413,33878
32564,57500,33944
32528,57503,33895
32320,57500,33996
32181,57519,33940
32326,57485,33516
32380,57511,33927
32294,57443,33873
32236,57523,33716
32240,57516,34023
32253,57548,33853
32404,57551,33568
32476,57471,33589
32388,57541,33825
32266,57557,33707
32281,57549,33922
32256,57559,33772
32217,57583,33759
32269,57559,33721
32445,57569,33853
32537,57575,33853
32608,57607,33495
32684,57605,33741
32558,57525,33651
32504,57601,33597
32572,57575,33775
32518,57605,33645
32396,57557,33615
32448,57607,33632
32529,57645,33701
32485,57655,33274
32592,57655,33603
32716,57647,33701
32693,57649,33612
32576,57583,33255
32636,57640,33540
32474,57661,33403
32320,57671,33525
32428,57669,33341
32453,57599,33429
32152,57687,33319
32284,57677,33543
32556,57687,33405
32391,57679,32980
32466,57684,33367
32628,57659,33175
32632,57677,33467
32409,57703,33276
32660,57703,33277
32718,57697,33254
32780,57709,33183
32661,57719,33287
32724,57732,33221
32854,57716,33231
32477,57719,33199
32468,57712,33018
32448,57735,33325
32341,57735,33113
32255,57735,33157
32277,57732,33109
32264,57759,33269
32304,57751,33087
32341,57767,33115
32248,57671,33127
32188,57745,32935
32192,57757,33209
32063,57677,33178
31964,57755,33010
31797,57775,32813
32385,57691,33030
32548,57751,33159
32190,57709,32997
32254,57783,32671
32167,57773,33052
32256,57773,32997
32204,57783,33079
32100,57703,32972
32067,57787,32783
32124,57791,33041
32144,57799,32965
32100,57810,33009
32200,57719,33117
32381,57796,33000
32364,57811,32749
32312,57799,33001
32340,57796,32981
32320,57725,33120
32277,57815,33031
32260,57749,33025
32276,57807,33015
32194,57775,33177
32253,57839,33011
32380,57837,33004
32292,57839,33201
32104,57815,32879
32160,57831,33061
32072,57764,33021
31854,57826,33171
31960,57763,33115
32356,57826,33077
32464,57861,33285
32405,57851,32900
32320,57858,33079
32466,57837,33317
32077,57837,33159
32372,57755,33231
32288,57831,33332
32220,57781,33277
32320,57849,33225
32654,57807,33245
32360,57863,33319
32222,57829,33473
32286,57858,33357
32164,57799,33420
31976,57855,33341
32005,57820,33428
32104,57859,33597
32192,57863,33445
32381,57788,33501
32622,57845,33367
32676,57861,33703
32697,57863,33538
32788,57887,33623
32676,57791,33575
32508,57895,33727
32433,57863,33708
32354,57887,33716
32293,57893,33900
32437,57903,33760
32456,57927,33812
32392,57908,33687
32309,57927,33975
32476,57839,33874
32510,57908,33927
32421,57916,33975
32576,57852,34077
32520,57908,33999
32356,57938,34082
32358,57861,33975
32504,57933,33957
32348,57855,34103
32324,57919,34207
32532,57844,34225
32520,57932,34113
32316,57941,34349
32281,57849,33949
32404,57922,34332
32546,57927,34223
32526,57851,34384
32560,57950,34403
32650,57959,34281
32714,57941,34559
32765,57949,34301
32672,57959,34515
32580,57935,34499
32540,57935,34505
32492,57943,34567
32451,57956,34447
32500,57949,34726
32594,57949,34591
32596,57903,34626
32705,57964,34813
32576,57965,34537
32484,57951,34725
32376,57959,34629
32576,57863,34895
32588,57943,34852
33064,57919,34777
32708,57863,34401
32546,57967,34865
32437,57983,34711
32500,57967,35041
32728,57949,34884
32668,57940,34919
32892,57959,34939
32676,57917,34949
32676,57924,35060
32588,57951,34583
32596,57964,35026
32824,57967,35127
32927,57974,35111
32964,57895,34789
33032,57957,35127
33092,57899,35180
33008,57965,35176
33089,57967,34747
32976,57957,35239
32896,57983,35102
32924,57964,35317
32864,57967,35433
32856,57927,35357
32849,57969,35221
32796,57983,34965
32704,57903,35425
32752,57975,35476
32837,57979,35453
32825,57972,35701
32804,57991,35532
32756,57973,35684
32897,57925,35638
32796,57991,35740
32804,57991,35831
32792,57983,35922
32844,57991,35892
32888,57925,36073
33088,57991,36149
32828,57991,36103
32558,57919,36461
32680,58007,36451
32754,57991,36007
32753,58023,36575
32840,58029,36683
32940,57964,36756
32916,57928,36845
32836,58013,36792
32856,57933,37055
32781,58004,37100
32596,57940,37185
32582,58020,37195
32616,57983,37343
32556,58013,37321
32689,57948,37605
32744,58039,37108
32721,57973,37623
32728,58028,37749
33176,57975,37844
32749,58037,37861
32780,58052,37799
32780,58055,38151
32917,58077,37977
33029,58077,38165
33092,58077,38387
33050,58063,38094
32956,58069,38380
32944,58060,38279
33344,58047,38604
33096,58079,38444
32840,58084,38619
32865,58087,38817
32885,58087,38483
32801,58079,38791
32758,58039,38933
32710,58099,38370
32612,58081,38807
32644,58101,39077
32647,58097,39055
32828,58109,39277
33028,58119,39284
32744,58119,39557
32437,58151,39942
32621,58119,40068
32888,58149,40349
32797,58133,40834
32776,58157,40900
32556,58143,41084
32702,58143,41595
32540,58149,41716
32400,58084,41889
32480,58149,42413
32436,58173,42304
32308,58165,42839
32492,58183,43203
32696,58172,43124
32982,58105,43637
33156,58175,43957
33405,58092,43847
33325,58181,44423
33272,58183,44671
33080,58178,44525
32992,58197,45095
33150,58199,45151
33399,58199,45220
33377,58193,45549
33336,58199,45607
33294,58119,45257
33223,58191,45701
33236,58191,45796
32956,58215,46019
32904,58207,46015
33048,58221,46139
32904,58212,45831
32960,58231,46285
33156,58223,46403
33180,58149,45971
32964,58214,46587
32791,58205,46613
32862,58215,46655
33038,58213,46806
33268,58223,46796
33256,58223,46885
33032,58188,46974
33145,58199,47028
33100,58223,47111
32976,58231,47239
33104,58219,47263
33001,58229,47431
32604,58223,47431
32248,58223,47585
32584,58231,47669
32860,58237,47719
32884,58247,47751
33241,58247,47965
33444,58213,48034
33166,58239,47985
33104,58229,48175
32928,58215,48086
32756,58228,47700
32660,58239,48357
32696,58145,48443
32642,58238,48545
32316,58238,48485
32135,58247,48666
31921,58228,48679
31320,58247,48741
30738,58183,48364
30296,58245,48791
29858,58239,48943
29672,58247,48949
29830,58247,48903
30288,58245,49017
30893,58245,49049
31174,58247,49049
31493,58244,49117
31856,58245,49205
32321,58239,49221
32768,58227,49191
33284,58239,49241
34616,58247,49143
36317,58245,49317
37880,58236,49313
39328,58247,48745
40727,58237,49274
41672,58244,49287
41862,58237,49404
41708,58197,49409
41220,58229,49334
40448,58228,49382
39724,58231,49143
39008,58237,49430
37992,58199,49450
36999,58237,49383
36196,58247,49415
35492,58173,49319
35004,58245,49409
34440,58221,49328
33892,58140,49383
33476,58215,48893
33124,58223,49279
32926,58170,49210
32813,58233,49287
32640,58236,48719
32560,58151,49252
32576,58223,48818
32508,58212,49183
32452,58140,49239
32485,58205,49273
32254,58197,49207
31990,58221,49232
31905,58135,49119
32066,58205,49116
32081,58216,49060
32153,58229,48960
32192,58205,49081
32142,58204,48957
32028,58143,48997
31996,58197,48881
31992,58199,48865
31928,58213,48812
31980,58199,48753
32024,58212,48727
32020,58119,48695
32076,58199,48301
32209,58119,48583
32176,58188,48466
32088,58199,48391
32157,58171,48259
32108,58186,48253
32028,58181,48169
32127,58199,48071
32204,58193,47980
32128,58197,47845
32208,58197,47844
32284,58191,47699
32132,58183,47561
32024,58135,47488
32086,58180,47391
32108,58093,47221
32101,58183,47231
32188,58185,47061
32344,58195,46925
32305,58191,46899
32364,58111,46721
32428,58181,46599
32384,58116,46492
32292,58181,46313
32332,58181,46247
32316,58175,45941
32160,58153,45993
32086,58175,45805
32188,58103,45260
32152,58176,45439
32254,58191,45335
32412,58175,45253
32414,58175,45084
32373,58085,44455
32452,58173,44800
32410,58169,44573
32301,58183,44463
32316,58180,43819
32492,58189,44183
32464,58213,43933
32520,58199,43759
32608,58205,43679
32623,58180,43549
32490,58189,43027
32538,58175,43187
32452,58164,43107
32324,58183,42599
32352,58119,42759
32465,58191,42695
32416,58199,41863
32447,58209,42121
32489,58199,42231
32388,58178,41991
32376,58119,41788
32528,58186,41671
32496,58196,41447
32360,58175,41493
32420,58197,41408
32508,58199,41175
32474,58220,40941
32544,58207,40773
32652,58205,40828
32628,58212,40545
32493,58212,40428
32532,58205,40244
32460,58215,40277
32352,58220,40041
32444,58215,39879
32500,58231,39665
32428,58239,39744
32560,58247,39483
32672,58231,39357
32662,58223,39358
32530,58183,39225
32501,58223,39021
32492,58231,38958
32436,58175,38699
32505,58219,38887
32610,58215,38617
32652,58247,38484
32791,58197,38300
32960,58247,38434
32968,58247,37845
32900,58247,38129
32928,58247,37959
32941,58229,38083
32862,58263,37813
32929,58213,37757
32997,58271,37529
32940,58293,37657
32992,58285,37065
33149,58271,37415
33078,58276,37271
33019,58279,37284
32997,58191,37133
32900,58247,37095
32820,58197,36865
32868,58261,36975
32996,58223,36420
32977,58287,36815
33030,58229,36715
33086,58295,36802
33062,58303,36632
32996,58295,36517
33009,58293,36359
32945,58223,36388
32782,58303,36471
32773,58308,36271
32791,58229,35887
32712,58319,36159
32744,58285,35928
32732,58325,36164
32621,58335,35917
32509,58317,35433
32542,58309,35838
32456,58334,35690
32378,58333,35695
32421,58311,35708
32488,58297,35532
32452,58335,35067
32532,58335,35460
32576,58261,35334
32434,58341,35253
32417,58339,35399
32488,58303,35231
32524,58329,35049
32564,58327,34951
32605,58343,35008
32668,58343,34788
32612,58356,34993
32732,58351,34862
32820,58345,34455
32800,58297,34287
32700,58339,34621
32753,58349,34460
32781,58261,34587
32720,58333,34364
32772,58345,34327
32924,58349,34207
32932,58331,34013
32887,58297,34220
32824,58359,34073
32764,58370,33609
32705,58345,33887
32858,58322,33604
32748,58263,33833
32576,58351,33542
32648,58271,33559
32828,58363,33375
32766,58315,33473
32821,58365,33231
32916,58351,33213
32900,58295,33115
32801,58355,33167
32772,58277,32591
32729,58340,32871
32641,58320,32925
32659,58367,32369
32717,58375,32485
32769,58373,32699
32799,58367,32417
32872,58359,32415
32826,58365,32311
32716,58279,32231
32708,58343,32251
32628,58279,32135
32533,58357,31945
32576,58357,32101
32663,58357,32055
32552,58375,31839
32692,58285,31868
32788,58357,31639
32897,58327,31821
32752,58351,31737
32829,58311,31657
32840,58343,31460
32685,58347,31479
32672,58357,31516
32708,58271,31449
32615,58367,31463
32580,58321,31340
32629,58363,31036
32576,58343,31335
32396,58287,31271
32372,58335,31297
32388,58324,31116
32320,58363,30794
32532,58269,31103
32533,58342,30951
32449,58320,31134
32608,58327,30877
32738,58343,30884
32680,58349,30838
32508,58343,30787
32489,58271,30726
32410,58325,30627
32304,58343,30482
32319,58351,30511
32348,58341,30389
32254,58357,30567
32318,58271,30340
32456,58325,30402
32425,58247,30492
32345,58335,30227
32350,58333,30277
32252,58321,30117
32124,58300,30245
32176,58287,29836
32265,58335,30079
32280,58351,30175
32344,58341,29757
32423,58340,29988
32440,58239,29812
32364,58319,30047
32348,58247,29797
32280,58311,29821
32197,58329,29789
32205,58319,29780
32320,58335,29781
32308,58311,29703
32361,58319,29685
32492,58247,29606
32432,58309,29460
32344,58311,29745
32405,58293,29361
32380,58271,29583
32258,58309,29408
32220,58223,29663
32300,58247,29484
32284,58311,29606
32290,58229,29380
32406,58301,29412
32412,58303,29398
32292,58303,29287
32279,58279,29445
32236,58269,29431
32128,58303,29183
32140,58287,28963
32264,58301,29189
32244,58244,29156
32324,58295,29138
32408,58303,28979
32328,58215,29061
32260,58285,29159
32263,58265,29063
32252,58271,28876
32172,58285,28931
32152,58293,28885
32172,58295,28879
32154,58287,28923
32116,58308,28691
32225,58285,28713
32229,58264,28609
32127,58279,28483
32160,58237,28493
32088,58177,28413
31988,58279,28356
32018,58279,28333
32128,58279,28345
32160,58287,28497
32204,58284,28468
32304,58279,28445
32280,58229,28423
32192,58255,28178
32194,58247,27972
32128,58237,28122
32016,58268,28107
32005,58199,28048
32072,58260,27927
32044,58244,28041
32160,58279,28003
32364,58247,27629
32297,58260,27770
32216,58175,27705
32284,58237,27772
32242,58239,27524
32136,58247,27445
32081,58165,27208
32100,58240,27455
32092,58263,27393
32205,58263,27333
32316,58157,27265
32257,58232,27194
32104,58239,27114
32048,58231,26913
32052,58245,27036
32012,58141,27031
32095,58229,26724
32193,58229,26593
32190,58247,26828
32233,58213,26721
32249,58231,26667
32169,58229,26751
32093,58239,26463
32084,58191,26512
32069,58223,26455
31970,58223,26544
32040,58165,26246
32161,58217,26173
32140,58223,26103
32224,58213,26119
32401,58228,26058
32424,58133,25879
32302,58207,26052
32300,58199,25755
32222,58177,25773
32108,58207,25663
32106,58212,25495
32241,58165,25609
32256,58207,25286
32367,58183,25361
32544,58207,25241
32600,58215,25189
32586,58172,25218
32688,58177,25043
32710,58191,24723
32620,58135,24767
32645,58182,24609
32749,58193,24524
32705,58199,24555
32630,58125,24261
32680,58183,23943
32680,58191,24079
32621,58161,23886
32681,58069,23781
32672,58165,23865
32588,58119,23503
32629,58183,23310
32655,58103,23377
32632,58175,23244
32692,58164,23139
32760,58095,22781
32716,58153,22881
32638,58151,22535
32672,58079,22679
32676,58135,22234
32556,58148,22131
32568,58085,21813
32800,58143,21796
32756,58149,21413
32676,58119,21322
32740,58119,21122
32804,58103,21018
32677,58111,20882
32655,58101,20436
32656,58116,20357
32589,58103,20129
32546,58108,20000
32559,58111,19695
32492,58111,19439
32561,58100,19202
32738,58051,19103
32769,58095,19021
32737,58057,18655
32748,58079,18775
32780,58023,18591
32700,58077,18183
32706,58071,18149
32669,58095,17875
32336,58087,17800
32081,58039,17599
31887,57991,17321
31434,58063,17359
30880,58053,17209
30360,58063,17021
29852,58052,16941
29492,58053,16769
29541,58053,16583
29914,58061,16451
30385,57991,16527
30954,58052,16287
31677,58065,16439
32304,57991,16089
32804,58037,15998
33296,58015,16004
33884,58028,16009
34932,57959,15854
36468,58020,15903
37896,58023,15959
39224,57977,15631
40524,58037,15614
41504,58015,15574
41820,58021,15682
41636,57951,15663
41324,58015,15709
40605,58023,15540
39820,57964,15468
38860,58007,15615
37916,58015,15612
37100,58009,15561
36241,58015,15773
35464,57972,15554
34624,57991,15609
33853,57919,15829
33425,57991,15885
33112,57991,15842
32770,57903,16088
32618,57988,15972
32596,57991,15979
32508,57991,16207
32467,57913,16327
32449,57981,16215
32312,57977,16446
32184,57959,16423
32156,57951,16550
32096,57951,16557
31933,57879,16691
31884,57959,16970
31935,57863,16983
31909,57973,16989
31908,57903,17215
32016,57949,17290
31976,57951,17316
31860,57941,17592
31868,57951,17461
31809,57939,17703
31721,57941,17855
31772,57959,17973
31880,57956,17952
31828,57949,18205
31908,57938,18173
32042,57900,18423
32028,57935,18657
31896,57941,18578
31920,57919,18840
31880,57911,18884
31784,57863,19220
31800,57919,19071
31856,57935,19346
31822,57847,19319
31860,57927,19570
31972,57903,19737
31925,57863,19631
31804,57907,19909
31888,57899,20149
31896,57900,20026
31876,57903,20319
31957,57903,20525
32033,57917,20435
31980,57893,20663
31972,57863,20636
32032,57901,20889
31956,57903,20859
31849,57885,21091
31917,57863,21071
31864,57863,21415
31740,57885,21347
31657,57797,21350
31724,57863,21615
31724,57895,21823
31812,57863,21604
32006,57863,21759
32060,57863,22023
31996,57863,22057
31964,57853,22111
31877,57845,22379
31756,57863,22165
31668,57799,22406
31780,57853,22621
31848,57775,22463
32004,57863,22668
32237,57859,22697
32332,57842,22798
32380,57839,22711
32532,57813,22961
32560,57786,23010
32465,57837,22912
32495,57828,23223
32558,57823,23002
32417,57844,23119
32405,57856,23465
32453,57831,23421
32372,57823,23588
32244,57818,23500
32248,57802,23334
32196,57813,23475
32114,57815,23605
32188,57731,23731
32389,57817,23601
32431,57821,23829
32432,57823,23620
32505,57799,23887
32452,57725,24076
32353,57802,23732
32348,57782,24005
32303,57799,23879
32268,57785,24199
32356,57785,24067
32474,57789,23927
32468,57799,24189
32497,57783,24140
32557,57783,24210
32460,57780,24393
32328,57759,24215
32368,57748,24369
32412,57711,24340
32359,57756,24570
32436,57775,24572
32608,57701,24455
32613,57759,24313
32652,57725,24611
32733,57757,24447
32741,57757,24809
32660,57735,24822
32654,57735,24699
32580,57735,24609
32480,57709,24868
32536,57653,24789
32637,57727,24979
32692,57687,25007
32797,57735,24750
32962,57703,25015
32972,57717,25188
32814,57687,24907
32804,57703,24890
32694,57693,25039
32527,57705,25220
32516,57703,25068
32624,57655,25311
32577,57727,25321
32612,57708,25101
32752,57699,25167
32700,57647,25113
32585,57679,25375
32573,57589,25376
32517,57591,25151
32407,57667,25412
32400,57687,25295
32448,57679,25559
32421,57701,25223
32424,57687,25452
32429,57653,25441
32288,57663,25336
32074,57581,25447
32017,57657,25540
31940,57655,25330
31824,57663,25460
31844,57640,25473
31972,57657,25367
31957,57652,25453
32072,57627,25435
32185,57641,25490
32136,57575,25173
31968,57607,25387
31972,57537,25561
31956,57600,25223
31876,57623,25400
31849,57629,25567
31901,57607,25304
31844,57624,25435
31880,57607,25511
32016,57607,25341
32017,57605,25461
31953,57607,25263
32028,57580,25575
32074,57595,25359
32044,57572,25475
32068,57575,25528
32164,57607,25509
32164,57595,25381
32201,57511,25471
32301,57575,25543
32292,57559,25549
32203,57565,25711
32213,57559,25540
32188,57559,25675
32052,57569,25591
32081,57479,25861
32196,57529,25634
32229,57473,25815
32284,57553,25823
32369,57503,25968
32344,57538,25935
32252,57495,25855
32229,57525,26138
32204,57531,26141
32120,57453,26036
32138,57516,26201
32234,57543,26252
32228,57529,26469
32232,57543,26298
32272,57511,26491
32253,57512,26359
32188,57439,26764
32212,57489,26597
32188,57433,26783
32153,57501,26699
32266,57479,27040
32313,57501,26887
32272,57511,27067
32300,57503,27303
32356,57511,27171
32360,57479,27357
32292,57453,27307
32317,57469,27669
32292,57471,27613
32234,57479,27567
32264,57477,27961
32356,57477,27860
32349,57479,28015
32412,57479,28066
32518,57471,28196
32473,57471,28331
32384,57447,28331
32404,57461,28642
32400,57444,28455
32287,57457,28757
32333,57444,28791
32428,57351,28637
32380,57463,29203
32474,57439,29151
32565,57433,29369
32548,57445,29375
32452,57429,29583
32476,57399,29556
32476,57411,29522
32376,57351,29711
32416,57383,29898
32564,57423,30123
32569,57437,29860
32616,57421,30022
32671,57325,30231
32656,57415,30400
32576,57325,30435
32580,57393,30503
32572,57385,30661
32516,57399,30919
32540,57335,30808
32605,57397,30949
32528,57389,31037
32590,57372,31175
32700,57391,31391
32740,57333,31007
32677,57372,31431
32720,57381,31197
32700,57375,31697
32612,57351,31509
32636,57287,31879
32742,57375,32003
32728,57375,32037
32760,57381,32160
32860,57351,32252
32877,57351,32397
32756,57351,32615
32788,57343,32181
32773,57317,32519
32728,57343,32876
32792,57351,32799
32900,57348,32959
32916,57351,32876
32948,57336,33147
33044,57349,33213
33040,57335,33153
32953,57335,33525
32964,57255,33433
32919,57309,33582
32844,57295,33531
32820,57327,33858
32852,57333,33775
32800,57327,33874
32785,57327,33923
32836,57311,33972
32844,57319,34149
32764,57295,34193
32796,57223,34174
32799,57268,34393
32777,57249,34379
32856,57261,34428
33005,57287,34635
33007,57308,34535
33084,57299,34663
33199,57273,34773
33175,57277,34695
33088,57255,34823
33072,57271,34929
33052,57223,34869
32932,57268,34967
32935,57275,34853
33032,57263,35127
33004,57286,35138
33009,57261,34823
33070,57261,35141
33024,57275,35116
32889,57252,35196
32860,57241,35316
32834,57243,34813
32701,57260,35252
32682,57247,35417
32760,57159,35295
32752,57263,35169
32737,57175,35452
32808,57245,34887
32837,57163,35349
32796,57223,35311
32845,57159,35395
32714,57213,35332
32528,57235,35215
32416,57234,35478
32588,57223,35316
32716,57247,35359
32929,57235,35289
33167,57234,35409
33208,57223,34969
33137,57223,35175
33146,57199,35404
33124,57209,34999
33028,57143,35284
33028,57185,35436
33121,57135,35269
33101,57223,35239
33068,57191,35263
33128,57127,35275
33065,57207,35271
32960,57213,35407
32996,57191,35317
32964,57200,34862
32772,57158,35319
32678,57204,35319
32801,57159,35383
32893,57204,35349
33008,57191,35170
33176,57191,35391
33268,57189,35284
33224,57127,35519
33277,57167,34987
33344,57127,35425
33201,57162,35607
33216,57133,35455
33260,57175,35509
33200,57197,35549
33240,57174,35541
33276,57155,35671
33188,57113,35580
33092,57141,35641
33072,57151,35517
32996,57151,35797
32929,57151,35284
32904,57159,35605
32998,57137,35885
32976,57167,35794
32854,57153,35879
32974,57155,35853
32958,57140,36020
32815,57148,36004
32796,57121,36003
32680,57132,36069
32517,57049,35935
32286,57135,36249
32044,57055,36103
31749,57148,36148
31367,57143,36269
30960,57117,36415
30372,57071,36281
29740,57119,36321
29382,57123,36383
29308,57095,36267
29440,57095,36544
29900,57071,36503
30496,57127,36238
30881,57127,36079
31341,57127,36569
32017,57117,36644
32464,57095,36519
32982,57127,36725
34276,57093,36833
35913,57079,36705
37437,57035,36761
39072,57095,36773
40608,57087,36909
41584,57105,36407
42016,57088,36855
42001,57095,36855
41620,57095,36829
40993,57021,37024
40292,57073,36871
39376,57071,36893
38264,57095,36937
37268,57095,36773
36372,57095,37041
35352,57095,37061
34524,57025,36973
33992,57093,36999
33530,57012,36919
33104,57079,37199
32847,57021,37143
32681,57059,36701
32425,57024,37125
32268,57079,37284
32160,56999,37203
32009,57091,37231
32007,57077,37095
32125,57069,37371
32124,57059,37117
31984,57061,37327
31962,57041,37208
31920,57028,37501
31790,56967,37375
31788,57037,37403
31957,57013,37463
31948,57043,37311
31946,57059,37428
32052,57033,37584
32032,57036,37652
31934,57039,37407
31892,57017,37567
31813,56983,37570
31656,57021,37455
31624,56943,37730
31668,57025,37750
31620,57045,37668
31632,57029,37423
31708,57023,37678
31694,56927,37692
31649,57003,37639
31788,57005,37559
31818,56935,37799
31840,57000,37876
31876,57015,37535
32100,56999,37707
32084,56957,37917
32040,56997,37767
32122,57001,37511
32064,56987,37815
31933,56997,37811
31860,56967,37975
31804,56991,37876
31660,56981,37867
31628,56987,37847
31740,56925,37837
31717,56991,37909
31765,56951,37981
31912,56967,37639
31980,56967,37919
32020,56959,37829
32229,56961,38023
32212,56959,38003
32037,56957,37911
32144,56948,37871
32224,56959,37895
32208,56887,37740
32153,56957,37992
32288,56943,37887
32407,56943,37845
32270,56943,37725
32359,56928,37959
32368,56903,37574
32296,56917,37751
32304,56876,37767
32370,56927,37761
32425,56871,37671
32420,56935,37611
32464,56877,37793
32372,56912,37675
32396,56877,37298
32548,56907,37589
32509,56919,37540
32476,56837,37516
32528,56915,37588
32617,56919,37549
32584,56935,37477
32592,56919,37671
32716,56919,37493
32704,56909,37511
32596,56893,37447
32580,56839,37657
32517,56903,37080
32374,56910,37487
32383,56903,37631
32489,56903,37617
32478,56919,37319
32528,56828,37511
32637,56898,37415
32584,56897,37564
32502,56895,37228
32472,56804,37463
32444,56885,37502
32377,56807,37471
32377,56885,36903
32488,56893,37372
32492,56887,37268
32598,56886,37407
32801,56815,37289
32884,56871,37191
32862,56879,37371
32952,56869,37315
32893,56839,37215
32776,56839,37167
32769,56868,37332
32824,56871,37109
32728,56857,37162
32713,56877,37199
32800,56791,37163
32876,56839,36893
32851,56852,37083
32932,56837,37061
32904,56839,37146
32856,56839,36927
32900,56836,36949
33040,56805,36987
33148,56839,36839
33336,56803,37013
33556,56839,36863
33504,56807,36863
33332,56839,36729
33313,56839,36900
33280,56813,36753
33153,56831,36723
33099,56831,36636
33175,56839,36807
33108,56837,36292
33172,56839,36583
33278,56736,36508
33316,56820,36335
33232,56815,36530
33260,56807,36111
33216,56807,36381
33032,56815,36263
32872,56805,36373
32809,56724,36271
32717,56807,36079
32728,56790,36171
32815,56807,36023
32848,56727,36044
32752,56791,35684
32721,56711,35885
32727,56781,35999
32600,56799,35430
32639,56787,35829
32836,56797,35944
32712,56791,35492
32580,56785,35669
32537,56733,35836
32400,56775,35522
32189,56766,35631
32145,56767,35725
32132,56775,35442
32056,56771,35503
32146,56741,35335
32413,56685,35551
32608,56763,34949
32998,56722,35327
33275,56748,35463
33316,56699,35024
33188,56741,35263
33157,56647,35317
33072,56730,35155
33013,56749,35156
33036,56741,35023
33078,56677,34799
32995,56720,35015
32985,56647,35068
33044,56701,35026
33014,56711,34884
32864,56724,34983
32857,56711,34903
32840,56711,34885
32788,56711,35023
32821,56695,34870
32881,56654,34823
32796,56711,34680
32703,56734,34931
32764,56707,34604
32812,56707,34776
32706,56693,34653
32677,56681,34847
32556,56687,34586
32380,56684,34694
32417,56684,34565
32472,56695,34759
32470,56695,34591
32476,56693,34223
32656,56679,34607
32581,56685,34501
32400,56675,34652
32485,56663,34551
32504,56653,34629
32549,56658,34122
32578,56671,34471
32721,56654,34527
32780,56679,34525
32789,56661,34453
32880,56639,34335
32853,56653,34446
32820,56639,34347
32852,56623,34388
32772,56543,34387
32604,56623,34311
32530,56543,34361
32596,56635,34249
32573,56553,34439
32617,56636,34169
32720,56551,34262
32700,56615,34415
32676,56609,33866
32638,56623,34156
32593,56615,34371
32536,56569,33837
32525,56615,34220
32556,56549,34311
32448,56629,34013
32399,56613,34117
32408,56583,34221
32436,56613,33908
32320,56613,34135
32373,56583,34231
32345,56607,34037
32309,56509,34084
32432,56583,34103
32812,56601,34043
32937,56519,33892
32988,56604,34167
33056,56583,33985
33076,56583,33609
32954,56583,33997
33044,56495,33959
32988,56570,34098
32761,56583,34069
32857,56572,33711
32982,56575,33971
32844,56583,34055
32784,56583,33905
32780,56501,33637
32714,56561,33941
32684,56575,33884
32623,56535,34039
32389,56537,33839
32184,56551,33927
32064,56565,33973
32061,56503,33997
32034,56551,33484
32174,56511,33857
32436,56551,34000
32620,56559,33843
32751,56476,33887
33016,56530,33732
33266,56537,33876
33372,56533,33895
33440,56535,33713
33501,56455,33951
33388,56543,33855
33356,56551,33746
33494,56452,33991
33440,56527,33943
33281,56511,33893
33224,56524,33465
33192,56439,33857
33096,56517,33741
33027,56519,33995
33056,56520,33772
32992,56436,33884
33024,56519,33797
33092,56519,33991
33096,56423,33519
32972,56501,33861
32997,56511,33995
32973,56453,33898
32832,56484,33861
32824,56473,33873
32885,56455,34013
32848,56497,33881
32862,56493,33861
32952,56503,33823
32917,56405,33995
32796,56479,33934
32744,56463,33781
32633,56481,33897
32332,56428,33839
32118,56469,34021
32100,56484,33852
32048,56428,33821
32085,56485,34001
32222,56477,33821
32356,56437,33868
32560,56455,33967
32964,56455,33783
33440,56365,33871
33646,56446,33912
33644,56455,33809
33671,56445,33845
33584,56445,33757
33592,56467,33967
33636,56367,33775
33588,56439,33619
33416,56431,33831
33380,56423,33751
33344,56415,33773
33214,56431,33949
33152,56436,33819
33233,56413,33729
33198,56431,33772
33188,56428,33585
33247,56359,33793
33190,56412,33744
33040,56373,33713
33004,56406,33619
32908,56404,33717
32780,56359,33647
32698,56407,33799
32752,56423,33636
32654,56327,33641
32600,56407,33652
32632,56405,33612
32582,56421,33655
32413,56399,33465
32369,56375,33573
32340,56316,33705
32328,56395,33146
32512,56415,33524
32769,56319,33511
32821,56389,33661
32896,56397,33415
33076,56399,33469
33132,56303,33325
32992,56375,33587
32904,56381,33183
32744,56311,33415
32614,56380,33327
32710,56383,33457
32982,56295,33319
33153,56375,32975
33205,56353,33368
33365,56383,33359
33464,56309,33287
33352,56359,33340
33377,56347,33445
33393,56357,33342
33160,56285,33191
33040,56357,33287
33148,56341,33241
33045,56359,33180
33077,56357,33281
33244,56361,32863
33264,56271,33246
33148,56327,33040
33145,56256,33319
33085,56327,32979
32926,56295,33197
32927,56327,33183
32948,56349,33188
32888,56348,32789
32912,56327,33159
33023,56295,33060
33008,56327,33255
32872,56327,32999
32932,56239,33143
32887,56309,33050
32740,56324,33185
32660,56235,33102
32676,56317,32711
32556,56327,33041
32536,56309,33216
32609,56303,32879
32496,56311,33095
32415,56309,32941
32466,56294,33223
32623,56293,32964
32687,56300,33081
32778,56291,32937
32894,56285,33199
32892,56308,32982
33031,56300,33087
33285,56303,32964
33257,56239,33215
33068,56279,33064
33020,56257,33079
32942,56280,32924
32813,56293,33191
32728,56289,32983
32745,56269,33074
32532,56300,33006
32244,56263,33062
32001,56279,33076
31658,56275,32841
31040,56270,33058
30431,56260,33175
29908,56263,32969
29478,56187,33053
29336,56263,33127
29600,56199,32997
29802,56263,32905
30052,56214,32954
30461,56258,32884
30940,56237,33043
31310,56263,32991
31676,56253,32940
31972,56175,33122
32804,56240,32867
34460,56255,32999
36461,56258,32985
38396,56271,32956
40013,56259,32949
41462,56241,32844
42052,56172,33028
42008,56239,32629
41681,56231,32907
41200,56220,33047
40357,56236,32739
39420,56221,32879
38493,56231,33039
37348,56255,32814
36240,56167,32493
35280,56231,32865
34316,56239,32711
33516,56143,32984
33057,56215,32791
32616,56221,32861
32226,56187,32663
32093,56215,32893
32257,56143,32831
32462,56199,32823
32672,56133,32743
32844,56199,32813
32909,56199,32771
32732,56135,32722
32598,56183,32611
32444,56104,32748
32220,56187,32769
32112,56175,32740
32129,56196,32679
32021,56118,32807
31999,56185,32511
32054,56183,32748
31993,56175,32879
31808,56175,32738
31801,56071,32765
31740,56154,32723
31612,56175,32383
31640,56165,32697
31742,56180,32805
31716,56173,32751
31724,56191,32837
31780,56159,32655
31772,56167,32749
31728,56071,32647
31749,56143,32715
31600,56095,32734
31404,56133,32815
31389,56143,32349
31496,56127,32571
31416,56151,32720
31344,56133,32759
31434,56127,32677
31556,56151,32687
31676,56151,32765
32033,56125,32901
32460,56135,32429
32668,56133,32610
32688,56139,32697
32632,56135,32749
32457,56103,32895
32352,56127,32404
32156,56039,32739
31812,56131,32693
31469,56108,32759
31365,56111,32809
31288,56103,32765
31124,56125,32847
31076,56125,32611
31232,56065,32596
31496,56123,32689
32061,56043,32743
32740,56109,32801
33056,56063,32697
32996,56103,32755
32966,56103,32743
32744,56101,32661
32447,56092,32657
32272,56020,32837
32305,56092,32676
32236,56093,32737
32236,56109,32849
32343,56100,32692
32316,56027,32615
32160,56071,32647
32204,56071,32660
32204,56087,32797
32080,56071,32725
32044,56107,32668
32140,56087,32674
32128,56095,32511
32165,56023,32813
32229,56071,32693
32238,56071,32407
32113,56071,32681
32152,56068,32645
32112,56071,32765
32016,56044,32275
32061,56061,32668
32170,56071,32577
32176,56103,32773
32122,56007,32575
32228,56067,32631
32297,56092,32623
32344,56071,32522
32345,56063,32724
32280,56047,32647
32133,56062,32245
32197,56071,32599
32312,56071,32669
32319,56087,32549
32344,55991,32284
32472,56067,32581
32433,55988,32697
32272,56065,32249
32352,56037,32526
32364,56051,32693
32320,55989,32475
32321,56057,32580
32460,56068,32464
32473,56071,32587
32524,56085,32559
32617,56071,32431
32668,56071,32709
32566,56071,32457
32604,56052,32581
32632,56069,32683
32570,56061,32358
32589,56005,32510
32704,56103,32541
32620,56111,32561
32665,56119,32399
32836,56103,32627
32877,56109,32493
32783,56107,32607
32852,56099,32515
32902,56125,32686
32840,56107,32421
32821,56127,32503
32944,56119,32547
32926,56133,32607
32908,56127,32733
33026,56125,32655
33008,56119,32774
32913,56132,32615
32901,56108,32487
32832,56103,32671
32668,56061,32681
32621,56127,32637
32687,56135,32598
32613,56127,32639
32628,56135,32783
32690,56039,32660
32702,56135,32825
32624,56115,32685
32662,56121,32687
32592,56109,32633
32453,56126,32709
32465,56117,32831
32548,56121,32559
32520,56126,32664
32512,56135,32775
32617,56124,32711
32687,56125,32647
32612,56108,32786
32634,56099,32593
32621,56117,32735
32487,56098,32676
32496,56117,32831
32616,56061,32700
32661,56112,32399
32710,56095,32742
32836,56100,32641
32852,56109,32741
32760,56023,32743
32748,56084,32761
32716,56095,32703
32608,56051,32750
32624,56084,32702
32661,56071,32903
32536,56035,32570
32421,56093,32775
32416,56100,32743
32357,56071,32717
32264,56071,32807
32264,56071,32895
32288,56059,32685
32260,56071,32815
32432,56103,32711
32876,56071,32919
33268,56103,32810
33508,56071,32702
33649,56071,32775
33534,55997,32843
33309,56063,32841
33236,56005,32791
33160,56061,32877
32993,55991,32951
32924,56071,32671
32980,56071,32843
32960,56071,32999
32948,56071,32567
33028,56069,32887
33046,56031,32980
32928,56053,32844
32929,56063,32519
32876,56039,32902
32748,56044,32999
32729,56065,32976
32836,56055,32885
32836,56069,32955
32900,56062,32851
33008,56068,32939
33014,56063,33047
32896,56031,32867
32920,56043,32975
32871,56052,32917
32756,55975,32961
32766,56053,32951
32844,56045,32997
32788,56063,32964
32790,56053,33081
32928,56055,32985
32916,56045,32954
32815,56045,33140
32825,56026,32815
32818,56031,33013
32680,56029,33115
32695,56039,32679
32780,56055,32967
32779,55983,33031
32829,56033,32967
32894,55967,33029
32896,56036,33021
32768,56023,32951
32775,56029,33027
32788,56015,32889
32708,56032,32959
32736,56023,33015
32858,55967,33119
32848,56033,32759
32868,55975,32967
32972,56023,33119
32896,56011,33045
32832,55975,32613
32869,56012,32916
32856,56008,33039
32801,55997,32606
32767,56012,32962
32809,56011,32991
32728,56019,32972
32756,55965,32956
32856,56007,32974
32884,56007,32791
32814,55943,33087
32840,55999,32887
32809,55997,32949
32684,55911,32887
32672,55991,33031
32748,56001,33029
32734,55911,32839
32772,55997,32912
32897,55997,32876
32896,55935,32972
32733,55970,32573
32700,55983,32893
32660,55972,32807
32552,55975,32949
32588,55973,32807
32684,55980,32852
32654,55989,32772
32696,55983,32822
32741,55953,32416
32760,55909,32721
32688,55967,32909
32657,55943,32639
32676,55943,32772
32570,55959,32683
32564,55943,32879
32638,55943,32698
32632,55909,32741
32684,55943,32718
32791,55943,32745
32805,55879,32797
32679,55941,32331
32719,55925,32679
32696,55935,32825
32613,55916,32683
32550,55935,32614
32625,55935,32754
32560,55855,32652
32585,55934,32548
32660,55927,32629
32681,55909,32611
32599,55917,32338
32624,55900,32593
32578,55871,32749
32456,55911,32352
32436,55909,32607
32516,55917,32409
32512,55847,32707
32536,55925,32487
32660,55927,32534
32636,55917,32386
32533,55909,32619
32548,55915,32123
32543,55869,32439
32476,55919,32607
32456,55911,32180
32480,55829,32288
32428,55927,32445
32421,55891,32431
32566,55917,32230
32630,55903,32399
32476,55887,32156
32469,55908,32365
32456,55908,32312
32354,55919,32495
32389,55919,31991
32489,55925,32323
32445,55837,32431
32461,55917,32263
32623,55917,32335
32637,55911,32301
32543,55911,32327
32524,55815,31967
32492,55893,32309
32392,55911,32295
32412,55899,32231
32500,55900,32303
32524,55909,32228
32529,55919,32223
32600,55903,32287
32526,55892,32406
32376,55876,31919
32405,55893,32223
32392,55868,32388
32384,55879,31964
32470,55877,32299
32580,55861,32215
32528,55801,32367
32496,55877,32297
32604,55791,32229
32648,55863,32431
32588,55871,32279
32657,55777,32363
32700,55855,32290
32625,55781,32398
32596,55855,32346
32676,55860,32287
32661,55860,32388
32684,55867,32393
32836,55855,32235
32826,55855,32331
32680,55853,32346
32669,55815,32393
32632,55850,32439
32500,55860,32549
32436,55855,32365
32528,55855,32447
32512,55815,32415
32556,55861,32196
32692,55783,32407
32710,55837,32559
32619,55773,32479
32621,55836,32383
32618,55837,32619
32552,55855,32439
32616,55847,32511
32796,55853,32385
32856,55855,32460
32876,55869,32519
33024,55853,32525
32996,55845,32414
32940,55801,32592
33053,55839,32492
33086,55815,32228
32977,55852,32583
32940,55845,32501
32988,55855,32681
32984,55863,32516
32920,55775,32582
32977,55841,32481
32968,55845,32741
32793,55829,32583
32796,55836,32647
32846,55815,32607
32746,55839,32519
32769,55759,32655
32897,55815,32612
32884,55815,32621
32864,55815,32711
32997,55831,32679
33036,55813,32653
32960,55815,32717
32993,55799,32872
33052,55805,32698
32956,55797,32775
32924,55791,32690
33008,55759,32897
32992,55804,32752
32996,55815,32815
33124,55791,32709
33156,55789,32980
33064,55738,32804
33028,55770,32889
32969,55782,32805
32836,55781,32863
32806,55727,33012
32869,55771,32917
32856,55779,32880
32831,55777,32761
32940,55770,32590
32909,55767,32997
32770,55687,32982
32644,55745,32885
32400,55742,33156
32008,55751,33055
31654,55751,32992
31296,55743,32703
30732,55764,33083
30160,55724,33114
29818,55759,33095
29668,55751,33123
29612,55653,33052
29963,55726,33004
30468,55729,33017
30848,55643,33303
31362,55727,33167
32108,55734,32812
32652,55733,33179
33037,55711,33349
33601,55668,33199
34617,55715,33175
35996,55717,32935
37513,55713,33262
38989,55631,33253
40204,55700,33139
41156,55715,33415
41597,55714,33306
41528,55653,33281
41190,55714,33263
40737,55685,33332
40084,55645,33237
39132,55699,33473
38130,55687,33061
37092,55687,33336
35950,55711,33241
35008,55703,33508
34294,55687,33403
33786,55708,33210
33392,55687,33381
33172,55687,33382
32928,55687,33343
32672,55677,33412
32564,55671,33362
32476,55663,33476
32253,55668,33377
32148,55660,33399
32181,55687,33371
32112,55687,33543
32064,55687,33400
32120,55653,33221
32099,55597,33438
31986,55655,33330
31956,55639,33487
31916,55639,33458
31828,55636,33287
31802,55661,33543
