ECG,EDA,RR
32984,46437,35447
32905,46421,35335
32969,46439,35356
33020,46421,35415
32932,46424,35295
32872,46413,35335
32916,46410,35335
32917,46414,35260
32920,46367,35317
32942,46415,35235
32961,46415,35119
32948,46416,35385
33021,46429,35295
33056,46427,35207
32988,46415,35005
32977,46418,35233
33013,46406,35181
32940,46389,35119
32916,46407,35316
32948,46412,35127
32935,46421,35129
32890,46415,35151
32912,46343,34951
32920,46397,35239
32876,46397,35007
32858,46359,34647
32879,46398,35079
32820,46407,34915
32800,46399,35113
32820,46394,35157
32833,46383,35047
32814,46399,34959
32828,46356,34991
32858,46391,34995
32800,46379,34850
32836,46395,34821
32866,46393,34831
32808,46383,34959
32784,46371,35003
32797,46383,34883
32811,46380,34911
32815,46319,34892
32881,46383,34845
32985,46324,34839
33001,46383,34851
33056,46383,34994
33133,46381,34977
33088,46381,34935
33040,46389,34903
33058,46377,34729
33080,46383,34807
33092,46391,34789
33181,46375,34860
33249,46313,34909
33214,46375,34759
33209,46375,34378
33270,46374,34751
33225,46372,34721
33148,46378,34596
33117,46364,34812
33084,46372,34514
33020,46385,34251
33068,46361,34685
33088,46377,34761
33032,46383,34671
33069,46361,34285
33120,46343,34627
33090,46359,34631
33021,46372,34631
33052,46367,34536
33028,46341,34433
32998,46365,34647
33036,46292,34655
33085,46367,34519
33072,46357,34154
33093,46343,34516
33120,46367,34532
33068,46364,34378
33057,46356,34511
33096,46343,34575
33100,46364,34491
33072,46343,34113
33093,46343,34488
33117,46343,34405
33088,46358,34332
33056,46339,34588
33073,46277,34543
33012,46343,34485
32946,46343,34363
32957,46343,34199
32906,46343,33956
32800,46324,34367
32752,46339,34336
32560,46343,34352
32182,46343,34321
31849,46343,34197
31500,46300,34283
30949,46336,34427
30444,46343,34414
29999,46343,34307
29696,46319,34055
29660,46343,34255
29985,46343,34061
30600,46279,34276
31265,46331,34133
31956,46335,34204
32736,46340,34159
33334,46335,34150
33919,46300,34308
34564,46343,34148
35498,46343,33769
36697,46353,34156
37985,46339,34132
39306,46281,34118
40492,46327,34227
41516,46309,33826
42004,46311,34092
41848,46325,34213
41348,46333,33919
40780,46327,34071
40116,46327,33971
39306,46343,34131
38432,46330,34071
37596,46333,33917
36666,46338,34149
35716,46333,33679
34888,46336,33862
34152,46332,34029
33600,46279,33583
33256,46343,33999
32972,46341,34143
32700,46343,33829
32573,46343,34007
32496,46327,33839
32375,46333,34039
32280,46251,33981
32213,46335,34095
32116,46317,33524
32030,46330,33924
32029,46279,34061
32054,46327,33863
32050,46324,33807
32029,46327,34042
32044,46269,33535
31985,46255,33729
31972,46325,33966
31948,46303,33452
31921,46307,33761
31880,46311,33951
31924,46311,33973
31908,46317,33816
31874,46317,33469
31904,46309,33849
31994,46303,33684
31952,46305,33840
31976,46308,33917
31980,46297,33733
31940,46231,33823
31944,46305,33735
31981,46239,33639
31997,46293,33767
31988,46308,33846
32089,46303,33713
32104,46297,33772
32080,46301,33575
32057,46299,33831
32088,46291,33579
32073,46287,33701
32028,46223,33660
32076,46293,33703
32100,46293,33799
32092,46252,33702
32198,46279,33658
32248,46293,33669
32210,46223,33623
32212,46291,33550
32236,46277,33679
32194,46293,33554
32164,46287,33585
32228,46281,33579
32244,46295,33711
32192,46279,33245
32256,46283,33563
32297,46285,33551
32284,46251,33559
32288,46276,33533
32359,46279,33519
32324,46277,33553
32321,46279,33469
32350,46263,33439
32344,46279,33452
32364,46277,33383
32438,46279,33429
32501,46215,33269
32474,46279,33509
32497,46269,33327
32534,46223,33068
32480,46271,33355
32430,46269,33315
32484,46279,33223
32528,46275,33429
32531,46287,33223
32590,46276,33269
32588,46277,33185
32604,46271,33227
32636,46214,33263
32649,46257,33139
32596,46275,32761
32606,46272,33151
32670,46271,33116
32676,46277,33198
32677,46271,33167
32704,46263,33007
32744,46268,32628
32700,46271,33009
32728,46261,32998
32752,46215,32836
32705,46253,33060
32721,46263,32900
32805,46277,32597
32842,46261,32893
32837,46207,32805
32939,46269,32905
32990,46253,32871
32983,46267,32709
32980,46253,32709
33029,46255,32708
33014,46247,32676
33022,46260,32697
33100,46255,32602
33104,46249,32373
33124,46207,32587
33224,46253,32535
33304,46215,32450
33297,46247,32351
33324,46180,32391
33373,46245,32445
33332,46246,32407
33308,46188,32255
33368,46247,32373
33385,46255,32215
33400,46260,32451
33460,46231,32227
33501,46252,32247
33460,46245,32201
33476,46207,32073
33520,46244,32197
33471,46247,31913
33468,46183,32141
33508,46225,32087
33528,46247,32037
33536,46237,31985
33596,46243,32167
33607,46239,31996
33541,46249,31843
33517,46237,31967
33525,46231,31963
33422,46244,31921
33316,46239,31719
33300,46244,31957
33237,46247,31855
33136,46245,31767
33116,46253,31788
33088,46241,31806
32980,46183,31767
32905,46237,31681
32820,46231,31700
32728,46211,31805
32629,46245,31634
32598,46244,31297
32565,46249,31665
32484,46247,31527
32500,46175,31677
32516,46245,31583
32432,46244,31268
32396,46215,31575
32397,46233,31439
32308,46236,31375
32277,46241,31620
32320,46245,31423
32329,46231,31477
32288,46241,31389
32320,46241,31285
32393,46237,31319
32384,46215,31521
32372,46247,31321
32422,46215,31364
32384,46237,31347
32344,46239,31313
32412,46231,31413
32408,46245,31259
32389,46247,30981
32475,46229,31317
32524,46233,31116
32487,46245,31391
32497,46227,30964
32532,46215,31236
32513,46221,31361
32484,46247,31293
32536,46220,31172
32560,46231,31220
32520,46239,31171
32604,46223,31097
32640,46236,31285
32637,46189,30831
32615,46231,31145
32668,46223,31301
32609,46229,31105
32572,46187,30799
32632,46239,31129
32633,46215,31295
32620,46237,31099
32696,46181,30799
32752,46253,31079
32732,46223,31228
32749,46215,31152
32748,46223,30852
32660,46227,31122
32639,46173,31079
32696,46239,31192
32698,46243,30963
32652,46237,31079
32716,46239,31108
32756,46217,31085
32736,46171,31099
32725,46247,31072
32756,46215,30905
32737,46175,31207
32688,46239,31021
32729,46229,30706
32752,46215,31071
32716,46239,31020
32765,46223,31165
32817,46228,31005
32790,46227,30981
32789,46228,30863
32840,46229,31044
32756,46233,30951
32716,46215,31167
32749,46239,30836
32792,46237,31040
32786,46239,30906
32846,46229,31191
32892,46233,30736
32836,46226,31060
32821,46237,31202
32860,46213,31129
32832,46223,30829
32816,46231,31039
32840,46175,31148
32876,46239,30842
32834,46243,31011
32889,46231,31087
32948,46239,30796
32933,46227,31078
32920,46223,31196
32932,46155,30841
32900,46231,31041
32877,46229,31213
32944,46233,30727
32948,46156,31037
32920,46239,31159
33012,46231,31087
33033,46213,30727
32980,46228,31079
32948,46215,31001
32974,46222,31089
32920,46231,31071
32860,46202,31015
32905,46231,31010
32946,46223,31063
32927,46237,31041
32995,46239,31093
33033,46231,30933
32984,46167,31045
32992,46227,30855
33006,46215,31057
32972,46221,30802
32972,46187,30935
33021,46225,31061
32984,46231,31021
32964,46239,30837
33013,46195,31146
33061,46215,30753
33020,46234,31031
33012,46215,30869
33059,46195,31039
33008,46229,31019
33004,46210,30838
33016,46237,31085
33016,46191,30655
33009,46244,30981
33068,46220,31155
33086,46229,30761
33048,46235,31015
33057,46188,31090
33084,46223,31171
33016,46231,30969
32980,46237,31051
33005,46231,31039
33005,46244,30910
32976,46247,31151
33032,46239,30967
33100,46164,30707
33068,46229,31044
33084,46231,31211
33090,46231,30986
33037,46239,31088
33012,46231,31213
33056,46245,30966
33060,46183,31062
33032,46253,31023
33072,46236,31111
33092,46239,31191
33065,46245,31105
33082,46239,30957
33108,46237,31181
33062,46215,31111
32990,46211,30992
33024,46245,31098
33048,46231,31149
33048,46247,31263
33100,46247,31119
33160,46183,31167
33137,46245,31052
33092,46229,31111
33093,46245,31231
33020,46189,31132
32968,46253,31014
33008,46237,31133
33060,46244,31175
33038,46211,31019
33085,46261,31146
33144,46245,31183
33088,46247,31023
33064,46188,31236
33064,46251,31159
32999,46241,31173
32973,46245,31112
33020,46255,31291
33007,46247,30945
32996,46215,31202
33060,46237,31191
33116,46183,31148
33088,46237,31035
33065,46245,31255
33056,46247,31260
32996,46247,31153
32940,46239,31231
32927,46250,31202
32917,46209,31118
32876,46271,31340
32924,46253,31065
32960,46191,31263
32895,46263,31115
32906,46253,31391
32912,46205,31199
32860,46236,31263
32808,46257,31235
32860,46201,31349
32820,46261,31277
32797,46262,31285
32888,46263,31233
32919,46261,31429
32880,46255,31279
32868,46205,31307
32876,46261,31315
32834,46263,31286
32836,46271,31443
32896,46255,31287
32884,46211,31163
32908,46279,31334
33040,46279,31287
33124,46191,31396
33120,46271,31123
33140,46271,31367
33190,46269,31327
33132,46279,31503
33082,46275,31301
33156,46275,31028
33136,46276,31010
33149,46271,31371
33205,46255,31335
33233,46279,31483
33196,46277,31310
33160,46211,31404
33152,46255,31407
33058,46277,31289
33005,46211,31527
33036,46277,31329
33028,46287,31407
33012,46281,31437
33050,46263,31304
33092,46277,31567
33060,46247,31495
33068,46269,31380
33103,46274,31201
33066,46239,31471
33060,46279,31413
33122,46239,31293
33113,46276,31460
33082,46300,31521
33144,46287,31381
33166,46287,31123
33152,46255,31487
33162,46279,31433
33166,46279,31521
33081,46295,31523
33033,46285,31375
33060,46285,31504
33060,46303,31440
33036,46295,31623
33093,46295,31513
33088,46300,31189
33036,46292,31527
33012,46271,31517
33036,46295,31485
32957,46292,31623
32897,46253,31476
32856,46292,31535
32602,46309,31489
32254,46269,31655
31932,46303,31383
31520,46299,31567
30916,46255,31495
30375,46303,31502
29892,46229,31381
29578,46279,31652
29577,46305,31503
29952,46315,31589
30592,46319,31550
31252,46313,31579
32004,46261,31717
32869,46307,31543
33544,46311,31579
34193,46312,31591
34703,46305,31451
35472,46313,31717
36576,46319,31517
37944,46316,31634
39272,46304,31633
40492,46295,31741
41606,46308,31578
42172,46308,31653
42068,46308,31580
41648,46311,31653
40988,46303,31317
40209,46311,31684
39300,46291,31807
38368,46333,31321
37382,46327,31653
36396,46334,31857
35488,46293,31519
34711,46343,31716
34012,46340,31893
33514,46343,31684
33156,46316,31751
32836,46335,31725
32620,46343,31893
32529,46343,31519
32408,46365,31821
32325,46343,31711
32261,46300,31818
32204,46359,31931
32116,46363,31779
32068,46311,31861
32015,46363,31804
31918,46343,31807
31874,46321,31959
31934,46343,31971
31904,46371,31833
31860,46367,31925
31924,46367,31837
31964,46355,31917
31872,46333,31623
31852,46367,31897
31849,46343,32094
31801,46351,31901
31782,46341,31984
31840,46353,32066
31853,46372,31868
31842,46367,31954
31896,46337,32119
31948,46359,32023
31920,46375,31888
31950,46364,32120
31952,46341,31653
31896,46375,31946
31866,46295,32103
31934,46343,31988
31932,46377,32089
31932,46389,31919
31992,46375,32219
32024,46375,32018
31997,46311,32111
32012,46372,32211
32022,46365,32043
31998,46313,32125
31968,46375,32103
32040,46372,32037
32038,46329,32124
32029,46396,32140
32118,46375,32097
32150,46311,32124
32090,46380,32016
32104,46375,32271
32124,46307,32055
32072,46367,32157
32050,46388,32164
32104,46391,32148
32122,46375,32177
32128,46343,32100
32204,46375,32101
32240,46381,32190
32204,46389,32059
32236,46340,32141
32233,46391,32192
32213,46387,32020
32190,46389,32231
32273,46388,32189
32289,46329,32275
32263,46399,32125
32316,46388,32199
32352,46391,32121
32284,46375,32290
32287,46391,31801
32324,46383,32164
32266,46343,32263
32244,46398,32135
32292,46399,31789
32316,46343,32124
32316,46409,32251
32391,46407,32183
32436,46341,32127
32421,46411,32039
32398,46395,32127
32440,46399,32145
32432,46341,31959
32409,46413,32189
32444,46404,31708
32436,46343,32045
32418,46381,32117
32480,46407,31687
32532,46343,32057
32518,46415,31911
32536,46405,32099
32568,46361,31833
32524,46421,31989
32529,46405,31815
32581,46415,31959
32612,46397,31919
32581,46423,31751
32656,46421,32013
32678,46429,31708
32681,46420,31815
32712,46415,31975
32756,46428,31751
32730,46409,31813
32728,46425,31916
32816,46375,31575
32840,46421,31748
32840,46431,31829
32921,46428,31709
32966,46419,31652
32964,46423,31680
32997,46423,31677
33038,46421,31637
32993,46437,31575
32997,46431,31605
33088,46435,31661
33092,46445,31539
33088,46436,31590
33149,46441,31694
33215,46434,31527
33169,46445,31361
33157,46403,31532
33164,46439,31507
33137,46431,31615
33136,46447,31118
33174,46447,31479
33196,46452,31431
33181,46455,31391
33221,46445,31550
33200,46376,31033
33108,46452,31332
33040,46437,31453
32997,46436,31021
32917,46405,31229
32812,46455,31383
32796,46452,31333
32730,46463,31348
32656,46471,30943
32644,46467,31226
32604,46455,31325
32518,46461,31073
32454,46469,31111
32398,46453,31185
32331,46455,31224
32232,46407,31125
32240,46469,31153
32188,46461,31207
32148,46479,31263
32176,46471,30927
32189,46471,30991
32164,46463,31223
32168,46419,31003
32172,46447,31151
32118,46462,31091
32096,46431,31223
32124,46471,31038
32122,46479,31118
32113,46420,30943
32165,46484,31201
32181,46471,31163
32168,46422,31015
32164,46476,31065
32205,46471,30927
32177,46456,31123
32160,46479,31038
32228,46403,31013
32240,46487,31175
32209,46493,30959
32277,46484,31043
32293,46484,30853
32248,46485,31125
32293,46468,30741
32316,46485,31026
32277,46492,30871
32250,46485,31146
32304,46452,31005
32312,46492,30772
32334,46495,31025
32377,46430,30922
32401,46489,31004
32352,46487,30756
32340,46495,31016
32372,46489,30873
32329,46484,31020
32328,46493,30940
32372,46455,31029
32333,46501,31135
32352,46495,30708
32405,46493,30869
32413,46511,31053
32397,46503,31029
32405,46489,31167
32421,46495,30663
32404,46460,30849
32386,46511,30964
32453,46495,31051
32440,46511,30998
32420,46519,30959
32492,46493,31059
32520,46509,31168
32481,46487,30692
32508,46501,30932
32492,46493,31143
32432,46509,30692
32440,46519,31015
32500,46492,31207
32512,46441,30922
32491,46516,31084
32566,46501,31130
32592,46503,31093
32537,46507,31021
32537,46471,31012
32524,46508,31056
32472,46503,31135
32459,46517,31124
32516,46471,31076
32528,46509,31262
32501,46516,31055
32548,46519,31159
32576,46507,31196
32532,46517,31073
32528,46455,31154
32551,46508,31311
32500,46509,31123
32502,46455,31205
32560,46519,31023
32536,46508,31161
32544,46527,31211
32620,46471,31039
32654,46511,31329
32636,46471,30951
32612,46519,31183
32640,46495,31204
32574,46517,31248
32552,46469,31365
32596,46524,30904
32617,46516,31132
32620,46516,31281
32678,46533,31277
32724,46527,31357
32664,46501,31293
32704,46511,31321
32724,46511,31295
32700,46492,31399
32668,46527,31209
32712,46521,31298
32684,46493,31268
32710,46532,31415
32740,46524,31119
32760,46469,31327
32708,46531,31362
32705,46517,31021
32721,46517,31284
32669,46524,31439
32644,46532,31101
32708,46525,31330
32724,46527,31397
32706,46511,31437
32753,46525,31263
32768,46525,31379
32728,46471,31263
32748,46535,31367
32758,46519,31041
32688,46535,31230
32652,46479,31481
32708,46533,31063
32671,46534,31397
32692,46543,31583
32788,46539,31197
32804,46519,31427
32748,46532,31557
32793,46461,31148
32792,46516,31495
32717,46533,31363
32699,46495,31547
32732,46535,31528
32712,46527,31558
32712,46539,31364
32780,46490,31495
32825,46516,31487
32777,46529,31525
32812,46516,31649
32820,46527,31611
32757,46509,31735
32714,46517,31523
32793,46535,31639
32784,46541,31615
32768,46537,31719
32842,46540,31645
32842,46537,31550
32752,46542,31793
32766,46531,31703
32758,46530,31702
32708,46471,31364
32684,46468,31765
32741,46519,31351
32732,46543,31604
32716,46539,31751
32768,46541,31780
32790,46519,31867
32758,46539,31401
32740,46537,31703
32741,46529,31829
32670,46543,31823
32687,46501,31948
32773,46537,31601
32761,46537,31675
32749,46541,31835
32812,46487,31858
32820,46547,31983
32792,46527,31633
32788,46535,31769
32806,46469,31871
32736,46531,31917
32708,46524,31988
32760,46535,31780
32757,46543,31879
32734,46511,31983
32801,46501,31970
32848,46545,31865
32800,46535,31905
32836,46527,31983
32836,46516,32052
32790,46527,31964
32762,46523,32025
32809,46543,31900
32792,46541,32094
32781,46548,31669
32821,46516,32023
32814,46541,32053
32785,46537,32015
32800,46535,32047
32820,46525,32101
32740,46537,32252
32724,46532,32123
32764,46543,31967
32776,46548,32077
32743,46543,32143
32789,46541,32263
32809,46533,31787
32772,46462,32023
32781,46527,32263
32804,46527,32103
32732,46524,32116
32700,46533,31853
32732,46529,32339
32706,46536,31911
32677,46539,32161
32720,46487,32295
32729,46533,32263
32632,46527,32167
32664,46519,32399
32668,46533,32004
32621,46460,32153
32589,46487,32262
32648,46535,32287
32621,46524,32452
32576,46519,32449
32661,46538,32175
32692,46539,32375
32653,46495,32255
32676,46535,32383
32714,46519,32415
32620,46535,32329
32616,46527,32395
32676,46533,32433
32658,46527,32293
32704,46539,32405
32830,46529,32459
32905,46471,32564
32910,46543,32187
32936,46508,32436
32924,46519,32583
32864,46521,32493
32860,46525,32563
32908,46458,32452
32900,46503,32479
32916,46537,32665
32958,46527,32159
32968,46525,32505
32924,46527,32467
32908,46492,32549
32877,46527,32575
32821,46519,32564
32800,46525,32335
32820,46516,32420
32796,46527,32619
32805,46463,32582
32870,46527,32596
32901,46529,32709
32871,46447,32558
32884,46503,32624
32869,46511,32625
32828,46463,32801
32825,46533,32405
32872,46527,32655
32876,46516,32797
32854,46521,32388
32908,46487,32709
32916,46520,32561
32833,46525,32673
32824,46515,32711
32864,46509,32837
32829,46511,32396
32806,46453,32773
32816,46533,32614
32814,46531,32855
32817,46527,32583
32892,46503,32388
32868,46517,32815
32812,46511,32645
32796,46511,32887
32792,46493,32516
32765,46508,32795
32720,46471,32970
32663,46511,32829
32450,46519,32509
32124,46519,32855
31828,46509,32968
31436,46511,32837
30828,46519,32909
30304,46450,32812
29781,46511,33053
29400,46525,32869
29356,46460,32951
29656,46453,33031
30241,46529,32623
30904,46516,32969
31676,46466,32815
32546,46513,33009
33248,46511,32975
33958,46511,32861
34452,46511,32935
35104,46517,32919
36140,46451,33063
37504,46517,33025
38796,46511,33159
40040,46503,33031
41287,46493,33159
42012,46495,33028
41952,46493,33145
41580,46508,32967
40988,46459,32956
40204,46503,33152
39344,46504,33127
38412,46503,33261
37392,46511,32751
36384,46517,33172
35492,46511,33051
34640,46455,33162
33876,46519,33126
33412,46503,33213
33048,46509,33223
32669,46453,33254
32508,46470,33221
32388,46519,33375
32276,46511,32900
32168,46519,33223
32148,46457,33294
32081,46527,33255
31948,46511,33180
31890,46501,33244
31854,46487,33301
31768,46455,33263
31732,46511,33175
31760,46511,33189
31724,46493,33301
31712,46503,33316
31800,46495,33420
31816,46460,33391
31738,46476,33379
31757,46427,33340
31764,46431,33300
31702,46471,33301
31695,46486,33431
31744,46495,33203
31742,46470,33311
31710,46503,33219
31772,46500,33535
31804,46493,33481
31780,46479,33624
31783,46487,33513
31812,46479,33509
31773,46492,33353
31781,46484,33271
31856,46431,33493
31824,46495,33135
31844,46487,33572
31920,46468,33541
31950,46471,33567
31890,46477,33426
31909,46436,33423
31952,46485,33431
31920,46471,33517
31906,46471,33627
31968,46471,33572
31968,46493,33727
32000,46485,33615
32068,46471,33701
32073,46471,33604
32041,46415,33729
32073,46469,33218
32084,46460,33530
32076,46471,33565
32064,46487,33607
32124,46461,33707
32136,46462,33643
32113,46444,33773
32172,46445,33617
32200,46469,33575
32148,46463,33586
32172,46469,33644
32176,46404,33743
32132,46463,33223
32129,46465,33541
32189,46459,33721
32180,46468,33644
32193,46461,33604
32252,46463,33574
32287,46463,33647
32221,46415,33482
32240,46444,33743
32240,46455,33543
32204,46397,33527
32181,46463,33615
32229,46451,33588
32248,46447,33597
32233,46457,33590
32320,46390,33633
32368,46447,33187
32373,46459,33500
32361,46439,33473
32374,46439,33385
32332,46437,33444
32308,46452,33439
32372,46399,33439
32386,46463,33456
32400,46460,33413
32473,46439,33413
32504,46439,33509
32456,46439,33403
32488,46381,33501
32528,46425,33364
32468,46439,33334
32468,46439,33287
32532,46433,33260
32552,46439,33198
32583,46451,33192
32673,46438,33191
32698,46425,33269
32692,46433,33191
32736,46359,33089
32737,46407,33127
32704,46423,32961
32712,46425,33045
32800,46431,33053
32772,46409,33148
32788,46431,33017
32892,46421,33121
32920,46415,32980
32913,46413,32999
32948,46384,32892
32964,46421,32758
32944,46407,32519
32949,46415,32890
33021,46428,32799
33017,46431,32828
33033,46413,32955
33108,46416,32801
33153,46343,32861
33092,46417,32535
33120,46389,32600
33157,46399,32641
33136,46407,32654
33132,46415,32725
33168,46412,32653
33128,46383,32752
33132,46407,32291
33191,46405,32423
33182,46406,32159
33060,46399,32479
33021,46407,32449
33006,46405,32415
32912,46403,32427
32820,46343,32472
32836,46415,32462
32769,46403,32346
32702,46407,32411
32720,46335,32515
32644,46373,31965
32521,46399,32276
32449,46397,32439
32384,46391,32205
32317,46407,32292
32266,46343,32419
32316,46406,32031
32272,46407,32237
32236,46403,32303
32258,46399,32095
32153,46329,32164
32048,46399,32255
32040,46399,32175
32040,46397,32135
31996,46399,31947
32008,46388,32163
32095,46391,31725
32068,46327,31925
32085,46396,32074
32153,46343,32195
32168,46381,32029
32122,46383,32015
32161,46379,31929
32212,46383,31994
32175,46375,32045
32137,46375,31783
32161,46317,31783
32168,46389,31892
32192,46381,31855
32232,46379,31965
32252,46383,31925
32236,46372,32037
32270,46359,31903
32294,46369,32017
32265,46309,31876
32286,46381,31957
32356,46365,31493
32324,46373,31975
32324,46373,31809
32388,46374,31547
32428,46367,31804
32381,46343,31507
32417,46361,31783
32405,46343,31670
32364,46357,31612
32326,46364,31631
32397,46343,31712
32406,46366,31759
32405,46361,31737
32436,46359,31840
32433,46361,31723
32340,46327,31796
32302,46363,31711
32281,46343,31673
32228,46343,31466
32268,46357,31579
32360,46365,31616
32382,46303,31545
32458,46361,31581
32580,46365,31486
32581,46343,31565
32547,46343,31503
32550,46343,31463
32550,46269,31491
32472,46343,31615
32448,46333,31630
32510,46343,31623
32492,46343,31606
32456,46343,31575
32512,46309,31557
32512,46363,31652
32428,46357,31581
32446,46343,31549
32453,46327,31503
32405,46343,31635
32358,46343,31724
32421,46327,31629
32468,46343,31716
32452,46343,31506
32482,46319,31613
32509,46329,31560
32519,46329,31552
32544,46335,31700
32548,46263,31641
32523,46335,31518
32520,46335,31436
32585,46324,31567
32584,46333,31591
32566,46329,31627
32576,46333,31741
32600,46309,31663
32529,46331,31668
32516,46325,31612
32564,46253,31658
32508,46321,31774
32485,46319,31303
32536,46327,31527
32497,46335,31798
32484,46327,31654
32568,46319,31559
32585,46319,31671
32512,46295,31713
32524,46311,31814
32560,46300,31615
32548,46316,31671
32546,46301,31797
32612,46311,31719
32591,46309,31550
32616,46311,31725
32644,46271,31743
32664,46311,31811
32617,46284,31601
32644,46292,31702
32660,46293,31777
32626,46302,31751
32609,46241,31783
32672,46305,31684
32701,46300,31767
32708,46311,31857
32821,46255,31743
32844,46262,31895
32780,46307,31775
32756,46279,31689
32781,46287,31711
32674,46292,31786
32592,46292,31887
32624,46273,31797
32639,46279,31909
32657,46289,31463
32748,46295,31805
32840,46289,31469
32757,46278,31679
32752,46215,31827
32772,46271,31859
32710,46291,31997
32626,46287,31887
32642,46291,31973
32620,46279,31513
32644,46276,31751
32734,46276,31871
32765,46279,31909
32708,46271,31870
32704,46265,31931
32724,46260,31963
32677,46271,31965
32660,46209,31707
32726,46269,31929
32724,46279,31867
32718,46271,31827
32712,46277,32005
32698,46269,32015
32657,46231,32047
32676,46268,31941
32677,46252,32061
32653,46260,32053
32668,46197,32179
32765,46260,32045
32813,46257,32014
32836,46259,32031
32916,46247,32073
32936,46261,32052
32832,46255,31995
32776,46239,31993
32708,46247,32078
32630,46242,32185
32568,46253,32057
32614,46249,32191
32652,46251,32068
32640,46183,32161
32732,46196,31662
32740,46254,32030
32748,46255,32004
32764,46237,32055
32768,46247,32163
32744,46179,32076
32700,46229,32070
32706,46251,32003
32679,46231,32051
32620,46253,32159
32668,46239,32081
32712,46175,32050
32688,46243,32085
32676,46239,32071
32706,46231,32093
32656,46223,32105
32593,46225,32231
32664,46229,32143
32644,46231,32207
32630,46243,32165
32664,46229,32230
32718,46205,31799
32708,46231,32104
32756,46223,32201
32804,46215,32197
32776,46215,32172
32762,46215,32145
32802,46215,32176
32805,46181,32064
32800,46172,31891
32805,46215,32361
32756,46228,32277
32696,46212,32423
32688,46215,32302
32657,46212,32379
32604,46215,32263
32592,46215,32314
32644,46215,32465
32592,46215,31941
32608,46221,32199
32716,46214,32255
32794,46207,32207
32793,46204,32285
32856,46205,32239
32834,46148,32343
32746,46212,32319
32701,46201,32516
32708,46215,32431
32672,46179,32525
32628,46215,32415
32680,46215,32357
32752,46213,32551
32740,46215,32469
32768,46203,32412
32776,46191,32433
32720,46199,32501
32628,46201,32519
32648,46197,32500
32620,46207,32629
32600,46215,32509
32684,46211,32628
32712,46199,32535
32697,46189,32569
32736,46183,32510
32700,46181,32263
32581,46191,32669
32456,46189,32546
32448,46197,32492
32428,46199,32391
32460,46204,32335
32559,46196,32566
32624,46125,32387
32576,46159,32627
32596,46183,32596
32669,46181,32723
32576,46163,32583
32498,46183,32687
32549,46175,32601
32549,46188,32692
32529,46191,32585
32606,46188,32537
32693,46180,32614
32724,46177,32615
32729,46147,32640
32764,46111,32583
32756,46181,32758
32777,46179,32629
32839,46158,32719
32860,46173,32612
32837,46161,32747
32876,46151,32421
32933,46137,32711
32916,46173,32430
32952,46152,32597
33025,46087,32669
32976,46159,32619
32892,46159,32585
32889,46159,32581
32884,46087,32607
32820,46148,32692
32812,46162,32623
32796,46151,32742
32696,46141,32615
32688,46152,32644
32676,46143,32550
32640,46109,32588
32648,46111,32565
32777,46157,32543
32916,46151,32559
32932,46144,32585
32988,46142,32511
33010,46143,32519
32973,46109,32458
32916,46073,32586
32909,46143,32707
32864,46134,32543
32821,46133,32691
32789,46135,32559
32740,46151,32449
32710,46149,32497
32760,46139,32513
32824,46134,32615
32817,46143,32561
32820,46131,32628
32848,46127,32575
32773,46130,32709
32713,46071,32550
32724,46139,32532
32742,46141,32182
32736,46143,32645
32760,46135,32559
32767,46123,32684
32704,46127,32559
32620,46124,32530
32472,46121,32537
32164,46111,32529
31804,46056,32401
31464,46129,32486
30960,46141,32364
30404,46132,32471
29932,46132,32519
29596,46055,32645
29448,46143,32111
29590,46117,32595
30112,46125,32512
30744,46079,32648
31360,46127,32495
32120,46124,32573
32856,46133,32423
33500,46087,32399
34079,46087,32399
34817,46109,32610
35845,46119,32484
37092,46116,32422
38368,46103,32405
39596,46103,32450
40728,46087,32585
41520,46087,32397
41617,46087,32095
41239,46111,32550
40711,46103,32451
40005,46095,32439
39193,46109,32263
38296,46115,32365
37433,46101,32283
36548,46055,32324
35670,46127,32352
34841,46111,32247
34117,46117,32559
33472,46119,32403
33044,46119,32101
32776,46111,32553
32582,46104,32271
32429,46103,32159
32301,46105,32308
32081,46087,32349
31940,46116,32239
31892,46087,32381
31845,46087,32323
31828,46111,32315
31862,46051,32228
31909,46054,32092
31920,46111,32364
31932,46087,32020
31969,46087,32225
31874,46087,32045
31751,46087,32546
31727,46031,32421
31726,46071,32563
31708,46087,32429
31774,46087,32471
31838,46087,32389
31864,46087,32355
31833,46087,32308
31820,46071,32442
31733,46071,32263
31640,46056,32428
31680,46085,32455
31724,46075,32547
31764,46087,32453
31805,46027,32519
31856,46083,32438
31861,46063,32399
31864,46069,32421
31908,46005,32085
31852,46063,32609
31813,46059,32457
31840,46061,32480
31854,46065,32349
31780,46066,32433
31826,45988,32601
31920,46012,32441
31904,46037,32427
31858,46067,32423
31908,46048,32467
31881,46053,32439
31852,46053,32533
31936,45988,32412
31984,46053,32417
31968,46061,32311
31988,46059,32074
32008,46045,32326
31968,46053,32487
31944,46039,32427
31992,46015,32567
31964,46039,32417
31980,46047,32509
32070,46047,32427
32148,46045,32519
32172,46055,32428
32217,45989,32401
32257,45991,32263
32288,46023,32343
32352,46032,32312
32380,46039,32100
32293,46037,32418
32216,46039,32391
32198,46043,32552
32220,46027,32404
32172,45967,32333
32190,46004,32357
32272,45973,32055
32284,45959,32559
32316,46023,32375
32453,45959,32404
32456,46013,32385
32373,46028,32358
32369,46035,32237
32416,46031,32133
32372,46031,32244
32400,46027,32396
32484,46020,32509
32488,46021,32359
32453,46015,32397
32474,46020,32357
32449,46023,32467
32420,46017,32373
32472,46012,32529
32528,46021,32389
32538,46021,32533
32568,46018,32386
32620,45999,32512
32628,45985,32388
32632,46015,32503
32644,46007,32357
32584,45999,32380
32512,46021,31997
32598,46007,32494
32684,45947,32381
32705,46020,32466
32800,46015,32349
32900,45997,32437
32924,45999,32373
32942,45949,32373
32986,45991,32013
32936,45997,32489
32941,45985,32361
33013,45999,32465
33024,46003,32339
32996,46005,32377
33044,46005,32242
33140,45991,32023
33129,45924,32519
33104,45927,32380
33183,45932,32358
33144,45993,32355
33120,45985,32396
33132,45989,32288
33124,45979,32230
33088,45980,32487
33185,45991,32055
33316,45975,32519
33340,45985,32453
33320,45989,32445
33364,45912,32420
33352,45941,32459
33293,45987,32405
33296,45975,32431
33268,45973,32420
33192,45975,32445
33194,45983,32500
33180,45957,32583
33048,45943,32519
32889,45980,32676
32748,45972,32548
32625,45959,32622
32544,45967,32573
32516,45970,32565
32544,45973,32441
32509,45971,32411
32500,45975,32462
32477,45967,32320
32316,45959,32740
32186,45959,32661
32181,45956,32650
32103,45933,32333
32064,45959,32647
32052,45959,32788
32056,45959,32679
31981,45975,32807
31944,45900,32763
31892,45972,32884
31865,45957,32759
31877,45959,32927
32040,45956,32843
32108,45959,32833
32114,45951,32751
32164,45959,32683
32177,45943,32775
32097,45959,32971
32104,45951,32911
32136,45951,32957
32116,45951,32957
32065,45949,32801
32113,45946,33011
32084,45943,33038
32104,45951,33238
32144,45941,33093
32164,45889,33119
32128,45941,33119
32120,45959,33167
32149,45938,33159
32100,45937,33181
32045,45930,33135
32100,45941,33229
32158,45871,33211
32184,45940,33277
32308,45947,33251
32388,45941,33389
32377,45941,33414
32372,45941,33532
32396,45884,33436
32380,45911,33543
32340,45932,33451
32404,45925,33466
32364,45927,33479
32280,45927,33500
32224,45927,33607
32246,45923,33607
32204,45935,33769
32252,45933,33647
32340,45925,33775
32364,45921,33697
32352,45860,33813
32460,45895,33719
32448,45903,33761
32389,45927,33661
32408,45926,33740
32423,45919,33661
32372,45923,33695
32376,45922,33780
32444,45919,33487
32437,45916,34036
32404,45903,33908
32480,45901,34037
32489,45904,33591
32512,45899,33812
32582,45911,33927
32572,45919,33965
32526,45869,33990
32508,45927,33999
32500,45917,34097
32484,45907,34099
32436,45901,34219
32496,45831,33711
32574,45844,34301
32572,45885,34139
32600,45903,34015
32628,45893,34133
32550,45911,34151
32565,45863,34252
32624,45891,34159
32608,45905,34214
32584,45901,34132
32568,45903,34124
32505,45895,34197
32477,45893,34251
32496,45903,34236
32519,45893,34023
32493,45901,34185
32592,45863,34327
32680,45907,34211
32692,45893,34343
32628,45900,34357
32640,45879,34129
32608,45895,34293
32529,45881,34399
32548,45894,34439
32524,45901,34609
32500,45895,34444
32528,45891,34589
32646,45879,34511
32724,45881,34637
32740,45831,34514
32780,45831,34621
32737,45887,34503
32740,45871,34511
32758,45878,34510
32774,45887,34495
32724,45877,34516
32724,45863,34500
32769,45885,34501
32734,45883,34541
32668,45863,34372
32686,45869,34731
32684,45869,34589
32641,45831,34703
32660,45839,34626
32724,45868,34775
32696,45887,34661
32741,45869,34789
32753,45875,34643
32709,45869,34637
32668,45813,34523
32712,45863,34515
32720,45861,34612
32644,45863,34621
32664,45863,34795
32704,45831,34695
32647,45863,34599
32687,45863,34701
32772,45859,34687
32772,45797,34821
32712,45789,34695
32745,45791,34677
32756,45853,34583
32640,45861,34669
32620,45847,34705
32704,45855,34771
32697,45863,34695
32729,45847,34834
32780,45788,34719
32744,45848,34773
32685,45857,34723
32700,45831,34865
32705,45847,34276
32660,45853,34567
32690,45848,34310
32736,45842,34784
32720,45855,34717
32704,45852,34829
32741,45843,34700
32741,45815,34814
32700,45831,34693
32716,45831,34597
32700,45828,34572
32620,45831,34581
32612,45777,34577
32652,45819,34537
32628,45849,34732
32662,45831,34612
32744,45831,34709
32732,45831,34619
32692,45794,34645
32718,45777,34503
32708,45831,34543
32688,45831,34556
32679,45831,34695
32725,45825,34519
32684,45831,34386
32697,45831,34599
32737,45831,34513
32710,45829,34612
32636,45830,34443
32646,45821,34543
32661,45827,34143
32614,45817,34292
32630,45831,34423
32687,45757,34372
32684,45815,34417
32640,45804,34300
32640,45831,34109
32628,45831,34375
32588,45829,34277
32636,45807,34191
32645,45823,34044
32561,45793,34133
32588,45823,34150
32644,45824,34151
32623,45815,34261
32615,45828,34148
32705,45813,34213
32696,45796,34107
32617,45823,34067
32608,45799,34028
32629,45804,34015
32629,45813,33969
32658,45819,33915
32730,45807,33853
32736,45829,33532
32784,45810,33895
32840,45812,33479
32876,45805,33957
32865,45791,33839
32908,45804,33881
32888,45796,33753
32811,45807,33880
32808,45807,33709
32826,45740,33711
32792,45775,33620
32768,45823,33487
32776,45815,33708
32720,45812,33585
32636,45799,33641
32708,45791,33525
32756,45796,33607
32740,45797,33453
32792,45799,33518
32888,45807,33393
32868,45743,33405
32883,45739,33287
32920,45783,33240
32921,45772,33399
32860,45799,33219
32849,45785,33243
32816,45791,32911
32775,45793,33215
32804,45791,33071
32829,45791,33095
32800,45797,33004
32816,45797,33115
32885,45799,32902
32857,45791,32983
32808,45775,32529
32817,45783,32785
32792,45773,32447
32710,45783,32631
32702,45799,32719
32736,45781,32647
32724,45767,32775
32740,45788,32549
32788,45791,32563
32728,45789,32639
32622,45783,32501
32613,45779,32511
32480,45791,32415
32148,45777,32375
31845,45732,32343
31504,45779,32452
31005,45791,31879
30482,45789,32143
30028,45781,32070
29564,45727,32012
29257,45791,32159
29376,45789,32097
29757,45771,31879
30276,45781,31868
30928,45791,31801
31668,45785,31893
32344,45727,31893
33044,45765,31829
33744,45791,31815
34532,45781,31887
35620,45773,31767
36932,45777,31812
38151,45749,31660
39386,45749,31621
40596,45764,31233
41516,45759,31485
41756,45763,31293
41448,45775,31471
40941,45767,31583
40340,45767,31469
39623,45731,31526
38852,45757,31394
37940,45767,31350
37032,45780,31183
36116,45791,31152
35256,45765,31194
34416,45780,31262
33729,45793,31204
33319,45781,31287
32932,45776,31127
32616,45775,31213
32460,45767,31069
32364,45781,31122
32208,45741,30983
32084,45775,31015
32024,45771,30594
31904,45775,30767
31860,45779,30637
31885,45748,30693
31864,45759,30783
31792,45774,30773
31788,45781,30819
31776,45745,30771
31701,45767,30737
31655,45759,30601
31726,45725,30695
31692,45758,30617
31700,45773,30567
31778,45691,30579
31815,45767,30613
31767,45751,30594
31784,45759,30687
31768,45757,30548
31725,45755,30471
31698,45741,30479
31732,45765,30439
31788,45693,30357
31828,45756,30375
31928,45755,30052
31920,45757,30361
31820,45759,30325
31833,45757,30255
31824,45755,30281
31788,45749,30396
31809,45749,29975
31852,45743,30180
31829,45749,30321
31831,45703,30103
31948,45743,30146
31980,45751,29953
31921,45685,30064
31932,45743,30053
32004,45725,30188
31952,45743,29719
31916,45703,29853
31972,45749,29983
31956,45743,29605
31972,45693,29828
32045,45741,30004
32090,45739,29797
32066,45735,29873
32092,45732,29665
32068,45727,29940
32038,45743,29807
32020,45735,29719
32044,45719,29683
32054,45741,29738
32088,45735,29594
32160,45693,29684
32196,45735,29589
32137,45735,29543
32144,45733,29605
32160,45684,29737
32113,45731,29557
32140,45733,29493
32228,45693,29389
32229,45735,29443
32269,45730,29463
32349,45725,29424
32372,45727,29522
32340,45735,29396
32328,45725,29460
32318,45649,28989
32292,45717,29184
32284,45725,29233
32345,45691,29234
32348,45721,29201
32324,45727,29185
32452,45719,29209
32500,45694,29172
32473,45711,29171
32472,45719,29140
32484,45716,29215
32441,45716,28999
32413,45719,28941
32466,45703,29047
32492,45716,29013
32510,45719,28849
32604,45661,29015
32652,45703,28961
32638,45711,28943
32667,45637,28570
32676,45709,28744
32648,45703,28711
32632,45697,28838
32720,45702,28801
32737,45649,28755
32776,45703,28733
32865,45703,28903
32912,45695,28743
32900,45703,28556
32926,45652,28619
32976,45695,28521
32949,45695,28389
32932,45687,28781
33013,45645,28647
33060,45669,28764
33052,45708,28621
33124,45693,28685
33156,45695,28599
33157,45641,28692
33148,45703,28563
33192,45671,28569
33140,45699,28533
33132,45669,28675
33209,45694,28513
33236,45693,28360
33220,45692,28423
33308,45695,28492
33341,45690,28509
33308,45685,28457
33304,45679,28399
33364,45639,28347
33300,45692,28371
33250,45684,28441
33293,45685,28373
33260,45691,28293
33236,45665,28295
33240,45685,28380
33214,45691,28127
33102,45687,28560
33013,45635,28419
32960,45671,28583
32836,45678,28437
32728,45679,28343
32716,45685,28253
32652,45679,28321
32553,45633,28292
32564,45685,28345
32520,45679,28271
32400,45679,28178
32360,45687,28265
32344,45677,28105
32260,45685,28257
32208,45685,28175
32233,45679,28263
32193,45681,28343
32136,45631,28375
32180,45695,28332
32188,45687,28423
32156,45669,28133
32180,45671,28271
32173,45607,28421
32112,45652,28417
32097,45687,28373
32129,45677,28309
32159,45679,28367
32164,45679,28273
32244,45679,28356
32281,45679,28565
32252,45671,28183
32270,45669,28560
32294,45671,28503
32281,45615,28635
32239,45623,28460
32302,45671,28295
32305,45677,28523
32284,45671,28575
32365,45671,28649
32416,45679,28575
32380,45607,28631
32390,45667,28629
32440,45663,28767
32392,45659,28655
32373,45668,28783
32422,45639,28355
32432,45659,28767
32439,45671,28710
32540,45655,28630
32597,45663,28573
32520,45663,28527
32500,45653,28801
32512,45655,28572
32476,45591,28695
32424,45663,28604
32480,45661,28934
32504,45671,28828
32505,45663,28935
32578,45663,28799
32637,45663,28805
32596,45613,28717
32592,45663,28581
32620,45647,28903
32564,45653,28928
32542,45655,29013
32581,45597,28622
32609,45641,29111
32564,45647,29018
32628,45657,29107
32660,45649,29051
32624,45646,29043
32621,45636,28951
32638,45639,28777
32568,45653,29028
32544,45575,28769
32604,45615,29271
32648,45615,29165
32663,45663,29289
32688,45655,29191
32748,45650,29327
32712,45647,29221
32690,45650,29373
32708,45575,29215
32684,45652,29095
32644,45647,29047
32710,45635,29351
32712,45645,29314
32684,45642,29371
32740,45651,29173
32766,45636,29243
32754,45643,29215
32736,45575,29285
32780,45573,29467
32724,45631,29110
32672,45645,29597
32684,45629,29109
32705,45639,29300
32706,45629,29423
32799,45636,29489
32804,45633,29469
32733,45639,29509
32744,45557,29517
32760,45637,29521
32700,45623,29628
32688,45621,29604
32724,45637,29620
32716,45628,29615
32716,45575,29580
32804,45627,29447
32839,45636,29429
32784,45620,29493
32784,45615,29523
32804,45623,29625
32740,45621,29685
32741,45629,29650
32805,45631,29645
32832,45629,29409
32800,45575,29825
32848,45631,29417
32884,45625,29871
32853,45619,29742
32840,45631,29907
32848,45599,29693
32800,45557,29609
32783,45629,29761
32853,45623,29801
32880,45631,29959
32864,45617,29836
32910,45623,29863
32940,45559,29804
32880,45623,29772
32872,45631,29910
32916,45597,29887
32892,45607,29956
32813,45550,29924
32841,45623,30010
32858,45606,29947
32812,45618,30052
32880,45548,29959
32940,45611,29903
32889,45629,30087
32879,45599,29679
32876,45607,30165
32846,45604,30035
32801,45613,29957
32832,45543,30028
32855,45615,29839
32832,45604,30033
32900,45604,29908
32973,45575,30029
32962,45595,30153
32902,45557,30152
32900,45605,30335
32852,45601,30161
32823,45599,30343
32856,45607,30234
32881,45621,30293
32836,45613,30084
32888,45613,30273
32940,45559,30309
32908,45607,30372
32869,45593,30271
32902,45591,30263
32860,45599,30372
32824,45607,30373
32877,45595,30152
32932,45599,30237
32918,45605,30359
32948,45575,30329
32972,45599,30444
32948,45605,30441
32920,45543,30455
32958,45575,30412
32881,45591,30511
32848,45589,30548
32895,45599,30701
32914,45562,30582
32889,45607,30676
32953,45588,30630
32988,45595,30765
32944,45596,30441
32926,45575,30607
32936,45575,30835
32934,45597,30711
32874,45575,30817
32912,45597,30477
32949,45597,30670
32924,45591,30857
32940,45559,30727
32982,45572,30839
32943,45583,30933
32928,45563,30615
32928,45575,30861
32876,45558,30996
32801,45575,30653
32808,45537,30868
32816,45543,30928
32784,45559,30863
32821,45555,30814
32856,45597,30816
32828,45575,30738
32800,45575,30869
32808,45575,31036
32753,45549,31063
32697,45588,31223
32688,45575,30759
32736,45575,30959
32708,45591,31165
32768,45575,30781
32828,45559,31109
32781,45575,31116
32801,45572,31177
32809,45573,31269
32734,45551,31239
32672,45575,31348
32758,45572,30930
32853,45575,31220
32894,45559,31335
32993,45575,31303
33092,45575,31337
33092,45531,31232
33069,45565,31367
33084,45571,31519
33044,45523,31012
33012,45575,31428
33057,45532,31259
33084,45573,31551
33060,45574,31119
33113,45511,31404
33148,45567,31555
33096,45567,31541
33024,45556,31683
33016,45493,31407
32962,45551,31589
32917,45503,31500
32957,45565,31567
32956,45556,31509
32924,45559,31604
33004,45558,31691
33068,45511,31738
33039,45565,31631
33008,45557,31569
33033,45559,31687
32985,45545,31630
32944,45549,31812
32961,45557,31821
32988,45556,31919
32952,45567,31778
33008,45550,31868
33069,45558,31921
33017,45556,31551
32964,45509,31736
33012,45546,31925
32984,45543,31941
32916,45547,31911
32924,45549,31943
32962,45556,32031
32876,45525,31969
32905,45559,31909
32957,45549,32161
32908,45550,32063
32862,45485,32200
32853,45503,32075
32797,45541,32223
32655,45556,32115
32453,45549,32127
32136,45543,31822
31774,45549,32135
31414,45559,32117
30964,45551,32199
30357,45485,31781
29798,45559,32197
29516,45549,31939
29433,45545,32116
29644,45557,32189
30265,45553,32237
30973,45529,32302
31601,45567,32017
32452,45540,32172
33236,45549,32269
33852,45519,32273
34308,45514,32413
35061,45539,32308
36134,45537,32385
37520,45503,32324
38936,45537,32335
40252,45531,32483
41376,45528,32361
42081,45514,32350
42132,45525,32211
41716,45531,32276
41092,45501,32247
40349,45529,32039
39416,45537,32508
38400,45543,32410
37400,45493,32602
36456,45548,32448
35480,45573,32424
34660,45563,32597
34036,45550,32519
33500,45549,32470
33085,45548,32423
32812,45547,32263
32580,45511,32391
32397,45551,32493
32308,45544,32398
32232,45540,32519
32080,45543,32546
31996,45551,32687
31989,45554,32551
31949,45549,32641
31877,45541,32625
31872,45539,32529
31832,45487,32609
31748,45550,32631
31756,45549,32759
31744,45541,32705
31712,45534,32831
31732,45545,32697
31781,45536,32831
31744,45473,32703
31734,45539,32756
31768,45537,32643
31733,45524,32611
31668,45535,32703
31685,45535,32725
31722,45524,32813
31709,45545,32754
31769,45533,32895
31813,45527,32794
31828,45535,32764
31824,45495,32809
31849,45523,32845
31828,45523,32821
31767,45518,32791
31816,45523,32703
31856,45526,32841
31852,45481,32865
31905,45543,32983
31960,45515,32501
31983,45523,32853
31932,45495,33009
31977,45516,32879
31940,45516,33007
31904,45519,32885
31962,45511,32996
31944,45533,32765
31928,45519,32791
32004,45526,32871
32060,45457,32844
32032,45525,32699
32004,45519,32873
32072,45517,32884
32036,45473,33029
31987,45505,32871
32006,45511,32991
32044,45520,32849
32032,45460,32854
32102,45525,32839
32162,45511,32895
32160,45447,32745
32128,45506,32877
32156,45501,32877
32132,45463,33028
32098,45505,32836
32168,45515,32839
32232,45516,32909
32176,45447,32879
32228,45516,32996
32277,45517,32829
32265,45503,32690
32247,45511,32813
32273,45455,32841
32280,45487,32959
32196,45509,32621
32232,45503,32648
32268,45471,32423
32260,45519,32823
32304,45503,32390
32397,45497,32682
32380,45511,32663
32361,45428,32717
32388,45495,32869
32348,45501,32745
32305,45499,32789
32348,45507,32666
32392,45495,32679
32420,45511,32786
32484,45463,32668
32536,45501,32503
32530,45485,32679
32528,45491,32637
32562,45429,32751
32553,45495,32268
32498,45487,32473
32569,45495,32507
32640,45431,32547
32637,45503,32593
32660,45495,32532
32744,45495,32442
32746,45495,32245
32736,45481,32462
32772,45495,32559
32776,45487,32474
32746,45444,32333
32772,45501,32583
32852,45487,32459
32847,45489,32519
32917,45501,32369
33010,45431,32432
33024,45492,32527
33028,45487,32143
33050,45479,32227
33052,45479,32315
32978,45495,32343
33020,45487,32463
33078,45431,32355
33070,45503,32281
33116,45479,32279
33192,45479,32181
33192,45484,32007
33169,45477,32357
33228,45477,32181
33189,45487,32150
33168,45487,32239
33181,45481,32172
33192,45484,32148
33150,45487,32213
33120,45493,32247
33160,45485,32287
33141,45439,32437
33053,45487,31939
33028,45487,32143
32972,45471,32220
32864,45485,32284
32800,45479,32375
32777,45476,32300
32664,45503,32307
32660,45503,32139
32680,45487,32122
32625,45458,32225
32525,45487,32288
32493,45479,32435
32420,45479,31950
32344,45476,32113
32304,45484,32316
32304,45484,32151
32284,45495,32115
32284,45492,32223
32316,45477,32295
32268,45485,32332
32229,45477,32133
32260,45421,32237
32196,45479,32335
32181,45479,32303
32226,45437,32239
32272,45487,32220
32268,45471,32307
32296,45415,32236
32328,45485,32247
32332,45479,32253
32334,45479,32277
32367,45472,32279
32336,45475,32327
32316,45471,32437
32342,45447,31975
32388,45485,32165
32376,45471,32213
32408,45479,32187
32469,45469,32263
32457,45431,32311
32448,45479,32356
32460,45455,32338
32457,45467,32387
32382,45407,32361
32466,45479,32399
32500,45471,32359
32485,45479,32385
32508,45415,32375
32576,45441,32405
32548,45463,32383
32548,45447,32407
32580,45462,32295
32544,45401,32258
32520,45469,32391
32570,45477,32351
32620,45463,32429
32570,45485,32390
32598,45415,32399
32662,45471,32355
32671,45479,32239
32624,45461,32405
32632,45447,32441
32592,45447,32597
32532,45455,32485
32564,45463,32529
32592,45477,32462
32592,45423,32465
32612,45477,32461
32644,45479,32529
32656,45447,32500
32633,45465,32612
32660,45399,32541
32640,45463,32584
32622,45455,32391
32633,45460,32507
32636,45471,32527
32573,45479,32161
32620,45447,32465
32684,45412,32647
32656,45460,32669
32607,45429,32505
32644,45447,32599
32609,45399,32565
32584,45461,32697
32621,45447,32285
32644,45399,32601
32631,45471,32775
32684,45457,32601
32732,45399,32677
32712,45447,32543
32676,45447,32709
32716,45447,32681
32702,45447,32622
32634,45455,32837
32645,45454,32653
32684,45447,32715
32660,45460,32623
32697,45402,32868
32775,45460,32495
32774,45455,32604
32722,45447,32884
32752,45447,32673
32728,45439,32768
32676,45447,32676
32724,45397,32795
32777,45469,32436
32764,45455,32763
32784,45455,32907
32837,45421,32558
32863,45453,32743
32824,45444,32876
32840,45383,32730
32796,45447,32797
32743,45447,32881
32764,45463,32765
32828,45391,32805
32821,45473,32735
32864,45446,32789
32878,45401,32420
32864,45463,32791
32831,45447,32937
32879,45439,32519
32852,45399,32828
32800,45447,32807
32808,45445,32865
32821,45459,32845
32796,45471,32703
32824,45447,32985
32863,45445,32553
32868,45440,32852
32820,45447,32853
32845,45439,32767
32821,45437,32986
32788,45415,32853
32808,45447,32553
32844,45409,32908
32816,45460,32731
32832,45447,33023
32888,45423,32742
32904,45447,32901
32823,45447,33060
32840,45446,32879
32805,45447,32962
32744,45441,32946
32768,45447,33081
32832,45447,32881
32813,45460,32988
32864,45405,32828
32921,45445,33124
32895,45452,32997
32864,45429,33030
32885,45425,32887
32856,45447,33149
32776,45447,32980
32804,45447,33055
32842,45447,33213
32828,45398,32748
32836,45447,33004
32897,45439,33047
32878,45439,33109
32840,45391,33135
32892,45444,33011
32837,45447,32999
32828,45443,33078
32838,45445,33159
32860,45445,33189
32800,45447,33031
32823,45446,33171
32878,45394,33319
32860,45447,32811
32820,45437,33028
32872,45445,33223
32824,45391,33229
32797,45447,33357
32805,45439,33015
32822,45447,33199
32805,45459,33351
32844,45445,33191
32916,45447,33268
32877,45447,33223
32844,45437,33346
32860,45393,33271
32836,45447,33118
32793,45439,33366
32804,45445,33318
32848,45428,33151
32860,45447,33317
32905,45447,33347
32944,45445,33247
32948,45436,33477
32903,45446,32965
32932,45441,33313
32876,45437,33519
32800,45447,33009
32844,45447,33381
32869,45447,33557
32840,45445,33364
32907,45444,33449
32969,45437,33532
32950,45433,33452
32921,45427,33365
32940,45433,33413
32884,45439,33350
32840,45376,33479
32845,45446,33463
32854,45439,33443
32801,45447,33527
32856,45388,33663
32933,45447,33551
32939,45439,33598
32897,45444,33573
32893,45399,33428
32864,45429,33576
32828,45447,33607
32846,45447,33701
32916,45447,33209
32840,45447,33455
32854,45437,33705
32888,45445,33372
32840,45437,33579
32812,45437,33669
32804,45444,33671
32752,45445,33511
32698,45447,33700
32708,45447,33668
32762,45445,33581
32752,45447,33756
32740,45447,33727
32780,45399,33839
32748,45447,33679
32702,45447,33751
32728,45447,33577
32744,45445,33769
32694,45447,33771
32741,45457,33881
32788,45444,33484
32749,45399,33787
32796,45444,33823
32837,45447,33783
32824,45399,33799
32800,45447,33905
32914,45433,33799
32924,45444,33900
32928,45452,33671
32977,45453,33925
33009,45447,33421
32980,45455,33809
33004,45455,33658
33058,45447,33713
33056,45459,33901
33016,45405,33862
33036,45447,33810
32968,45437,33823
32906,45447,33967
32925,45463,33627
32956,45447,33775
32912,45397,33948
32940,45447,33901
32996,45447,34031
32952,45447,33852
32916,45445,33927
32956,45408,33740
32910,45447,34023
32854,45447,33554
32884,45443,33783
32965,45463,33885
32913,45469,33954
32932,45459,33862
32993,45447,34045
32950,45452,33891
32901,45447,33799
32910,45446,34012
32896,45431,33965
32876,45447,33815
32892,45461,33985
32909,45413,34007
32892,45455,33855
32901,45463,34044
32965,45391,34023
32892,45447,33897
32858,45441,34043
32873,45407,34047
32840,45447,34165
32790,45447,34063
32820,45444,34183
32840,45446,34039
32793,45397,34143
32812,45447,33877
32812,45447,34046
32694,45383,34215
32368,45461,34101
32052,45433,34237
31640,45447,33781
31092,45386,34031
30586,45461,34067
30041,45447,34115
29577,45463,34247
29460,45471,33695
29600,45477,34119
30056,45460,34249
30648,45447,34118
31327,45447,34043
32062,45406,34085
32890,45460,34119
33586,45447,34222
34196,45443,34157
34704,45469,34271
35558,45399,33889
36892,45453,34110
38216,45447,34183
39508,45447,34159
40748,45428,34231
41718,45439,34220
42016,45439,34219
41812,45420,34255
41352,45430,33797
40664,45459,34071
39897,45459,34201
39021,45452,34192
37996,45461,34375
36924,45461,34268
35958,45415,34366
35049,45471,34149
34270,45469,34268
33696,45476,34398
33313,45471,34264
32961,45479,34367
32744,45447,34259
32658,45437,34297
32472,45485,34206
32329,45471,34375
32244,45460,34345
32108,45468,34371
31985,45401,34241
31950,45475,34335
31952,45471,34481
31896,45492,33989
31888,45413,34363
31909,45479,34463
31857,45471,34397
31796,45455,34503
31820,45463,34421
31771,45463,34549
31721,45463,34047
31716,45469,34279
31760,45469,34399
31734,45471,34463
31776,45423,34500
31848,45469,34287
31808,45471,34415
31772,45465,34500
31818,45447,34503
31800,45463,34622
31768,45468,34512
31806,45399,34459
31848,45447,34375
31796,45476,34485
31837,45463,34617
31911,45465,34567
31925,45468,34695
31877,45463,34528
31908,45407,34661
31900,45471,34573
31860,45471,34597
31912,45471,34540
31941,45435,34593
31924,45461,34587
31980,45479,34592
32037,45463,34599
32039,45468,34556
32008,45409,34607
32024,45458,34583
32020,45471,34612
32000,45427,34727
32024,45471,34522
32064,45471,34607
32092,45407,34740
32136,45479,34485
32184,45471,34623
32158,45447,34609
32112,45447,34741
32152,45447,34329
32136,45469,34623
32101,45463,34711
32109,45463,34213
32168,45475,34623
32160,45479,34510
32241,45455,34783
32292,45461,34591
32300,45421,34663
32272,45460,34605
32284,45397,34615
32268,45477,34765
32212,45447,34659
32236,45471,34767
32292,45477,34427
32248,45471,34639
32272,45461,34774
32344,45471,34541
32341,45412,34597
32308,45476,34761
32376,45445,34591
32341,45405,34625
32296,45477,34755
32353,45455,34449
32389,45463,34597
32377,45477,34695
32432,45455,34521
32524,45403,34553
32545,45455,34359
32481,45455,34599
32530,45458,34068
32501,45447,34372
32477,45457,34501
32497,45391,34461
32572,45479,34525
32588,45460,34353
32628,45407,34391
32664,45468,34511
32679,45463,34109
32648,45415,34323
32688,45437,34461
32654,45446,33862
32612,45439,34207
32656,45477,34325
32734,45461,34246
32717,45446,34233
32780,45469,34157
32856,45456,34165
32865,45463,34229
32837,45463,34151
32896,45447,34207
32876,45447,33775
32830,45404,34076
32893,45461,33973
32964,45447,34007
32976,45463,34175
33045,45457,33975
33109,45447,34020
33104,45455,33949
33074,45460,33780
33152,45461,33967
33118,45455,33893
33070,45455,33959
33092,45403,33867
33144,45461,33838
33150,45463,33850
33156,45461,33843
33253,45395,33916
33276,45469,33796
33216,45447,33703
33245,45454,33651
33197,45420,33660
33120,45463,33372
33128,45457,33539
33136,45461,33753
33081,45461,33661
33029,45461,33649
33036,45459,33473
32976,45469,33491
32887,45447,33655
32856,45447,33589
32785,45403,33553
32682,45463,33513
32632,45447,33487
32617,45455,33573
32548,45423,33515
32550,45460,33509
32548,45459,33204
32494,45471,33281
32424,45434,33380
32438,45460,33351
32412,45447,33367
32352,45471,33391
32329,45412,33460
32358,45473,33387
32308,45471,33373
32344,45407,33301
32396,45463,33346
32373,45455,33389
32349,45455,32919
32385,45411,33287
32356,45463,33276
32332,45460,33311
32370,45447,32903
32412,45463,33092
32398,45471,33331
32420,45461,33247
32500,45458,33268
32541,45429,33175
32492,45447,33236
32516,45447,33285
32513,45461,33183
32487,45447,33223
32525,45405,33051
32584,45461,33253
32564,45457,33164
32569,45407,33175
32628,45447,33264
32620,45447,33119
32588,45473,33175
32645,45447,33119
32655,45453,33157
32608,45459,33149
32636,45447,32988
32684,45447,33237
32668,45393,33119
32661,45471,32986
32734,45455,33145
32752,45447,33151
32720,45447,33172
32760,45439,32988
32774,45439,32953
32700,45447,33071
32704,45399,33063
32751,45463,33246
32748,45463,32796
32760,45439,33093
32836,45461,33236
32846,45447,32825
32830,45399,33073
32864,45447,33224
32863,45445,32859
32789,45413,33103
32793,45447,33087
32852,45438,33031
32825,45463,33100
32840,45447,33196
32936,45447,33087
32964,45439,33159
32944,45447,33081
32960,45447,33156
32960,45447,33007
32878,45447,32699
32864,45391,32884
32870,45461,32999
32824,45447,32969
32870,45447,33027
32954,45447,33063
32953,45439,33196
32929,45439,33076
32992,45429,33102
33004,45399,32988
32932,45447,33064
32929,45447,33124
32956,45461,33009
32928,45455,33086
32932,45423,33231
32997,45447,33162
33037,45447,33031
32984,45443,33108
33060,45391,32940
33052,45447,33095
33020,45441,33095
32997,45381,32917
33084,45447,33164
33052,45447,32757
33072,45399,32935
33146,45447,33087
33153,45447,32726
33092,45391,33076
33108,45447,33063
33112,45445,32692
33088,45447,32913
33124,45407,33104
33201,45447,33058
33185,45463,32941
33215,45447,33119
33265,45447,32679
33256,45380,32900
33216,45447,33031
33268,45417,33044
33253,45439,33174
33216,45437,33062
33249,45441,33031
33324,45458,33054
33273,45447,33045
33302,45445,33180
33400,45447,32966
33400,45447,33063
33346,45447,33151
33373,45439,32655
33337,45437,33013
33264,45445,33181
33256,45415,32679
33336,45447,32913
33292,45447,33143
33301,45376,32831
33388,45447,33031
33405,45447,33143
33387,45443,32705
33431,45438,32855
33444,45399,32967
33400,45445,33028
33381,45447,32924
33437,45423,33165
33424,45445,32852
33456,45459,33053
33520,45415,32957
33500,45447,33036
33436,45447,32731
33461,45383,33007
33504,45439,33129
33473,45445,32991
33495,45391,33063
33608,45447,32929
33608,45447,33172
33648,45399,32737
33684,45429,33065
33676,45447,32955
33662,45441,33175
33717,45447,32687
33708,45439,33018
33660,45435,33185
33652,45445,32919
33644,45444,33015
33564,45447,33067
33556,45447,33068
33636,45415,32939
33610,45455,33113
33584,45447,32711
33648,45437,32993
33700,45447,33095
33693,45383,33095
33752,45438,32981
33821,45431,33131
33824,45437,33081
33846,45447,33237
33896,45387,32719
33864,45447,32993
33761,45445,33116
33760,45441,33125
33762,45447,33243
33688,45377,33048
33680,45447,33131
33733,45445,33213
33712,45463,32861
33758,45469,33143
33830,45445,33051
33847,45389,33207
33814,45447,32725
33900,45428,33206
33888,45439,33172
33840,45447,33270
33823,45431,33119
33864,45447,33124
33824,45439,33127
33846,45447,33159
33909,45444,33215
33893,45446,33213
33876,45447,33303
33920,45399,32813
33945,45447,33116
33935,45447,33159
33912,45445,33244
33950,45444,33361
33912,45447,33252
33944,45423,33200
34004,45445,33245
34017,45437,33319
33997,45446,33263
34031,45437,33409
34041,45434,33287
34012,45443,33336
34028,45447,33259
34106,45405,33424
34108,45459,32990
34076,45447,33191
34092,45447,33235
34072,45403,33319
34008,45439,33469
34054,45436,33327
34025,45447,33308
33982,45447,33287
34005,45447,33335
34048,45447,33483
34028,45454,33353
34060,45423,33429
34110,45461,33391
34136,45447,33461
34065,45457,33398
34088,45447,33474
34108,45447,33405
34108,45460,33521
34148,45463,33061
34202,45447,33287
34172,45457,33418
34188,45463,33452
34236,45447,33551
34230,45447,33491
34180,45399,33636
34189,45460,33199
34192,45439,33397
34116,45463,33538
34139,45445,33543
34208,45455,33374
34160,45468,33590
34148,45471,33535
34180,45463,33389
34168,45447,33519
34120,45461,33557
34197,45447,33655
34211,45399,33589
34133,45468,33716
34105,45463,33571
34108,45465,33625
34080,45423,33655
34112,45471,33609
34228,45460,33653
34236,45461,33663
34222,45463,33669
34311,45439,33665
34300,45469,33637
34239,45463,33683
34207,45477,33719
34284,45405,33839
34310,45471,33391
34340,45485,33575
34422,45477,33759
34428,45476,33775
34414,45471,33889
34457,45471,33788
34452,45479,33837
34416,45479,33682
34402,45487,33743
34462,45479,33881
34464,45484,33841
34492,45479,33961
34633,45485,33527
34663,45461,33712
34637,45479,33828
34653,45473,33893
34641,45492,33863
34532,45475,33861
34528,45495,33911
34585,45457,34039
34540,45495,33763
34540,45499,33853
34604,45487,33975
34580,45501,33950
34545,45485,33937
34597,45437,33965
34596,45495,34119
34504,45492,34020
34528,45492,33891
34585,45495,33971
34616,45447,33993
34636,45477,33999
34680,45500,34055
34652,45495,34195
34564,45501,34049
34592,45463,33975
34573,45501,34046
34500,45507,34110
34484,45507,34153
34556,45511,34119
34549,45516,34207
34632,45513,34150
34676,45511,34237
34633,45447,34145
34525,45471,34295
34512,45503,33860
34512,45511,34055
34461,45506,34125
34393,45515,34137
34240,45527,34140
33840,45479,34148
33480,45471,34071
33174,45503,34207
32669,45519,34214
32092,45549,34309
31601,45535,34181
31255,45534,34221
31148,45533,34165
31425,45536,34167
32048,45539,34079
32686,45550,34247
33357,45557,34238
34204,45477,34207
34940,45542,34261
35520,45549,34247
36000,45540,34356
36721,45550,34103
37708,45550,34142
39000,45551,34144
40292,45543,34047
41512,45543,34163
42668,45544,34223
43433,45525,34247
43528,45551,34420
43148,45543,34288
42623,45545,34351
41934,45555,34221
41092,45561,34237
40182,45575,34244
39304,45573,34183
38409,45575,34322
37516,45575,34231
36684,45591,34308
35948,45573,34210
35396,45569,34269
34996,45596,34214
34684,45599,34223
34392,45597,34287
34265,45593,34383
34281,45601,34269
34208,45548,34323
34116,45623,33937
34097,45621,34277
34000,45607,33855
33856,45599,34405
33776,45599,34285
33708,45615,34304
33644,45615,34257
33640,45575,34298
33712,45635,34267
33752,45639,34343
33753,45623,34277
33839,45629,34412
33824,45621,34276
33688,45623,34365
33632,45559,34223
33620,45639,34085
33612,45637,34188
33670,45636,34108
33730,45636,34043
33740,45644,34306
33807,45605,34212
33920,45637,34229
33948,45637,34173
33926,45657,34223
33913,45615,34249
33832,45647,34175
33717,45647,34228
33652,45652,34339
33700,45661,34228
33693,45636,34333
33764,45679,34201
33917,45658,34227
34008,45671,34143
34025,45607,34189
34042,45671,34165
34064,45679,34111
33996,45671,34165
33985,45679,34270
34024,45687,33913
33980,45701,33971
33953,45631,34065
33940,45625,34071
33961,45639,34119
33924,45700,34087
33944,45698,34039
33950,45694,33996
33960,45703,33989
33952,45703,34055
34028,45703,34015
34001,45716,34135
33964,45717,34003
34040,45709,33909
34110,45735,33685
34101,45725,33777
34181,45719,33527
34160,45724,33885
34071,45731,33580
34092,45735,33727
34189,45741,33492
34145,45695,33713
34136,45764,33864
34212,45749,33829
34209,45751,33817
34153,45753,33816
34180,45711,33935
34205,45761,33781
34124,45767,33915
34032,45767,33766
34048,45767,33867
34079,45783,33711
34148,45772,33841
34229,45732,33708
34300,45796,33817
34288,45781,33258
34289,45780,33487
34268,45743,33653
34230,45807,33501
34148,45789,33599
34165,45801,33531
34165,45751,33511
34168,45829,33474
34276,45799,33209
34272,45819,33549
34212,45777,33213
34260,45821,33487
34249,45759,33423
34156,45831,33404
34162,45831,33308
34300,45831,33327
34405,45831,33293
34465,45831,33267
34508,45845,33185
34464,45809,33268
34381,45861,33261
34396,45863,33221
34407,45848,33215
34408,45855,33159
34492,45870,33175
34615,45852,33264
34592,45879,33188
34556,45895,33151
34608,45892,33125
34569,45887,33162
34533,45880,33334
34580,45895,33207
34694,45881,33137
34724,45831,33127
34776,45911,33149
34913,45908,33068
34976,45919,32993
34972,45917,33145
35080,45917,33186
35124,45918,33203
35070,45927,33181
35112,45935,33368
35022,45919,33358
34877,45927,33204
34813,45947,33513
34768,45945,33455
34724,45948,33397
34708,45959,33453
34860,45953,33524
34980,45943,33655
34884,45959,33596
34840,45959,33639
34809,45959,33660
34741,45973,33772
34692,45976,33413
34680,45983,33961
34615,45989,33871
34564,45997,33973
34566,45991,33957
34616,45957,34118
34614,45996,33692
34628,45997,33900
34629,46014,34055
34565,45959,34000
34513,46031,34191
34418,46033,34244
34343,46021,34375
34207,46041,34320
34100,46044,34449
34088,45991,34404
34007,46052,34419
34032,46039,34347
34193,46055,34464
34224,46047,34324
34254,46067,34492
34365,46055,34177
34341,46083,34791
34420,46085,34695
34520,46085,34772
34534,46084,34738
34540,46087,34709
34628,46059,34716
34757,46087,34909
34829,46111,35069
34908,46103,34999
34956,46106,35033
34724,46125,35055
34476,46143,35193
34421,46060,35223
34364,46116,35445
34444,46149,35402
34667,46140,35613
34832,46141,35553
34897,46149,35778
34996,46161,35737
35092,46164,35947
35106,46135,35904
35024,46183,35847
35056,46183,36087
34980,46183,36103
34884,46181,36215
34852,46135,36329
35041,46159,36538
35045,46209,36593
35028,46203,36752
35224,46215,36677
35264,46203,36861
35195,46236,37061
35309,46239,37053
35340,46237,37203
35268,46231,37169
35364,46247,37423
35484,46237,37060
35575,46255,37428
35705,46271,37269
35838,46274,37447
35748,46284,37687
35756,46287,37703
35981,46289,37863
36132,46293,37887
36129,46260,38093
35956,46311,38037
35704,46309,38172
35454,46319,38045
35293,46327,38255
35292,46324,38279
35228,46335,38070
35136,46343,38319
35349,46343,38532
35464,46335,38577
35597,46367,38849
35760,46357,38757
35997,46365,38930
36089,46373,38884
36124,46383,38855
36176,46380,39095
36140,46395,39081
36076,46404,39255
36156,46413,39157
36184,46421,39252
36016,46433,39269
36016,46421,39461
36102,46428,39440
36042,46437,39657
36029,46433,39508
36182,46391,39519
36192,46420,39310
36201,46471,39645
36308,46459,39585
36013,46487,39767
36029,46487,39997
36072,46487,39871
36092,46438,39801
36036,46493,40061
35985,46505,40025
35956,46447,40014
35887,46527,40120
35872,46527,40084
35916,46537,40300
35880,46551,39773
35812,46543,40071
35830,46543,40225
35844,46535,40164
35848,46511,40287
35724,46575,40252
35680,46573,40471
35612,46567,39721
35576,46592,40415
35668,46599,40300
35840,46599,40447
35888,46615,40293
35881,46599,40339
36104,46562,40281
36333,46575,40276
36480,46629,40436
36512,46637,40247
36580,46652,40372
36352,46655,40212
36284,46599,40319
36176,46667,40142
35884,46684,40245
35556,46677,40063
35412,46683,40183
35367,46695,39966
35453,46693,40079
35388,46711,39839
35344,46719,39943
35344,46687,39725
35464,46727,39804
35493,46725,39573
35484,46727,39569
35448,46733,39225
35412,46684,39267
35260,46759,39165
35065,46757,38637
34936,46775,39143
34662,46759,38841
34477,46791,38741
34381,46783,38547
34356,46795,38583
34328,46807,38356
34258,46791,38191
34310,46805,37956
34300,46821,37924
34372,46831,37715
34532,46823,37135
34700,46837,37637
34924,46799,37321
35141,46852,37215
35260,46847,36559
35244,46868,36727
35292,46869,36719
35268,46869,36551
35088,46884,36460
35024,46895,36140
34879,46852,35999
34788,46905,35767
34700,46917,35477
34740,46919,35251
34725,46903,35073
34548,46941,34796
34484,46935,34604
34501,46943,34311
34356,46931,34204
34196,46957,33972
34196,46965,33767
34244,46976,33350
34076,46965,33077
34087,46988,32841
34052,46983,32613
34025,46997,32359
34020,46949,31852
33868,46991,31951
33768,47015,31527
33608,47025,31372
33600,47037,31211
33660,47029,30967
33629,47047,30760
33544,47015,30572
33532,47047,30349
33668,47059,30163
33812,47061,29985
33900,47049,29780
33844,47075,29673
33556,47079,29049
33484,47079,29012
33637,47103,28932
33860,47075,28835
33754,47098,28783
34073,47095,28493
34170,47111,28313
34236,47109,28060
34276,47111,27851
34112,47073,27795
34084,47143,27701
34164,47139,27732
34101,47151,27471
33870,47165,27449
33692,47149,27173
33657,47101,26927
33628,47153,26933
33655,47167,26778
33861,47107,26727
33917,47175,26532
33760,47171,26487
33636,47191,26127
33545,47195,26079
33516,47205,25981
33568,47199,25819
33544,47199,25809
33624,47183,25255
33700,47223,25277
33568,47204,25069
33573,47220,25012
33524,47188,24915
33512,47231,24823
33532,47231,24845
33616,47239,24612
33860,47239,24575
34128,47239,24353
33987,47206,24373
33966,47271,24004
33869,47239,23983
33750,47255,23939
33712,47265,23815
33636,47213,23741
33564,47286,23401
33592,47276,23500
33649,47279,23437
33632,47293,23323
33660,47287,23383
33796,47213,23167
34024,47247,23057
34160,47303,22869
34113,47290,22890
33900,47303,22740
33797,47311,22733
33681,47317,22649
33641,47321,22629
33580,47331,22435
33628,47263,22483
33684,47303,22380
33636,47333,22279
33493,47337,22151
33412,47343,22005
33495,47343,22028
33413,47357,22025
33348,47343,22033
33513,47353,21943
33632,47363,22019
33624,47355,21803
33576,47367,21887
33600,47367,21681
33412,47367,21763
33060,47383,21573
32791,47313,21667
32432,47399,21471
31840,47411,21413
31239,47405,21156
30689,47405,21207
29980,47412,21161
29468,47329,21159
29452,47420,21031
29613,47423,21197
29966,47407,21132
30390,47429,21087
30656,47445,21037
31040,47453,20821
31612,47461,21061
32284,47456,20900
33384,47476,20727
35024,47470,20600
36760,47471,20613
38236,47476,20658
39752,47476,20555
41381,47477,20544
42623,47481,20405
43244,47495,20351
43232,47495,20324
42692,47459,20345
42077,47492,20333
41380,47505,20386
40478,47519,20263
39412,47531,20265
38569,47521,20131
37680,47540,20018
36773,47551,19994
35874,47573,19934
35070,47573,19845
34400,47579,19775
33713,47572,20069
33138,47589,19691
32926,47591,20006
32652,47587,19835
32672,47535,19951
32919,47601,19759
32975,47615,19900
32845,47621,19744
32780,47620,19804
32545,47607,19698
32265,47615,19787
32336,47623,19667
32436,47623,19560
32630,47623,19574
32641,47589,19503
32564,47601,19513
32268,47653,19409
31888,47663,19737
31738,47654,19581
31884,47661,19434
32341,47652,19474
32672,47655,19333
32736,47655,19628
32561,47661,19456
32232,47665,19319
32000,47681,19590
31861,47687,19398
31816,47684,19295
32066,47687,19423
32081,47671,19205
32049,47678,19441
32020,47679,19353
32328,47613,19237
32680,47663,19235
32956,47680,19354
33134,47687,19188
33121,47695,19198
32740,47701,19246
32332,47693,19085
32001,47685,19139
31829,47684,19109
31801,47671,19103
32112,47679,19007
32468,47687,18834
32333,47684,18887
32132,47701,18879
31975,47692,18766
31775,47700,18583
31736,47668,18569
31828,47689,18553
31857,47695,18412
31936,47684,18683
31900,47683,18492
31768,47687,18435
31753,47676,18344
31878,47685,18215
32218,47687,18110
32538,47623,18201
32640,47637,18172
32508,47623,17977
32596,47687,17893
32741,47675,18017
32986,47663,17926
32732,47647,17745
32316,47663,17908
32324,47677,17762
32180,47673,17603
31924,47679,17548
32016,47593,17397
32436,47597,17415
32620,47665,17403
32450,47599,17228
32272,47648,17305
32332,47666,17178
32444,47655,16942
32424,47623,17140
32442,47589,16919
32314,47623,16847
32340,47648,16980
32356,47653,16925
32237,47647,16734
32032,47661,16955
31874,47647,16815
31632,47661,16620
31544,47654,16701
31381,47639,16655
31386,47645,16485
31552,47649,16721
32121,47639,16453
32664,47643,16410
33028,47580,16567
33236,47647,16540
32988,47623,16366
32764,47623,16423
32428,47623,16324
32333,47623,16525
32260,47623,16487
31934,47623,16327
31845,47567,16369
31742,47566,16323
32033,47607,16614
32305,47623,16481
32748,47615,16491
32876,47615,16365
32742,47611,16323
32253,47613,16597
31542,47605,16479
31068,47623,16340
30996,47607,16388
31333,47607,16292
31988,47532,16359
32820,47601,16293
33108,47587,16452
32937,47599,16311
32433,47606,16595
32080,47551,16508
32224,47607,16583
32260,47604,16573
32448,47607,16603
33181,47519,16631
33541,47606,16535
33349,47583,16670
33116,47599,16661
32408,47518,16808
32168,47599,16769
32321,47596,16927
32145,47598,17074
31593,47586,17264
31256,47589,17102
30873,47572,17390
30432,47589,17287
30782,47578,17556
31501,47591,17756
31796,47517,17615
31892,47587,17797
31732,47567,17940
31436,47595,18080
31192,47591,18053
31230,47589,18319
31561,47595,18421
32424,47589,18559
32957,47516,18647
32632,47580,18823
32420,47591,19079
32182,47583,18937
32360,47588,19053
32620,47599,19349
32477,47590,19574
32318,47597,19645
31720,47531,19930
31694,47580,19945
31677,47598,20238
31992,47585,20257
31752,47589,20439
31435,47595,20523
31264,47603,20597
31022,47587,20893
30948,47609,21181
31196,47612,21216
31136,47535,21399
30820,47605,21588
30488,47597,21911
30716,47613,21715
31240,47609,21937
31324,47607,22199
31430,47623,22306
31640,47561,22515
31557,47595,22720
31525,47623,22946
31278,47612,23085
31192,47623,23341
31151,47582,23635
31366,47623,23864
31368,47623,24067
31516,47623,24253
31492,47599,24556
30908,47607,24916
30520,47649,24868
30745,47655,25272
31077,47636,25677
31502,47647,25670
31447,47621,25894
31634,47639,26337
32168,47661,26542
32169,47655,26615
32145,47649,26975
32364,47666,27292
32468,47596,27654
32328,47679,27853
31688,47661,28167
30871,47669,28375
30637,47677,28648
30708,47605,28917
30748,47623,29135
31120,47671,29501
31663,47695,29748
31676,47678,30147
31800,47703,30341
31625,47704,30727
31758,47623,30909
31648,47695,31319
31570,47695,31464
31924,47695,31758
31962,47663,31845
32133,47701,32349
32201,47711,32793
32180,47647,32931
32335,47735,33325
32212,47724,33521
31414,47727,33933
30869,47725,33815
30198,47695,34207
29744,47735,34620
29849,47725,34919
29569,47748,35249
29462,47740,35477
29652,47743,35804
30161,47748,36044
30238,47697,36434
30380,47749,36552
30692,47764,36961
31096,47751,37049
31342,47749,37407
31120,47689,37505
30532,47727,37833
30264,47767,37955
30617,47772,38341
30740,47765,38457
30712,47767,38719
30472,47769,38740
30482,47751,39059
30729,47749,39445
31292,47743,39489
31040,47773,39837
30473,47711,39899
30468,47781,40112
30625,47791,40070
30616,47727,40333
31008,47717,40596
31453,47791,40829
32048,47783,41047
32300,47773,41303
32300,47765,41308
31813,47780,41062
31344,47775,41956
30524,47783,42013
30097,47791,42245
30612,47706,42349
31480,47797,42585
31756,47780,42605
32100,47775,42343
32092,47767,43188
31380,47780,43265
29937,47769,43415
28829,47751,43569
28880,47775,43716
30225,47772,43727
31247,47799,43655
31696,47789,44150
31632,47727,44293
31558,47797,44412
31442,47781,44129
31223,47793,44699
31312,47799,44823
31021,47817,44957
30500,47824,45063
29172,47831,45257
28496,47813,45317
28348,47855,45543
28852,47847,45213
30072,47849,45735
31260,47863,45871
31085,47837,46155
31468,47871,46228
31712,47906,46444
31716,47869,46553
31208,47949,46727
30980,47955,46851
30462,47973,46645
29029,47989,47028
29305,47983,47129
30136,48007,47447
31140,48007,47558
31573,47967,47717
30792,48055,47834
29920,48065,47954
29281,48071,48132
29114,48089,48287
29460,48032,48423
30696,48045,48560
31160,48095,48696
30824,48122,48764
31104,48127,48941
31297,48135,48983
30056,48161,49269
28688,48167,49415
28308,48183,48972
29180,48183,49599
30462,48183,49753
31232,48205,50015
31540,48220,50159
32248,48172,50183
32736,48231,50412
31560,48237,50511
30061,48205,50751
29358,48276,50853
29340,48263,50940
29700,48281,51079
30368,48285,51156
31576,48255,51425
32136,48285,51588
32716,48263,51765
32857,48271,51913
31596,48245,51939
31144,48273,52145
30842,48287,52359
30756,48287,52583
30048,48281,52743
29280,48315,52261
29152,48253,52999
30404,48263,53183
30813,48295,53431
31558,48208,53613
33200,48277,53662
33548,48285,53831
32400,48223,54005
31220,48276,54079
30408,48303,54267
30636,48246,54495
29948,48301,54685
28736,48263,54839
28722,48271,54277
29089,48263,55095
30688,48263,54811
31784,48277,55336
30860,48277,55477
29880,48256,55611
29088,48278,55735
29816,48191,55877
31932,48199,56061
32620,48173,56143
31337,48251,56167
29884,48239,56455
29060,48243,56445
29929,48223,56647
31012,48237,56709
30940,48229,56935
30336,48257,57013
28884,48237,57031
27280,48247,57144
25492,48252,57335
24940,48185,57498
25133,48255,57597
25126,48206,57708
24561,48279,57824
25141,48217,57863
25932,48285,57959
27442,48277,57517
29092,48287,58103
30372,48285,58237
31451,48274,58343
33204,48249,58421
35876,48260,58044
39201,48255,58567
41316,48244,58663
42016,48247,58676
41500,48247,58605
40967,48263,58815
40256,48273,58903
39950,48263,58487
39036,48263,58840
37904,48253,58919
37680,48253,58971
36601,48253,59071
34925,48263,58947
33300,48269,59015
31712,48221,59007
30508,48295,59076
30348,48262,59079
31120,48284,58985
31536,48263,58935
31836,48205,58943
32369,48263,58981
32484,48263,58966
31740,48285,58833
30874,48285,58825
30140,48244,58829
29588,48305,58652
29248,48301,58652
29689,48303,58588
30084,48301,58543
30204,48247,58441
30804,48295,58375
30782,48319,58375
30556,48327,58295
29679,48327,58229
29302,48277,58145
29140,48348,58101
29432,48359,57991
29476,48337,57919
29744,48357,57825
29963,48352,57733
30789,48327,57560
30936,48364,57519
30873,48364,57381
30256,48383,57265
28764,48375,57149
28345,48409,56964
28695,48420,56885
29324,48420,56788
29557,48437,56637
29736,48449,56509
30424,48452,56327
30860,48485,56151
30926,48495,56071
30597,48519,55983
31080,48460,55815
31613,48567,55640
31828,48564,55524
31177,48576,55333
30289,48603,55213
29391,48543,54919
29152,48591,54887
30200,48645,54713
31649,48647,54519
32460,48675,54391
31936,48705,54228
30332,48684,54079
28742,48696,53837
28789,48677,53661
29784,48711,53469
30652,48749,53468
31343,48836,53284
31780,48850,53172
31356,48889,52981
30200,48926,52893
29389,48970,52743
28760,49012,52607
28920,49055,51847
29146,49084,52311
30128,49113,52230
31146,49159,52116
31328,49133,51975
31430,49244,51623
30901,49287,51753
30936,49339,51639
31092,49399,51529
30548,49463,51423
30380,49433,51295
29968,49479,51207
30318,49527,51086
30636,49609,50901
30700,49623,50819
31024,49709,50695
31452,49797,50677
31622,49838,50501
31554,49895,50341
31084,49922,50276
30476,50004,50240
30010,50036,50135
30157,50069,49943
30616,50127,49831
30433,50165,49703
30684,50213,49639
30880,50183,49607
30980,50311,49445
30712,50349,49369
30228,50413,48853
30350,50439,49094
30646,50399,48828
30489,50439,48932
30214,50486,48263
30852,50545,48732
31016,50563,48109
30912,50687,48493
30740,50723,48219
30637,50757,48303
30617,50788,48223
30680,50823,48127
30972,50853,48031
30600,50799,47975
30384,50849,47863
30334,50935,47783
30520,50929,47519
31094,50998,47528
31080,51037,47396
30722,50981,46663
31181,51095,47064
31200,51111,46855
30776,51143,46791
30780,51119,46652
31076,51189,46555
31441,51207,46359
31388,51207,46365
31072,51251,46180
30768,51204,46068
31300,51207,45529
31783,51303,45739
31892,51335,45671
31876,51351,45421
31753,51325,45181
31284,51380,45063
31544,51383,45024
31232,51396,44831
31084,51429,44604
31288,51444,44308
31805,51391,44340
31845,51415,44199
31740,51417,44124
31704,51493,43884
31687,51518,43746
31405,51509,43647
31332,51541,43516
31000,51551,43389
30536,51567,43180
30780,51503,43074
31176,51591,42375
31365,51603,42503
31352,51607,42569
31103,51621,42295
30793,51631,42271
30625,51607,41909
31313,51636,41903
31741,51637,41575
32064,51655,41559
31830,51653,41195
31544,51639,41143
31204,51695,40778
31112,51685,40611
31248,51687,40423
31505,51685,40404
31909,51693,40068
32261,51699,40039
32032,51663,39655
31440,51695,39663
31108,51701,39303
30924,51715,39231
31108,51655,38843
31649,51676,38309
31644,51719,38702
31300,51718,38396
31068,51709,38351
31064,51711,38007
31065,51708,37890
31200,51711,37479
31936,51645,37243
32328,51719,37337
32444,51740,37068
32413,51733,37031
32144,51719,36677
31720,51719,36471
31413,51719,36407
31114,51668,36103
31316,51719,36111
31804,51719,35751
32208,51717,35431
32432,51717,35447
32480,51735,35175
32381,51719,35047
32600,51654,34817
32505,51719,34743
32348,51719,34052
32304,51709,34406
32537,51703,34113
32637,51719,34084
32356,51679,33796
32204,51655,33737
32056,51735,33478
32044,51719,33475
32401,51719,33192
32333,51719,32983
32352,51702,32754
32474,51701,32775
32256,51711,32559
31956,51719,32245
31729,51711,32326
31812,51719,32014
31973,51719,32073
32180,51644,32021
32256,51719,31939
32316,51700,31550
32474,51711,31545
32430,51697,31541
32606,51691,31409
32528,51653,31293
32060,51719,30901
31620,51700,30927
31584,51687,30917
32092,51716,30223
32444,51701,30367
32428,51709,30036
32260,51700,29973
32288,51613,29282
32505,51687,29232
32752,51711,28828
32677,51676,28497
32812,51695,28337
32896,51708,27878
32944,51671,27583
32928,51711,27303
32768,51711,26981
32704,51695,26631
32724,51685,26289
32725,51612,25921
32772,51700,25596
32721,51689,25071
32660,51695,24684
32504,51631,24421
32663,51714,24182
32844,51701,23923
32973,51663,23545
32864,51708,23197
32496,51693,22733
32198,51695,22420
32119,51621,22344
32592,51700,22009
32644,51695,21697
32500,51709,21295
32372,51663,21143
32524,51687,20982
32784,51703,20541
32519,51717,20439
31896,51689,20010
31296,51703,19786
31173,51692,19374
31573,51700,19161
32368,51703,19085
33192,51711,18743
33702,51695,18567
33765,51703,18065
33072,51655,17833
32202,51710,17629
31988,51691,17540
32556,51654,17260
32859,51679,17093
33392,51703,16844
33508,51687,16503
32464,51719,16421
31492,51711,16317
31644,51701,15867
32096,51703,15696
32592,51663,15429
32952,51693,15392
33050,51691,15159
33212,51623,14809
33372,51695,14819
33456,51695,14640
33542,51708,14407
33445,51711,14178
33348,51673,13911
32921,51716,13725
32241,51703,13508
32116,51687,13404
32023,51701,13182
32250,51719,13110
32445,51719,12981
32413,51683,12847
32308,51711,12735
32304,51757,12425
32791,51741,12291
33496,51719,11988
33629,51743,12050
33560,51719,11955
33232,51751,11580
32564,51765,11447
31948,51773,11219
31788,51773,11290
31948,51781,11132
32489,51764,10989
32752,51719,10916
32460,51783,10637
32360,51799,10525
32517,51771,10296
32960,51787,10187
33672,51803,9983
34037,51783,9942
33977,51741,9718
33950,51829,9677
33580,51831,9463
33117,51843,9420
32820,51828,9251
32569,51823,9329
32780,51815,9159
33316,51845,9065
33612,51847,8919
33497,51859,8654
33294,51871,8600
33064,51893,8502
32828,51901,8515
32855,51823,8233
32832,51901,8259
32927,51847,8074
33272,51839,8081
33569,51847,7935
33676,51908,7678
33345,51943,7662
33006,51955,7544
32873,51943,7460
32845,51975,7299
32841,51964,7312
33085,51959,7244
32984,51991,7119
32924,51975,7093
32784,51975,6893
32728,51991,6811
32775,52011,6667
32921,52026,6669
32940,52040,6628
32916,52055,6432
32556,52045,6402
32340,51997,6269
32620,52069,6245
32892,52056,6177
32964,52069,6008
32901,52071,6011
32884,52095,5973
32868,52044,5848
32728,52093,5867
32704,52135,5898
32836,52116,5800
32800,52127,5828
32600,52135,5855
32081,52103,5805
31440,52147,5876
31165,52143,5824
30756,52149,5906
30380,52151,5985
29996,52125,5903
29516,52174,5964
28820,52191,5924
28336,52180,6032
27953,52201,5988
27538,52205,6062
27528,52213,6061
27670,52221,6070
28020,52228,6021
28552,52231,6033
29004,52180,6050
30402,52279,5937
32416,52262,5909
34840,52231,5869
36799,52221,5800
38744,52277,5796
40792,52268,5705
42308,52260,5700
43184,52279,5615
43532,52279,5635
43572,52295,5532
43189,52275,5558
42344,52303,5531
41049,52305,5479
39477,52308,5406
37976,52305,5436
36624,52301,5420
35428,52319,5377
34420,52325,5419
33704,52299,5465
33108,52355,5409
32405,52359,5495
32120,52349,5464
32144,52309,5537
32088,52359,5561
32060,52359,5713
31768,52359,5737
31554,52359,5879
31381,52383,5925
31372,52308,6048
31453,52396,6105
31608,52413,6209
31734,52359,6271
31892,52409,6491
31660,52417,6531
31690,52415,6762
31653,52428,6991
31518,52388,6996
31312,52460,7266
31232,52449,7500
30978,52473,7563
30628,52487,7757
30516,52500,7882
30464,52517,8217
30572,52517,8380
30720,52519,8623
30757,52460,8803
30521,52559,8883
30412,52583,9252
30420,52589,9493
30240,52607,9667
30133,52637,9957
30311,52647,10031
30856,52575,10289
31353,52687,10358
32024,52669,10774
32804,52679,10823
33056,52717,11230
33120,52655,11387
32968,52775,11655
32908,52783,11813
32945,52799,12101
32794,52819,12102
32404,52781,12506
31996,52839,12703
31680,52845,12812
31798,52829,13055
32076,52852,13201
32162,52885,13546
32194,52905,13696
32100,52855,13970
31903,52950,14247
31884,52951,14348
31950,52951,14517
32142,52963,14606
32033,52991,14799
32036,52983,14991
32008,52999,15207
31964,52943,15382
31764,53055,15694
31573,53065,15785
31383,53077,16064
31252,53095,16127
31284,53063,16359
31332,53124,16489
31140,53127,16812
30973,53149,16920
30924,53183,17132
30852,53125,17161
30954,53221,17319
31230,53247,17439
31325,53255,17890
31360,53285,17893
31334,53310,18164
31251,53271,18149
31271,53373,18425
31369,53380,18420
31312,53407,18615
31089,53440,18485
30865,53411,18650
30693,53503,18761
30764,53543,19031
30980,53573,19191
31204,53575,19105
31234,53652,19365
31268,53677,19408
31429,53715,19377
31428,53706,19750
31517,53831,19667
31682,53885,19847
31704,53941,19917
31732,53995,20116
31656,53981,20320
31572,54104,20127
31493,54173,20273
31492,54204,20433
31448,54191,20678
31328,54325,20927
31313,54365,20872
31484,54423,20821
31848,54503,21155
32036,54533,21057
32018,54583,21231
32040,54597,21363
32007,54695,21570
31817,54720,21828
31640,54765,21839
31468,54791,21794
31642,54879,22011
32059,54909,22111
32180,54975,22325
32106,54996,22532
31916,55047,22809
31724,55085,22617
31592,55132,22910
31458,55149,23066
31492,55175,23266
31552,55245,23356
31836,55262,23637
32218,55295,23779
32548,55359,23872
32790,55365,24265
32824,55431,24063
32882,55469,24437
32892,55415,24740
32854,55540,24527
32774,55559,24839
32616,55591,25212
32578,55557,25259
32560,55671,25249
32452,55703,25547
32350,55733,25727
32248,55751,26015
32164,55708,25728
31941,55815,25974
31743,55813,26228
31344,55855,26389
30804,55815,26564
30416,55943,26679
30300,55957,26857
30280,55980,26959
30276,56015,27202
30521,55999,27173
30888,55999,27432
31492,56093,27435
32044,56093,27565
32424,56127,27450
32376,56063,27749
32284,56135,27648
32121,56207,28156
31880,56253,28165
31630,56279,28388
31557,56263,28368
31532,56301,28441
31480,56324,28475
31424,56349,28637
31224,56353,28910
30876,56300,28844
30885,56398,29168
31016,56445,29239
31095,56469,29380
30943,56493,29414
30701,56509,29401
30392,56525,29751
30210,56559,29613
30036,56568,29914
29984,56575,30086
29845,56583,30087
29828,56623,30140
30058,56646,30178
30457,56676,30335
30974,56711,30504
31368,56711,30596
31511,56731,30593
31567,56743,30727
31738,56749,30765
31804,56770,30937
31644,56711,31105
31501,56829,31301
31552,56803,31115
31588,56871,31404
31536,56884,31198
31578,56831,31443
31556,56927,31513
31324,56927,31713
31056,56943,31585
30964,56943,32178
30973,56967,32212
31121,56999,32453
31246,57007,32461
31254,57036,32712
31160,57047,32717
31269,56987,32969
31224,56981,32989
30990,57087,33117
30812,57095,33351
30740,57052,33333
30646,57141,33396
30668,57148,33543
30780,57183,33586
30788,57189,33627
30625,57125,33891
30418,57223,34175
30427,57239,34275
30540,57239,34425
30532,57235,34420
30616,57263,34559
30644,57277,34733
30798,57255,34954
31076,57262,35143
31212,57343,35143
31220,57348,35374
31190,57351,35449
31060,57375,35708
30916,57380,35911
30802,57396,35890
30764,57399,36116
30770,57415,36237
30784,57434,36002
30816,57453,36733
30756,57463,36735
30553,57489,36877
30548,57501,37215
30654,57511,37208
30772,57511,37415
30888,57517,37480
30929,57537,37551
30920,57551,37932
30880,57565,38023
30897,57554,38290
30879,57535,38343
30760,57622,38617
30736,57636,38647
30753,57639,38900
30760,57663,38916
30780,57661,39127
30770,57607,39116
30740,57665,39343
30702,57685,39631
30732,57684,39660
30740,57727,39876
30674,57700,39901
30616,57727,40197
30612,57717,40143
30584,57765,40451
30598,57759,40412
30681,57716,40676
30716,57793,40639
30752,57799,40914
30793,57815,40845
30808,57733,41052
30746,57848,41018
30728,57853,41153
30780,57851,41279
30756,57863,41343
30754,57863,41650
30770,57863,41556
30708,57895,41776
30669,57907,41725
30684,57917,41991
30703,57932,41921
30676,57948,42164
30733,57965,42087
30780,57981,41965
30740,57975,42368
30713,57991,42331
30732,57991,42443
30698,57924,42471
30636,58038,42655
30664,58029,42567
30708,58047,42733
30664,58063,42663
30722,58077,42855
30785,58005,42759
30765,58093,42981
30770,58117,43004
30737,58111,43109
30695,58119,43015
30664,58151,43211
30668,58164,43245
30732,58103,43391
30712,58197,43399
30746,58119,43172
30805,58143,43575
30780,58155,43605
30812,58229,43663
30884,58221,43551
30912,58247,43497
30903,58247,43719
30920,58239,43399
30936,58247,43951
30964,58271,43999
31028,58172,44067
31160,58276,43887
31232,58271,44212
31256,58263,44263
31281,58277,44287
31252,58231,44445
31197,58293,44415
31296,58280,44481
31390,58247,44621
31406,58281,44679
31476,58341,44717
31520,58295,44767
31521,58328,44770
31528,58333,44790
31548,58244,44770
31508,58351,44831
31468,58357,44981
31509,58365,45010
31552,58375,45135
31497,58375,45109
31494,58375,45191
31572,58303,45189
31648,58375,45243
31708,58399,45037
31885,58356,45183
31988,58413,45332
32081,58423,45191
32127,58439,45220
32208,58455,44925
32285,58471,45183
32368,58409,45245
32543,58429,45367
32476,58503,45319
32342,58503,45324
32386,58503,45208
32417,58532,45158
32477,58519,45161
32490,58559,45254
32517,58591,45188
32464,58589,45130
32415,58599,45063
32360,58535,44991
32308,58557,44967
32280,58555,44783
32256,58663,44781
32244,58671,44845
32249,58689,44804
32288,58719,44697
32241,58631,44652
31984,58681,44551
31740,58681,44479
31425,58759,44367
30996,58791,43813
30433,58804,44076
29868,58807,44133
29256,58824,44063
28708,58836,43984
28544,58879,43383
28808,58887,43727
29344,58887,43685
30028,58913,43445
30704,58935,43503
31340,58909,43439
32104,58990,43383
32935,58996,43235
33612,59015,43095
34716,59023,42676
36428,58964,42759
38260,59071,42927
39930,59077,42708
41616,59092,42676
43108,59055,42407
43968,59135,42373
44108,59141,42033
43776,59124,42127
43248,59143,42215
42481,59175,41919
41624,59175,41900
40596,59191,41591
39436,59209,41604
38333,59215,41639
37200,59221,41396
36116,59181,41454
35142,59247,41231
34405,59252,41309
33872,59183,41036
33444,59301,41079
33092,59301,40838
32940,59327,40772
32800,59263,40535
32812,59348,40676
32877,59359,40455
32823,59359,40265
32672,59367,40416
32609,59381,40189
32550,59311,40171
32448,59431,40076
32452,59437,39943
32481,59455,39916
32460,59495,39799
32504,59511,39663
32565,59509,39697
32504,59527,39528
32302,59455,39469
32244,59559,39259
32178,59551,39138
32086,59612,39212
32208,59559,39119
32359,59671,39197
32504,59687,38959
32580,59719,38759
32676,59727,38799
32641,59759,38732
32604,59783,38775
32598,59815,38573
32565,59747,38526
32516,59872,38389
32512,59831,38201
32549,59909,38113
32540,59943,38022
32624,59975,38117
32669,60007,38023
32661,59997,38100
32620,60039,37360
32584,60079,37631
32578,60085,37679
32497,60148,37543
32540,60189,37545
32608,60215,37373
32636,60228,37492
32665,60260,37325
32728,60277,37349
32700,60227,37233
32696,60335,37291
32724,60355,37076
32748,60371,36969
32737,60332,36925
32780,60452,36879
32844,60469,36965
32844,60485,36743
32820,60501,36808
32842,60500,36617
32800,60551,36531
32757,60564,36651
32769,60591,36021
32764,60527,36341
32700,60647,36461
32736,60626,36004
32797,60679,36183
32808,60719,36297
32832,60743,36084
32905,60762,36085
32916,60775,35887
32820,60791,36084
32791,60815,35700
32800,60807,35873
32754,60858,35884
32757,60868,35748
32871,60841,35732
32894,60909,35503
32945,60903,35709
33049,60909,35535
33053,60956,35164
33008,60889,35367
33004,60986,35229
32964,61023,35239
32829,61021,35329
32857,61037,35295
32897,61028,35079
32940,61092,35260
33052,61093,35140
33192,61109,34983
33173,61039,35087
33136,61122,34973
33132,61151,35127
33116,61159,34951
33047,61183,34905
33034,61153,34985
33084,61223,34628
33152,61217,34656
33185,61237,34786
33252,61173,34661
33231,61271,34469
33229,61273,34713
33268,61285,34396
33252,61293,34473
33205,61319,34455
33345,61332,34311
33404,61341,34321
33412,61381,34235
33468,61359,34364
33564,61375,33927
33580,61347,34077
33556,61333,34039
33596,61404,34054
33628,61429,34123
33657,61428,33692
33756,61447,33743
33800,61471,33818
33840,61413,33791
33948,61493,33684
34062,61503,33527
34056,61495,33543
34052,61511,33525
34085,61519,33479
34106,61479,33551
34079,61548,33087
34108,61551,33271
34140,61557,33311
34140,61487,33189
34159,61595,32996
34172,61575,32986
34096,61575,32984
34022,61597,33025
34000,61615,32439
34000,61597,32775
33864,61639,32311
33757,61634,32447
33792,61575,32637
33816,61607,32497
33895,61655,32391
33856,61671,32357
33700,61679,32263
33632,61665,32343
33556,61575,32037
33460,61693,32072
33332,61703,32015
33306,61701,31931
33342,61725,31894
33284,61729,31879
33326,61735,31577
33380,61727,31693
33352,61733,31622
33305,61751,31683
33324,61665,31255
33316,61756,31397
33272,61767,31363
33280,61767,31324
33360,61788,31286
33356,61789,31293
33393,61787,31143
33428,61747,31077
33437,61812,31049
33436,61823,31095
33464,61793,30898
33476,61735,30751
33456,61829,30771
33476,61814,30784
33536,61847,30868
33512,61788,30319
33562,61863,30524
33589,61856,30619
33604,61831,30559
33616,61869,30627
33639,61860,30091
33561,61795,30259
33493,61882,30412
33588,61889,30351
33602,61887,30412
33538,61927,30191
33589,61916,30231
33640,61831,30173
33652,61917,30031
33640,61919,30086
33684,61925,30024
33700,61925,29941
33608,61885,29999
33636,61959,29987
33728,61959,30101
33730,61959,29652
33728,61987,29725
33781,61983,29698
33784,61988,29711
33752,61989,29836
33805,61991,29831
33818,61919,29830
33801,62023,29575
33852,62023,29607
33892,61956,29679
33887,62063,29663
33900,62047,29660
33951,62055,29698
33952,62068,29769
33927,62079,29764
33922,62087,29597
33880,62087,29684
33844,62021,29700
33888,62127,29721
33916,62131,29728
33917,62149,29741
33952,62077,29791
33998,62177,29904
33999,62165,29454
33982,62167,29612
33980,62179,29796
33972,62172,29831
33941,62191,29791
33948,62167,29776
34009,62215,29845
33997,62196,29921
34044,62212,29897
34112,62209,30045
34116,62143,29900
34080,62207,29767
34012,62207,29997
33988,62111,29965
33976,62213,29953
34005,62157,29732
34036,62207,29875
34040,62211,29753
34026,62183,29876
34028,62215,30010
34032,62199,30085
34024,62213,30251
34092,62213,30043
34057,62162,30087
34004,62209,30196
34025,62137,30161
34046,62199,30308
33985,62251,30215
33949,62231,30375
34026,62240,30253
34080,62247,30377
34060,62173,30057
34144,62257,30269
34141,62267,30303
34080,62209,30201
34100,62295,30335
34128,62296,30461
34080,62308,30343
34100,62331,30275
34156,62319,30327
34141,62311,30407
34052,62253,30524
34004,62302,30427
33965,62343,30422
33916,62367,30341
33920,62359,30265
33908,62388,30522
33857,62311,30412
33844,62359,30517
33872,62405,30644
33864,62407,30516
33824,62415,30522
33857,62325,30549
33804,62433,30635
33697,62455,30578
33692,62447,30724
33702,62460,30623
33580,62471,30685
33476,62471,30631
33508,62503,30761
33548,62468,30671
33653,62503,30756
33708,62495,30698
33656,62519,30839
33624,62471,30727
33632,62529,30861
33648,62544,30756
33616,62556,30845
33616,62519,30567
33724,62567,30787
33788,62581,30593
33756,62575,30735
33752,62511,30695
33746,62615,30693
33664,62619,30531
33636,62636,30880
33684,62617,30916
33676,62671,31079
33677,62671,30956
33716,62687,31044
33688,62680,30660
33596,62654,30877
33552,62679,31022
33460,62682,31065
33380,62685,31155
33384,62701,31065
33436,62663,30919
33456,62711,31036
33470,62711,31098
33533,62711,31083
33524,62621,31164
33445,62710,31310
33444,62695,30885
33437,62663,31183
33404,62716,31343
33412,62711,30925
33448,62719,31391
33436,62623,30999
33444,62727,31287
33448,62661,31355
33397,62709,31396
33375,62724,31223
33381,62703,31505
33353,62636,31053
33304,62679,31357
33316,62727,31599
33340,62749,31111
33321,62755,31589
33344,62641,31462
33375,62709,31573
33356,62727,31581
33298,62747,31617
33300,62753,31623
33308,62759,31631
33248,62678,31674
33228,62781,31567
33260,62777,31624
33220,62791,31703
33196,62725,31833
33086,62815,31724
32770,62783,31629
32392,62814,31733
31980,62807,31799
31424,62765,31895
30760,62819,31492
30153,62825,31743
29788,62751,31953
29617,62855,31588
29780,62841,31879
30377,62855,31995
30964,62791,31875
31508,62855,31971
32344,62868,31975
33136,62855,31915
33828,62877,31959
34314,62802,32124
35100,62911,31797
36312,62916,31994
38088,62913,32111
39968,62908,32065
41691,62909,32127
43255,62919,31825
44308,62919,32023
44512,62901,32012
44152,62932,31969
43464,62876,32231
42560,62909,31982
41446,62949,32148
40232,62887,32255
38977,62943,32208
37720,62943,32076
36580,62935,32152
35648,62909,32201
34815,62943,32349
34188,62941,32237
33716,62948,32231
33405,62892,32155
33109,62951,32255
32932,62949,32383
32822,62940,32333
32686,62948,32445
32516,62935,32244
32424,62871,32343
32348,62935,32509
32256,62941,32311
32194,62943,32365
32136,62927,32316
32012,62935,32031
31961,62850,32261
32041,62935,32444
32096,62916,32444
32040,62927,32543
32036,62863,32391
32052,62893,32492
32050,62919,32592
32072,62917,32495
32076,62928,32435
32064,62903,32375
32013,62909,32482
31992,62829,32599
31914,62919,32532
31852,62847,32663
31897,62883,32295
31868,62879,32400
31840,62919,32509
31880,62879,32530
31956,62887,32457
31952,62893,32671
31995,62808,32583
32006,62900,32527
31993,62887,32451
31940,62875,32553
31852,62853,32277
31844,62775,32745
31864,62823,32608
31936,62855,32569
32034,62855,32565
32033,62855,32561
32028,62759,32612
32092,62843,32250
32145,62845,32710
32095,62829,32231
32097,62821,32719
32084,62823,32221
32048,62831,32663
32028,62823,32367
32032,62809,32575
31968,62788,32255
31956,62727,32767
32000,62815,32485
32060,62791,32615
32038,62789,32351
32100,62695,32571
32097,62767,32589
32015,62727,32580
32032,62774,32594
32124,62676,32629
32117,62775,32791
32084,62767,32439
32129,62663,32551
32116,62759,32577
32106,62749,32615
32145,62727,32765
32116,62727,32599
32097,62727,32453
32108,62721,32586
32136,62716,32636
32104,62701,32765
32090,62723,32207
32140,62713,32518
32149,62691,32539
32108,62690,32510
32095,62610,32618
32096,62683,32584
32028,62650,32624
32049,62679,32508
32084,62671,32421
32044,62675,32507
32024,62651,32287
32050,62629,32341
32081,62651,32359
32040,62655,32468
32033,62598,32483
32096,62637,32577
32144,62621,32455
32164,62631,32602
32209,62620,32457
32212,62557,32551
32249,62621,32429
32300,62599,32546
32287,62599,32399
32354,62599,32529
32426,62591,32376
32399,62573,32485
32368,62591,32317
32384,62471,32463
32458,62583,32310
32468,62575,32411
32472,62575,32285
32468,62556,32287
32496,62471,32239
32476,62559,32271
32503,62543,32177
32496,62524,32199
32452,62543,32135
32482,62543,32209
32528,62535,32139
32520,62519,32221
32564,62522,32111
32644,62523,32022
32680,62505,31979
32644,62463,31978
32676,62471,31849
32685,62471,31721
32656,62447,32047
32668,62492,31935
32697,62471,32097
32684,62471,31927
32664,62471,31855
32692,62389,31725
32672,62463,31727
32601,62455,31996
32581,62431,31850
32556,62437,31939
32446,62343,31815
32429,62437,31878
32440,62439,31748
32373,62445,31663
32348,62423,31735
32292,62407,31495
32186,62407,31841
32088,62309,31693
32064,62405,31639
32066,62399,31506
32002,62390,31343
32004,62380,31523
32047,62381,31239
31953,62307,31696
31884,62393,31580
31940,62343,31701
31965,62360,31367
31896,62271,31383
31898,62319,31585
31912,62339,31509
31840,62247,31631
31812,62321,31493
31852,62343,31588
31896,62325,31463
31917,62245,31597
31952,62271,31422
31977,62321,31510
31936,62307,31428
31974,62295,31273
31984,62293,31554
31944,62288,31407
31940,62285,31495
31982,62279,31374
31950,62215,31367
31968,62279,31260
32046,62271,31375
32021,62271,31461
31972,62178,31372
32005,62215,31493
32061,62231,31356
32002,62245,31406
32036,62236,31345
32109,62215,31350
32088,62215,31196
32100,62215,31317
32164,62201,31300
32164,62201,31335
32126,62199,31275
32156,62108,31277
32112,62084,31201
32072,62177,31271
32084,62175,31276
32184,62159,31224
32177,62167,31296
32142,62158,31332
32202,62113,31367
32204,62143,31476
32184,62105,31381
32165,62113,31422
32148,62117,31373
32084,62023,31495
32060,62055,31385
32088,62119,31421
32092,62101,31383
32088,62087,31359
32180,62007,31423
32199,62087,31501
32129,62087,31446
32142,62047,31449
32148,62063,31447
32100,62053,31407
32026,61957,31332
32088,62055,31253
32073,62063,31489
32100,62055,31514
32180,62007,31653
32169,62023,31535
32096,62018,31508
32096,62013,31429
32120,61990,31569
32060,61895,31709
32048,62013,31583
32108,61959,31711
32088,61983,31607
32096,61988,31751
32137,61889,31635
32164,61959,31751
32112,61959,31655
32124,61949,31751
32137,61919,31684
32097,61943,31811
32101,61935,31709
32140,61935,31748
32124,61931,31733
32117,61888,31823
32172,61925,31758
32208,61909,31751
32142,61895,31774
32169,61887,31932
32172,61882,31817
32127,61883,31964
32096,61879,31535
32156,61871,31783
32212,61879,31901
32212,61879,31845
32220,61855,31801
32218,61863,32034
32169,61845,31929
32144,61773,32074
32130,61831,31943
32056,61831,31865
32077,61831,31613
32169,61812,31929
32216,61815,32143
32176,61825,32003
32228,61797,32129
32234,61781,31866
32184,61799,32046
32159,61780,32201
32132,61767,32084
32016,61765,32223
32028,61765,32069
32064,61767,32044
32050,61761,31952
32077,61679,31803
32130,61671,32143
32157,61733,31810
32144,61747,31990
32172,61717,32143
32228,61703,32051
32214,61703,32151
32140,61635,32245
32148,61693,32211
32081,61703,32311
32068,61703,32259
32096,61687,32367
32060,61671,32287
31988,61701,32405
32004,61671,32325
32000,61667,32479
31976,61575,32338
32000,61575,32497
32032,61671,32366
31998,61623,32519
31948,61652,32401
31982,61623,32511
31989,61638,32422
31936,61638,32518
31921,61637,32455
31900,61597,32601
31844,61551,32465
31876,61621,32612
31961,61605,32481
32012,61607,32585
31980,61605,32511
32028,61516,32655
32076,61567,32541
32040,61591,32621
32030,61565,32567
32110,61549,32717
32096,61565,32591
32089,61527,32735
32158,61565,32598
32160,61559,32775
32164,61559,32638
32248,61543,32775
32260,61537,32669
32206,61439,32812
32212,61533,32680
32220,61527,32812
32152,61525,32701
32124,61495,32769
32140,61501,32717
32108,61503,32683
32088,61511,32710
32109,61503,32775
32168,61477,32720
32166,61485,32832
32135,61383,32751
32124,61405,32887
32149,61467,32433
32168,61447,32812
32216,61447,32756
32220,61447,32931
32102,61447,32635
32125,61431,32775
32160,61417,32797
32135,61427,32857
32196,61369,32966
32276,61404,32617
32276,61383,32756
32247,61391,32679
32296,61393,32747
32293,61359,32537
32305,61399,32775
32312,61379,32853
32289,61371,32890
32228,61351,33069
32184,61367,32548
32168,61340,32763
32081,61351,32933
32015,61367,32953
32020,61343,33101
32040,61349,32965
32056,61327,33044
32088,61255,32975
32118,61319,33108
31996,61317,32997
31777,61311,33143
31457,61283,32988
31072,61303,33021
30616,61307,32647
30094,61261,32948
29504,61303,32887
28901,61282,32946
28549,61191,33055
28449,61282,33054
28669,61255,33196
29193,61263,33054
29853,61245,33113
30520,61267,32998
31436,61231,33159
32320,61247,33059
33068,61255,32943
33516,61191,33189
34357,61274,32665
35776,61255,33055
37513,61191,33209
39233,61245,33101
40860,61229,33236
42284,61212,33086
43028,61231,33223
43088,61231,32821
42652,61211,33077
41863,61221,33092
40908,61223,33125
39828,61159,33217
38601,61221,33133
37324,61171,33281
36102,61186,33165
35036,61149,33269
34098,61159,32775
33404,61191,33007
32871,61191,33175
32458,61159,33188
32220,61169,33343
31988,61127,33197
31780,61167,33090
31630,61155,33181
31536,61124,33237
31380,61136,33370
31228,61132,33252
31200,61135,33349
31148,61125,33259
31069,61135,33181
31104,61031,33209
31108,61143,33287
31044,61117,33397
31056,61093,33070
31012,61095,33189
30924,61095,33301
30850,61089,33309
30864,61015,33444
30847,61093,33191
30873,61039,33273
30937,61063,33311
30937,61063,33339
30877,61063,33428
30924,61053,33335
31038,60967,33189
31085,61039,33327
31065,61053,33325
31100,61031,33431
31141,61031,33324
31160,60935,33287
31196,61039,33310
31207,61021,33365
31132,61015,33476
31133,61001,33372
31127,60991,33495
31124,60892,33333
31136,61005,33216
31201,60935,33303
31205,60997,33318
31236,60935,33411
31340,60959,33379
31404,60975,33324
31364,60967,33319
31348,60863,33379
31386,60935,33479
31380,60935,33375
31348,60951,33508
31335,60864,33135
31380,60935,33243
31350,60935,33494
31474,60919,32975
31482,60845,33259
31468,60887,33367
31453,60917,33333
31517,60911,33409
31500,60883,33356
31474,60909,33486
31504,60887,33371
31508,60807,33369
31548,60866,33401
31644,60879,33350
31700,60871,33271
31660,60859,33489
31609,60855,32914
31636,60807,33159
31557,60831,33409
31521,60839,33348
31548,60847,33405
31573,60836,33083
31684,60807,33153
31821,60839,33207
31920,60823,33229
31917,60767,33206
31908,60781,33135
31901,60805,33253
31862,60775,33241
31824,60789,33303
31862,60792,33255
31856,60797,33357
31904,60784,33282
31920,60755,33413
31981,60795,33082
31962,60767,33287
31921,60753,33373
31941,60757,33181
31892,60679,33235
31892,60661,33320
31992,60732,33262
32076,60751,33343
32100,60733,33166
32108,60726,33093
32138,60727,33332
32120,60719,33185
32105,60711,33265
32154,60701,33181
32144,60711,33124
32104,60655,33127
32184,60707,33156
32202,60669,33206
32180,60707,33173
32253,60679,33323
32320,60591,33197
32300,60679,33309
32292,60663,32765
32298,60655,32991
32270,60611,33066
32260,60661,33079
32312,60641,33085
32365,60660,32970
32404,60655,32989
32484,60647,33037
32524,60551,32709
32487,60631,33252
32485,60645,33132
32532,60623,33202
32532,60615,33093
32544,60615,33045
32564,60605,33111
32612,60615,33099
32636,60535,33229
32708,60527,33084
32780,60511,32980
32725,60511,33229
32640,60583,33092
32578,60583,33039
32501,60591,32925
32500,60579,32753
32521,60579,33188
32524,60568,32925
32476,60575,33051
32465,60569,33095
32481,60551,32984
32344,60551,33057
32256,60551,33153
32216,60471,32932
32159,60541,33053
32100,60477,33157
32033,60444,33015
31960,60543,33066
31951,60535,32956
31973,60525,32853
31980,60519,32887
31926,60517,32935
31877,60508,32879
31941,60471,32981
31900,60511,33062
31884,60500,33055
31952,60511,32783
31966,60495,33164
31946,60496,33056
31998,60485,33111
32032,60479,33007
31982,60483,32859
31956,60477,33045
31972,60375,32721
31956,60463,32991
31880,60468,33025
31916,60447,33040
31968,60455,33053
32005,60461,32935
32058,60359,33000
32100,60375,33001
32072,60423,32871
32044,60423,33165
32085,60413,32705
32085,60423,33048
32070,60359,32859
32140,60415,33157
32172,60423,33077
32148,60423,33199
32194,60423,33123
32256,60399,33218
32272,60372,32848
32229,60380,33047
32241,60279,32844
32250,60388,33053
32220,60340,33043
32252,60365,33132
32253,60375,32775
32228,60287,33137
32246,60352,33121
32332,60352,33230
32332,60359,33159
32281,60341,33271
32313,60326,33159
32277,60327,33171
32241,60275,33158
32289,60341,33108
32262,60321,32997
32244,60324,32835
32276,60327,33007
32324,60223,32969
32316,60311,32999
32310,60295,32961
32337,60279,33097
32348,60276,33124
32340,60199,33167
32372,60259,33316
32388,60277,33199
32352,60274,33333
32397,60263,32775
32405,60253,33160
32416,60231,33073
32340,60244,33055
32376,60233,32863
32374,60229,33207
32328,60245,33031
32349,60231,33063
32373,60231,32827
32368,60231,33121
32424,60196,33278
32439,60221,33204
32452,60211,33357
32412,60199,33207
32404,60189,33083
32392,60197,33392
32369,60191,33253
32380,60100,33305
32388,60202,33269
32392,60207,33214
32413,60197,33183
32451,60165,33259
32428,60167,33397
32421,60119,33252
32437,60135,33388
32412,60141,33295
32392,60161,33415
32400,60151,33309
32412,60135,33401
32404,60135,33296
32468,60108,33448
32492,60135,32951
32468,60127,33265
32454,60117,33361
32480,60061,33343
32503,60103,33463
32475,60087,33311
32448,60100,33485
32464,60115,33353
32500,60103,33492
32496,60076,33353
32556,60023,33500
32510,60039,33341
32502,60087,33351
32497,60063,32983
32446,60071,33276
32448,60071,33316
32473,60005,33209
32548,60039,33380
32572,60071,33391
32597,60061,33527
32616,60039,33393
32549,60039,33511
32513,60039,32974
32492,59975,33226
32457,60039,33388
32413,60031,33410
32425,60037,33423
32424,60029,33341
32399,59935,33395
32408,60031,33415
32420,60031,33565
32372,60023,33383
32312,60012,33332
32350,60013,33373
32368,59997,33433
32366,59997,33533
32457,59999,33415
32537,59991,33428
32548,59993,33055
32560,60007,33276
32597,59989,33271
32568,59991,33263
32556,59937,33431
32620,59943,33451
32660,59973,33506
32636,59879,33324
32728,59975,33435
32828,59956,33587
32804,59873,33105
32844,59981,33403
32880,59957,33575
32817,59865,33069
32764,59957,33369
32781,59949,33436
32726,59933,33447
32638,59895,33583
32640,59911,33031
32668,59932,33351
32649,59911,33551
32716,59941,33441
32768,59911,33529
32793,59871,33407
32748,59911,33263
32764,59895,33433
32780,59892,33447
32704,59887,33538
32748,59903,33373
32822,59884,33364
32797,59895,33473
32821,59808,33435
32862,59895,33451
32849,59887,33425
32800,59873,33452
32776,59863,33004
32720,59849,33391
32664,59815,33363
32725,59871,33415
32806,59855,33471
32783,59783,33117
32816,59861,33243
32840,59833,33437
32840,59847,33415
32790,59828,33495
32801,59759,33407
32776,59815,33410
32701,59827,33276
32712,59735,33343
32764,59828,33403
32737,59799,33540
32754,59823,33196
32784,59795,33277
32698,59805,33423
32436,59717,33403
32119,59781,33028
31756,59744,33285
31332,59751,33372
30818,59783,33389
30311,59783,33453
29737,59687,32943
29392,59783,33333
29316,59775,33151
29484,59735,33197
29921,59759,33278
30530,59750,33301
31164,59764,33325
31948,59759,33269
32735,59751,33293
33404,59751,33296
33832,59677,33423
34704,59775,33343
36228,59751,33383
38039,59749,33348
39768,59736,33415
41392,59741,33341
42812,59735,33445
43516,59679,33333
43564,59735,33377
43132,59751,33271
42328,59717,33306
41304,59735,33189
40228,59719,33159
38996,59721,33145
37631,59714,33329
36488,59695,33314
35487,59646,33347
34585,59716,33298
33856,59727,33415
33392,59700,33287
33041,59707,33188
32777,59714,33253
32588,59604,33287
32436,59597,33253
32292,59635,33205
32196,59655,33059
32028,59687,33145
31866,59655,33265
31789,59669,33284
31808,59655,33271
31765,59591,33316
31716,59687,33303
31721,59655,33092
31703,59655,33317
31636,59647,33455
31657,59645,33325
31640,59551,33452
31577,59586,33007
31568,59653,33183
31597,59645,33157
31576,59641,33283
31634,59629,33318
31672,59631,33247
31660,59527,33026
31599,59606,33399
31630,59619,33377
31628,59623,33500
31620,59612,33380
31596,59621,33469
31636,59564,33377
31630,59587,33347
31638,59591,33381
31708,59591,33405
31720,59591,33535
31713,59500,33407
31724,59559,33357
31709,59580,33356
31717,59583,33415
31744,59585,33425
31821,59581,33283
31813,59574,33157
31845,59565,33462
31876,59561,33358
31864,59557,33531
31816,59564,33412
31864,59457,33479
31884,59556,33407
31876,59521,33486
31860,59549,33397
31896,59543,33381
31880,59527,33463
31881,59519,33381
31944,59526,33452
31972,59517,33345
31927,59527,33425
31986,59503,33391
31972,59524,33453
31904,59508,33376
31936,59423,33484
31989,59522,33373
32021,59527,33474
32052,59511,33352
32128,59501,33351
32141,59508,33279
32095,59495,33307
32117,59399,33177
32141,59396,32999
32133,59431,33439
32140,59461,33350
32180,59477,33303
32152,59485,33391
32133,59437,33355
32208,59479,33287
32257,59475,33350
32232,59471,33311
32238,59460,33268
32272,59455,33200
32188,59454,32949
32180,59455,33447
32196,59453,33301
32212,59364,33392
32245,59439,33260
32320,59445,32935
32349,59392,33455
32357,59399,33263
32410,59399,32949
32392,59433,33441
32326,59439,33111
32313,59431,33308
32380,59439,33345
32398,59428,33213
32422,59391,32908
32480,59399,33369
32528,59399,32847
32495,59399,33413
32522,59389,33271
32577,59388,33304
32572,59399,33231
32605,59393,33219
32650,59331,33239
32628,59317,33287
32660,59311,33194
32732,59399,33239
32760,59399,33191
32758,59389,33191
32752,59381,33115
32727,59351,33137
32678,59367,33167
32729,59367,33231
32850,59367,33332
32876,59373,33255
32908,59375,33359
32984,59335,33229
32989,59303,33380
32926,59301,33231
32954,59271,33191
32968,59316,33135
32952,59359,33241
32988,59361,33317
33030,59358,33175
33008,59363,33220
33047,59348,33362
33068,59346,33212
33025,59321,33253
32952,59320,33173
32918,59327,33175
32924,59319,33145
32876,59323,32871
32820,59316,33325
32805,59319,33215
32728,59316,33170
32708,59319,33062
32724,59323,32839
32628,59313,33329
32570,59303,33133
32556,59300,33236
32524,59276,33174
32433,59301,33369
32312,59309,33210
32318,59303,33255
32307,59312,33229
32326,59303,33224
32407,59287,33166
32385,59271,33028
32318,59271,33311
32316,59271,33196
32296,59271,33180
32276,59271,32869
32292,59277,33177
32337,59196,33231
32324,59207,33349
32328,59231,33211
32384,59195,33005
32385,59221,33358
32357,59271,33234
32402,59223,33377
32416,59239,33232
32409,59247,33169
32340,59263,33319
32382,59241,33239
32388,59255,33287
32443,59252,33104
32544,59239,32961
32586,59239,33382
32565,59247,33239
32555,59233,33349
32557,59231,33229
32520,59239,33183
32532,59231,33143
32584,59173,32861
32590,59223,33316
32617,59143,33235
32676,59231,33358
32667,59229,33213
32616,59220,33374
32660,59215,33247
32620,59207,33217
32574,59215,33137
32576,59143,33029
32636,59215,33087
32624,59197,33241
32640,59213,33263
32644,59207,33287
32665,59122,33238
32644,59207,33246
32664,59195,33262
32688,59189,33399
32624,59191,33241
32648,59185,33201
32734,59183,33117
32732,59143,33283
32756,59127,33364
32804,59191,33263
32809,59183,33201
32796,59183,33415
32776,59165,33279
32729,59157,33341
32689,59172,33267
32702,59095,33287
32820,59078,33199
32862,59143,33270
32816,59175,33429
32834,59165,33295
32848,59143,33347
32821,59143,33273
32864,59143,33318
32872,59079,33254
32823,59124,33326
32800,59143,33228
32866,59133,33237
32824,59142,33353
32840,59143,33315
32908,59143,33405
32944,59125,33285
32908,59111,33318
32929,59103,33151
32949,59111,32901
32912,59107,33465
32968,59109,33341
33048,59111,33351
33001,59116,33150
33013,59087,33039
33095,59111,33287
33133,59111,33346
33076,59111,33346
33086,59103,33192
33113,59071,33343
33076,59069,33265
33065,59045,33342
33160,59059,33295
33166,59079,33430
33164,59095,33332
33228,59052,33323
33246,59052,33147
33220,59074,33277
33198,59066,33273
33221,59078,32923
33189,59070,33439
33193,58983,33199
33246,59039,33031
33216,59031,33347
33173,59068,32896
33199,59060,33339
33230,59061,33327
33184,59055,33447
33212,59045,33283
33256,59039,33057
33244,59047,33477
33212,59015,33347
33208,59039,33240
33188,59015,33389
33200,59039,33345
33236,59036,33431
33281,58951,33309
33232,58937,32951
33246,58956,33488
33296,59029,33347
33306,59025,33373
33344,59029,33217
33396,59015,33149
33412,59015,33275
33437,59015,32957
33536,59013,33515
33556,59009,33369
33564,59015,33388
33610,58993,33223
33624,58907,32999
33602,59005,33305
33648,59015,33351
33728,58999,33463
33716,59007,33369
33718,59004,33468
33760,58997,33382
33844,58991,33408
33800,58991,33251
33808,58991,33157
33836,58967,33537
33764,58978,33391
33728,58887,33396
33796,58887,33327
33840,58949,33375
33857,58957,33462
33968,58925,33217
33996,58887,33009
33972,58979,33400
33996,58941,33411
33996,58887,33399
33952,58869,33241
33940,58887,33413
34012,58876,33447
34084,58879,33341
34129,58909,33251
34184,58911,33509
34220,58884,33385
34198,58924,33363
34224,58887,33543
34240,58943,33413
34181,58942,33549
34165,58921,33415
34238,58917,33359
34284,58931,33239
34304,58941,33279
34360,58943,33435
34388,58919,33076
34360,58943,33436
34404,58909,33287
34464,58909,33236
34404,58917,33535
34388,58925,33387
34503,58919,33207
34489,58917,33427
34468,58853,33316
34412,58887,33341
34209,58917,33311
33886,58916,33303
33527,58907,33028
33128,58887,33564
32536,58909,33444
31952,58887,33588
31512,58887,33461
31277,58887,33471
31272,58887,33333
31669,58887,33052
32258,58863,33525
32792,58887,33378
33480,58887,33119
34388,58887,33585
35168,58887,33469
35777,58887,33513
36436,58909,33303
37556,58911,33106
39136,58909,33557
40868,58885,33021
42596,58885,33457
44089,58880,33364
45308,58823,33423
45796,58887,33511
45676,58861,33465
45152,58881,33569
44332,58884,33414
43276,58884,33471
42104,58833,33471
40908,58887,33604
39716,58855,33097
38592,58887,33377
37649,58865,33497
36872,58841,33463
36192,58884,33608
35742,58880,33481
35469,58871,33441
35228,58821,33423
35065,58883,33477
35000,58875,33605
34948,58869,33453
34806,58833,33337
34716,58855,33445
34660,58855,33435
34560,58855,33457
34498,58855,33508
34540,58855,33548
34568,58777,33490
34540,58861,33589
34601,58869,33532
34604,58855,33567
34632,58807,33383
34640,58820,33389
34664,58835,33439
34636,58743,33524
34600,58842,33539
34641,58823,33668
34668,58842,33319
34717,58757,33486
34816,58845,33477
34864,58833,33435
34864,58815,33287
34860,58823,33415
34880,58823,33377
34854,58820,33628
34848,58746,33167
34896,58829,33398
34912,58829,33517
34944,58820,33404
34997,58823,33548
35028,58815,33407
35028,58815,33434
35038,58814,33717
35044,58805,33589
35032,58805,33533
35077,58807,33458
35172,58799,33260
35208,58813,33711
35240,58807,33574
35305,58807,33599
35348,58807,33431
35329,58805,33269
35316,58807,33695
35334,58799,33587
35339,58796,33551
35300,58807,33561
35360,58791,33598
35384,58805,33399
35334,58807,33463
35428,58813,33598
35503,58799,33579
35542,58796,33575
35592,58799,33525
35620,58791,33585
35600,58793,33561
35589,58797,33407
35672,58791,33589
35680,58759,33501
35657,58823,33716
35696,58807,33516
35724,58791,33513
35705,58804,33580
35742,58783,33559
35768,58776,33518
35792,58758,33383
35792,58717,33522
35864,58711,33639
35880,58715,33506
35877,58751,33501
35928,58775,33353
35942,58791,33212
35940,58759,33618
35925,58727,33511
35982,58695,33467
35924,58695,33334
35927,58719,33099
36018,58791,33635
36028,58759,33493
35984,58721,33542
36052,58727,33446
36116,58736,33455
36028,58759,33343
36053,58759,33063
36128,58759,33569
36060,58780,33445
36042,58775,33375
36098,58703,33561
36125,58791,33325
36093,58789,33433
36172,58783,33519
36236,58777,33255
36216,58791,33436
36228,58783,33565
36292,58772,33399
36270,58781,33327
36264,58783,33391
36316,58767,33398
36373,58783,33349
36324,58791,33252
36372,58789,33135
36444,58781,33511
36412,58789,33367
36438,58780,33319
36476,58759,33287
36441,58783,33355
36408,58783,33357
36429,58783,33182
36468,58784,33293
36440,58791,33295
36494,58783,33321
36540,58781,33479
36524,58785,33279
36484,58775,33047
36516,58783,33477
36488,58783,33325
36494,58781,33276
36504,58757,33457
36516,58797,33223
36446,58797,33287
36417,58784,33381
36412,58783,33293
36329,58783,33265
36260,58777,32893
36244,58781,33299
36192,58797,33172
36106,58757,33284
36108,58711,33325
36092,58796,33415
36009,58801,33278
36025,58790,33045
35992,58781,33248
35893,58813,33425
35839,58815,33253
35820,58747,33317
35692,58743,33073
35596,58749,33418
35612,58759,33303
35612,58733,33228
35588,58775,33359
35609,58812,33303
35601,58813,33252
35537,58812,33271
35504,58807,33283
35525,58787,33444
35472,58735,33287
35441,58820,33241
35474,58821,33216
35492,58837,33273
35468,58823,33447
35488,58832,33309
35548,58823,33052
35493,58832,33405
35449,58823,32900
35445,58823,33383
35376,58823,33287
35344,58833,33115
35396,58804,33458
35452,58831,33305
35413,58826,33250
35429,58820,33343
35480,58855,33339
35432,58837,33473
35439,58839,33337
35460,58837,33444
35400,58831,33318
35376,58863,33261
35407,58871,33431
35388,58887,33342
35372,58887,33425
35409,58879,33324
35428,58863,33317
35384,58871,33197
35292,58883,33101
35305,58855,33477
35272,58860,33301
35233,58887,32995
35237,58884,33517
35240,58860,33375
35204,58887,33405
35254,58927,33327
35285,58908,33321
35258,58917,33511
35229,58861,33407
35197,58869,33383
35125,58827,33305
35072,58885,32999
35076,58932,33402
35092,58941,33007
35040,58927,33541
35109,58941,33420
35128,58941,33436
35104,58951,33260
35038,58951,33417
35061,58951,33581
35036,58935,33415
34989,58932,33582
34980,58959,33463
34992,58975,33517
34948,58973,33420
34948,58975,33311
34991,58957,33568
34996,58972,33483
34977,58975,33625
34951,58982,33503
34910,58991,33559
34840,58991,33431
34868,59007,33444
34900,59015,33612
34858,58951,33517
34832,59015,33651
34824,59015,33463
34800,59028,33175
34744,59020,33635
34701,59029,33540
34668,59015,33652
34634,59015,33517
34700,59047,33428
34764,59047,33700
34724,59069,33561
34712,59015,33583
34712,59005,33567
34677,59076,33594
34617,59055,33541
34597,59052,33413
34543,59063,33597
34464,59061,33575
34476,59073,33637
34484,59103,33541
34481,59073,33602
34496,59111,33607
34538,59106,33435
34454,59117,33261
34404,59123,33716
34400,59119,33567
34401,59127,33476
34340,59143,33716
34332,59143,33604
34336,59143,33537
34336,59172,33667
34352,59183,33575
34394,59191,33185
34352,59143,33643
34265,59100,33482
34232,59124,33252
34177,59181,33732
34128,59213,33467
34140,59207,33543
34132,59143,33676
34124,59143,33596
34160,59239,33527
34176,59237,33771
34108,59239,33591
34085,59245,33573
34080,59245,33499
34052,59173,33363
33989,59199,33753
34012,59201,33636
34008,59265,33612
33944,59207,33447
33928,59229,33639
33956,59231,33685
33860,59223,33460
33805,59223,33644
33760,59231,33761
33644,59220,33631
33536,59263,33575
33561,59271,33530
33608,59271,33635
33568,59325,33786
33559,59367,33667
33540,59391,33743
33480,59391,33655
33369,59367,33618
33375,59383,33623
33332,59397,33669
33312,59415,33671
33412,59429,33561
33497,59447,33277
33498,59453,33591
33528,59461,33611
33544,59463,33785
33526,59455,33577
33481,59391,33671
33472,59399,33837
33484,59430,33663
33504,59519,33686
33596,59511,33655
33632,59527,33795
33612,59543,33690
33636,59557,33415
33671,59564,33713
33632,59573,33700
33566,59567,33841
33556,59495,33715
33512,59591,33839
33448,59598,33703
33440,59607,33839
33410,59613,33677
33341,59628,33815
33332,59591,33660
33357,59623,33655
33324,59603,33711
33310,59636,33711
33282,59583,33565
33284,59655,33717
33228,59687,33609
33216,59695,33815
33204,59711,33639
33156,59719,33638
33176,59645,33618
33204,59719,33671
33148,59747,33660
33084,59753,33628
33092,59735,33509
33023,59759,33657
32921,59769,33655
32884,59783,33651
32896,59799,33823
32906,59743,33671
32912,59799,33621
32928,59839,33590
32865,59843,33681
32809,59832,33647
32788,59847,33485
32737,59855,33475
32693,59879,33625
32724,59799,33667
32748,59861,33783
32669,59911,33671
32576,59911,33703
32588,59911,33657
32547,59911,33769
32448,59895,33233
32328,59937,33661
32040,59932,33271
31606,59967,33580
31216,59911,33607
30753,59911,33489
30117,60007,33574
29496,59999,33543
29033,60007,33234
28780,60028,33796
28786,60031,33663
29229,59935,33764
29766,59967,33645
30285,59975,33599
31020,59983,33520
31937,60027,33625
32732,60095,33763
33285,60127,33671
33993,60110,33785
35173,60135,33657
36737,60143,33700
38413,60144,33609
39920,60167,33607
41244,60167,33620
42200,60191,33239
42469,60197,33708
42160,60214,33663
41512,60207,33738
40621,60163,33625
39488,60205,33636
38280,60259,33621
37071,60271,33569
35849,60269,33511
34684,60275,33588
33777,60295,33551
33080,60212,33575
32476,60289,33669
32036,60343,33655
31736,60335,33821
31495,60341,33700
31228,60327,33764
31100,60349,33676
30956,60344,33671
30801,60365,33530
30682,60375,33618
30636,60391,33589
30564,60399,33621
30556,60406,33592
30524,60421,33489
30436,60423,33853
30327,60423,33671
30340,60423,33839
30276,60423,33703
30172,60352,33693
30156,60469,33707
30168,60469,33741
30144,60487,33855
30185,60503,33655
30176,60501,33454
30116,60517,33891
30052,60511,33732
30060,60519,33717
