ECG,EDA,RR
30836,6200,35514
30824,6148,35444
30832,6176,35512
30916,6129,35564
30968,6153,35596
30988,6245,35621
31020,6144,35776
31045,6164,35739
31120,6227,35862
31240,6155,35758
31292,6183,35668
31268,6225,35740
31264,6160,35824
31262,6162,35800
31276,6199,35900
31320,6132,36007
31448,6169,35935
31520,6188,36005
31564,6151,35975
31596,6170,36150
31573,6277,35687
31608,6168,36064
31636,6212,35739
31708,6169,36164
31800,6190,35757
31910,6158,36257
32068,6175,36181
32088,6223,36255
32160,6149,35883
32192,6167,36348
32293,6197,35866
32361,6138,36276
32416,6157,35918
32446,6189,36234
32492,6132,36228
32612,6171,36225
32741,6186,36036
32821,6147,36215
32880,6179,36300
32908,6206,36228
33000,6138,36332
33076,6155,36313
33136,6196,36356
33218,6137,36282
33184,6167,36295
33216,6128,36480
33276,6178,36416
33344,6141,36544
33344,6194,36409
33433,6146,36297
33616,6164,36278
33620,6140,36249
33552,6166,36405
33588,6187,36009
33640,6128,36543
33684,6181,36404
33712,6145,36349
33744,6191,36286
33736,6136,36356
33764,6162,36351
33748,6140,36400
33836,6149,36334
33800,6159,36380
33656,6118,36320
33608,6172,36287
33604,6124,36208
33552,6159,36230
33646,6135,36330
33736,6164,36287
33748,6140,36398
33724,6149,36300
33796,6134,36408
33748,6163,36312
33732,6193,36405
33645,6137,36292
33608,6164,36392
33656,6128,36255
33720,6183,36368
33760,6137,36252
33808,6175,36231
33764,6129,36137
33752,6156,36061
33668,6129,36127
33616,6135,35882
33612,6181,36113
33596,6117,36256
33608,6160,36236
33633,6238,36327
33596,6175,36201
33492,6142,36180
33440,6167,36040
33429,6149,36149
33444,6193,36172
33536,6114,36292
33612,6134,35791
33672,6142,36103
33672,6167,36228
33708,6197,36037
33744,6141,36096
33756,6165,36125
33712,6180,36076
33616,6129,36156
33544,6132,35940
33580,6156,35997
33488,6120,35972
33368,6119,35972
33391,6143,35990
33452,6208,35972
33560,6135,35992
33632,6159,35975
33656,6188,36024
33572,6129,36047
33480,6155,36142
33472,6165,35648
33524,6118,35884
33540,6148,35863
33572,6185,35895
33596,6131,35892
33580,6153,35940
33568,6213,35757
33504,6131,35905
33528,6166,35719
33576,6120,36016
33584,6140,35650
33612,6177,35888
33614,6117,35878
33664,6163,35892
33668,6196,35660
33636,6158,36049
33592,6221,35921
33504,6164,35876
33408,6181,35884
33372,6118,35661
33412,6145,35877
33428,6116,35520
33460,6133,36021
33504,6205,35877
33600,6132,35964
33712,6159,35831
33780,6188,35740
33769,6130,35748
33756,6176,35788
33668,6115,35361
33596,6152,35725
33569,6116,35396
33512,6148,35719
33544,6122,35631
33576,6144,35738
33540,6202,35591
33500,6139,35676
33568,6183,35533
33688,6121,35628
33780,6157,35463
33796,6113,35412
33716,6147,35328
33648,6196,35225
33550,6136,35365
33452,6169,35313
33528,6135,35393
33564,6149,35156
33540,6176,35143
33518,6123,35100
33500,6140,35089
33520,6239,35073
33548,6138,35007
33568,6181,34993
33592,6126,34832
33556,6129,34845
33496,6177,34788
33452,6127,34807
33404,6153,34766
33384,6214,34768
33429,6118,34804
33460,6138,34747
33540,6116,34751
33532,6133,34438
33496,6143,34597
33389,6189,34695
33280,6128,34561
33208,6163,34656
33188,6257,34487
33212,6124,34452
33280,6149,34325
33404,6121,34311
33436,6108,34425
33456,6132,34347
33464,6129,34389
33472,6127,33909
33460,6149,34088
33441,6188,34117
33436,6130,34155
33444,6124,34153
33421,6143,34027
33365,6142,34055
33292,6112,34172
33292,6117,33845
33336,6139,33900
33400,6175,34001
33448,6127,33911
33432,6148,33997
33396,6191,33813
33364,6126,33743
33384,6132,33776
33372,6153,33740
33388,6109,33839
33456,6149,33685
33488,6152,33508
33464,6132,33604
33388,6132,33597
33376,6157,33532
33404,6129,33340
33354,6146,33599
33332,6122,33467
33325,6127,33557
33332,6151,33332
33356,6116,33350
33308,6158,33199
33276,6165,33211
33348,6301,33311
33364,6126,33028
33372,6154,33197
33384,6160,33072
33389,6121,33159
33332,6134,33145
33281,6155,33079
33204,6117,32839
33216,6168,33256
33244,6130,32925
33336,6130,33065
33420,6144,33080
33488,6183,33073
33472,6118,33189
33404,6148,32767
33400,6177,33005
33364,6105,32884
33404,6135,32957
33416,6178,33068
33412,6122,32922
33372,6164,32751
33376,6214,32631
33364,6161,32729
33334,6175,32846
33352,6115,32824
33384,6137,32869
33352,6179,32492
33260,6114,32628
33232,6135,32671
33260,6190,32741
33230,6130,32801
33264,6155,32601
33276,6168,32631
33196,6123,32608
33097,6148,32629
33044,6136,32716
33022,6167,32582
33040,6111,32676
32993,6137,32252
32964,6179,32488
33044,6128,32354
33076,6151,32505
33140,6231,32200
33200,6118,32442
33246,6139,32226
33216,6109,32463
33228,6150,32100
33200,6175,32328
33156,6147,32300
33206,6175,32253
33168,6127,32276
33172,6145,32329
33180,6227,32276
33200,6136,32253
33284,6161,32213
33332,6118,32134
33360,6141,32133
33344,6112,32260
33330,6155,31975
33316,6283,32282
33272,6145,32196
33244,6171,32100
33148,6281,32076
33216,6162,32134
33248,6161,32247
33264,6116,32135
33308,6145,32160
33348,6196,32091
33358,6124,32064
33356,6171,32036
33304,6131,32100
33344,6135,32039
33356,6163,31948
33340,6284,31984
33312,6130,31912
33304,6156,31854
33316,6104,31650
33317,6146,32057
33328,6119,31940
33348,6119,32007
33420,6148,31917
33488,6219,31836
33452,6129,31734
33445,6143,31544
33456,6176,31725
33436,6107,31695
33348,6140,31879
33309,6206,31509
33310,6140,31903
33325,6183,31735
33304,6129,31622
33296,6164,31836
33288,6281,31717
33297,6156,31724
33252,6179,31557
33164,6113,31348
32937,6167,31686
32657,6110,31564
32325,6144,31508
31896,6129,31537
31388,6138,31484
30814,6180,31440
30240,6127,31393
29904,6156,31388
30208,6177,31188
32008,6114,31451
35104,6148,31220
38680,6189,31536
42364,6157,31367
46168,6190,31300
49472,6116,31308
52172,6144,31295
54084,6168,31341
54332,6116,31424
52176,6134,31260
49740,6200,31184
47648,6114,31104
45588,6131,31100
44276,6098,31316
43148,6148,31182
41812,6179,31228
40096,6115,31122
38160,6135,31140
36256,6164,31060
34544,6116,31125
33220,6121,30980
32276,6134,31052
31632,6197,30628
31244,6124,30791
30956,6176,30541
30733,6125,30761
30512,6144,30468
30436,6184,30676
30356,6117,30493
30236,6147,30527
30108,6179,30488
30012,6104,30559
29992,6146,30565
29968,6182,30484
30020,6145,30377
30026,6174,30590
29960,6129,30247
29954,6143,30645
29916,6210,30364
29872,6139,30608
29858,6147,30468
29854,6200,30451
29856,6112,30349
29868,6126,30417
29904,6151,30380
29948,6161,30039
29912,6128,30380
29928,6160,30228
29969,6152,30109
29972,6206,30098
30052,6111,30018
30060,6129,29910
30092,6158,29945
30128,6120,29884
30200,6126,30041
30156,6129,29702
30292,6139,29817
30316,6156,29811
30324,6142,29609
30326,6155,29640
30328,6264,29648
30312,6113,29561
30304,6139,29628
30316,6121,29463
30340,6143,29544
30384,6186,29373
30416,6134,29413
30464,6159,29292
30468,6233,29350
30512,6117,29212
30396,6139,29189
30472,6145,29160
30473,6148,28844
30452,6220,29029
30460,6119,29135
30528,6156,28790
30556,6157,28887
30594,6130,28921
30614,6128,28999
30652,6137,29072
30605,6153,28833
30572,6175,28982
30536,6113,29100
30508,6133,29021
30548,6206,29124
30576,6125,29018
30604,6159,28900
30560,6156,29055
30632,6198,29111
30708,6116,29221
30712,6131,29165
30756,6153,29321
30726,6113,29220
30736,6155,29293
30776,6169,29205
30796,6270,29188
30776,6129,29276
30780,6146,29265
30778,6159,29361
30744,6168,29514
30748,6115,29568
30717,6116,29492
30780,6132,29604
30860,6145,29607
30836,6176,29639
30914,6132,29744
30976,6145,29834
31000,6157,29836
31036,6128,29935
31016,6135,29917
31000,6136,30076
31012,6108,29937
31024,6131,29988
31064,6173,30025
31148,6129,30066
31169,6159,30065
31260,6185,30056
31308,6131,30120
31292,6128,30172
31332,6157,30256
31352,6163,30372
31396,6120,30333
31464,6112,30352
31568,6150,30086
31516,6154,30276
31572,6181,30343
31684,6132,30420
31720,6161,30461
31780,6147,30247
31881,6124,30678
31916,6126,30583
32024,6139,30604
32224,6178,30527
32372,6119,30656
32428,6133,30753
32584,6149,30575
32648,6173,30695
32730,6130,30839
32800,6118,30540
32896,6151,30660
33020,6154,30716
33076,6234,30837
33156,6114,30829
33216,6151,30861
33353,6158,30879
33388,6279,30988
33352,6138,30621
33452,6144,30785
33508,6284,30829
33600,6127,30906
33661,6163,30900
33700,6103,30956
33744,6123,31100
33754,6148,30824
33772,6191,31002
33824,6121,30989
33852,6145,31100
33868,6148,30781
33844,6187,30887
33846,6119,30970
33856,6120,31057
33880,6131,31066
33848,6153,31026
33884,6115,31080
33900,6113,31177
33910,6133,31060
33948,6188,31172
34008,6116,30848
34016,6128,30981
33961,6193,31012
33920,6112,31100
33892,6117,31239
33861,6159,30839
33860,6108,31046
33920,6141,31004
33988,6185,31045
33920,6127,31137
33896,6135,30864
33892,6162,31080
33866,6109,31217
33824,6128,31137
33768,6093,31107
33761,6138,31048
33756,6108,31111
33760,6143,31124
33792,6112,31207
33804,6164,31172
33704,6115,31215
33680,6136,31184
33656,6144,31231
33604,6102,31156
33632,6109,31228
33565,6131,31383
33616,6114,30965
33640,6137,31222
33668,6200,31071
33716,6144,31359
33704,6118,31300
33652,6127,31406
33586,6104,31302
33521,6120,31338
33504,6207,31324
33508,6133,31452
33500,6182,31340
33496,6145,31454
33556,6155,31249
33604,6122,31328
33620,6153,31300
33620,6171,31253
33580,6119,31236
33528,6137,31302
33526,6096,31367
33540,6127,31446
33594,6156,31537
33604,6113,31485
33608,6154,31589
33612,6287,31448
33568,6149,31258
33564,6160,31418
33580,6100,31451
33580,6145,31574
33624,6215,31516
33616,6119,31492
33652,6126,31632
33636,6117,31653
33640,6115,31808
33564,6143,31700
33568,6118,31844
33612,6125,31732
33541,6152,31727
33502,6104,31612
33546,6119,31741
33484,6131,31852
33512,6212,31829
33504,6134,31919
33501,6278,31849
33536,6130,31944
33540,6137,31569
33534,6173,31732
33508,6109,31878
33444,6117,31880
33437,6170,31972
33481,6101,31940
33476,6127,32000
33434,6175,31940
33460,6117,32012
33480,6141,31932
33504,6174,32059
33440,6107,31953
33413,6141,32087
33440,6102,31959
33433,6133,32096
33468,6138,31644
33501,6231,31796
33528,6110,31911
33484,6143,31960
33476,6141,31802
33496,6167,31965
33484,6114,31917
33464,6112,31884
33436,6127,31816
33432,6172,31833
33440,6097,32003
33381,6121,31579
33456,6175,31737
33420,6119,31757
33461,6140,31781
33456,6116,31802
33420,6116,31817
33400,6145,31929
33392,6096,31762
33401,6117,31772
33380,6228,31561
33386,6117,31593
33400,6111,31636
33364,6153,31646
33404,6171,31740
33324,6111,31679
33338,6135,31673
33357,6169,31576
33404,6098,31623
33384,6117,31751
33376,6162,31354
33376,6105,31561
33344,6147,31702
33344,6148,31344
33340,6119,31416
33348,6129,31432
33332,6146,31494
33324,6181,31632
33284,6098,31192
33276,6141,31375
33252,6247,31525
33260,6114,31444
33284,6141,31493
33292,6114,31408
33345,6137,31527
33352,6202,31392
33312,6123,31481
33304,6169,31354
33288,6097,31469
33277,6114,31237
33280,6157,31314
33296,6104,31411
33280,6125,31034
33340,6164,31356
33344,6113,31005
33332,6140,31144
33320,6156,31128
33340,6109,31143
33328,6129,31189
33332,6089,31159
33328,6116,31104
33284,6162,31152
33252,6108,31228
33253,6130,30833
33328,6196,31239
33316,6132,31087
33332,6147,31073
33328,6108,30821
33268,6135,30917
33277,6159,31024
33284,6097,30760
33320,6140,30892
33276,6132,31151
33316,6173,30829
33380,6120,31013
33392,6146,31124
33404,6179,30995
33300,6106,31084
33312,6131,30961
33308,6100,31008
33284,6114,30959
33232,6179,31083
33272,6108,30656
33348,6133,30968
33384,6167,30755
33396,6119,30819
33344,6145,30688
33240,6153,30885
33228,6098,30756
33256,6101,30888
33200,6114,31017
33224,6135,30580
33274,6254,30780
33300,6116,30903
33332,6138,30830
33289,6139,30804
33256,6115,30661
33268,6117,30823
33224,6181,30799
33260,6101,30854
33260,6121,30672
33266,6147,30776
33262,6189,30887
33257,6109,30764
33240,6143,30757
33220,6171,30557
33248,6108,30688
33212,6127,30755
33216,6117,30741
33184,6157,30684
33224,6094,30618
33252,6132,30701
33276,6135,30833
33300,6121,30412
33300,6154,30684
33212,6179,30388
33232,6105,30549
33208,6116,30516
33220,6149,30536
33164,6263,30696
33176,6096,30488
33172,6125,30738
33151,6120,30638
33068,6149,30500
33149,6176,30542
33064,6116,30509
33120,6138,30544
33044,6104,30599
33044,6118,30652
33004,6142,30629
33040,6097,30670
33073,6134,30516
33020,6145,30612
32952,6225,30656
32920,6115,30590
32980,6128,30600
32976,6142,30389
32973,6176,30524
33024,6099,30621
33040,6111,30565
33128,6115,30701
33149,6152,30401
33204,6114,30543
33197,6117,30693
33200,6154,30454
33196,6160,30525
33204,6106,30561
33236,6135,30524
33232,6160,30628
33232,6094,30239
33268,6134,30491
33268,6157,30468
33284,6113,30480
33245,6135,30447
33212,6165,30500
33204,6113,30453
33197,6116,30507
33236,6124,30629
33248,6160,30247
33152,6098,30432
33164,6125,30228
33150,6162,30438
33120,6107,30408
33088,6151,30483
33150,6165,30528
33220,6116,30480
33152,6128,30417
33248,6100,30348
33212,6123,30375
33200,6237,30319
33173,6135,30265
33176,6145,30302
33185,6245,30389
33296,6114,30432
33152,6146,30440
33156,6224,30436
33148,6131,30532
33096,6189,30421
33060,6124,30316
33096,6173,30454
33084,6093,30150
33128,6126,30565
33108,6111,30432
33110,6130,30526
33140,6154,30276
33134,6116,30298
33136,6113,30336
33116,6127,30356
33069,6165,30306
32908,6095,30232
32666,6122,30196
32376,6108,30225
32064,6132,30266
31636,6146,30303
31056,6181,30316
30408,6117,30304
29806,6133,30286
29637,6243,30261
30394,6102,30359
32486,6123,30252
35492,6097,30138
38952,6123,30188
42720,6131,29960
46772,6146,30321
50264,6170,30218
53224,6095,30239
55272,6128,29904
55556,6094,30316
53421,6146,30181
50752,6084,30150
48645,6119,30144
46360,6089,30084
44652,6115,30092
43165,6128,30200
41480,6184,29840
39560,6124,30168
37448,6133,29745
35456,6102,30101
33786,6113,29964
32572,6170,30037
31740,6095,29905
31260,6122,30025
30840,6108,29866
30528,6148,29968
30352,6206,29797
30152,6117,29680
29952,6146,29679
29852,6102,29709
29796,6121,29665
29716,6165,29759
29648,6116,29857
29644,6150,29504
29600,6108,29840
29592,6138,29758
29504,6120,29861
29488,6117,29611
29476,6157,29700
29486,6105,29871
29494,6133,29736
29472,6131,29718
29472,6180,29607
29552,6102,29683
29608,6135,29798
29604,6145,29474
29584,6114,29502
29608,6151,29505
29552,6136,29591
29585,6169,29551
29564,6097,29420
29589,6109,29428
29608,6148,29492
29616,6105,29423
29688,6137,29396
29720,6178,29209
29776,6119,29233
29820,6129,29346
29808,6123,29087
29864,6144,29140
29856,6103,29093
29800,6100,28949
29820,6144,28892
29792,6103,28853
29853,6141,28743
29868,6173,28760
29896,6115,28795
29934,6146,28856
29952,6142,28690
29958,6183,28561
29988,6107,28528
30112,6129,28594
30020,6095,28653
29996,6128,28274
30052,6177,28372
30113,6112,28556
30108,6132,28281
30128,6199,28270
30166,6107,28511
30168,6141,28148
30138,6167,28244
30144,6107,28256
30121,6144,28292
30144,6109,28420
30200,6131,28348
30220,6158,28217
30188,6198,28309
30202,6115,28212
30212,6126,28222
30248,6187,28269
30250,6105,28404
30272,6130,28356
30324,6127,28508
30256,6171,28214
30212,6110,28457
30292,6148,28578
30228,6153,28470
30260,6125,28576
30148,6129,28713
30161,6133,28532
30237,6201,28649
30256,6103,28793
30300,6133,28722
30304,6110,28887
30260,6150,28596
30240,6175,28674
30252,6127,28924
30320,6116,28879
30356,6133,28780
30360,6173,28935
30461,6102,28969
30484,6139,28892
30509,6140,29076
30492,6225,29065
30500,6116,29104
30528,6137,29079
30551,6169,29009
30580,6247,29165
30660,6141,29255
30562,6174,29225
30592,6109,29377
30628,6121,29119
30668,6128,29316
30732,6235,29448
30816,6126,29375
30920,6150,29316
30980,6120,29364
31028,6132,29495
31077,6141,29380
31120,6161,29624
31212,6105,29314
31336,6123,29479
31414,6137,29646
31532,6179,29375
31661,6112,29543
31800,6155,29630
31960,6176,29678
32052,6135,29669
32125,6157,29780
32330,6112,29923
32484,6135,29852
32552,6153,30004
32608,6097,29907
32712,6115,29791
32832,6140,29877
32972,6116,29920
33068,6150,29956
33156,6115,30020
33189,6126,30196
33272,6215,30060
33306,6116,30110
33364,6161,29937
33428,6123,30052
33488,6176,30072
33576,6105,30190
33660,6146,30064
33669,6174,30153
33661,6111,30109
33580,6133,30178
33628,6104,30160
33661,6129,30048
33668,6148,30215
33694,6089,30176
33712,6147,30460
33724,6106,30152
33736,6137,30508
33728,6110,30417
33672,6127,30296
33684,6153,30383
33684,6093,30489
33648,6119,30640
33628,6157,30518
33601,6087,30526
33577,6134,30420
33632,6152,30425
33684,6110,30524
33644,6110,30609
33556,6127,30709
33600,6166,30362
33612,6098,30740
33592,6115,30664
33588,6154,30718
33540,6088,30605
33550,6111,30711
33580,6118,30577
33580,6157,30760
33560,6193,30474
33508,6106,30732
33468,6116,30894
33496,6132,30566
33554,6136,30759
33508,6120,30734
33472,6121,30840
33496,6098,31005
33452,6106,30876
33469,6152,30905
33448,6108,30762
33420,6127,30873
33412,6237,30965
33328,6099,31007
33284,6122,31132
33280,6153,31015
33260,6088,31165
33280,6125,31070
33312,6178,31127
33316,6107,30822
33300,6127,31104
33288,6178,30960
33276,6110,31065
33268,6132,31098
33216,6092,31239
33264,6102,31140
33264,6090,31441
33242,6114,31327
33252,6100,31421
33260,6141,31374
33264,6164,31473
33248,6103,31417
33256,6135,31560
33240,6157,31454
33276,6095,31607
33252,6105,31239
33236,6164,31448
33240,6093,31526
33248,6131,31577
33196,6156,31684
33176,6112,31451
33230,6137,31513
33236,6122,31614
33144,6188,31677
33218,6095,31804
33104,6131,31471
33120,6119,31684
33108,6165,31797
33148,6098,31788
33208,6121,31908
33224,6114,31820
33230,6142,31831
33196,6167,31777
33157,6113,31853
33152,6094,31854
33196,6104,31815
33165,6149,31816
33142,6103,31804
33141,6166,31634
33124,6110,32084
33096,6139,31965
33056,6204,31925
33010,6114,31777
32960,6145,31920
32928,6091,31972
32900,6140,32036
32861,6117,31860
32912,6142,31717
32956,6099,32108
32998,6141,32041
33032,6259,32109
33020,6143,32031
32994,6168,32086
32988,6106,32068
32964,6119,32180
32944,6151,31789
32942,6087,32001
32932,6112,31985
32920,6182,32004
32937,6107,32007
32948,6131,32020
32932,6181,32020
32888,6105,32066
32850,6094,31954
32840,6107,32093
32824,6110,32060
32800,6133,31933
32793,6092,31971
32788,6109,32052
32809,6138,32052
32800,6107,31937
32816,6138,32038
32756,6106,32173
32772,6099,31940
32816,6116,31958
32780,6092,32007
32725,6095,32036
32824,6132,32006
32844,6117,32006
32876,6134,31713
32828,6113,32031
32792,6114,31876
32820,6124,31924
32804,6156,31953
32752,6092,32005
32716,6088,32135
32726,6111,32007
32736,6158,32048
32716,6103,31792
32748,6135,31877
32794,6105,31982
32777,6106,31973
32776,6139,31842
32808,6152,31959
32762,6092,31993
32754,6120,32117
32734,6117,31728
32668,6234,31900
32720,6107,31989
32708,6144,32004
32752,6112,31975
32792,6106,31965
32760,6143,31695
32720,6178,31877
32677,6089,31944
32704,6106,32016
32724,6198,32037
32712,6095,32006
32744,6117,31980
32789,6166,31893
32768,6106,32066
32796,6121,32014
32768,6168,32138
32737,6095,31812
32676,6110,32013
32706,6112,32135
32684,6151,31948
32708,6093,32052
32746,6117,32137
32760,6174,32020
32798,6115,31963
32781,6141,31999
32768,6099,32079
32752,6098,31954
32736,6116,32160
32717,6146,31852
32705,6095,32101
32736,6089,32027
32720,6135,32141
32732,6148,31820
32704,6109,31973
32736,6105,32165
32760,6118,32117
32756,6163,32239
32644,6098,32136
32624,6139,32277
32608,6091,32140
32608,6132,32030
32632,6103,32143
32676,6107,32194
32652,6120,32215
32628,6161,32175
32621,6102,31894
32636,6093,32112
32624,6112,32215
32592,6156,32236
32600,6083,32089
32564,6111,32188
32544,6165,32230
32520,6102,32387
32500,6129,32256
32476,6199,32153
32420,6106,32037
32448,6127,32172
32448,6086,31996
32396,6112,32287
32408,6159,32199
32404,6089,32306
32348,6135,32459
32304,6133,32154
32317,6178,32287
32365,6107,32341
32412,6118,32357
32496,6116,32289
32552,6154,32284
32536,6083,32233
32550,6105,32328
32576,6172,32316
32596,6101,32301
32576,6124,32375
32596,6176,32397
32644,6099,32414
32648,6124,32532
32644,6099,32428
32632,6108,32385
32608,6227,32377
32612,6086,32462
32640,6124,32424
32656,6101,32533
32672,6118,32453
32672,6132,32448
32712,6191,32231
32704,6102,32313
32685,6121,32378
32700,6191,32414
32680,6088,32549
32664,6104,32487
32653,6151,32492
32636,6106,32169
32668,6135,32362
32740,6110,32427
32725,6138,32453
32690,6145,32420
32688,6093,32518
32697,6124,32609
32712,6140,32532
32721,6079,32503
32760,6106,32420
32744,6153,32468
32752,6180,32652
32784,6110,32216
32782,6147,32656
32748,6121,32532
32716,6146,32479
32688,6089,32393
32764,6125,32273
32680,6084,32393
32652,6125,32489
32656,6151,32548
32676,6100,32636
32689,6141,32217
32688,6152,32404
32680,6093,32370
32604,6114,32400
32453,6091,32275
32224,6109,32432
31948,6121,32602
31644,6215,32511
31185,6096,32407
30664,6111,32637
30054,6133,32196
29452,6167,32400
29292,6107,32575
30080,6120,32493
32196,6144,32512
35248,6092,32216
38672,6113,32407
42378,6142,32370
46348,6088,32328
49808,6125,32300
52648,6096,32294
54664,6128,32352
54944,6137,32372
52876,6081,32325
50276,6103,32368
48108,6073,32306
45804,6116,32388
44112,6151,32430
42568,6081,32247
40952,6131,32318
38956,6146,32372
36784,6095,32182
34792,6122,32186
33164,6087,32197
32016,6115,32203
31230,6123,32268
30668,6087,31908
30317,6097,32042
30036,6127,32081
29836,6102,32056
29684,6111,31928
29540,6137,31972
29468,6103,31980
29344,6114,31839
29236,6127,31867
29200,6083,31812
29180,6086,31855
29196,6112,31840
29160,6180,31692
29144,6135,32061
29156,6157,31936
29192,6100,32063
29196,6112,31902
29172,6133,31834
29060,6169,31808
29184,6084,31862
29181,6104,31925
29204,6163,31837
29164,6096,31902
29184,6119,31776
29244,6180,31799
29284,6104,31620
29248,6125,31653
29232,6153,31602
29284,6109,31492
29256,6124,31466
29280,6089,31505
29329,6089,31607
29417,6119,31137
29520,6152,31469
29571,6108,31079
29596,6120,31251
29614,6157,31135
29604,6103,31128
29612,6114,31068
29612,6228,31068
29608,6097,31073
29612,6133,30953
29650,6094,30916
29718,6120,30845
29792,6188,30895
29754,6114,30471
29774,6148,30668
29793,6097,30508
29792,6122,30433
29784,6120,30446
29776,6092,30471
29804,6117,30566
29876,6155,30420
29925,6100,30436
29916,6129,30351
29920,6101,30460
29868,6116,30304
29760,6189,30405
29754,6087,29974
29780,6101,30104
29804,6120,30343
29868,6149,29941
29889,6100,30318
29940,6121,29944
30016,6165,30293
30016,6107,30214
29964,6136,30324
29972,6244,30247
29992,6090,30294
29993,6114,30162
29968,6090,30226
29984,6103,30296
29904,6124,30318
30020,6215,30463
29986,6114,30068
30024,6139,30354
30012,6127,30505
30080,6160,30134
30060,6094,30292
30053,6122,30372
30062,6121,30502
30084,6094,30593
30140,6122,30545
30194,6120,30596
30252,6168,30471
30276,6111,30624
30316,6141,30734
30316,6165,30581
30420,6125,30661
30392,6151,30716
30444,6084,30752
30480,6131,30671
30548,6143,30701
30615,6109,30800
30672,6143,30914
30676,6141,30566
30732,6165,30856
30752,6182,30831
30784,6198,31062
30848,6090,30873
30852,6093,30993
30968,6132,30885
31009,6126,31161
31076,6134,31166
31144,6135,31056
31176,6180,31101
31310,6106,31127
31444,6100,31166
31572,6103,30869
31632,6108,31098
31688,6123,31321
31780,6159,30966
31930,6097,31127
32048,6124,31391
32168,6147,31170
32328,6174,31272
32494,6202,31480
32591,6094,31319
32686,6089,31390
32788,6101,31396
32844,6126,31419
32904,6117,31426
32944,6135,31212
33068,6105,31380
33188,6107,31476
33260,6115,31226
33224,6121,31529
33304,6115,31683
33440,6119,31500
33440,6115,31610
33448,6149,31560
33441,6084,31580
33511,6093,31358
33548,6102,31599
33584,6134,31608
33580,6105,31678
33584,6093,31802
33613,6089,31692
33620,6123,31748
33620,6104,31796
33636,6148,31597
33540,6083,31750
33497,6087,31927
33544,6115,31799
33556,6119,31829
33628,6113,31783
33644,6114,31862
33620,6138,31552
33576,6084,31733
33568,6090,31952
33565,6115,31624
33556,6113,31861
33614,6122,32058
33596,6161,31928
33548,6096,31900
33544,6133,31884
33496,6126,31961
33436,6089,32089
33404,6103,32028
33368,6102,32136
33412,6127,31799
33440,6175,31998
33428,6089,32084
33452,6111,32097
33420,6132,32046
33431,6119,32044
33420,6164,32101
33396,6091,32204
33364,6103,32170
33356,6114,32208
33406,6188,32100
33405,6079,32200
33384,6105,32148
33348,6170,32100
33340,6092,32277
33336,6119,32289
33356,6167,32439
33308,6087,32166
33244,6107,32299
33232,6143,32294
33236,6083,32361
33214,6122,32452
33255,6085,32462
33300,6128,32528
33324,6136,32419
33312,6103,32535
33272,6098,32668
33268,6120,32593
33260,6084,32741
33264,6079,32532
33260,6111,32652
33265,6103,32792
33249,6134,32617
33188,6096,32671
33212,6131,32684
33237,6117,32807
33216,6154,32940
33177,6088,32772
33209,6115,32844
33216,6099,33012
33189,6123,32629
33192,6193,32821
33256,6087,33092
33253,6108,33029
33249,6115,33084
33240,6161,32791
33336,6099,33063
33224,6084,33172
33212,6115,33168
33220,6096,33030
33192,6136,33124
33230,6084,33088
33244,6117,33180
33268,6118,33275
33244,6102,33336
33252,6089,33332
33248,6122,33425
33188,6128,33037
33208,6153,33243
33132,6080,33476
33148,6079,33437
33188,6106,33468
33180,6119,33132
33160,6186,33445
33121,6098,33404
33160,6106,33477
33156,6114,33645
33136,6130,33207
33128,6085,33485
33108,6079,33685
33084,6109,33564
33064,6119,33476
33064,6187,33612
33080,6095,33597
33044,6117,33598
33036,6153,33375
33012,6181,33628
33000,6087,33642
33052,6083,33556
33052,6107,33645
33045,6116,33777
33020,6121,33679
33040,6179,33405
33012,6089,33624
32996,6092,33657
32992,6119,33561
32988,6114,33633
33028,6125,33671
33016,6152,33600
33052,6074,33652
33020,6086,33553
33024,6096,33728
33092,6114,33665
33184,6228,33644
33209,6129,33721
33201,6157,33437
33137,6087,33604
33132,6110,33574
33148,6106,33539
33140,6145,33629
33116,6074,33663
33081,6112,33535
33068,6119,33585
33080,6157,33732
33140,6087,33303
33128,6092,33602
33128,6107,33609
33040,6149,33333
32977,6078,33444
33024,6094,33589
33048,6115,33592
33004,6151,33590
32968,6084,33505
32980,6120,33583
32972,6119,33433
32948,6119,33679
32896,6145,33538
32798,6174,33260
32748,6082,33556
32740,6086,33588
32720,6091,33605
32628,6125,33471
32584,6089,33560
32600,6088,33582
32600,6098,33540
32536,6113,33572
32496,6157,33693
32516,6084,33543
32596,6104,33543
32664,6123,33519
32688,6077,33581
32724,6080,33557
32751,6108,33460
32733,6159,33421
32748,6094,33401
32752,6118,33422
32764,6168,33564
32716,6096,33561
32752,6119,33620
32796,6204,33578
32776,6090,33586
32772,6114,33517
32744,6213,33588
32748,6111,33663
32760,6121,33597
32692,6200,33541
32620,6091,33622
32616,6103,33639
32636,6161,33732
32644,6076,33340
32628,6110,33563
32624,6126,33582
32652,6085,33668
32704,6089,33676
32764,6122,33596
32856,6096,33711
32869,6095,33700
32832,6103,33636
32832,6194,33676
32820,6100,33782
32748,6116,33734
32681,6078,33783
32689,6100,33432
32708,6144,33649
32704,6095,33823
32640,6106,33788
32700,6124,33722
32760,6085,33735
32832,6110,33815
32876,6145,33926
32828,6073,33508
32748,6093,33744
32756,6206,33778
32780,6090,33860
32748,6126,33913
32664,6162,33908
32624,6096,33912
32620,6113,33825
32620,6140,33902
32576,6076,34052
32528,6094,33943
32516,6078,34064
32368,6115,33960
32096,6089,34010
31800,6106,33984
31412,6121,34079
30932,6235,33740
30408,6116,33856
29700,6127,33920
29156,6084,34015
29052,6076,34101
30128,6095,33832
32462,6138,34025
35660,6087,34008
39116,6102,34060
42960,6129,33975
46772,6109,34028
49982,6163,33940
52508,6077,33973
53920,6090,34028
53196,6163,34149
50649,6064,33856
48400,6099,34068
46324,6158,34133
44408,6074,34036
43080,6115,34044
41640,6101,33917
39980,6127,34136
38032,6076,33965
35941,6084,33981
34096,6110,34111
32632,6137,33975
31618,6078,33989
30896,6119,34038
30432,6088,33969
30148,6110,34064
29900,6130,33820
29648,6159,33908
29512,6076,33893
29424,6074,33925
29316,6106,33729
29172,6120,33797
29144,6080,33900
29148,6100,33702
29124,6114,33832
29113,6212,33974
29046,6090,33523
28972,6117,33820
28948,6187,33977
28974,6079,33556
28924,6091,33847
28893,6106,34005
28812,6176,33727
28836,6090,33908
28937,6103,33749
28996,6120,33872
29000,6162,33884
29049,6084,33717
29084,6093,33868
29128,6147,33852
29204,6073,33911
29228,6092,33733
29220,6139,33720
29160,6089,33693
29084,6123,33731
29100,6118,33568
29196,6199,33593
29156,6086,33614
29164,6109,33748
29246,6125,33273
29300,6081,33550
29309,6083,33593
29284,6100,33415
29312,6138,33442
29372,6089,33502
29400,6091,33148
29396,6113,33300
29456,6109,33413
29517,6157,33052
29572,6075,33188
29600,6087,33276
29588,6080,33142
29624,6085,33236
29621,6120,32994
29564,6128,33025
29537,6217,33129
29540,6109,33003
29528,6110,32908
29528,6121,32954
29506,6079,32948
29556,6105,33020
29642,6122,32804
29748,6083,32783
29733,6113,32841
29692,6122,32876
29664,6099,32868
29652,6097,32953
29692,6102,32992
29732,6126,32880
29708,6077,32876
29717,6096,33025
29720,6094,33037
29756,6132,33069
29788,6094,33148
29796,6098,33132
29826,6116,33109
29834,6141,33151
29818,6092,33261
29876,6079,33437
29896,6096,33284
29880,6106,33415
29801,6101,33310
29776,6148,33553
29796,6094,33548
29768,6119,33551
29776,6116,33564
29768,6179,33647
29784,6087,33897
29896,6120,33495
30066,6119,33819
30164,6076,33551
30188,6098,33829
30128,6181,33941
30080,6090,34060
30149,6120,34132
30240,6116,34065
30276,6125,34209
30352,6155,34351
30376,6079,34111
30410,6094,34304
30444,6114,34509
30420,6150,34217
30464,6088,34432
30500,6096,34645
30524,6132,34320
30552,6120,34548
30600,6140,34750
30680,6091,34352
30792,6084,34716
30846,6080,34916
30944,6111,34577
31048,6117,34850
31092,6148,35036
31096,6093,34883
31206,6100,35000
31368,6112,35025
31568,6128,35159
31712,6135,35036
31801,6084,35108
31856,6087,35309
31900,6112,34877
32028,6102,35132
32152,6134,35452
32208,6088,35225
32212,6129,35356
32276,6131,35564
32344,6092,35374
32388,6095,35380
32385,6116,35573
32428,6104,35208
32464,6098,35584
32580,6116,35730
32628,6085,35613
32624,6084,35712
32653,6116,35697
32728,6126,35892
32732,6089,35500
32712,6084,35805
32756,6095,36004
32789,6116,35828
32812,6067,35933
32764,6102,36110
32704,6093,35946
32760,6137,36047
32848,6086,36156
32916,6100,36023
32948,6131,36078
32984,6079,36258
32973,6109,36170
32928,6104,36180
32836,6133,36396
32764,6070,36248
32792,6112,36319
32826,6109,36272
32902,6160,36479
32964,6084,36047
33068,6096,36324
33064,6138,36412
33000,6073,36428
32944,6108,36157
32888,6070,36448
32836,6085,36607
32812,6123,36621
32772,6080,36719
32727,6110,36756
32700,6115,36724
32694,6138,36839
32708,6082,36433
32714,6070,36821
32788,6095,36988
32844,6114,36925
32880,6190,36868
32884,6078,36996
32860,6099,37030
32816,6154,36999
32816,6082,37051
32824,6119,37124
32808,6115,37091
32800,6132,37242
32832,6131,37017
32856,6063,37214
32865,6082,37302
32980,6093,37311
33004,6148,37324
32960,6087,37468
32845,6092,37320
32788,6111,37383
32760,6149,37433
32756,6071,37314
32780,6085,37444
32724,6124,37493
32696,6065,37524
32738,6105,37561
32796,6105,37529
32876,6150,37613
32936,6084,37704
32968,6084,37633
33028,6115,37689
32982,6129,37844
32892,6065,37705
32820,6082,37607
32816,6140,37775
32824,6074,37809
32910,6097,37682
33008,6121,37933
33009,6087,37561
33016,6121,37837
32988,6129,37961
32932,6071,37924
32916,6064,37924
32940,6084,37832
32976,6086,38092
32980,6115,37717
33008,6081,37876
33004,6095,38005
33024,6109,38053
32948,6145,38116
32904,6190,38119
32932,6076,37735
32928,6068,38098
32968,6084,37988
32944,6105,38091
32888,6099,38156
32860,6131,37694
32816,6160,38112
32800,6223,37999
32889,6079,38199
32980,6091,37852
33076,6103,38151
33066,6098,38034
33052,6163,38245
32976,6069,37717
32856,6072,38151
32812,6079,38026
32752,6087,38191
32801,6089,37880
32804,6096,38135
32884,6092,38288
32884,6092,38092
32876,6107,38146
32948,6135,38064
32916,6065,38239
32888,6081,37951
32816,6098,38101
32839,6109,38046
32871,6123,38148
32836,6149,37735
32816,6226,38062
32944,6071,38197
32948,6084,37782
32944,6114,38009
32928,6176,38127
32928,6073,38088
32924,6085,37647
32933,6101,37992
32836,6146,38028
32740,6082,37971
32736,6095,37956
32790,6094,37895
32852,6135,38065
32884,6069,37588
32992,6101,37851
33028,6095,38039
33045,6167,37816
33040,6105,37860
33024,6107,37777
32877,6160,37895
32768,6075,37461
32684,6107,37827
32680,6122,37927
32668,6066,37560
32672,6083,37764
32680,6092,37909
32677,6146,37616
32709,6087,37702
32713,6113,37891
32688,6158,37684
32660,6079,37716
32657,6103,37664
32736,6123,37780
32888,6068,37665
32956,6092,37813
32897,6128,37670
32872,6076,37661
32862,6124,37541
32864,6127,37712
32924,6084,37207
32952,6092,37541
32932,6128,37623
32844,6068,37572
32864,6089,37428
32884,6070,37495
32908,6103,37533
32928,6124,37655
32976,6087,37100
33039,6103,37393
33072,6113,37629
33080,6167,37421
33064,6073,37476
33036,6095,37313
32985,6114,37497
32960,6063,37421
33012,6093,37372
33136,6126,37493
33232,6083,37404
33220,6131,37527
33212,6079,37213
33168,6107,37252
33125,6071,37307
33048,6093,37364
33032,6135,37340
32968,6090,37101
32944,6137,37293
33020,6090,37452
33096,6143,37314
33120,6081,37404
33140,6125,37277
33114,6078,37431
33092,6105,36869
33076,6065,37308
33061,6104,36838
33018,6058,37204
33020,6091,37145
33088,6243,37085
33120,6094,37255
33073,6121,36820
33064,6205,37156
33062,6084,37284
33100,6102,37172
33132,6068,37111
33128,6075,37116
33089,6128,37025
32912,6084,37055
32733,6121,37080
32482,6085,37127
32116,6116,37104
31768,6149,37201
31480,6080,36719
31085,6091,37017
30528,6121,37188
30044,6069,36636
29860,6096,36880
31140,6079,36954
33944,6101,37008
37476,6167,36916
41080,6119,36728
44660,6128,36904
48088,6059,37032
50684,6103,36662
52496,6061,36758
52784,6089,36792
50760,6253,36824
48456,6067,36871
46404,6115,36727
44524,6067,36739
43572,6106,36828
42852,6196,36719
41704,6095,36598
40144,6102,36624
38305,6057,36655
36416,6076,36756
34689,6132,36332
33308,6068,36553
32368,6113,36375
31740,6135,36517
31256,6080,36432
30920,6098,36477
30724,6153,35973
30520,6078,36181
30396,6108,36192
30280,6077,36079
30312,6110,36044
30140,6075,36076
30096,6093,36169
30112,6130,36066
30113,6085,36132
30080,6096,36000
29994,6144,36072
29964,6070,35726
29896,6083,35846
29836,6144,35872
29776,6066,35847
29856,6091,35909
29976,6106,35455
30072,6144,35765
30144,6083,35883
30116,6115,35711
30109,6112,35548
30100,6132,35566
30113,6071,35568
30140,6085,35647
30076,6127,35439
30017,6073,35260
30078,6093,35335
30180,6131,35293
30268,6087,35361
30324,6104,35181
30292,6135,35058
30300,6071,34996
30304,6086,34972
30304,6127,34777
30304,6064,34745
30309,6090,34676
30360,6080,34648
30476,6118,34592
30492,6142,34535
30468,6084,34479
30396,6097,34464
30392,6079,34405
30401,6084,34326
30488,6133,34333
30576,6099,34300
30696,6084,34166
30785,6099,34144
30792,6169,34148
30824,6121,34140
30844,6088,34073
30872,6109,34148
30840,6072,33693
30836,6091,33917
30802,6074,33773
30753,6105,33964
30756,6122,33885
30804,6081,33926
30916,6125,33924
30961,6091,33948
30957,6116,34028
30988,6105,33881
30936,6154,33941
30904,6092,34068
30920,6112,33949
30952,6071,33913
30980,6092,33924
31034,6087,34020
31072,6109,34128
31124,6090,34052
31132,6116,34165
31044,6142,34116
31036,6107,34251
31010,6127,34161
30972,6077,34301
30944,6101,34205
30960,6073,34378
31020,6102,33958
31016,6086,34412
31032,6120,34340
31040,6089,34380
31036,6138,34351
31124,6079,34465
31232,6120,34424
31368,6073,34461
31404,6097,34480
31496,6078,34543
31396,6113,34175
31316,6087,34465
31364,6126,34439
31388,6086,34541
31377,6102,34645
31456,6206,34644
31576,6081,34776
31660,6102,34311
31685,6079,34556
31708,6106,34647
31776,6147,34692
31853,6087,34748
31874,6129,34727
31860,6098,34886
31908,6087,34668
31964,6091,34804
32068,6164,34912
32156,6103,34668
32250,6122,34823
32396,6083,34980
32432,6090,34636
32544,6150,34781
32586,6094,34816
32668,6126,34849
32756,6079,34864
32848,6103,34823
32968,6081,34934
33048,6104,34914
33092,6154,34917
33125,6098,34972
33117,6116,35063
33180,6080,34991
33280,6114,35166
33348,6161,34936
33384,6081,35018
33412,6092,35148
33425,6146,35017
33461,6062,34908
33508,6087,34989
33512,6140,35016
33517,6082,35039
33580,6099,35065
33572,6138,35198
33520,6116,35063
33580,6147,35175
33592,6104,35052
33705,6182,35135
33712,6082,35052
33748,6114,35040
33720,6071,34949
33741,6117,34925
33828,6079,34966
33884,6121,34988
33940,6132,35063
33964,6076,35009
33932,6120,35005
33844,6083,34941
33761,6067,34838
33708,6099,34977
33688,6072,34663
33788,6086,34965
33832,6134,34996
33816,6079,35017
33816,6112,35128
33764,6109,34809
33752,6224,35014
33752,6066,34948
33736,6088,35015
33696,6177,35085
33669,6105,34644
33696,6129,34975
33688,6082,34653
33649,6124,35023
33680,6077,34692
33696,6094,34858
33744,6067,34791
33740,6078,34925
33724,6173,34951
33700,6079,34941
33640,6065,34903
33697,6088,34889
33710,6165,34921
33752,6114,34936
33768,6157,34890
33812,6081,34954
33744,6089,34959
33668,6064,34836
33608,6061,34951
33584,6099,34964
33608,6120,34588
33684,6077,34831
33756,6088,34932
33770,6115,34951
33760,6133,34820
33768,6077,35000
33700,6080,34936
33648,6099,35061
33644,6134,34823
33596,6058,34917
33610,6117,34880
33664,6069,34889
33712,6099,34881
33728,6083,34836
33692,6092,34932
33693,6180,35036
33716,6073,34964
33696,6090,34816
33612,6064,34983
33596,6085,34942
33552,6087,34980
33536,6138,34823
33652,6081,34908
33744,6107,35052
33773,6156,34601
33748,6103,34807
33668,6143,34887
33616,6083,34902
33600,6154,34952
33652,6090,34928
33672,6132,34997
33676,6068,34933
33680,6106,34807
33660,6123,34527
33621,6076,34877
33608,6106,34616
33600,6119,34805
33580,6169,34993
33540,6056,34541
33532,6076,34768
33500,6108,34899
33501,6074,34823
33536,6115,34943
33569,6107,34521
33592,6137,34708
33540,6078,34841
33472,6073,34713
33444,6089,34679
33440,6115,34665
33444,6060,34679
33428,6096,34705
33472,6129,34601
33500,6077,34708
33508,6082,34224
33512,6124,34681
33532,6074,34523
33436,6085,34636
33396,6205,34480
33412,6082,34485
33374,6127,34368
33308,6103,34113
33344,6137,34413
33404,6085,34329
33476,6137,34364
33517,6076,34308
33492,6097,34220
33548,6063,34306
33578,6088,33921
33488,6054,34252
33424,6077,34001
33476,6142,34212
33512,6064,33984
33493,6099,33970
33474,6079,33860
33476,6095,34018
33492,6096,33961
33484,6064,33932
33504,6078,33929
33560,6150,33908
33462,6066,34005
33468,6084,33902
33528,6145,33836
33536,6079,33817
33500,6078,33828
33469,6097,33856
33460,6078,33439
33388,6085,33862
33332,6203,33705
33308,6084,33799
33293,6089,33657
33348,6064,33764
33332,6089,33620
33352,6078,33518
33357,6114,33543
33372,6126,33650
33352,6071,33525
33327,6084,33598
33380,6100,33124
33376,6151,33287
33344,6067,33172
33324,6101,33354
33396,6075,33185
33456,6094,33183
33428,6141,33287
33425,6076,33296
33448,6096,33412
33357,6066,32921
33312,6095,33079
33308,6115,33128
33308,6057,33156
33264,6093,33295
33300,6097,33004
33308,6079,33005
33276,6114,33031
33272,6123,32969
33280,6075,33020
33216,6084,32932
33188,6150,32959
33137,6097,32973
33149,6132,32917
33108,6102,32838
33120,6162,32724
33040,6105,32836
33056,6143,32692
33040,6115,33023
33048,6156,32640
33024,6080,32932
32992,6125,32561
32996,6054,32796
33056,6102,32847
33044,6067,32783
33136,6088,32668
33180,6114,32761
33212,6084,32900
33248,6094,32793
33260,6137,32868
33285,6064,32570
33264,6099,32687
33216,6090,32852
33204,6127,32583
33200,6067,32685
33272,6104,32832
33284,6100,32572
33328,6134,32620
33328,6075,32741
33281,6082,32346
33365,6097,32540
33280,6141,32652
33260,6057,32615
33236,6082,32693
33216,6149,32462
33256,6070,32532
33252,6091,32655
33216,6141,32320
33160,6075,32485
33164,6090,32630
33240,6157,32200
33288,6057,32500
33332,6084,32369
33388,6105,32390
33428,6067,32446
33456,6069,32383
33406,6095,32498
33416,6080,32417
33472,6098,32479
33465,6073,32369
33453,6101,32432
33412,6102,32284
33388,6209,32342
33380,6060,32308
33300,6058,32427
33324,6086,32047
33316,6109,32175
33309,6076,32264
33316,6101,32260
33316,6101,32143
33372,6071,32279
33336,6055,31911
33360,6091,32199
33320,6095,32292
33316,6121,32037
33248,6073,32123
33160,6078,32143
32992,6099,32120
32740,6136,32253
32476,6078,31924
32032,6090,31980
31552,6083,31972
31034,6190,31920
30416,6058,32057
29944,6077,32004
29916,6099,31856
31044,6118,31937
33604,6086,31923
36988,6077,31972
40572,6093,31914
44356,6146,31884
47976,6055,31841
50964,6074,31872
53212,6112,31880
54252,6050,31985
53012,6084,31828
50508,6144,31839
48376,6066,31476
46184,6097,31839
44552,6068,31436
43448,6057,31812
42216,6086,31673
40576,6057,31695
38692,6058,31448
36684,6078,31444
34909,6205,31337
33492,6093,31446
32468,6122,31207
31752,6072,31495
31341,6118,31421
31052,6064,31513
30856,6061,31056
30664,6089,31420
30520,6059,31262
30392,6081,31225
30264,6130,31111
30140,6075,31188
30044,6077,31004
29996,6092,31134
29972,6133,31132
29886,6067,31223
29808,6078,30829
29766,6126,31042
29752,6060,31097
29752,6084,31068
29760,6070,31153
29805,6115,31042
29810,6151,31034
29840,6084,30922
29872,6087,30970
29893,6175,31032
29924,6068,30705
29980,6081,30870
29988,6156,30969
30048,6077,30716
30076,6100,30772
30096,6168,30768
30128,6077,30656
30128,6101,30344
30128,6128,30495
30140,6065,30498
30140,6081,30469
30164,6122,30289
30164,6059,30360
30181,6084,30308
30184,6137,30372
30208,6077,30125
30188,6115,30168
30280,6111,30191
30320,6071,29965
30352,6076,29999
30428,6093,29815
30396,6115,30024
30404,6062,29679
30441,6083,29760
30436,6131,29836
30416,6082,29749
30512,6111,29604
30476,6124,29694
30512,6078,29447
30516,6103,29566
30504,6137,29464
30480,6063,29593
30608,6073,29703
30501,6080,29518
30528,6122,29572
30588,6077,29662
30601,6117,29390
30620,6153,29465
30568,6077,29512
30544,6089,29605
30508,6127,29737
30517,6063,29455
30480,6070,29663
30488,6084,29608
30500,6110,29637
30604,6136,29460
30636,6083,29748
30644,6083,29806
30597,6106,29604
30600,6143,29792
30568,6072,29989
30506,6097,29941
30533,6108,29964
30552,6134,30006
30576,6072,29807
30624,6084,30087
30592,6119,29977
30608,6106,30214
30569,6237,29918
30648,6083,30206
30692,6093,30137
30716,6106,30208
30733,6130,30357
30760,6079,30508
30772,6114,30327
30808,6124,30428
30868,6090,30520
30888,6085,30497
30888,6101,30548
30944,6099,30689
30952,6157,30428
31052,6091,30544
31041,6095,30721
31048,6130,30436
31108,6080,30684
31136,6102,30849
31152,6143,30807
31160,6087,30761
31220,6099,30820
31276,6135,30902
31264,6071,31048
31322,6087,30865
31448,6092,31012
31452,6133,30885
31600,6081,31156
31696,6099,30925
31828,6129,30997
31978,6085,31185
32058,6080,31086
32128,6113,31205
32184,6066,31341
32268,6101,31013
32380,6115,31229
32508,6068,31342
32628,6098,31332
32800,6116,31223
32892,6191,31432
32981,6082,31138
33068,6106,31332
33140,6166,31392
33268,6067,31497
33300,6076,31653
33340,6113,31277
33408,6066,31525
33476,6079,31623
33516,6101,31632
33556,6161,31687
33640,6090,31372
33640,6110,31535
33664,6066,31621
33640,6079,31724
33628,6127,31844
33668,6062,31760
33708,6112,31836
33765,6066,31493
33846,6092,31846
33848,6158,31507
33796,6074,31697
33816,6085,31924
33820,6088,31852
33828,6116,31737
33856,6059,31901
33825,6074,31924
33800,6111,31974
33806,6073,31829
33824,6081,31975
33796,6099,32116
33736,6137,31703
33752,6069,31879
33764,6084,31958
33736,6165,31999
33770,6078,31984
33789,6089,32080
33784,6183,32231
33740,6092,32108
33732,6177,32262
33816,6081,32127
33785,6114,32148
33672,6075,31881
33652,6094,32220
33628,6056,31875
33616,6078,32135
33590,6055,31996
33616,6074,32068
33664,6134,32140
33656,6069,32220
33636,6091,32367
33529,6143,31972
33496,6070,32412
33521,6100,32277
33500,6055,32420
33572,6075,32297
33532,6132,32415
33516,6085,32332
33536,6119,32461
33552,6067,32339
33576,6106,32444
33568,6076,32292
33596,6105,32356
33604,6102,32515
33570,6063,32100
33516,6074,32553
33480,6123,32151
33528,6078,32320
33541,6123,32409
33575,6072,32484
33607,6092,32577
33640,6140,32540
33620,6069,32532
33604,6095,32372
33552,6062,32507
33544,6087,32519
33572,6119,32565
33568,6065,32662
33588,6098,32628
33584,6157,32513
33569,6079,32610
33576,6091,32694
33572,6136,32838
33568,6062,32423
33512,6082,32842
33436,6060,32756
33437,6073,32893
33472,6123,32774
33504,6065,32911
33576,6105,32799
33540,6071,32825
33556,6091,32820
33552,6131,32940
33548,6060,32798
33472,6076,32756
33480,6101,32805
33470,6060,32865
33556,6089,32924
33532,6127,32866
33485,6084,32975
33480,6098,32775
33508,6078,32833
33489,6104,32912
33440,6123,32836
33460,6057,32724
33508,6071,32775
33456,6142,32718
33420,6093,32724
33432,6100,32834
33412,6074,32923
33504,6079,32821
33460,6100,32670
33436,6130,32853
33396,6062,32788
33360,6073,32924
33324,6093,32524
33313,6163,32725
33324,6059,32760
33332,6083,32416
33332,6094,32654
33348,6078,32676
33304,6109,32713
33350,6165,32740
33332,6099,32678
33300,6118,32751
33261,6053,32639
33304,6074,32653
33280,6120,32398
33240,6061,32528
33208,6103,32503
33216,6077,32556
33232,6070,32449
33224,6108,32495
33244,6117,32498
33220,6060,32327
33244,6076,32530
33304,6082,32236
33292,6164,32391
33320,6062,32542
33252,6097,32254
33264,6169,32375
33280,6073,32284
33220,6105,32313
33232,6110,32328
33177,6062,32152
33216,6079,32229
33210,6129,32256
33228,6055,32093
33280,6093,32228
33296,6114,32219
33288,6077,32133
33280,6099,31853
33280,6069,32088
33244,6071,32257
33268,6089,31822
33140,6053,31940
33166,6085,32122
33133,6084,31739
33189,6064,32147
33264,6096,31694
33312,6119,31868
33292,6071,31959
33304,6105,31946
33276,6107,31974
33262,6053,31927
33268,6097,31860
33292,6055,31825
33272,6075,31788
33288,6132,31816
33260,6071,31855
33237,6091,31828
33216,6124,31898
33200,6216,31709
33132,6059,31780
33121,6092,31874
33204,6084,31437
33166,6119,31663
33108,6057,31772
33156,6103,31694
33208,6139,31825
33232,6084,31476
33220,6117,31547
33208,6077,31556
33184,6087,31581
33144,6118,31577
33081,6056,31594
33116,6101,31695
33145,6063,31293
33208,6093,31463
33292,6095,31473
33316,6196,31546
33250,6078,31634
33200,6130,31552
33180,6067,31367
33176,6076,31421
33188,6055,31438
33148,6092,31433
33124,6145,31460
33090,6071,31560
33092,6100,31149
33104,6185,31289
33064,6103,31204
33028,6116,31340
33076,6063,31300
33044,6112,31255
32945,6053,31372
32948,6089,31380
32936,6115,31389
32936,6061,31244
32912,6090,31319
32913,6248,31444
32916,6100,31052
32848,6097,31254
32768,6103,31392
32697,6162,31239
32724,6055,31258
32732,6079,31124
32792,6068,31224
32920,6069,31225
32988,6093,31076
33012,6142,31185
33016,6074,31207
33032,6104,31303
33024,6111,30894
33008,6064,31148
33038,6085,31276
33048,6097,30853
33072,6122,31116
33108,6061,31215
33153,6084,30965
33164,6140,31062
33192,6074,31173
33184,6096,31090
33084,6068,31190
32988,6080,31062
33016,6086,30900
33044,6059,30967
33088,6061,31040
33133,6083,31158
33152,6140,31013
33208,6075,30954
33176,6089,30956
33140,6152,30994
33140,6058,31073
33156,6080,30901
33188,6102,30961
33200,6051,31071
33092,6081,30762
33136,6097,30911
33100,6071,30993
33024,6109,30926
33152,6109,30886
33192,6071,30815
33156,6062,30909
33144,6092,30881
33200,6092,30785
33156,6115,30846
33096,6054,30725
33116,6063,30843
33154,6107,30854
33140,6127,30926
33156,6073,30844
33164,6091,30825
33092,6061,30777
33140,6086,30828
33188,6098,30792
33183,6054,30892
33164,6090,30751
33188,6116,30761
33068,6071,30586
32856,6093,30573
32604,6131,30460
32242,6067,30567
31796,6098,30588
31248,6095,30658
30568,6132,30783
29949,6055,30532
29752,6075,30620
30401,6100,30598
32388,6152,30601
35324,6074,30444
38740,6079,30632
42392,6093,30296
46352,6057,30416
49816,6049,30529
52676,6056,30508
54816,6068,30468
55316,6125,30471
53440,6046,30488
50856,6096,30599
48724,6096,30175
46360,6137,30273
44592,6061,30152
43164,6083,30350
41540,6080,30462
39752,6108,30241
37648,6048,30285
35588,6081,30401
33872,6085,30152
32708,6155,30148
31836,6070,30286
31252,6079,30001
30868,6091,30097
30565,6148,30130
30344,6064,30083
30188,6083,30121
30056,6052,30032
29940,6075,30084
29855,6115,29992
29816,6074,29884
29780,6105,29901
29656,6093,29974
29592,6095,30031
29526,6107,29902
29484,6145,29993
29432,6050,29976
29446,6072,29828
29447,6092,29972
29464,6114,30068
29457,6127,29804
29480,6076,29909
29528,6073,29786
29540,6068,30038
29508,6082,29794
29524,6097,29868
29518,6055,29908
29559,6086,29829
29604,6083,29703
29704,6148,29828
29740,6071,29461
29704,6076,29673
29708,6096,29706
29736,6120,29479
29772,6153,29588
29812,6059,29598
29824,6052,29412
29846,6085,29447
29808,6084,29529
29889,6132,29100
29885,6069,29184
29924,6099,29157
29889,6093,29215
29868,6115,29096
29925,6157,29240
29968,6065,28967
29916,6054,29028
29912,6076,29093
29970,6077,28693
29988,6121,28894
30020,6071,28584
30048,6091,28673
30060,6102,28823
30066,6117,28523
30093,6064,28610
30168,6090,28625
30168,6103,28652
30144,6052,28624
30150,6085,28576
30164,6212,28558
30217,6081,28606
30236,6116,28644
30228,6073,28660
30228,6092,28757
30218,6066,28649
30192,6081,28580
30164,6053,28552
30160,6077,28503
30101,6057,28780
30117,6087,28495
30112,6072,28896
30096,6091,28802
30120,6143,28877
30140,6079,28847
30165,6114,28765
30164,6061,28871
30132,6072,28845
30104,6072,28953
30133,6117,28973
30172,6064,29035
30192,6107,29216
30156,6112,29112
30144,6081,29172
30136,6079,29023
30096,6089,29134
30112,6067,29220
30140,6070,29298
30144,6081,29380
30144,6116,29229
30161,6073,29314
30224,6113,29333
30274,6127,29410
30316,6082,29462
30396,6084,29534
30460,6091,29512
30436,6135,29518
30508,6079,29615
30568,6195,29544
30608,6069,29575
30660,6094,29678
30740,6080,29737
30752,6110,29796
30796,6130,29870
30824,6074,30012
30832,6071,29709
30868,6097,30130
30936,6200,29782
31012,6064,30032
31020,6086,30056
31068,6205,30224
31138,6093,30227
31222,6110,30393
31308,6079,30313
31324,6098,30301
31392,6111,30155
31516,6061,30373
31645,6092,30430
31756,6114,30416
31916,6057,30457
32049,6093,30644
32184,6073,30497
32284,6079,30713
32332,6111,30831
32320,6124,30828
32356,6065,30806
32430,6107,30959
32564,6069,30997
32692,6083,31165
32829,6060,30805
32912,6102,31244
32864,6136,31153
32870,6076,31077
32904,6090,31271
32956,6148,31304
32945,6071,31463
32888,6084,31098
32896,6052,31535
32912,6085,31504
32960,6125,31661
33032,6061,31464
33044,6117,31626
33040,6073,31666
33032,6108,31852
32996,6134,31609
32988,6055,31800
32980,6089,31956
32982,6113,31630
32980,6047,31821
32932,6048,32056
32892,6090,32036
32924,6067,32119
32936,6084,31917
32952,6130,32052
32936,6063,32165
32857,6080,32256
32756,6082,32479
32700,6185,32400
32597,6079,32564
32528,6103,32232
32460,6059,32421
32542,6083,32622
32604,6121,32648
32642,6232,32546
32676,6097,32664
32656,6093,32805
32652,6211,32965
32592,6047,32627
32568,6078,32796
32572,6048,32775
32652,6085,32903
32504,6061,33060
32500,6085,33153
32504,6129,33250
32529,6064,32965
32496,6075,33150
32452,6123,33112
32381,6059,33263
32340,6092,33188
32344,6054,33413
32324,6062,33596
32332,6081,33573
32356,6118,33676
32308,6069,33597
32169,6076,33738
32145,6075,33855
32108,6121,33533
32124,6047,33743
32120,6067,33616
32128,6187,33980
32180,6073,33706
32284,6092,34017
32309,6116,34240
32341,6184,34071
32284,6060,34182
32216,6073,34270
32094,6111,34228
32088,6047,34348
32177,6060,34513
32201,6106,34333
32212,6063,34431
32288,6119,34510
32292,6077,34703
32284,6133,34629
32232,6063,34757
32161,6098,34372
32080,6051,34617
32052,6072,34784
32092,6042,34857
32084,6070,34992
32060,6127,34634
32120,6092,34882
32146,6129,34980
32208,6063,35063
32205,6077,35188
32176,6077,35110
32204,6100,35172
32236,6043,35335
32264,6066,35207
32204,6052,35179
32196,6068,35103
32184,6213,35184
32156,6085,35280
32074,6151,35361
31972,6074,35512
31964,6078,35068
32070,6100,35420
32132,6041,35511
32192,6082,35510
32276,6089,35604
32316,6051,35530
32302,6084,35639
32380,6064,35545
32400,6092,35497
32380,6113,35311
32293,6059,35599
32216,6083,35277
32148,6041,35652
32152,6071,35652
32176,6049,35788
32164,6081,35672
32194,6057,35700
32204,6101,35688
32152,6061,35796
32124,6093,35696
32164,6053,35813
32128,6064,35705
32188,6046,35844
32138,6071,35343
32064,6113,35719
32068,6067,35341
32096,6058,35847
32084,6082,35700
32160,6179,35740
32196,6077,35346
32180,6090,35669
32216,6044,35687
32172,6082,35800
32112,6043,35749
32097,6083,35871
32108,6053,35349
32056,6090,35693
32078,6087,35813
32116,6174,35660
32148,6062,35756
32144,6069,35743
32176,6091,35865
32152,6048,35393
32174,6073,35662
32129,6107,35749
32064,6054,35792
32197,6081,35677
32256,6085,35913
32336,6061,35815
32372,6096,35948
32280,6102,35820
32177,6051,35800
32136,6058,35836
32097,6065,35456
32044,6133,35797
31992,6068,35845
32026,6106,35861
32080,6060,35891
32100,6085,35479
32140,6059,35733
32120,6062,35832
32108,6085,35748
32084,6039,35730
32004,6054,35844
31928,6048,35865
31916,6088,35933
32008,6104,36007
32149,6060,35561
32237,6114,36036
32308,6053,35953
32328,6080,35991
32276,6052,35895
32224,6055,35868
32202,6080,36025
32160,6049,36004
32148,6045,35935
32148,6056,36182
32104,6072,36028
32112,6093,36036
32088,6074,35972
32048,6085,36208
31976,6091,36040
31976,6116,36136
32004,6039,36209
31964,6083,36079
32052,6074,36176
32148,6102,36164
32280,6059,36152
32288,6064,36234
32204,6083,36324
32192,6113,36181
32200,6052,36216
32208,6065,36408
32152,6097,36236
32066,6053,36245
32100,6089,36276
32166,6052,36302
32304,6076,36392
32396,6130,36382
32472,6053,36388
32492,6068,36368
32492,6071,36377
32361,6095,36277
32336,6197,36471
32324,6051,36453
32320,6068,36589
32320,6116,36423
32320,6054,36479
32268,6071,36487
32340,6085,36661
32241,6051,36284
32216,6075,36524
32132,6067,36676
32080,6042,36201
32036,6055,36509
32097,6071,36645
32101,6056,36620
32060,6075,36716
32128,6124,36477
32108,6059,36572
32017,6075,36737
31960,6156,36646
31964,6053,36608
31932,6069,36748
31872,6168,36703
31996,6065,36573
32028,6088,36772
32040,6059,36729
32064,6085,36845
32077,6127,36436
32032,6061,36632
32032,6076,36722
32053,6128,36792
32176,6041,36941
32220,6062,36641
32304,6134,36692
32352,6069,36781
32348,6102,36821
32441,6057,36966
32500,6076,36837
32432,6140,36884
32484,6074,36548
32504,6084,36863
32548,6038,36909
32556,6071,36900
32509,6114,36775
32550,6055,36897
32586,6092,36911
32553,6082,36937
32520,6124,36959
32452,6052,36892
32396,6082,36913
32360,6115,37076
32424,6037,36932
32456,6049,36995
32508,6066,36871
32568,6156,36940
32592,6087,36988
32552,6110,37160
32625,6049,36644
32656,6068,36902
32648,6193,36988
32644,6041,37053
32596,6061,37132
32526,6045,37068
32452,6066,37216
32400,6090,36857
32460,6058,37097
32484,6058,37047
32448,6064,36692
32428,6066,36986
32433,6040,36768
32504,6064,37188
32576,6040,37111
32514,6056,37231
32457,6046,37121
32448,6085,37175
32612,6055,37103
32733,6089,37072
32740,6055,37076
32648,6053,37196
32520,6074,37101
32468,6036,37110
32416,6050,37031
32412,6108,37036
32160,6061,37053
32002,6107,36701
31724,6057,37124
31440,6085,36711
31089,6060,37202
30628,6061,36998
30000,6069,37068
29372,6111,37145
29190,6049,36700
30392,6046,37092
33068,6068,37236
36544,6177,37128
40148,6049,37230
43828,6082,37072
47312,6092,37125
50144,6037,37270
52340,6067,36753
53320,6105,37076
51856,6024,37106
49312,6063,37089
47196,6039,37127
45068,6072,37156
43582,6085,37268
42660,6124,37086
41580,6039,37144
40044,6057,37280
38208,6129,36804
36197,6067,37002
34356,6066,37223
32837,6140,36870
31828,6040,37093
31208,6087,37183
30780,6094,37108
30470,6057,37063
30260,6072,37044
30064,6100,37030
29876,6042,37169
29764,6084,37023
29700,6034,37080
29628,6062,37069
29525,6050,37123
29496,6075,37042
29484,6205,37084
29402,6088,37045
29376,6110,37085
29365,6082,37149
29342,6085,37009
29380,6039,37073
29380,6055,37183
29373,6100,37216
29372,6053,37216
29378,6089,37168
29317,6059,36964
29252,6081,37224
29249,6201,37225
29228,6067,37175
29230,6076,37242
29286,6046,37180
29428,6069,37252
29604,6075,37278
29693,6193,37396
29754,6083,37236
29816,6107,37380
29820,6056,37199
29797,6075,37077
29733,6147,37124
29688,6063,37012
29724,6084,37089
29834,6039,37072
29928,6057,37116
30040,6105,37079
30018,6071,37161
29964,6101,37060
29960,6061,37134
29896,6059,36951
29876,6072,36995
29852,6048,37105
29824,6070,37005
29828,6085,37112
29840,6041,36980
29896,6067,37056
29986,6053,37021
30105,6074,37105
30176,6115,37049
30156,6067,37134
30128,6107,37088
30160,6044,37255
30132,6065,37151
30048,6043,37311
30000,6068,37191
30012,6070,37149
30088,6151,37271
30133,6065,37333
30185,6085,37511
30222,6125,37328
30176,6051,37436
30208,6070,37625
30240,6049,37565
30288,6076,37677
30380,6051,37629
30460,6113,37735
30472,6074,37705
30380,6062,37794
30248,6099,37872
30052,6121,38055
29996,6053,37961
30084,6093,37913
30272,6041,38054
30572,6059,38127
30680,6048,38228
30702,6064,38232
30700,6105,38404
30684,6062,38052
30652,6082,38295
30612,6114,38492
30557,6054,38477
30533,6060,38392
30568,6075,38551
30668,6044,38604
30760,6065,38708
30792,6139,38684
30816,6076,38631
30936,6110,38753
30976,6063,38825
30920,6082,38861
30872,6060,38836
30788,6067,38830
30812,6045,38916
30884,6080,38945
30952,6119,39133
31080,6081,39047
31176,6156,39143
31292,6068,39130
31340,6084,39052
31292,6213,39087
31224,6075,39168
31224,6055,39244
31355,6076,39264
31516,6105,39441
31680,6049,39371
31928,6100,39515
31904,6066,39431
31936,6127,39600
31936,6067,39079
31981,6091,39444
32068,6052,39652
32121,6073,39108
32220,6051,39488
32284,6077,39624
32392,6119,39591
32436,6086,39646
32332,6057,39649
32400,6083,39500
32536,6058,39749
32658,6119,39785
32681,6065,39844
32788,6047,39740
32964,6070,39676
33124,6056,39956
33184,6180,39824
33156,6084,39896
33088,6187,39815
33008,6073,39449
33008,6055,40136
33032,6088,40006
33088,6049,40028
33112,6071,39900
33146,6031,39652
33236,6073,39919
33281,6202,39758
33304,6060,40018
33308,6107,40081
33296,6068,40012
33320,6113,40102
33216,6050,40184
33216,6083,39957
33304,6103,40048
33364,6033,39860
33348,6068,40211
33300,6038,40220
33216,6084,40377
33268,6050,40258
33300,6116,40287
33358,6050,40289
33452,6072,40400
33440,6109,39844
33392,6041,40234
33308,6067,40312
33220,6036,40288
33212,6053,40300
33296,6043,40333
33412,6083,39874
33468,6084,40356
33413,6052,40391
33424,6062,40386
33328,6071,40503
33216,6166,40401
33216,6062,40532
33216,6061,40381
33152,6035,40480
33232,6064,40404
33372,6096,40512
33432,6054,40394
33476,6138,40455
33516,6058,40384
33557,6102,40428
33568,6052,40260
33556,6087,40348
33512,6028,40244
33420,6084,39861
33332,6036,40257
33320,6083,40196
33376,6148,40465
33405,6069,40348
33468,6110,40521
33488,6059,40349
33520,6085,40369
33492,6033,40326
33452,6056,40416
33377,6137,40364
33300,6078,40493
33336,6139,40315
33420,6065,40335
33492,6083,40340
33542,6185,40485
33504,6060,40348
33456,6159,40310
33388,6051,40201
33352,6155,40268
33288,6053,40245
33224,6038,39843
33254,6074,40391
33320,6053,40272
33420,6070,40384
33504,6051,40284
33530,6060,40288
33580,6043,40199
33512,6070,40177
33544,6084,40087
33516,6037,40004
33516,6093,40116
33556,6071,40145
33660,6111,40300
33628,6066,40114
33536,6084,40244
33449,6044,40087
33381,6082,40212
33380,6029,39533
33532,6050,39868
33569,6125,39940
33596,6041,39934
33564,6071,40047
33596,6056,39844
33661,6081,39847
33684,6126,39492
33720,6057,39660
33805,6057,39855
33820,6039,39657
33744,6049,39705
33704,6094,39129
33716,6039,39381
33774,6068,39508
33792,6052,39425
33716,6087,39406
33704,6046,39323
33752,6063,39408
33688,6095,38829
33668,6034,39104
33672,6065,39068
33700,6033,39201
33766,6058,38526
33816,6119,38935
33832,6060,38735
33768,6085,38809
33836,6045,38885
33744,6067,38569
33704,6037,38744
33644,6050,38565
33716,6090,38620
33764,6035,38428
33832,6083,38438
33896,6047,38296
33850,6070,38302
33844,6052,38149
33784,6060,38105
33700,6109,38015
33748,6059,37929
33696,6084,37836
33656,6030,37868
33620,6061,37717
33644,6036,37662
33689,6065,37556
33728,6058,37540
33748,6069,37365
33760,6047,37165
33740,6067,37175
33752,6038,37127
33780,6063,37072
33769,6120,37039
33788,6068,36928
33772,6088,36852
33780,6039,36800
33804,6070,36687
33880,6052,36612
33784,6089,36182
33748,6047,36645
33752,6068,36428
33820,6034,36396
33846,6079,36220
33773,6031,36180
33776,6105,36037
33772,6081,35975
33812,6051,35944
33804,6069,35487
33817,6132,35668
33876,6075,35460
33904,6098,35676
33812,6038,35520
33696,6053,35376
33756,6038,35149
33708,6064,35364
33760,6049,34911
33760,6068,35101
33782,6096,35127
33736,6049,35004
33640,6096,34866
33620,6072,34773
33636,6038,34708
33580,6059,34709
33532,6034,34614
33580,6091,34684
33640,6050,34476
33692,6093,34490
33744,6049,34324
33904,6064,34372
33908,6200,33935
33872,6051,34055
33856,6082,34086
33882,6030,33974
33908,6078,33952
33820,6042,33799
33792,6081,33817
33832,6063,33615
33908,6097,33538
34000,6051,33549
34028,6075,33182
34016,6045,33535
34072,6083,33041
34016,6039,33409
33952,6087,32950
33916,6042,33146
33908,6079,32972
33913,6053,33065
33876,6078,33050
33880,6052,32841
33860,6088,32840
33888,6038,32830
33792,6054,32951
33840,6032,32432
33832,6069,32713
33856,6097,32572
33888,6044,32596
33964,6073,32559
33988,6190,32543
34037,6081,32624
34084,6095,32133
34024,6035,32279
33957,6051,32436
33892,6109,32071
33792,6036,32270
33796,6062,32389
33869,6052,32085
33908,6080,32175
33880,6055,32095
33880,6073,32151
33820,6099,32217
33796,6059,32077
33708,6030,31964
33612,6080,31940
33620,6050,31820
33664,6037,31838
33708,6064,31877
33772,6051,31935
33725,6064,32000
33664,6153,31900
33516,6043,31937
33324,6073,31836
33060,6034,31770
32732,6066,31748
32324,6140,31732
31936,6071,31773
31364,6111,31776
30728,6068,31845
30352,6061,31748
30628,6079,31708
32560,6052,31732
35808,6064,31751
39556,6026,31717
43340,6096,31680
47252,6072,31644
50712,6032,31488
53436,6067,31780
55296,6031,31479
55464,6084,31825
53216,6044,31721
50716,6057,31777
48560,6197,31860
46348,6043,31816
44984,6150,31821
43748,6052,31845
42304,6065,31844
40564,6153,31780
38508,6041,31860
36472,6076,31720
34692,6105,31804
33288,6039,31882
32212,6054,31740
31524,6078,31813
31068,6170,31882
30768,6030,32012
30560,6053,31886
30409,6063,31741
30264,6111,31756
30136,6051,31912
30048,6065,31909
30020,6072,31893
29940,6038,31881
29780,6064,31974
29704,6089,32064
29692,6035,32052
29656,6077,32187
29588,6046,32143
29616,6071,32239
29684,6049,32153
29600,6080,32150
29564,6039,32135
29516,6071,31968
29384,6037,32168
29364,6042,32220
29473,6092,32193
29616,6072,32208
29764,6092,32284
29872,6053,32260
29908,6096,32320
29892,6118,32423
29860,6044,32389
29864,6065,32508
29885,6035,32401
29925,6055,32318
29869,6168,32340
29792,6041,32421
29768,6072,32424
29784,6054,32511
29840,6064,32104
29928,6087,32284
29992,6048,32396
30028,6071,32419
29996,6073,32521
29992,6033,32447
30012,6045,32569
30020,6097,32486
30068,6046,32597
30068,6079,32354
30020,6124,32577
30017,6069,32236
30012,6103,32663
29969,6047,32573
30044,6095,32720
30124,6067,32612
30232,6100,32607
30192,6047,32688
30088,6082,32775
30165,6052,32742
30168,6077,32754
30161,6052,32775
30177,6066,32846
30208,6103,32937
30304,6056,32732
30269,6096,32928
30216,6038,33100
30165,6058,33198
30103,6089,33403
30116,6053,33324
30056,6082,33469
30029,6090,33111
30078,6049,33391
30084,6056,33497
30076,6077,33508
30088,6039,33391
30145,6067,33634
30180,6088,33754
30162,6049,33868
30273,6089,34015
30284,6086,34030
30286,6102,34006
30172,6055,34114
30136,6046,34185
30092,6053,34305
30049,6081,34328
30084,6147,34368
30208,6042,34445
30372,6071,34476
30392,6113,34557
30400,6057,34376
30437,6077,34580
30425,6076,34718
30432,6102,34791
30404,6044,34920
30356,6064,34948
30360,6056,35101
30413,6201,35068
30468,6060,35236
30584,6076,34973
30694,6116,35133
30736,6055,35308
30712,6077,35352
30666,6071,35460
30572,6046,35488
30601,6057,35641
30592,6094,35569
30684,6047,35645
30908,6069,35662
31076,6060,35805
31192,6091,35807
31380,6099,35948
31472,6051,36073
31536,6058,36276
31608,6113,36212
31604,6073,36442
31676,6111,36372
31753,6063,36496
31952,6102,36521
32164,6051,36742
32264,6071,36608
32376,6115,36733
32424,6046,36948
32448,6060,36628
32433,6115,36898
32476,6068,36972
32648,6121,36959
32749,6039,37111
32832,6064,37218
32940,6123,37446
33040,6056,37092
33048,6076,37296
33132,6106,37616
33120,6039,37440
33128,6061,37554
33076,6048,37827
33068,6093,37364
33024,6040,37751
32984,6066,37920
32948,6082,37924
33028,6119,38000
33048,6042,37991
33061,6057,38089
33120,6089,38221
33140,6028,37989
33132,6078,38188
33108,6039,37895
33110,6073,38299
33196,6034,38207
33228,6069,38448
33268,6046,38227
33272,6066,38615
33280,6041,38223
33272,6057,38663
33216,6189,38333
33188,6043,38829
33180,6029,38750
33132,6067,38909
33080,6091,38858
33076,6068,38904
33032,6105,38898
33048,6048,39036
33036,6058,39023
33073,6192,39183
33100,6065,39077
33152,6084,39215
33118,6053,38693
33108,6097,39200
33120,6045,38791
33160,6078,39189
33080,6043,38916
32978,6085,39350
32960,6034,39312
32972,6049,39368
32872,6141,39516
32860,6044,39399
32844,6022,39422
32936,6053,39375
32984,6164,39508
32956,6080,39471
32924,6124,39556
32920,6038,39527
32868,6064,39698
32864,6033,39545
32952,6046,39607
32992,6093,39559
33016,6023,39620
33064,6052,39785
33080,6039,39431
33124,6081,39753
33112,6109,39519
33121,6039,39684
33120,6063,39815
33125,6033,39753
33100,6055,39919
33064,6023,39773
33064,6047,39884
33128,6105,39391
33212,6073,39975
33272,6123,39590
33222,6066,40010
33196,6048,39844
33222,6055,40029
33208,6029,39890
33212,6062,40050
33160,6027,39889
33140,6050,39869
33140,6093,39852
33140,6038,39893
33192,6069,39983
33200,6043,39911
33272,6085,40022
33344,6036,39912
33276,6050,40041
33284,6088,39414
33204,6027,39780
33252,6045,39900
33332,6098,39884
33424,6040,40036
33412,6099,39883
33384,6048,39943
33388,6076,39868
33268,6043,39988
33140,6061,39844
33128,6025,39924
33188,6056,39489
33188,6026,39671
33224,6065,39813
33358,6049,39732
33404,6085,39844
33312,6045,39749
33192,6057,39807
33136,6105,39460
33140,6065,39556
33149,6096,39649
33256,6022,39628
33348,6075,39687
33376,6041,39552
33420,6100,39564
33457,6047,39517
33456,6094,39589
33394,6046,39463
33392,6068,39568
33296,6035,39397
33217,6046,39397
33232,6084,39268
33216,6025,39265
33241,6059,39388
33300,6037,39231
33393,6058,39092
33473,6143,39108
33484,6077,39040
33492,6100,39120
33508,6047,39001
33452,6130,39092
33372,6037,38978
33344,6053,38936
33320,6036,38822
33344,6074,38840
33372,6108,38376
33416,6065,38767
33412,6106,38303
33388,6055,38828
33352,6096,38672
33372,6029,38654
33388,6062,38125
33394,6044,38671
33376,6098,38499
33396,6061,38550
33432,6151,38385
33472,6068,38344
33408,6084,38247
33397,6037,38231
33406,6048,38325
33376,6157,38207
33412,6055,38192
33452,6090,38116
33388,6043,38137
33350,6091,38056
33408,6057,37975
33444,6041,37849
33500,6070,37876
33509,6036,37850
33436,6057,37851
33428,6025,37741
33424,6041,37892
33372,6033,37697
33324,6050,37624
33300,6040,37606
33324,6077,37711
33412,6194,37569
33377,6072,37532
33356,6073,37157
33352,6031,37325
33250,6046,37468
33269,6087,37390
33236,6028,37271
33198,6037,37476
33208,6064,36970
33176,6049,37164
33172,6057,37183
33140,6045,37083
33112,6058,36752
33112,6203,37012
33100,6047,37044
33117,6019,36983
33128,6055,36927
32980,6032,36973
32940,6053,36965
32920,6108,36936
33016,6042,37044
33112,6086,36887
33156,6035,36945
33216,6051,36798
33220,6029,36880
33240,6054,36725
33252,6021,36677
33300,6062,36623
33268,6038,36716
33200,6074,36623
33064,6042,36676
33144,6077,36564
33194,6198,36577
33240,6060,36154
33297,6132,36603
33396,6041,36424
33448,6028,36419
33520,6050,36356
33532,6037,36432
33528,6076,36253
33548,6105,36142
33568,6043,35887
33548,6063,36052
33544,6201,36060
33533,6038,36060
33624,6072,36052
33604,6060,36032
33516,6099,35631
33548,6073,36143
33573,6044,35963
33625,6060,35956
33653,6042,35876
33641,6073,35908
33736,6089,35815
33700,6053,35951
33668,6124,35783
33732,6061,35842
33736,6034,35692
33695,6058,35640
33640,6044,35609
33624,6071,35581
33632,6105,35575
33600,6055,35545
33552,6078,35526
33468,6022,35645
33460,6061,35381
33421,6080,35393
33430,6025,35526
33444,6058,35004
33504,6045,35204
33548,6061,35007
33580,6040,35279
33564,6060,34913
33540,6027,35308
33396,6053,35104
33173,6019,35235
32901,6052,34903
32524,6035,35008
32024,6052,34740
31516,6106,34855
30918,6047,34868
30224,6075,34758
29888,6047,34501
30341,6098,34909
32304,6041,34442
35448,6097,34664
39044,6065,34560
42772,6020,34762
46640,6076,34644
50020,6028,34560
52712,6073,34228
54508,6025,34624
54472,6083,34520
52184,6065,34392
49840,6020,34278
47700,6076,34388
45568,6055,34274
44340,6060,34150
43112,6048,34236
41776,6191,34342
40044,6076,34165
38088,6135,34232
36152,6054,34077
34464,6028,34133
33124,6057,33612
32224,6083,33932
31624,6036,33521
31192,6085,33927
30960,6034,33441
30856,6077,33566
30716,6094,33629
30548,6044,33632
30428,6074,33677
30386,6117,33515
30328,6054,33626
30240,6069,33457
30192,6025,33488
30093,6056,33393
30040,6113,33502
29988,6041,33048
29933,6067,33423
29960,6040,33311
29980,6084,33063
29948,6034,33088
29956,6050,32916
29992,6026,33292
29973,6052,33110
29956,6098,32844
30024,6053,33164
30056,6045,33007
30028,6083,33044
30004,6149,32916
30068,6055,32904
30094,6091,32801
30148,6041,32852
30208,6089,32684
30200,6037,32647
30232,6087,32440
30276,6039,32396
30284,6116,32186
30241,6082,32457
30229,6045,32070
30272,6072,32383
30372,6106,31957
30252,6061,32096
30340,6085,32080
30412,6041,32071
30480,6083,32032
30512,6033,31996
30536,6071,31820
30512,6153,31916
30496,6061,31845
30489,6152,31824
30472,6033,31436
30474,6049,31574
30504,6026,31568
30536,6031,31560
30557,6052,31645
30584,6097,31552
30652,6043,31461
30708,6069,31399
30721,6132,31447
30712,6040,31535
30656,6057,31108
30608,6028,31329
30568,6057,31273
30584,6077,31310
30637,6031,31333
30637,6084,31199
30680,6049,31125
30732,6066,31136
30728,6135,31164
30684,6047,31113
30652,6081,31047
30660,6031,31144
30668,6058,31063
30668,6064,31109
30656,6032,31068
30672,6074,31111
30689,6089,31032
30704,6052,31121
30688,6074,31143
30681,6086,31140
30664,6035,31111
30650,6050,31329
30644,6031,31255
30669,6053,31152
30640,6033,31137
30684,6084,31024
30712,6052,31195
30680,6089,30976
30748,6120,31189
30777,6055,31085
30724,6076,31213
30810,6035,31008
30864,6031,31092
30864,6062,31148
30900,6066,31244
30988,6049,31216
31028,6064,31124
31060,6091,31109
31148,6097,31292
31226,6115,30932
31184,6039,31111
31108,6059,30975
31128,6036,31089
31166,6057,31109
31200,6053,31224
31296,6107,31216
31412,6051,31020
31524,6072,31159
31604,6114,31241
31693,6047,31216
31782,6063,31302
31820,6037,31159
31964,6054,31180
32088,6072,31175
32196,6034,31148
32284,6061,31176
32373,6122,31165
32500,6053,31170
32612,6082,31140
32668,6043,31100
32772,6054,30913
32913,6107,31250
33000,6045,31161
33112,6057,31209
33237,6035,31140
33308,6062,31261
33336,6087,31124
33456,6042,31205
33460,6057,31096
33496,6176,31012
33533,6064,30981
33586,6079,30780
33592,6026,31194
33600,6050,31028
33616,6026,30923
33654,6062,31059
33780,6039,30780
33828,6060,31128
33832,6037,30991
33844,6074,30897
33872,6030,30999
33860,6052,30959
33828,6021,31024
33758,6027,30852
33748,6058,30921
33781,6032,31007
33788,6047,30909
33806,6084,31026
33840,6035,30904
33824,6046,30983
33813,6092,30886
33804,6059,30837
33808,6086,30831
33780,6020,30914
33808,6054,30842
33880,6031,30813
33808,6055,30808
33825,6071,30884
33797,6203,30823
33821,6046,30800
33756,6056,30679
33776,6026,30686
33780,6056,30702
33792,6172,30643
33796,6031,30715
33796,6082,30732
33842,6036,30660
33802,6069,30660
33752,6095,30868
33712,6031,30447
33652,6058,30805
33604,6023,30488
33594,6049,30590
33620,6079,30628
33624,6021,30644
33648,6051,30612
33688,6113,30685
33616,6053,30709
33672,6061,30596
33668,6108,30769
33648,6039,30664
33604,6071,30726
33600,6015,30660
33620,6043,30770
33637,6082,30639
33636,6030,30781
33561,6053,30646
33536,6103,30753
33544,6033,30648
33556,6053,30521
33540,6103,30628
33532,6054,30624
33496,6071,30639
33508,6020,30701
33464,6043,30835
33504,6033,30701
33564,6052,30829
33572,6102,30503
33600,6033,30604
33532,6050,30727
33510,6084,30779
33480,6023,30903
33500,6044,30511
33500,6018,30678
33529,6052,30610
33524,6116,30737
33536,6033,30894
33565,6062,30849
33572,6037,30969
33568,6050,30582
33516,6025,30981
33488,6047,30865
33428,6020,30876
33513,6038,30732
33466,6076,30845
33488,6029,30872
33484,6056,30855
33492,6137,30925
33536,6047,30917
33516,6072,30948
33501,6025,30925
33480,6058,31043
33444,6086,30925
33456,6036,30976
33488,6076,30925
33472,6030,30949
33469,6065,30811
33472,6082,30902
33424,6041,30996
33388,6052,30806
33448,6060,30894
33512,6101,30796
33520,6015,30854
33460,6037,30873
33444,6067,30708
33444,6025,30756
33408,6052,30852
33412,6044,30957
33440,6074,30565
33441,6074,30734
33436,6031,30685
33436,6038,30710
33356,6156,30764
33368,6020,30485
33336,6047,30573
33336,6191,30615
33348,6060,30688
33304,6082,30695
33309,6039,30662
33244,6052,30688
33264,6095,30644
33288,6024,30628
33300,6019,30657
33260,6044,30599
33280,6088,30628
33328,6052,30564
33357,6097,30623
33377,6076,30484
33348,6119,30431
33341,6061,30415
33336,6027,30396
33292,6058,30348
33296,6015,30377
33308,6041,30420
33326,6025,30381
33208,6051,30396
33188,6097,30476
33182,6041,30376
33192,6067,30502
33136,6029,30341
33120,6051,30448
33124,6024,30318
33116,6042,30152
33112,6054,30304
33112,6095,30012
33100,6025,30215
33100,6060,30141
33052,6035,30182
32996,6053,30297
32992,6029,30137
32976,6045,30087
32988,6093,30154
33032,6049,30208
33028,6055,30129
33020,6024,30122
33016,6046,29901
33072,6084,30078
33044,6034,29908
33016,6055,29974
33052,6033,29780
33064,6048,29912
33052,6089,29876
33024,6020,29891
33116,6042,29839
33100,6026,30045
33074,6051,29978
33125,6136,30024
33128,6076,29970
33104,6038,29878
33072,6064,29929
33068,6069,29876
33028,6022,29880
33045,6055,29945
33024,6160,29889
33024,6045,29864
32984,6069,29884
33013,6032,29849
33081,6075,29837
33084,6084,29932
33100,6031,29620
33060,6030,29703
33133,6042,29796
33064,6087,29844
33010,6021,29680
33024,6023,29770
33072,6049,29820
33052,6082,29856
33104,6046,29695
33074,6047,29772
33084,6086,29904
33072,6024,29752
33057,6034,29676
33071,6074,29800
33088,6015,29554
33088,6060,29701
33068,6077,29853
33082,6030,29556
33072,6055,29690
33074,6104,29823
33048,6027,29431
33012,6047,29572
32996,6142,29577
32988,6016,29681
33048,6079,29789
33028,6029,29496
33044,6064,29548
32980,6033,29732
32920,6036,29529
32976,6073,29637
32917,6093,29626
32884,6021,29516
32876,6034,29582
32868,6040,29732
32873,6161,29596
32876,6037,29724
32816,6092,29588
32766,6044,29594
32800,6058,29584
32836,6029,29608
32896,6071,29572
32984,6030,29588
33016,6045,29533
33052,6075,29541
33044,6021,29544
33088,6064,29586
33136,6032,29529
33108,6085,29517
33125,6064,29500
33108,6081,29494
33112,6031,29498
33172,6063,29604
33124,6079,29504
33088,6016,29493
33144,6037,29389
33172,6024,29375
33152,6036,29516
33135,6054,29213
33136,6098,29329
33092,6036,29381
33102,6055,29436
33132,6103,29581
33124,6018,29460
33176,6031,29360
33156,6073,29469
33104,6019,29307
33072,6053,29294
33078,6065,29453
33100,6032,29451
33128,6054,29412
33136,6077,29312
33100,6023,29292
33088,6054,29337
33076,6012,29300
33072,6056,29408
33164,6019,29342
33148,6052,29322
33188,6071,29392
33196,6029,29444
33168,6055,29429
33180,6072,29324
33132,6031,29316
33116,6036,29350
33052,6056,29417
33052,6017,29417
33040,6050,29436
33040,6024,29357
33089,6064,29300
33117,6035,29288
33101,6033,29424
33096,6067,29365
33064,6036,29348
32984,6060,29408
32789,6022,29268
32532,6049,29312
32206,6068,29416
31828,6024,29318
31388,6052,29321
30761,6178,29080
30073,6049,29209
29512,6079,29201
29656,6030,29287
30974,6041,29380
33560,6020,29269
36832,6052,29152
40440,6074,29238
44376,6012,29236
48256,6047,29109
51568,6161,29228
54208,6067,29241
55752,6105,29348
55092,6020,29190
52452,6048,29175
50044,6176,29079
47752,6033,29124
45516,6105,29076
43917,6030,29129
42368,6069,29204
40696,6032,28817
38756,6042,29029
36641,6053,29163
34700,6026,28991
33148,6026,28831
32064,6050,28983
31284,6017,28935
30808,6037,29034
30481,6028,28864
30268,6071,28843
30076,6102,28568
29928,6036,28742
29804,6062,28714
29704,6028,28772
29657,6043,28692
29536,6017,28738
29428,6050,28760
29372,6066,28786
29340,6025,28848
29340,6051,28790
29364,6097,28849
29352,6037,28560
29360,6055,28757
29288,6147,28721
29336,6038,28668
29312,6019,28600
29280,6047,28687
29332,6074,28700
29316,6028,28756
29361,6061,28828
29376,6039,28476
29380,6052,28639
29500,6088,28601
29440,6029,28692
29468,6039,28773
29524,6055,28508
29528,6021,28556
29484,6058,28669
29528,6052,28412
29660,6080,28487
29680,6041,28460
29656,6036,28338
29684,6036,28096
29712,6044,28297
29724,6070,28295
29732,6020,28116
29728,6036,27935
29704,6037,28136
29740,6069,28031
29797,6092,28087
29872,6041,28068
29888,6043,27788
29926,6055,27913
29886,6049,27866
29921,6050,27839
29928,6060,27844
29933,6097,27844
29952,6024,27660
29980,6034,27738
30064,6053,27710
30076,6137,27840
30076,6043,27438
30044,6063,27725
30060,6081,27614
30081,6024,27677
30080,6046,27694
30048,6051,27569
30052,6023,27684
30132,6045,27706
30140,6118,27578
30094,6049,27704
30144,6062,27805
30120,6033,27484
30088,6059,27593
30076,6031,27669
30085,6052,27784
30076,6050,27898
30036,6024,27604
30056,6057,27799
30101,6073,28006
30236,6195,27812
30172,6035,27958
30158,6053,28033
30160,6071,27869
30144,6122,28039
30124,6025,28098
30076,6052,27901
30080,6156,28046
30144,6037,28133
30160,6068,28176
30208,6100,28104
30248,6043,28262
30228,6079,28276
30276,6029,28377
30317,6065,28200
30336,6082,28328
30332,6021,28295
30348,6039,28417
30372,6070,28377
30402,6089,28580
30380,6042,28390
30464,6058,28495
30496,6077,28582
30493,6036,28519
30532,6061,28596
30596,6052,28564
30702,6088,28720
30768,6024,28432
30808,6051,28614
30920,6129,28630
30980,6075,28629
31048,6093,28722
31084,6042,28804
31152,6067,28725
31260,6084,28750
31423,6024,28849
31540,6020,28799
31690,6044,28844
31817,6083,28973
31932,6036,29112
32029,6055,28773
32104,6088,29017
32216,6033,29184
32344,6047,29069
32492,6027,29198
32612,6059,28862
32716,6052,29124
32876,6074,29156
32886,6033,29191
32972,6057,29224
33085,6085,29333
33180,6069,29146
33272,6042,29285
33308,6071,29398
33360,6020,29113
33380,6034,29189
33460,6021,29308
33516,6049,29382
33564,6089,29489
33576,6050,29417
33592,6091,29437
33668,6030,29236
33712,6069,29447
33724,6022,29266
33712,6039,29476
33732,6070,29423
33712,6026,29389
33744,6063,29456
33760,6017,29588
33765,6053,29740
33804,6102,29531
33736,6036,29607
33708,6053,29708
33692,6025,29678
33645,6040,29804
33696,6036,29616
33716,6019,29729
33720,6018,29773
33724,6054,29664
33760,6033,29783
33784,6041,29926
33774,6055,29557
33776,6139,29865
33772,6033,29685
33796,6033,29871
33748,6139,30021
33692,6031,29640
33684,6053,29838
33652,6104,29844
33668,6037,29970
33684,6049,29993
33620,6094,29896
33586,6020,30029
33520,6055,30086
33504,6075,29830
33487,6009,30068
33492,6039,30233
33550,6034,30037
33600,6068,30162
33574,6026,30311
33576,6049,30185
33592,6190,30304
33468,6060,29982
33424,6076,30128
33404,6018,30209
33392,6044,30288
33400,6017,30414
33436,6019,30388
33400,6044,30516
33383,6094,30241
33408,6026,30430
33452,6068,30627
33448,6084,30255
33425,6021,30433
33476,6034,30629
33456,6061,30468
33428,6169,30663
33424,6045,30792
33432,6047,30604
33500,6082,30741
33460,6027,30857
33476,6046,30708
33460,6053,30833
33412,6047,30839
33404,6061,30916
33356,6019,30902
33336,6008,30855
33378,6017,31001
33392,6044,30725
33393,6043,31004
33428,6055,31196
33412,6110,30820
33444,6025,30982
33404,6016,31298
33416,6017,31094
33420,6037,31215
33388,6026,31103
33336,6058,31173
33324,6081,31293
33344,6092,31194
33320,6024,31392
33248,6028,31333
33264,6040,31239
33246,6044,31360
33264,6076,31418
33264,6012,31425
33244,6026,31461
33236,6076,31532
33252,6012,31384
33280,6037,31509
33281,6046,31447
33276,6056,31661
33221,6077,31399
33204,6021,31533
33156,6031,31524
33116,6069,31576
33189,6006,31701
33132,6035,31583
33100,6096,31508
33182,6022,31500
33210,6060,31542
33192,6078,31517
33144,6022,31565
33076,6036,31660
33085,6077,31615
33103,6018,31589
33080,6042,31606
33068,6014,31700
33076,6032,31469
33052,6044,31576
33028,6090,31661
33036,6020,31596
33004,6042,31706
32980,6084,31580
33000,6016,31710
32968,6061,31576
32964,6006,31672
32980,6028,31536
32948,6021,31660
32968,6057,31558
33016,6104,31578
33028,6059,31527
32976,6108,31428
32984,6037,31664
32968,6093,31540
32960,6033,31634
32972,6051,31377
32900,6009,31417
32956,6037,31208
32976,6026,31514
32996,6049,31500
32992,6193,31572
32944,6041,31508
32868,6113,31617
32884,6029,31481
32896,6089,31546
32880,6042,31478
32868,6103,31372
32889,6027,31348
32924,6130,31457
32948,6059,31469
32916,6028,31359
32924,6041,31419
32896,6093,31545
32897,6044,31433
32912,6072,31507
32884,6014,31428
32856,6038,31501
32901,6018,31420
32912,6047,31533
32916,6076,31375
32876,6023,31505
32896,6068,31385
32917,6021,31303
32952,6067,31289
32956,6004,31160
32992,6040,31444
32836,6015,31374
32791,6043,31417
32828,6022,31333
32864,6060,31257
32900,6023,31284
32896,6046,31041
32848,6097,31348
32879,6014,31047
32832,6022,31334
32809,6008,31325
32772,6029,31471
32788,6021,31349
32844,6044,31470
32840,6025,31329
32844,6053,31227
32832,6022,31463
32828,6036,31332
32848,6123,31436
32824,6044,31324
32828,6069,31348
32824,6011,31317
32840,6053,31239
32852,6025,31220
32841,6042,31328
32784,6028,31338
32796,6051,31228
32760,6017,31188
32732,6037,31312
32704,6007,31330
32768,6055,31231
32760,6018,31191
32732,6055,31194
32688,6018,31263
32713,6044,31226
32692,6024,31365
32704,6053,31317
32670,6026,31231
32665,6069,31295
32676,6013,31108
32710,6040,31443
32698,6005,31321
32680,6053,31263
32712,6021,31255
32704,6062,31215
32708,6044,31220
32698,6020,31040
32676,6059,31345
32664,6015,31313
32620,6059,31215
32612,6042,31207
32576,6008,31124
32553,6056,31439
32564,6025,31314
32560,6061,31405
32592,6029,31013
32604,6060,31396
32616,6058,31132
32572,6011,31408
32552,6031,31315
32560,6013,31388
32528,6028,31308
32532,6017,31372
32528,6041,31305
32520,6028,31420
32464,6045,31287
32444,6093,31425
32396,6036,31305
32368,6017,31414
32392,6027,31308
32341,6007,31357
32332,6030,31278
32389,6019,31281
32484,6045,31292
32512,6085,31303
32560,6027,31303
32565,6042,31428
32477,6090,31272
32452,6048,31366
32492,6076,31283
32496,6039,31322
32500,6016,31239
32524,6051,31196
32628,6028,31148
32624,6069,31194
32612,6024,31156
32568,6076,31256
32588,6040,31414
32604,6065,31287
32644,6005,31300
32632,6033,30964
32560,6011,31309
32580,6058,31252
32616,6020,31413
32656,6061,31272
32660,6030,31188
32613,6041,31255
32597,6020,31397
32576,6040,31239
32580,6072,31380
32568,6031,31258
32621,6051,31389
32628,6018,31231
32684,6054,31316
32704,6094,31232
32724,6038,31372
32712,6023,31253
32692,6038,31247
32677,6010,30937
32680,6036,31086
32668,6012,31014
32640,6046,31165
32649,6033,30933
32681,6083,31156
32690,6041,30920
32632,6026,31366
32592,6050,31228
32652,6018,31154
32644,6068,31117
32608,6018,30941
32615,6063,31247
32616,6006,30969
32616,6047,31167
32612,6023,30885
32628,6042,31213
32576,6095,30960
32396,6031,31065
32120,6067,30897
31800,6010,31007
31432,6047,31001
31028,6010,31125
30444,6040,31236
29744,6073,31133
29236,6028,31149
29124,6053,30799
30272,6028,31140
32702,6052,30965
35832,6020,31039
39316,6038,30988
43141,5997,31036
47056,6064,30983
50416,6018,31004
53168,6043,31061
55028,6013,31054
54904,6055,31127
52464,6104,31040
49820,6038,31126
47504,6077,31004
45184,5997,30940
43484,6035,30897
41924,6053,30961
40157,5998,31030
38180,6041,30764
36100,6068,30744
34244,6021,30816
32700,6069,30836
31568,6039,30760
30764,6036,30799
30257,6015,30710
29964,6041,30558
29700,6066,30705
29476,6022,30769
29296,6052,30689
29191,6025,30580
29072,6043,30602
28970,6027,30641
28978,6042,30680
28900,6046,30702
28828,6037,30688
28776,6009,30662
28749,6033,30716
28704,6159,30721
28708,6050,30778
28720,6094,30471
28736,6025,30666
28732,6047,30784
28720,6031,30743
28712,6040,30692
28721,6014,30608
28696,6057,30477
28704,6010,30604
28692,6063,30420
28696,6020,30567
28740,6055,30560
28756,6028,30604
28725,6048,30630
28736,6117,30593
28831,6019,30404
28920,6035,30438
28998,6078,30477
29028,6017,30416
29068,6060,30365
29132,6016,30333
29120,6044,30316
29140,6084,30263
29148,6028,30252
29156,6042,30367
29116,6050,30000
29116,6099,30130
29134,6012,30239
29164,6032,29982
29204,6046,30049
29268,6021,30139
29288,6039,29762
29334,6056,29868
29328,6119,30007
29329,6042,29880
29325,6054,29884
29332,6014,29564
29332,6028,29854
29304,6012,29559
29252,6034,29832
29217,6058,29549
29228,6115,29657
29238,6037,29719
29236,6063,29818
29249,6052,29786
29232,6162,29791
29216,6016,29572
29268,6027,29745
29308,6020,29636
29344,6046,30043
29349,6057,29945
29328,6023,30132
29348,6044,30005
29345,6075,29925
29284,6031,30021
29336,6047,30165
29356,6052,30332
29324,6159,30100
29260,6044,30236
29288,6017,30365
29292,6051,30364
29333,6099,30306
29372,6061,30402
29340,6088,30532
29372,6029,30727
29336,6037,30527
29304,6078,30715
29296,6017,30652
29320,6026,30855
29324,6061,30868
29373,6021,30769
29432,6064,30967
29472,6100,31028
29504,6059,30936
29516,6096,31044
29488,6043,31145
29489,6052,31367
29556,6013,31300
29604,6051,31431
29612,6019,31127
29632,6044,31381
29640,6072,31535
29656,6036,31545
29665,6069,31708
29704,6031,31640
29748,6060,31711
29840,6083,31685
29872,6017,31817
29904,6045,31940
29952,6100,31897
30016,6039,31949
30060,6093,31748
30072,6033,31957
30196,6049,32108
30328,6050,32070
30414,6047,31892
30496,6063,32256
30605,6110,32175
30808,6015,32464
30948,6037,32300
31068,6072,32439
31212,6025,32486
31321,6047,32453
31396,6035,32540
31472,6046,32625
31552,6072,32324
31648,6093,32697
31788,6023,32687
31856,6047,32876
31988,6065,32708
32078,6020,32848
32128,6043,32724
32174,6044,32997
32264,6082,32625
32264,6168,32982
32300,6016,32949
32352,6027,33016
32404,6109,33076
32468,6002,33167
32500,6043,33058
32508,6052,33181
32528,6022,33125
32549,6028,33335
32572,6052,33274
32636,6023,33306
32672,6019,33276
32708,6025,33026
32644,6063,33269
32552,6003,33469
32620,6029,33469
32580,6080,33594
32572,6018,33467
32584,6036,33565
32656,6062,33447
32656,6019,33620
32656,6023,33649
32640,6044,33584
32652,6007,33620
32648,6037,33716
32660,6045,33897
32686,6017,33540
32692,6019,33838
32712,6059,33791
32760,6074,33897
32760,6019,33947
32760,6021,33905
32720,6037,33940
32668,6033,34069
32606,6056,33873
32544,6177,34089
32524,6008,34087
32540,6052,34165
32540,6042,34236
32572,6061,34125
32564,6022,34233
32576,6022,34173
32604,6037,34169
32564,6121,34278
32468,5998,34399
32384,6025,34158
32396,6049,34398
32412,6038,34420
32448,6067,34392
32540,6023,34492
32512,6021,34505
32449,6028,34415
32456,6075,34514
32453,6002,34595
32452,6038,34748
32484,6045,34616
32512,6089,34695
32585,6014,34657
32616,6032,34812
32565,6052,34784
32512,6077,34788
32428,6013,34959
32437,6025,34805
32460,6133,34884
32485,6003,34778
32502,6035,34994
32568,6072,34888
32644,6014,35010
32640,6039,34972
32664,6057,35093
32700,6021,34727
32624,6039,35066
32564,6027,35266
32561,6063,34972
32608,6003,35190
32656,6037,35301
32632,6108,34972
32590,6019,35203
32560,6038,35404
32542,6049,35181
32576,6146,35309
32544,6015,35297
32520,6032,35420
32496,6032,35221
32496,6057,35385
32532,6005,35527
32580,6011,35400
32665,6025,35108
32676,6042,35448
32700,6095,35607
32728,6014,35385
32684,6052,35484
32560,6049,35582
32526,6063,35293
32564,6004,35500
32620,6012,35628
32716,6033,35555
32748,6021,35647
32692,6020,35560
32612,6047,35465
32632,6052,35516
32608,6158,35591
32576,6009,35691
32612,6031,35559
32604,6080,35511
32569,6011,35380
32584,6050,35556
32628,6012,35608
32628,6044,35613
32616,6191,35719
32544,6021,35622
32534,6045,35735
32500,6007,35245
32561,6038,35478
32610,6060,35542
32728,6005,35597
32840,6036,35680
32909,6049,35444
32972,6023,35540
32964,6059,35591
32952,6084,35502
32952,6012,35599
32856,6035,35556
32833,5996,35583
32852,6038,35497
32868,6004,35512
32820,6049,35540
32784,6060,35660
32774,6112,35427
32768,6021,35480
32712,6034,35646
32708,6060,35328
32764,6008,35460
32760,5999,35602
32688,6035,35501
32556,6044,35623
32492,6178,35493
32472,6011,35494
32584,6018,35446
32636,6044,35489
32677,6044,35496
32660,6075,35416
32596,6005,35447
32552,6032,35624
32620,6047,35457
32688,6007,35382
32692,6011,35431
32708,6025,35486
32712,6053,35621
32652,6021,35465
32564,6018,35365
32500,6031,35390
32480,6057,35414
32544,6002,35420
32577,6023,35476
32602,6045,35461
32604,6005,35492
32623,6032,35616
32729,6040,35239
32732,6184,35463
32692,6018,35429
32696,6009,35492
32728,6031,35452
32733,6018,35492
32669,6020,35485
32616,6054,35437
32584,6092,35621
32597,6021,35398
32564,6016,35521
32544,6025,35495
32582,6043,35404
32540,6014,35461
32524,6017,35641
32516,6037,35356
32528,6042,35462
32616,5998,35468
32656,6025,35501
32616,6077,35535
32608,6017,35544
32560,6053,35600
32549,6075,35552
32572,6019,35665
32556,6048,35559
32596,5999,35700
32724,6033,35383
32760,6032,35520
32744,6008,35517
32848,6040,35604
32868,6045,35609
32832,6140,35543
32736,6015,35572
32652,6031,35700
32664,6108,35623
32696,6017,35752
32704,6030,35439
32588,5998,35509
32572,6034,35343
32588,6018,35508
32572,6041,35643
32632,6040,35652
32648,6116,35732
32697,6042,35671
32732,6056,35802
32660,6003,35510
32552,6028,35621
32556,6047,35620
32584,6008,35652
32644,6014,35839
32790,6035,35356
32840,6077,35589
32828,6013,35648
32792,6028,35656
32740,6070,35685
32704,5998,35746
32654,6010,35884
32557,6024,35389
32576,6041,35632
32644,6086,35772
32676,6016,35780
32672,6034,35876
32700,6048,35436
32760,6091,35650
32752,6002,35740
32700,6013,35823
32692,6042,35940
32604,6004,35812
32564,6002,35700
32668,6044,35873
32742,6054,35840
32756,6053,35718
32744,6172,35856
32800,6015,35856
32761,6026,35973
32596,6068,35840
32672,6030,36006
32728,6061,35892
32740,6007,36007
32825,6033,35910
32892,6093,36017
32897,6024,35901
32888,6034,35945
32892,6065,35846
32878,6005,35895
32820,6022,35896
32828,6079,35778
32844,6005,35863
32838,6037,35847
32872,6018,35800
32836,6053,35796
32856,6076,35717
32892,6012,35908
32981,6031,35888
33072,6107,35908
33100,6020,35862
33032,6024,35932
32968,6079,35973
32904,6011,35916
32908,6036,35999
32937,6091,35964
32984,6015,35929
33044,6052,35724
33048,6031,35961
32976,6047,35972
32981,6004,35582
32940,5997,35884
32932,6036,35877
32948,6067,36000
33024,6008,35588
33064,6050,35982
33104,6050,35721
33092,6102,35861
33080,6010,35712
33088,6009,35934
33022,6029,35975
32960,6063,35944
32890,5993,36052
32864,6028,35931
32972,6033,35835
32992,6041,36068
32878,6068,35623
32668,6077,35904
32352,6083,36015
31985,6005,35821
31540,6032,35808
31036,6030,35997
30356,6103,35860
29704,6031,35975
29420,6103,35719
29968,6029,35633
32060,6053,35933
35392,6174,35528
39104,6016,35700
42720,6033,35484
46344,6111,35769
49484,6006,35485
51836,6034,35722
53352,6000,35709
52980,6053,35718
50512,6045,35847
48176,6021,35737
46032,6036,35792
44300,6034,35328
43312,6042,35641
42340,5991,35604
41016,5999,35644
39304,6017,35616
37384,6073,35528
35492,6006,35496
33876,6036,35543
32684,6093,35259
31816,6020,35412
31292,6025,35394
30944,6084,35343
30676,6102,35460
30513,6001,35351
30356,6018,35391
30176,6028,34972
30028,6160,35305
29852,6021,34937
29728,6046,35224
29730,6064,35132
29756,6013,35086
29732,6041,34809
29702,6056,35308
29836,6005,35172
29913,6033,35079
29936,6117,35034
29932,6014,35078
29948,6021,35092
29880,6037,35038
29828,6086,34964
29844,6016,34991
29828,6041,34932
29838,6052,34951
29897,6001,34932
29976,6020,34855
30044,6068,34860
29988,6010,34791
30044,6040,34778
30122,6025,34708
30172,6035,34678
30236,6044,34700
30237,6010,34568
30212,6002,34655
30160,6037,34500
30136,6031,34341
30156,6015,34444
30192,6018,34319
30236,6034,34215
30221,6036,34223
30212,6058,34118
30236,6100,34084
30256,6013,33943
30264,6018,34015
30304,6033,33569
30332,6157,33732
30384,6007,33844
30436,6030,33764
30488,6083,33855
30512,6021,33348
30552,6037,33500
30556,6052,33671
30608,6119,33260
30628,6004,33473
30664,6039,33612
30636,6031,33215
30612,6061,33492
30650,6021,33484
30696,6036,33373
30740,6057,33404
30749,6084,33543
30688,6021,33457
30641,6025,33460
30617,6039,33462
30584,6005,33388
30572,6021,33496
30592,6042,33484
30680,6092,33493
30769,6019,33527
30824,6022,33543
30846,6039,33557
30820,6035,33612
30820,6057,33297
30784,6083,33629
30777,6003,33781
30820,6011,33632
30856,6015,33397
30916,6018,33771
31004,6051,33799
31044,6043,33745
31020,6057,33855
30953,6096,33729
30956,6018,33889
30996,6009,33916
31069,6025,34021
31172,6069,33750
31218,6019,33876
31186,6058,33872
31128,6053,33996
31112,6085,34183
31116,6020,33733
31154,6055,34041
31216,6040,34248
31270,6075,33802
31328,6008,34156
31412,6031,34047
31496,6070,34073
31564,6021,34125
31580,6039,34229
31584,6055,34126
31632,6059,34284
31652,6080,33920
31732,6106,34241
31748,6010,34302
31748,6036,34311
31824,6049,34449
31920,6088,34119
32041,6021,34356
32173,6030,34311
32312,6050,34465
32396,6044,34252
32424,6053,34405
32412,6074,34431
32458,6165,34389
32540,6006,34078
32624,6028,34432
32717,6044,34487
32840,6021,34356
32976,6036,34464
33011,6053,34461
33088,6083,34432
33152,6012,34484
33276,6049,34608
33286,6041,34246
33328,5999,34404
33404,6024,34611
33429,6078,34408
33505,6013,34485
33664,6055,34497
33724,6056,34397
33708,6096,34473
33714,6020,34591
33736,6033,34232
33764,6007,34359
33846,6026,34385
33880,6025,34447
33952,6071,34357
33976,6017,34401
33996,6039,34397
33992,6052,34408
33949,6095,34394
33960,6021,34461
33940,6036,34380
33880,6110,34311
33866,5995,34303
33848,6015,34333
33912,6076,34334
33912,6010,34237
33948,6031,34311
33972,6068,34383
33912,6012,34173
33912,6018,34270
33912,6021,34200
33932,6040,34276
33980,5996,34277
33960,6015,34138
33936,6005,34158
33948,6028,34119
33956,6121,34165
33972,6043,34149
33945,6063,34288
34000,6020,33858
33864,6018,34206
33806,6068,34100
33820,5994,34190
33800,6015,34313
33852,6063,33815
33856,6013,34103
33856,6045,34069
33857,6093,34113
33825,6015,34213
33768,6025,33976
33744,6106,33989
33708,5997,34082
33696,6014,34100
33716,6067,34201
33758,6002,33991
33814,6022,34055
33916,6085,34062
33972,6013,33956
33964,6049,34044
33900,6049,34048
33892,6057,34064
33852,5995,33702
33832,6030,33972
33828,6014,34023
33850,6073,33956
33856,6006,34033
33820,6050,33988
33820,6046,34004
33836,6111,34036
33874,6004,33886
33872,6019,34159
33860,6025,33825
33856,5992,33893
33793,6021,33853
33788,6070,34007
33788,6009,34180
33804,6026,33929
33788,6032,34060
33820,6080,34095
33828,6008,33949
33848,6021,34008
33792,6064,34159
33756,5996,34004
33792,6013,34070
33804,6004,34181
33824,6029,34053
33840,6092,34055
33825,6010,34048
33772,6048,34028
33668,6046,33908
33632,6075,34168
33668,5995,33751
33662,6005,34000
33596,6040,34081
33596,6002,33988
33600,6068,33943
33608,6012,33932
33692,6041,33973
33744,6081,33999
33712,6006,33764
33695,6027,33894
33680,6001,33647
33648,6016,33752
33656,5999,33688
33624,6041,33713
33608,6079,33505
33624,6049,33936
33668,6087,33807
33684,6027,33895
33692,6071,33477
33724,6010,33589
33712,6028,33705
33684,6103,33668
33637,6034,33524
33676,6045,33559
33704,6007,33486
33728,6043,33325
33716,6089,33415
33684,6010,33589
33684,6034,33524
33680,6161,33623
33640,6027,33477
33560,6052,33567
33512,5994,33212
33568,6031,33240
33544,6039,33346
33508,6017,33295
33496,6025,33426
33509,6031,33071
33548,6082,33188
33572,6002,33266
33600,6021,33204
33564,6134,33248
33628,6033,33109
33612,6079,33037
33637,6020,32999
33616,6039,32974
33644,6020,33049
33668,6032,32888
33640,6062,32888
33572,6004,32974
33541,6022,32889
33512,5995,32840
33512,6031,32861
33513,6063,32829
33484,6020,32697
33473,6075,32524
33472,6025,32927
33484,6057,32775
33440,6007,32872
33416,6039,32732
33468,5997,32838
33436,6012,32460
33444,6092,32564
33469,6033,32308
33480,6055,32609
33584,6007,32260
33600,6034,32502
33526,6180,32508
33540,6045,32474
33465,6070,32423
33415,6023,32332
33376,6047,32173
33356,5991,32417
33414,6022,32207
33477,6064,32364
33452,6010,32404
33448,6031,32364
33460,6069,32326
33416,6004,31996
33404,6031,32329
33404,6001,32071
33381,5994,32263
33368,6013,32384
33352,6066,31925
33388,6004,32121
33436,6052,32061
33444,6017,32158
33472,6058,32153
33440,6006,32013
33441,6022,32064
33428,6065,32122
33436,6000,32196
33468,6029,32105
33440,5998,32143
33420,6025,32092
33428,6011,32157
33445,6030,32063
33436,6078,31931
33437,6007,31981
33439,6030,31960
33392,6068,32082
33388,5998,31919
33396,5989,31965
33344,6039,31884
33376,6059,32024
33440,6015,31943
33472,6062,32033
33454,6013,31952
33425,6055,31993
33400,6001,31798
33389,6014,31782
33384,6062,31896
33392,5996,31913
33356,6071,31960
33356,6045,31908
33380,6009,31894
33332,6036,31885
33320,6013,31868
33288,6023,31870
33249,6161,31988
33237,6028,31852
33220,6008,31764
33225,6098,31735
33218,6016,31636
33252,6006,31805
33253,6044,31582
33200,6015,31929
33140,6111,31807
33100,6042,31717
33024,6006,31718
32964,6036,31780
32968,5998,31716
33008,6051,31768
33144,6016,31727
33236,6066,31710
33270,6018,31728
33276,6054,31742
33232,6014,31674
33226,6036,31644
33184,6006,31687
33188,6016,31636
33217,6090,31693
33272,6007,31770
33316,6049,31710
33372,6021,31719
33392,6054,31705
33384,6015,31788
33401,6052,31684
33392,6008,31814
33364,6035,31681
33320,5999,31719
33276,6025,31668
33308,6121,31615
33288,6032,31516
33312,6010,31349
33344,6050,31781
33360,6021,31606
33412,6014,31341
33384,6049,31764
33348,6021,31643
33372,6058,31650
33352,6032,31572
33348,5988,31345
33372,6058,31623
33388,6039,31573
33457,6182,31609
33504,6051,31716
33516,6078,31596
33540,6044,31516
33561,6008,31601
33503,6012,31583
33524,6097,31576
33501,6006,31445
33500,5997,31572
33465,6063,31672
33482,6039,31487
33512,6008,31572
33488,6039,31566
33472,6006,31528
33456,6026,31462
33440,5994,31504
33452,6051,31537
33433,6012,31511
33405,6002,31453
33424,6027,31505
33356,6016,31424
33172,6081,31425
32913,6042,31392
32615,6165,31316
32244,6018,31222
31781,6063,31313
31248,5994,31340
30638,6021,31389
30032,6005,31308
29828,6069,31261
30688,6023,31352
32960,6064,31476
36184,6011,31365
39776,6045,31433
43404,5998,31342
47108,6052,31450
50308,6001,31318
52852,6159,31207
54472,6034,31177
54056,6001,30964
51597,6059,31358
49276,6007,31239
47136,6005,31121
45160,6051,31336
43832,6022,31046
42508,5998,31132
41024,6052,31264
39284,6025,31084
37340,6092,30986
35560,6032,30953
33980,6020,31005
32832,6148,31116
32024,6052,30916
31500,6028,30840
31136,5996,31009
30780,6067,30729
30576,6015,30836
30440,5994,30783
30328,6044,30632
30244,6021,30470
30188,6093,30793
30148,6039,30654
30082,6017,30526
30012,6015,30820
29960,6030,30681
29896,6000,30583
29897,6055,30636
29896,6012,30656
29884,6003,30652
29980,6034,30582
29896,6013,30480
29918,6052,30499
29948,6017,30343
29916,6028,30643
29916,6003,30554
29933,6028,30378
29924,5990,30406
29968,6017,30210
29960,6108,30313
29984,6022,30101
30016,6017,30466
30040,6057,30314
30096,6023,30229
30172,6013,30254
30176,6034,30156
30164,6002,29968
30133,6001,30118
30120,6040,29883
30144,6023,29954
30192,6009,29781
30228,6054,29876
30250,6014,29773
30257,6050,29858
30213,6010,29684
30200,6036,29644
30160,5998,29540
30180,6038,29408
30288,5998,29577
30304,6052,29433
30309,6009,29447
30340,6070,29217
30376,6043,29292
30436,6020,29133
30444,6040,29341
30452,6029,29037
30452,6004,29144
30464,6044,28876
30464,6034,29124
30528,6002,29044
30560,6037,29084
30584,6020,28981
30568,6142,29188
30549,6036,29021
30608,6017,28912
30616,6031,29188
30596,6002,29057
30616,6018,28962
30604,6122,29062
30624,6021,29078
30636,6034,28996
30665,6019,29220
30660,6045,29073
30644,6016,29136
30596,6055,29262
30564,6018,29077
30529,6044,28976
30584,5994,29375
30618,6042,29300
30640,6009,29268
30676,6092,29509
30700,6039,29383
30652,6023,29310
30645,6037,29456
30653,6149,29495
30652,6029,29671
30648,6047,29572
30652,6001,29685
30672,6022,29612
30692,6000,29480
30744,6031,29620
30764,6026,29701
30780,6040,29792
30797,6021,29783
30810,6050,29815
30844,6011,29812
30872,6061,29721
30900,6030,29677
30884,6005,30033
30936,6033,29957
30988,6075,30045
31022,6026,30009
31126,6083,29950
31169,6057,30144
31128,6021,30075
31148,6036,29991
31160,6004,30160
31208,6044,30182
31308,6000,30109
31440,6045,30351
31528,6024,30190
31652,6079,30000
31828,6058,30365
31976,6088,30207
31880,6041,30348
32020,6066,30493
32172,6009,30420
32244,6047,30348
32288,6009,30556
32384,6032,30476
32492,6011,30580
32648,6064,30404
32776,6056,30541
32840,6022,30343
32968,6031,30711
33088,6099,30627
33142,6018,30720
33192,5993,30525
33216,6041,30671
33260,6020,30636
33336,6011,30828
33388,6058,30707
33412,6039,30591
33460,6017,30807
33492,6041,30815
33552,6012,30789
33536,6054,30727
33549,6008,30967
33564,6101,30815
33620,6033,30628
33684,6004,30973
33728,6062,30932
33760,6029,30869
33744,6162,30929
33745,6048,30679
33745,6032,30917
33692,6117,30834
33716,6010,30975
33720,5992,30842
33705,6073,31049
33704,6024,31116
33700,6016,30941
33700,6019,31040
33688,6049,30868
33664,6024,31079
33648,6003,31111
33588,6018,31069
33557,5990,30828
33572,6053,31080
33580,6025,31023
33548,6004,31163
33544,6051,30921
33536,6051,31124
33541,6015,31328
33584,6055,31081
33525,6019,31215
33508,5992,31129
33488,6045,31364
33582,6024,31228
33564,5999,30943
33536,6028,31270
33544,6009,31130
33561,6168,31268
33476,6045,31036
33460,6022,31353
33440,6049,31313
33452,5995,31229
33472,6056,31473
33392,6013,31343
33408,6017,31204
33460,6033,31351
33436,6012,31367
33424,6051,31350
33444,6013,31510
33424,6077,31372
33380,6032,31413
33402,5998,31419
33368,6021,31617
33405,5988,31423
33456,6091,31494
33456,6024,31494
33464,6015,31583
33460,6013,31488
33428,6082,31580
33421,6052,31623
33436,6026,31320
33424,6011,31572
33408,5987,31816
33444,6048,31576
33472,6022,31695
33492,6010,31744
33508,6036,31612
33544,6017,31778
33548,6012,31709
33512,6044,31951
33493,6015,31727
33453,5997,31829
33428,6140,31860
33404,6015,31853
33392,5997,31769
33416,6057,31652
33416,6033,32028
33432,6014,31969
33416,6072,31968
33404,6029,31911
33417,6027,32071
33380,6142,32023
33364,6039,32029
33344,6017,31972
33340,5993,32178
33369,6055,32049
33380,6047,31801
33348,6004,32223
33376,6070,32064
33300,6024,31872
33265,6000,32145
33248,6015,32097
33188,5988,32177
33145,6032,32123
33160,6005,32069
33196,6081,32116
33196,6063,32056
33232,6036,32109
33236,6007,32264
33288,6054,32110
33248,6033,32025
33184,6153,32092
33217,6012,31830
33228,5996,32124
33236,6044,32190
33272,6039,32089
33268,6012,32078
33336,6040,32205
33320,6006,32074
33260,6059,31972
33236,6032,32164
33224,5989,32026
33232,6051,31721
33208,6012,31958
33180,5997,32156
33140,6074,31884
33176,6024,31690
33228,6013,32037
33190,6052,31945
33188,6015,31874
33184,6079,32021
33200,6009,31946
33180,5994,31844
33180,6023,31879
33188,5993,31585
33180,6047,31862
33196,6012,31601
33200,6032,31751
33164,6007,31824
33192,6059,31949
33230,6028,31794
33232,5996,31684
33200,6018,31887
33180,6007,31733
33168,6154,31445
33192,6046,31732
33217,6047,31732
33281,6173,31705
33200,6037,31617
33128,6005,31732
33072,6000,31670
33040,6025,31582
33056,6002,31613
33056,5991,31602
33128,6014,31547
33152,6007,31556
33152,6027,31434
33140,6013,31702
33134,6121,31554
33096,6036,31541
33080,6009,31520
33069,6061,31479
33072,6006,31524
33046,5993,31488
33080,6026,31613
33048,6001,31488
33101,6078,31335
33200,6027,31620
33148,6089,31477
33064,6026,31494
33052,5994,31327
33052,6063,31446
33012,6012,31381
32988,5987,31293
32977,6049,31252
33004,6021,31554
33008,6073,31410
33060,6021,31353
33117,6089,31279
33084,6023,31319
33117,5993,31387
33096,6057,31388
33088,6016,31313
33064,6013,31516
33064,6002,31357
33040,6023,31296
33056,6006,31456
33036,6051,31316
32984,6009,31284
33012,6060,31412
33052,6015,31319
33004,5988,31213
33004,6028,31449
33000,6018,31332
32968,5991,31063
32974,6069,31240
33020,6026,31462
33012,6006,31321
33017,6050,31246
32968,6036,31287
32864,6010,31284
32848,5997,31268
32888,6032,31276
32944,6027,31392
32936,5993,31297
32946,6038,31220
33020,6028,31308
33064,6018,31239
33056,6039,30996
33040,6003,31389
33008,6084,31239
32992,6018,31069
32984,5986,31367
32988,6045,31193
33020,6032,30920
33024,5998,31169
33033,6064,31169
33004,6049,31197
32967,6011,31220
32992,6055,31101
32932,6015,31192
32892,5996,30892
32928,5989,31253
32916,6012,31127
32888,6009,31164
32873,6020,30919
32926,6005,31285
32932,6070,31132
32936,6030,31141
32924,6010,31052
32892,5995,31188
32864,6069,31128
32836,6011,31119
32825,5995,31023
32820,6086,31254
32800,6027,30985
32808,6039,31111
32820,6015,30949
32772,6084,31217
32698,6033,30952
32656,6010,31084
32652,5989,31087
32624,6063,30787
32612,6014,31021
32700,6008,31127
32865,6000,31058
32936,6098,31032
32856,6039,30813
32888,6017,31151
32868,6004,30895
32828,6035,31044
32856,6009,30949
32868,6022,31015
32860,5986,31158
32901,6050,31036
32948,6033,30927
32996,6008,30897
33004,6057,30993
32984,6025,31033
32952,6003,30913
32933,6069,30727
32940,6015,30978
32912,5996,30977
32893,5991,30980
32964,6034,30893
33020,6004,30886
33060,6057,30695
33064,6037,31061
33072,6010,30834
33064,6055,30952
33032,6030,30849
33008,5990,31076
33004,6028,30780
33124,6007,30928
33032,5999,30629
33020,6113,30819
33040,6031,30989
33045,6005,30914
33080,6052,30988
33082,6004,30885
33064,6044,30793
33092,6010,30812
33084,6141,30575
33068,6006,30948
33120,5994,30850
33054,6029,30845
33040,6003,30786
33073,6085,30818
33080,6038,30756
33084,6029,30969
32988,6098,30797
33024,6017,30569
33014,6000,30895
32964,6075,30776
32976,6015,30502
33000,5997,30828
32984,6035,30721
32952,6079,30855
32714,6040,30650
32428,6080,30559
32116,6025,30849
31664,5987,30679
31129,6041,30407
30500,6003,30788
29824,5997,30621
29504,6060,30543
30112,6028,30788
32046,6009,30618
34924,6046,30532
38300,6009,30672
41972,6101,30601
45952,6004,30492
49480,5974,30472
52452,6045,30256
54608,6012,30653
55316,5987,30456
53512,6076,30215
50740,6046,30587
48560,6138,30471
46220,6032,30557
44474,6077,30407
43088,6009,30308
41460,5976,30474
39676,6016,30311
37652,5984,30279
35620,6035,30229
33872,6004,30153
32564,6042,30052
31700,6004,29889
31084,6063,30209
30648,6016,30060
30340,5990,29974
30116,6024,30069
29948,5989,29740
29856,6046,29957
29808,6015,29728
29756,6084,30080
29672,6027,29943
29588,6009,29959
29536,6029,29900
29472,6007,29761
29413,6070,29934
29366,6004,29892
29316,5989,30023
29316,6015,29896
29320,6003,29830
29364,6050,29776
29376,6013,29597
29386,6052,29969
29366,6007,29844
29386,6043,29956
29380,5998,29826
29404,6132,29848
29432,6018,29688
29464,6009,29703
29520,6061,29815
29488,6014,29671
29524,6052,29765
29596,6007,29590
29596,6037,29607
29624,6054,29281
29656,6017,29575
29660,6134,29174
29704,6008,29516
29712,5997,29338
29716,6038,29435
29756,6008,29245
29812,6044,29253
29828,6010,29138
29844,6057,29124
29848,6023,29008
29856,5995,28854
29860,6006,28903
29916,5995,28853
29877,6021,28935
29920,6031,28743
29968,6012,28496
30062,6045,28676
30130,6021,28668
30124,6009,28621
30096,6032,28404
30036,6024,28553
29997,5991,28448
30048,6007,28501
30073,5997,28481
30082,6049,28364
30092,6046,28436
30130,6014,28368
30192,6045,28299
30240,6021,28397
30202,6001,28299
30204,6014,28346
30228,6004,28403
30180,6092,28312
30202,6015,28279
30244,6009,28205
30296,6043,28294
30348,6066,28248
30324,6013,28344
30304,6030,28334
30292,5992,28600
30252,6015,28527
30273,6008,28631
30280,6023,28560
30316,6098,28508
30348,6024,28464
30320,6021,28634
30376,6073,28639
30356,6018,28613
30336,6038,28609
30336,6015,28729
30364,6148,28764
30376,6010,28780
30416,5995,28768
30452,6016,28732
30493,6069,28836
30556,6050,28891
30592,6022,28888
30600,6039,28888
30600,6036,28962
30652,6005,29112
30686,6026,28964
30696,5997,29032
30684,5996,29093
30796,6033,29040
30780,6013,28989
30792,6047,29109
30828,6025,29180
30904,6081,29236
30936,6034,29212
30936,6076,29176
31000,6001,29244
31068,6043,29232
31108,5999,29225
31172,6078,29104
31292,6042,29455
31432,6082,29400
31548,6054,29512
31572,6019,29403
31630,6038,29250
31764,6004,29576
31816,6049,29536
31968,6004,29492
32104,6098,29626
32264,6019,29627
32456,6001,29766
32552,6044,29699
32613,6016,29620
32697,6049,29599
32768,5998,29529
32860,6039,29926
32964,5988,29814
33060,6037,29996
33128,6004,29882
33184,6052,29960
33232,6019,29689
33340,6064,30044
33376,6020,29988
33438,6053,30140
33473,6031,30041
33524,5998,30058
33564,6015,30019
33568,5981,29988
33608,6042,30118
33624,6026,30143
33632,6095,30167
33660,6023,30125
33678,6014,30124
33608,6036,30152
33624,5997,30058
33664,6041,30308
33665,6026,30205
33676,5983,30008
33737,6011,30370
33744,5988,30172
33764,6069,30318
33820,6022,30253
33784,6006,30470
33712,6033,30346
33684,5997,30167
33648,6053,30495
33637,6001,30372
33604,6029,30349
33580,6000,30557
33568,6117,30403
33593,6015,30182
33644,6000,30566
33648,6038,30460
33624,6009,30418
33578,6063,30500
33576,6010,30522
33568,6052,30540
33552,6013,30444
33502,5981,30552
33412,6019,30480
33376,5993,30436
33414,6042,30576
33424,6011,30577
33412,6071,30471
33412,6014,30628
33408,6049,30646
33368,5991,30573
33316,5983,30676
33344,6018,30744
33312,6093,30664
33325,6010,30556
33304,6007,30886
33356,6023,30784
33376,6002,30750
33356,6013,30658
33328,5987,30533
33304,6038,30948
33284,6015,30873
33302,6042,30980
33336,5987,30927
33317,6050,30988
33284,6010,30912
33340,6066,30866
33332,6039,31111
33308,5999,31007
33324,6015,30964
33272,5989,30911
33312,6050,30773
33296,5996,31204
33328,5991,31132
33328,6024,31045
33328,5999,31284
33352,6044,31156
33344,5996,31125
33324,6041,31105
33321,5991,30956
33288,6030,31404
33324,5978,31294
33290,6055,31199
33296,6007,31185
33292,6056,31159
33324,6010,31364
33280,6053,31385
33260,6004,31428
33348,6042,31325
33256,5988,31185
33244,6013,31557
33264,5979,31485
33272,6037,31495
33244,5983,31454
33276,6017,31357
33322,6000,31641
33308,6044,31541
33261,6084,31486
33173,6013,31580
33140,5988,31550
33133,6016,31263
33132,5982,31644
33124,5993,31521
33144,5984,31570
33168,6014,31588
33108,6003,31546
33096,6041,31508
33088,6068,31676
33065,6033,31589
33004,6066,31503
33088,6002,31746
33080,5980,31613
33100,6021,31644
33100,5996,31485
33101,6052,31340
33108,6007,31717
33089,6066,31604
33092,6036,31559
32997,5994,31549
33028,6025,31572
33096,5980,31521
33088,6009,31404
33028,5978,31556
33068,6012,31537
33032,5991,31481
33008,6029,31208
33016,6003,31609
33024,6064,31349
33008,5994,31397
33013,6017,31520
33037,5979,31456
33020,6023,31472
33000,6013,31512
33033,5987,31428
32984,6013,31300
32944,5999,31525
32960,6036,31341
32992,6029,31383
32964,6071,31404
32920,6021,31230
32884,5988,31378
32924,6004,31308
32888,5980,31494
32896,6007,31257
32925,5997,31325
32980,6045,31348
32952,5999,31292
32896,6026,31244
32832,5993,31175
32813,6037,31283
32800,5983,31372
32836,6036,31230
32848,5981,31108
32836,6022,31421
32848,5992,31263
32908,6052,31182
32928,6011,31140
32926,6055,30989
32908,6029,31404
32868,6127,31261
32852,6015,31325
32816,6036,31224
32784,5986,31159
32800,6085,31126
32776,6007,31207
32768,6002,31350
32788,6015,31062
32796,6169,31238
32820,6009,31136
32832,5991,30924
32842,6017,31353
32852,6026,31236
32886,5988,31160
32828,6029,31096
32880,5988,30948
32880,6020,31327
32840,6004,31204
32837,6014,31020
32828,6161,31313
32836,6001,31232
32815,6035,31037
32800,5995,31341
32804,6033,31208
32832,5986,31124
32850,6033,31376
32876,5996,31239
32845,6064,31119
32844,6017,31284
32816,5991,31261
32800,6019,31165
32800,5982,31405
32768,6011,31288
32776,5975,31332
32777,6022,31172
32760,5989,31063
32820,6058,31436
32872,6037,31281
32838,5999,31073
32796,6030,31434
32716,5988,31321
32692,6031,31229
32688,5983,31413
32712,6022,31340
32724,5980,31412
32736,6026,31244
32709,6016,31047
32668,5999,31365
32680,6029,31196
32657,5988,31335
32645,6038,31399
32676,5983,31358
32680,6040,31272
32692,5993,31222
32672,5985,31156
32732,6014,31260
32728,6039,31279
32734,5998,31324
32730,6024,31193
32680,5991,31503
32644,6021,31383
32636,5975,31338
32592,5994,31308
32496,5977,31271
32476,5996,31365
32488,6055,31255
32476,5998,31340
32429,6020,31450
32456,6001,31398
32468,6028,31316
32478,6085,31341
32420,6003,31254
32296,5975,31564
32220,6017,31445
32204,5985,31553
32288,6010,31153
32360,6001,31537
32473,6036,31480
32508,5999,31396
32484,6050,31460
32424,6023,31476
32441,6055,31418
32440,6013,31367
32508,6041,31401
32528,5987,31469
32524,6043,31522
32498,5991,31671
32468,6021,31564
32408,6104,31681
32384,6029,31574
32364,5994,31652
32380,6002,31558
32368,6037,31594
32360,6012,31573
32336,6077,31694
32352,6028,31618
32360,6045,31748
32376,6001,31634
32336,6019,31733
32268,6066,31587
32296,6009,31393
32304,6065,31743
32340,5999,31668
32356,6011,31740
32364,5982,31664
32380,6021,31817
32368,6012,31663
32364,6000,31404
32340,6020,31836
32292,5991,31711
32208,6015,31847
32229,5979,31704
32264,6034,31632
32308,6005,31759
32332,6068,31740
32340,6009,31863
32408,6078,31724
32461,6016,31663
32388,5994,31877
32344,6021,31774
32318,5981,31808
32317,6016,31751
32308,5972,31688
32296,5998,31725
32272,6114,31847
32304,6002,31502
32356,6014,31694
32336,6144,31780
32252,6022,31804
32048,6052,31902
31752,6000,31808
31488,6059,31797
31064,6011,31769
30580,5982,31721
30026,6003,31759
29341,5997,31778
28828,6021,31796
28872,6069,31844
30224,6033,31815
32800,6156,31910
36076,6013,31820
39584,6053,31728
43420,5985,31682
47152,5966,31798
50368,6012,31852
52876,5977,31672
54248,6041,31524
53325,5993,31760
50584,6030,31588
48180,5989,31918
45920,6017,31549
43944,6039,31860
42525,5995,31812
41077,6167,31751
39460,5978,31781
37584,6012,31853
35513,5992,31767
33716,6018,31660
32241,5991,31726
31164,6015,31425
30400,5986,31814
29892,5997,31668
29553,5975,31804
29332,5999,31670
29164,5984,31554
29048,6025,31557
28984,5993,31537
28904,6028,31604
28812,5996,31333
28756,6013,31620
28744,5990,31356
28688,5995,31761
28656,6057,31655
28644,5993,31621
28632,5984,31547
28612,6018,31677
28604,6001,31623
28616,6040,31567
28566,5996,31598
28548,6021,31744
28532,5987,31688
28496,6005,31699
28484,5975,31612
28529,5996,31556
28580,5987,31706
28684,6009,31675
28836,5995,31575
28924,6015,31612
28968,6102,31631
28966,6015,31684
28988,6036,31526
28972,5996,31548
28982,5988,31468
28998,6030,31513
28996,6000,31556
28952,6072,31436
28956,6014,31444
28968,6003,31397
29032,6015,31250
29042,5999,31030
29045,6008,31417
29078,6031,31263
29080,5978,31223
29136,5993,30920
29165,6039,31100
29144,5993,30953
29161,6031,30969
29098,6001,30750
29198,6030,30889
29248,6056,30951
29249,5997,31043
29240,6023,30933
29300,5980,30874
29360,6006,30830
29300,5988,30764
29340,6009,30705
29380,6028,30758
29404,6001,30686
29428,6026,30649
29454,6076,30901
29512,6016,30861
29601,5982,30780
29672,5988,30961
29680,5983,30916
29616,6007,30876
29616,5991,30884
29664,6032,30893
29656,6088,30906
29614,6028,30907
29560,5997,31233
29500,6007,31116
29465,5985,31023
29480,6004,31276
29500,6047,31270
29604,6015,31405
29648,5997,31278
29680,6037,31457
29628,6037,31477
29596,6001,31461
29648,6017,31615
29720,5988,31687
29785,6036,31614
29776,5994,31500
29778,6086,31964
29764,6020,31933
29724,6054,31975
29713,6019,31988
29757,6072,31786
29824,6009,32180
29866,6032,32189
29880,5998,32228
29969,6033,32253
30021,5983,32063
30060,6025,32434
30176,5992,32161
30272,6055,32676
30272,6027,32612
30292,6071,32638
30276,6003,32663
30296,6038,32559
30336,5995,32950
30348,6039,32869
30310,5986,32928
30316,6012,32940
30376,5989,33013
30476,6010,32935
30572,5998,32797
30700,6034,33309
30780,6002,33240
30838,6016,33290
30924,5992,33332
31068,6002,33401
31164,6063,33381
31200,6016,33253
31280,5989,33627
31328,6021,33236
31420,6034,33540
31557,5997,33415
31680,6012,33584
31809,6048,33687
31924,5985,33761
32012,6015,33844
32116,5973,33836
32248,5999,33972
32345,6087,33956
32452,5993,34101
32528,6026,34031
32584,5993,34220
32644,6018,34133
32672,5991,34183
32608,6014,34191
32500,6021,34293
32492,5974,34292
32585,5998,34367
32641,6043,34311
32620,6002,34487
32652,6020,34256
32678,5991,34404
32716,6010,34242
32672,5988,34373
32700,6014,34192
32668,6021,34724
32676,5967,34628
32744,6004,34721
32737,5977,34628
32776,6015,34655
32864,5994,34618
32860,6024,34741
32832,6031,34814
32766,5986,34929
32736,5996,34889
32676,6039,35049
32626,5968,34593
32556,5997,35012
32629,6045,34952
32652,5987,35053
32648,6014,35174
32668,5986,35143
32744,6007,35263
32772,5987,35204
32757,5995,35316
32805,6034,35225
32744,5968,35351
32716,5987,35348
32720,5971,35497
32737,6009,35415
32708,5988,35549
32748,6009,35469
32757,6064,35629
32720,5997,35526
32672,6020,35652
32644,5965,35596
32623,5978,35735
32660,6047,35656
32684,6007,35768
32740,5976,35567
32792,6026,35401
32720,5990,35921
32697,6052,35792
32648,5999,35749
32718,5977,35868
32848,5988,35872
32832,5968,36042
32780,5981,35940
32754,6042,36093
32704,6010,35996
32696,6051,36118
32657,5981,35660
32733,6006,35997
32804,6151,36068
32832,5992,36237
32824,5963,36004
32812,6014,36159
32784,5985,36287
32700,5971,36206
32600,6031,36247
32552,6012,35945
32580,5991,36437
32668,6020,36333
32738,6052,36409
32844,6002,36309
32870,5967,36028
32928,6001,36529
32956,6001,36549
32964,6069,36504
32944,5998,36500
32900,5988,36486
32894,6004,36290
32849,5981,36650
32812,6023,36519
32836,5976,36391
32848,6011,36612
32869,5978,36660
32896,6028,36721
32950,5996,36558
32972,6030,36651
32916,5998,36597
32908,6055,36341
32858,6013,36871
32809,5984,36743
32784,6009,36679
32760,5967,36743
32816,6007,36758
32864,5961,36871
32840,6012,36772
32872,5983,36727
32824,6039,36706
32788,6021,36541
32752,6116,36814
32792,6005,36772
32816,5972,36827
32756,5984,36778
32773,6075,36917
32800,5980,36748
32788,6027,36904
32780,5973,36736
32740,6010,36877
32744,5983,36738
32768,6020,36688
32772,5982,36579
32796,6007,36503
32783,5960,36807
32776,5997,36639
32764,5959,36795
32744,6008,36636
32756,5971,36720
32834,6048,36572
32852,5987,36585
32894,6024,36568
32868,5979,36620
32861,5987,36518
32864,5966,36643
32868,5982,36487
32869,5961,36615
32864,5993,36466
32812,5977,36428
32808,6039,36303
32808,6008,36320
32845,6082,36329
32872,5992,36329
32788,5966,36480
32660,6009,36341
32624,5966,36384
32560,6029,36220
32604,5996,36255
32700,6045,36249
32809,6016,36280
32824,6075,36250
32828,6019,36271
32912,6039,36252
32996,6006,36167
33040,6039,36181
32984,5967,36265
32868,6015,36199
32800,5972,36298
32842,6020,36187
32836,5981,36301
32920,6009,36136
32924,5981,36287
32956,5997,35837
32948,5968,36024
32920,6006,36042
32904,5959,36040
32888,6022,36071
32916,5997,36068
32896,6094,36100
32916,6017,35935
32928,5983,35703
32878,6042,36135
32860,6004,36044
32832,6026,36002
32744,5966,35988
32672,5985,36034
32600,5958,36156
32568,6008,36012
32588,6003,35990
32636,5985,35879
32708,6001,35892
32772,6066,35904
32724,5988,36020
32668,6030,35924
32708,5958,36063
32820,5999,35996
32864,5964,36060
32946,6026,35995
33000,5976,36120
32908,6021,35985
32784,5987,36111
32720,6021,35944
32712,5978,35940
32612,6039,35602
32596,5980,35980
32616,5959,35948
32568,6003,36124
32512,5967,35943
32556,6080,36101
32684,6007,35959
32744,5987,35905
32736,6043,35871
32700,5984,35924
32576,6017,35983
32409,5968,36108
32314,5983,35613
32342,6079,35897
32416,6001,35649
32528,6037,36030
32632,5985,35629
32668,6023,35860
32716,5977,36061
32716,6013,36017
32697,6039,36132
32656,5971,35642
32548,5994,35953
32568,5957,36071
32573,5983,36031
32632,5978,36165
32656,6000,35644
32732,6097,35888
32808,5989,35961
32832,6022,36004
32856,5969,36159
32900,5999,35949
32936,5992,36033
32808,5962,35932
32608,5998,36047
32530,6019,36055
32512,5981,36125
32572,6040,36040
32644,6003,36141
32760,6081,36033
32760,5985,36004
32764,5964,35948
32824,5988,35684
32897,5965,36172
32908,6022,36086
32945,5994,36192
32933,5977,36068
32996,6016,35975
33084,5977,36009
33041,6025,35996
33002,5968,36053
32932,6009,36072
32944,5955,36167
32972,5991,36108
32908,5962,36188
32781,6027,36133
32760,6013,36212
32712,6048,36137
32712,6011,36270
32744,6042,36154
32792,5999,36228
32908,6058,36150
32960,5982,36237
32928,6018,36150
32928,5969,36295
32896,6042,36153
32880,6018,36165
32782,6098,36103
32772,6017,36153
32764,6047,36132
32632,5993,36128
32492,6029,36116
32328,5994,36084
32020,6040,36068
31680,5986,36069
31184,5978,36080
30672,5999,35742
30112,6075,35980
29736,6017,36001
29776,6066,35975
31408,5992,35738
34520,5965,36222
38168,5979,35744
41716,6030,35994
45384,5956,36132
48652,5995,36096
51032,5962,36162
52620,5994,36063
52504,6031,36034
50192,5964,36009
47888,5997,35932
45748,5955,35996
43928,5986,36013
42984,6029,36076
42192,5974,35966
41020,5962,35936
39392,5988,35883
37540,6100,35956
35648,6012,35877
34004,6027,35917
32708,6004,35740
31848,5963,35484
31284,5991,35826
30916,5957,35718
30668,5987,35778
30484,5972,35717
30336,6004,35784
30200,6055,35684
30076,5978,35807
30066,5991,35621
30060,6053,35713
30025,5966,35591
29936,6004,35604
29844,5958,35480
29768,5991,35460
29734,5974,35396
29764,5994,35328
29840,5983,35487
29810,6004,35464
29812,5981,35429
29852,6038,35351
29868,5988,35396
29890,6016,35548
