ECG,EDA,RR
30256,8809,31965
30201,8832,31977
30116,8815,31896
30024,8845,31809
29936,8804,31776
29828,8834,31623
29782,8797,31709
29782,8805,31698
29820,8797,31885
29853,8823,31820
29880,8809,31711
29972,8841,31797
29940,8865,31764
29888,8821,31879
29924,8848,31735
29924,8805,31660
29914,8820,31568
29912,8791,31381
29944,8811,31596
29972,8860,31294
30024,8823,31527
30092,8866,31191
30116,8815,31440
30156,8830,31200
30196,8805,31341
30164,8817,31239
30117,8794,31328
30144,8812,31156
30168,8792,31076
30204,8834,30979
30208,8807,30881
30218,8864,30945
30201,8824,30869
30240,8807,30776
30284,8824,30628
30252,8796,30684
30256,8835,30762
30284,8798,30591
30264,8905,30484
30380,8812,30448
30412,8806,30332
30509,8827,30319
30500,8818,30082
30496,8823,30399
30532,8807,30124
30540,8827,30095
30514,8861,29966
30596,8795,30124
30644,8871,30137
30592,8820,30022
30480,8810,30130
30460,8826,30087
30452,8812,30117
30484,8839,30027
30544,8804,29955
30572,8817,30000
30604,8796,29956
30656,8821,29925
30724,8801,29841
30744,8818,30213
30757,8900,30098
30712,8829,30016
30658,8815,30276
30608,8846,30159
30565,8806,30087
30586,8833,30276
30560,8801,30254
30564,8842,30328
30690,8803,30068
30701,8830,30278
30684,8810,30340
30700,8831,30412
30712,8815,30492
30720,8843,30496
30752,8889,30581
30829,8824,30444
30800,8794,30375
30792,8828,30732
30856,8794,30654
30900,8837,30802
30956,8820,30756
31024,8887,30737
31080,8833,30756
31176,8818,30748
31236,8832,30983
31224,8799,30913
31140,8815,31024
31164,8839,30978
31204,8821,31138
31268,8860,31038
31308,8822,30982
31348,8868,30989
31396,8832,30895
31429,8854,31118
31389,8807,30950
31500,8827,31346
31508,8796,31260
31604,8813,31224
31684,8796,31212
31764,8822,31068
31892,8810,31456
31952,8847,31400
31976,8824,31336
32056,8897,31301
32192,8824,31456
32336,8843,31596
32512,8793,31520
32636,8823,31663
32689,8790,31567
32696,8837,31480
32756,8839,31681
32828,8808,31516
32896,8825,31577
33016,8894,31534
33142,8836,31429
33158,8799,31847
33216,8828,31744
33308,8840,31708
33352,8829,31660
33472,8857,31533
33488,8837,31836
33533,8812,31819
33600,8837,31963
33629,8810,31809
33628,8812,31761
33616,8928,31736
33664,8820,31623
33668,8874,31900
33657,8815,31899
33720,8864,31975
33778,8830,31905
33816,8845,31932
33839,8803,31954
33824,8815,32008
33820,8801,31948
33760,8823,31705
33740,8802,32052
33800,8807,31984
33792,8788,32037
33820,8795,32004
33820,8834,32159
33880,8824,31939
33916,8804,32013
33896,8803,32068
33920,8822,32044
33937,8788,32202
33888,8803,32075
33864,8781,31905
33888,8834,32223
33852,8820,32145
33852,8797,32053
33852,8815,32007
33872,8933,31862
33840,8812,32303
33776,8792,32205
33800,8785,32295
33744,8808,32189
33608,8776,32272
33640,8809,32200
33628,8787,32116
33636,8868,32330
33660,8812,32189
33648,8798,32204
33640,8851,32231
33500,8794,32101
33468,8817,32092
33543,8780,32287
33568,8809,32262
33596,8783,32351
33567,8798,32263
33532,8834,32321
33505,8797,32231
33516,8823,32196
33505,8800,32155
33452,8806,32172
33388,8789,32279
33328,8814,32292
33301,8834,32446
33356,8787,32084
33368,8836,32483
33452,8802,32373
33472,8824,32489
33489,8800,32407
33440,8829,32469
33348,8788,32384
33238,8820,32275
33222,8783,32548
33272,8828,32448
33252,8794,32344
33261,8842,32596
33296,8797,32501
33396,8826,32553
33432,8797,32532
33437,8844,32391
33442,8794,32568
33344,8828,32581
33297,8801,32489
33284,8905,32688
33264,8799,32612
33252,8826,32740
33216,8798,32630
33236,8845,32597
33320,8801,32496
33312,8855,32644
33252,8824,32608
33272,8838,32549
33297,8811,32375
33276,8779,32748
33268,8809,32684
33268,8835,32772
33268,8792,32685
33312,8839,32630
33321,8831,32636
33368,8844,32428
33336,8808,32694
33200,8846,32676
33180,8780,32786
33216,8821,32657
33208,8811,32578
33204,8781,32693
33224,8802,32465
33208,8798,32733
33204,8816,32558
33280,8793,32340
33252,8817,32726
33220,8785,32570
33224,8802,32509
33200,8774,32542
33117,8819,32480
33144,8806,32428
33140,8845,32383
33156,8800,32557
33185,8881,32517
33206,8833,32413
33220,8789,32420
33244,8805,32460
33160,8777,32566
33132,8791,32449
33073,8841,32435
33056,8796,32262
33156,8793,32249
33192,8821,32332
33172,8847,32164
33165,8790,32343
33153,8812,32064
33116,8780,32308
33121,8832,32300
33100,8805,32199
33112,8823,32215
33080,8783,32186
33108,8823,32239
33096,8838,32322
32956,8793,32212
33056,8812,32300
33156,8874,32162
33152,8794,32249
33068,8778,32081
33040,8799,32095
33032,8774,32151
33056,8797,32038
33096,8791,31909
33168,8811,32156
33184,8861,32035
33173,8814,31904
33118,8845,31988
32932,8806,31967
32904,8809,32004
32917,8773,31879
32920,8797,31807
32925,8776,31973
32948,8809,31879
32968,8793,31766
32984,8814,31921
32996,8793,31820
33016,8814,31904
33012,8841,31781
32992,8809,31662
32980,8865,31887
32864,8794,31714
32896,8774,31443
33000,8805,31820
33016,8791,31722
33016,8807,31713
33036,8794,31620
33008,8804,31503
32972,8779,31791
32944,8788,31625
32964,8773,31492
32912,8782,31528
32869,8813,31343
32952,8784,31712
32940,8810,31612
32904,8793,31612
32860,8823,31495
32852,8813,31592
32868,8898,31564
32860,8805,31476
32884,8904,31297
32868,8795,31698
32834,8777,31559
32756,8809,31375
32868,8788,31625
32892,8817,31557
32872,8793,31548
32856,8796,31412
32821,8852,31264
32800,8788,31546
32744,8900,31407
32676,8809,31524
32628,8776,31431
32644,8832,31480
32676,8809,31532
32708,8846,31444
32720,8807,31364
32712,8828,31456
32720,8797,31412
32724,8772,31529
32709,8804,31508
32548,8775,31432
32540,8829,31399
32588,8822,31493
32693,8862,31392
32812,8806,31503
32849,8791,31477
32828,8807,31205
32820,8777,31573
32804,8807,31463
32775,8838,31375
32756,8782,31400
32800,8834,31465
32740,8797,31411
32864,8850,31337
32960,8826,31432
32965,8791,31525
32992,8804,31315
32992,8871,31363
33013,8806,31414
33049,8773,31168
33009,8788,31517
32917,8772,31304
32840,8828,31440
32886,8794,31409
32924,8836,31306
32960,8795,31425
32916,8822,31505
32908,8773,31404
32964,8810,31326
32936,8771,31321
32892,8780,31160
32883,8792,31577
32958,8836,31449
33024,8789,31442
33012,8805,31548
33004,8785,31366
32980,8796,31433
32960,8837,31500
32964,8770,31425
32974,8784,31360
32988,8771,31532
32976,8796,31418
33004,8779,31421
33057,8809,31505
33056,8861,31439
33028,8789,31463
33056,8823,31425
33044,8775,31341
33013,8792,31311
32912,8768,31424
32904,8816,31336
32900,8784,31413
32916,8843,31411
32997,8799,31354
33120,8825,31341
33044,8783,31116
32952,8803,31512
32740,8772,31392
32296,8792,31292
31960,8767,31359
31624,8796,31375
31124,8779,31325
30529,8840,31294
29868,8804,31336
29349,8792,31261
29568,8823,31426
31070,8784,31298
33824,8794,31239
37236,8874,31281
40828,8784,31288
44744,8756,31300
48480,8812,31188
51672,8773,31270
54068,8804,31172
55112,8776,31102
53696,8812,31229
50884,8775,31196
48560,8837,31200
46309,8753,31116
44448,8785,31053
43005,8755,31145
41516,8789,31238
39928,8775,31056
38049,8850,31078
36080,8798,30822
34296,8780,31160
32853,8801,30996
31816,8781,30896
31081,8801,30845
30616,8762,30937
30344,8807,30910
30180,8803,30972
30052,8780,30828
29924,8827,30769
29872,8791,30850
29786,8823,30594
29728,8786,30759
29620,8773,30853
29508,8792,30865
29392,8770,30858
29360,8866,30917
29380,8786,30706
29400,8779,30756
29428,8823,30808
29412,8788,30713
29436,8829,30828
29408,8790,30820
29452,8821,30745
29420,8791,30773
29440,8767,30493
29488,8814,30788
29476,8791,30852
29512,8783,30644
29564,8814,30647
29604,8786,30415
29660,8818,30740
29660,8779,30580
29684,8809,30453
29700,8798,30618
29700,8766,30358
29798,8803,30436
29849,8774,30296
29901,8804,30253
29854,8789,30282
29728,8809,30324
29786,8838,30132
29808,8778,30010
29780,8806,30160
29792,8766,29977
29832,8791,30036
29856,8766,29884
29872,8818,30068
29902,8782,29793
29989,8864,29863
30072,8804,29675
30064,8782,29853
30065,8804,29742
30041,8788,29596
30044,8768,29716
30112,8799,29554
30122,8787,29676
30134,8772,29628
30144,8879,29559
30188,8805,29369
30192,8788,29604
30176,8799,29553
30172,8781,29343
30176,8801,29668
30224,8767,29504
30176,8809,29620
30248,8772,29535
30232,8811,29764
30192,8785,29545
30236,8873,29678
30248,8806,29588
30200,8782,29789
30204,8815,29629
30256,8794,29784
30321,8769,29712
30316,8807,29710
30274,8804,29783
30200,8778,30005
30244,8827,29840
30308,8802,29989
30332,8790,30037
30316,8839,29808
30208,8785,30172
30220,8830,30003
30173,8773,30182
30112,8830,30101
30128,8790,30351
30274,8775,30180
30288,8820,30325
30356,8807,30270
30448,8858,30449
30496,8799,30415
30512,8788,30484
30468,8794,30455
30416,8773,30677
30444,8778,30542
30496,8824,30413
30524,8789,30761
30564,8849,30612
30585,8820,30727
30624,8793,30666
30702,8817,30828
30734,8776,30734
30753,8808,30847
30770,8774,30652
30820,8800,30941
30921,8773,30823
30999,8810,30940
31040,8788,30909
31072,8843,31154
31140,8794,31039
31229,8815,30847
31364,8780,31143
31492,8828,31213
31604,8781,31188
31824,8827,31121
31852,8776,31084
31968,8815,31076
32052,8781,31233
32161,8828,31052
32272,8784,31476
32420,8805,31382
32516,8864,31337
32596,8805,31295
32717,8838,31428
32796,8799,31537
32876,8903,31482
33008,8804,31430
33060,8846,31473
33164,8797,31564
33276,8778,31503
33308,8797,31537
33296,8887,31533
33340,8768,31571
33396,8796,31398
33424,8761,31720
33448,8805,31727
33520,8767,31724
33564,8812,31788
33580,8777,31730
33580,8812,31672
33576,8778,31765
33484,8798,31821
33580,8767,31744
33560,8778,31980
33556,8758,31849
33452,8768,31839
33472,8802,31788
33504,8768,31913
33484,8791,32000
33516,8774,31791
33556,8806,31917
33524,8773,31893
33533,8782,32071
33509,8756,31926
33560,8799,31992
33604,8783,31810
33608,8764,31990
33608,8784,32052
33572,8900,32052
33568,8791,31924
33564,8779,32157
33572,8783,32105
33628,8761,32084
33604,8772,31812
33544,8828,32164
33484,8770,32007
33444,8762,32137
33472,8796,31844
33416,8773,32108
33433,8848,32233
33472,8805,32032
33508,8771,32159
33516,8777,32076
33484,8753,32148
33328,8792,32098
33276,8756,32202
33276,8803,32068
33280,8770,32239
33303,8827,32260
33340,8796,32231
33364,8815,32285
33292,8762,32252
33316,8776,32170
33276,8834,32156
33244,8775,32281
33300,8820,32224
33286,8790,32404
33308,8846,32210
33324,8774,32230
33312,8821,32292
33224,8770,32339
33249,8813,32255
33272,8775,32476
33183,8796,32350
33213,8750,32116
33276,8775,32369
33242,8763,32436
33304,8796,32412
33396,8820,32341
33388,8770,32529
33420,8807,32391
33420,8779,32468
33324,8803,32382
33308,8773,32591
33244,8807,32364
33172,8780,32519
33188,8764,32232
33248,8788,32578
33313,8770,32431
33320,8793,32572
33304,8771,32509
33260,8774,32447
33272,8812,32613
33312,8781,32506
33280,8752,32665
33272,8766,32677
33092,8759,32588
33102,8790,32455
33169,8806,32584
33216,8767,32625
33196,8797,32613
33184,8764,32703
33172,8787,32671
33140,8748,32639
33158,8797,32717
33183,8756,32660
33200,8809,32388
33208,8795,32632
33264,8769,32725
33344,8828,32657
33320,8790,32628
33312,8764,32437
33180,8797,32775
33088,8746,32628
33172,8775,32540
33240,8749,32671
33262,8809,32568
33272,8763,32310
33336,8796,32664
33316,8769,32455
33284,8820,32583
33232,8794,32512
33204,8755,32688
33240,8770,32423
33268,8750,32541
33272,8787,32381
33253,8772,32439
33272,8805,32462
33272,8766,32471
33312,8823,32372
33326,8776,32572
33249,8807,32349
33166,8753,32224
33146,8784,32350
33125,8753,32488
33084,8820,32396
33180,8789,32292
33260,8769,32315
33296,8782,32253
33284,8767,32405
33248,8794,32165
33204,8761,32245
33152,8866,32239
33152,8768,31929
33224,8744,32173
33284,8777,32184
33312,8754,32142
33385,8802,32005
33416,8791,32180
33328,8806,32048
33228,8763,32007
33084,8783,31974
33093,8751,32075
33144,8805,31948
33156,8782,32140
33142,8748,31912
33140,8794,31984
33124,8771,31804
33145,8897,31927
33124,8811,32013
33164,8765,31840
33132,8804,31900
33132,8783,31794
33120,8806,31983
33100,8769,31696
33152,8751,31822
33080,8772,31714
32998,8760,31777
33064,8789,31733
33112,8766,31463
33136,8788,31681
33124,8759,31575
33089,8779,31702
33036,8796,31572
33008,8739,31734
33056,8788,31783
33080,8755,31495
33112,8777,31630
33104,8854,31516
33112,8785,31713
33064,8791,31573
33088,8755,31308
33116,8782,31606
33148,8813,31564
33137,8780,31479
32994,8806,31491
32972,8777,31428
33052,8764,31535
33068,8799,31456
33048,8807,31471
33072,8762,31456
33020,8787,31353
33028,8748,31450
32996,8768,31359
33088,8739,31301
32980,8785,31143
32972,8749,31504
33029,8783,31378
33032,8770,31367
33084,8801,31332
33092,8784,31505
33116,8891,31245
33048,8766,31356
32980,8748,31076
33049,8780,31231
32984,8745,31401
32926,8778,31239
32894,8758,31308
32896,8771,31429
32876,8804,31284
32884,8761,31076
32960,8785,31413
33056,8784,31284
33088,8742,31184
33054,8758,31327
32976,8805,31260
32956,8765,31221
32964,8791,31132
32973,8762,31188
32992,8788,31285
32980,8759,31057
32953,8787,31196
32957,8745,31088
32988,8774,31280
33016,8741,31116
32956,8766,31160
32904,8750,30949
32888,8774,31230
32880,8869,30993
32912,8795,31124
32936,8843,31032
32978,8771,31060
32953,8799,31109
32952,8763,30855
32932,8801,31151
33004,8775,30951
33036,8749,31060
32904,8776,31052
32877,8762,30974
32960,8775,31166
32936,8756,30936
32884,8780,31023
32902,8741,30944
32860,8776,31040
32856,8741,31013
32848,8766,31013
32828,8800,30883
32804,8757,30983
32884,8804,30901
32937,8762,31081
32936,8793,30860
32888,8754,30980
32789,8798,30852
32752,8775,30888
32716,8738,31044
32720,8784,30828
32824,8757,30928
32948,8805,30780
33036,8757,31049
33096,8794,30859
32956,8756,30708
32888,8771,30996
32865,8816,30878
32932,8774,30608
33008,8742,30876
32996,8790,30947
32932,8767,30972
32856,8761,30860
32896,8775,30748
32964,8765,30964
32980,8786,30693
32992,8746,30818
32992,8772,30784
32985,8742,30727
32950,8785,30813
33004,8740,30886
33076,8769,30669
33068,8753,30757
33044,8901,30811
32996,8778,30628
32888,8758,30705
32960,8788,30904
32952,8748,30775
32896,8743,30847
32976,8750,30773
32996,8774,30820
33036,8747,30692
32972,8781,30750
33060,8757,30639
33116,8792,30842
33024,8750,30725
33068,8767,30602
33112,8745,30798
33148,8762,30700
33116,8740,30612
33140,8775,30836
32984,8804,30708
33001,8764,30556
33012,8797,30784
32989,8756,30620
32984,8801,30693
32976,8762,30439
33008,8753,30590
32990,8799,30796
33056,8772,30663
32916,8738,30613
32821,8797,30623
32886,8750,30445
32884,8786,30724
32889,8755,30668
32696,8790,30614
32416,8744,30529
32192,8767,30547
31812,8744,30492
31296,8775,30599
30708,8739,30505
29976,8769,30497
29564,8813,30466
29658,8764,30454
31040,8787,30529
33520,8763,30506
36620,8764,30386
40032,8742,30513
43792,8745,30444
47768,8780,30364
51148,8740,30344
53812,8813,30484
55452,8757,30384
54960,8801,30180
52381,8749,30440
49716,8759,30405
47472,8794,30468
45240,8726,30376
43508,8759,30324
41848,8785,30193
40128,8747,30280
38273,8735,30281
36260,8788,30156
34504,8749,30316
33052,8774,30154
31916,8749,30185
31088,8762,30065
30600,8852,30009
30280,8744,30093
30048,8772,29998
29878,8738,29998
29728,8758,30028
29613,8833,30007
29580,8761,29906
29440,8782,29797
29346,8753,30103
29288,8797,29846
29308,8741,29978
29318,8780,30028
29260,8740,29881
29184,8769,29969
29144,8742,29991
29161,8765,30095
29149,8810,29984
29208,8767,29717
29304,8776,29993
29248,8753,29799
29369,8770,29924
29304,8785,29672
29316,8736,29917
29368,8786,29767
29280,8747,29830
29248,8790,29564
29356,8755,29741
29421,8788,29785
29392,8755,29704
29388,8773,29557
29469,8804,29754
29454,8750,29549
29588,8772,29287
29608,8746,29524
29560,8787,29302
29700,8752,29388
29744,8785,29252
29748,8763,29260
29716,8765,29033
29712,8777,29332
29804,8749,29108
29804,8784,29095
29788,8736,29020
29876,8763,29137
29900,8741,29008
29892,8779,28788
29890,8754,28877
29856,8769,28742
29816,8751,28753
29840,8763,28779
29910,8840,28708
29928,8770,28472
29996,8802,28601
29972,8739,28711
29996,8781,28628
30020,8750,28500
30028,8786,28567
30102,8756,28637
30132,8777,28516
30146,8747,28576
30145,8772,28493
30096,8779,28557
29948,8739,28553
29972,8768,28341
29937,8750,28687
30012,8784,28535
30116,8796,28384
30144,8759,28551
30168,8781,28573
30085,8772,28428
30128,8745,28783
30176,8756,28661
30132,8738,28717
30184,8772,28573
30120,8807,28885
30172,8772,28802
30200,8791,28701
30116,8818,28709
30032,8757,28852
30024,8772,28854
30096,8749,28973
30160,8770,28920
30128,8830,28973
30144,8759,28894
30232,8799,29007
30268,8756,29062
30328,8796,29011
30398,8859,29063
30364,8792,29124
30380,8793,29058
30452,8749,29298
30436,8759,29157
30520,8741,29110
30556,8771,29166
30625,8831,29389
30674,8789,29312
30717,8815,29157
30830,8779,29409
30844,8811,29399
30856,8751,29393
30838,8765,29188
30821,8740,29473
30900,8753,29343
30984,8745,29497
30978,8778,29404
31024,8807,29657
31149,8762,29479
31232,8802,29609
31336,8756,29495
31412,8793,29585
31500,8773,29752
31632,8795,29686
31752,8741,29714
31853,8783,29636
32032,8743,29897
32269,8789,29646
32452,8757,29805
32476,8812,29575
32488,8759,29959
32602,8791,29824
32734,8741,29669
32828,8757,29806
32892,8820,30057
32968,8757,29901
33180,8801,29830
33200,8778,29876
33332,8834,30088
33290,8764,30005
33360,8820,29913
33430,8774,30146
33428,8869,29909
33556,8753,30040
33596,8737,29813
33624,8787,29985
33712,8748,30192
33696,8785,30108
33708,8752,30010
33729,8794,30192
33712,8748,29986
33716,8778,30148
33676,8756,30016
33772,8806,30223
33812,8765,30236
33876,8824,30103
33724,8770,30183
33668,8802,30125
33736,8776,30332
33788,8801,30203
33768,8772,29973
33772,8780,30357
33744,8728,30124
33684,8765,30236
33688,8729,30010
33676,8772,30178
33692,8738,30352
33752,8772,30161
33760,8746,30300
33736,8767,30060
33716,8742,30225
33724,8748,30430
33709,8830,30265
33676,8744,30245
33656,8788,30340
33636,8749,30342
33608,8838,30140
33676,8761,30272
33660,8830,30484
33632,8779,30233
33512,8813,30380
33460,8736,30365
33452,8752,30392
33428,8722,30282
33481,8748,30144
33436,8789,30401
33452,8765,30506
33468,8871,30367
33476,8759,30426
33484,8830,30202
33429,8758,30380
33336,8741,30521
33352,8754,30471
33354,8738,30519
33380,8857,30326
33454,8752,30450
33392,8731,30471
33448,8793,30704
33437,8756,30576
33404,8794,30608
33416,8758,30612
33388,8735,30599
33368,8755,30630
33264,8783,30431
33208,8737,30636
33264,8727,30764
33313,8751,30709
33276,8735,30766
33256,8801,30776
33266,8761,30705
33232,8738,30887
33232,8789,30711
33264,8724,30592
33232,8769,30880
33252,8748,30911
33264,8813,30902
33304,8763,30700
33296,8793,31044
33236,8743,30948
33204,8778,30764
33184,8741,31136
33188,8759,30973
33148,8727,31077
33120,8750,31034
33152,8721,31276
33152,8768,31118
33128,8755,31182
33132,8852,31050
33168,8767,31178
33182,8747,31367
33116,8786,31135
33028,8740,31295
33072,8765,31269
33100,8725,31198
33044,8760,31351
33000,8721,31287
33024,8756,31460
32948,8732,31389
33018,8753,31239
33098,8848,31546
33108,8750,31444
33082,8771,31497
32997,8723,31236
32948,8745,31446
33024,8717,31672
33033,8756,31533
33000,8791,31588
33056,8765,31511
33036,8781,31609
33053,8745,31632
33058,8783,31511
33053,8726,31777
33009,8760,31637
32984,8717,31709
32893,8739,31660
32860,8791,31845
32908,8726,31743
32964,8766,31804
33016,8777,31708
33032,8739,31657
32984,8782,31780
32952,8726,31720
32948,8735,31839
32968,8865,31910
32872,8737,31810
32836,8840,31615
32864,8748,31876
32896,8732,32077
32910,8772,31908
32924,8732,31692
32848,8755,32072
32852,8727,31874
32870,8768,32049
32852,8750,31892
32808,8749,32135
32832,8713,32117
32860,8740,32044
32868,8735,32262
32900,8761,32085
32924,8734,32204
32900,8800,31951
32797,8742,32175
32800,8719,32408
32852,8732,32292
32844,8711,32035
32876,8750,32393
32888,8724,32361
32864,8776,32391
32832,8750,32434
32796,8732,32308
32732,8787,32391
32774,8745,32640
32808,8799,32519
32828,8734,32555
32784,8713,32585
32728,8784,32320
32676,8750,32594
32692,8730,32745
32648,8756,32652
32785,8739,32700
32812,8786,32433
32791,8749,32745
32616,8815,32900
32596,8731,32741
32632,8714,32805
32684,8734,32775
32600,8721,32943
32594,8782,32976
32560,8766,32772
32536,8735,32903
32545,8765,32976
32484,8732,32687
32580,8786,32942
32626,8746,33098
32624,8835,33049
32668,8733,33029
32716,8725,33112
32732,8778,32843
32704,8747,33129
32676,8781,33144
32672,8728,33225
32621,8759,33199
32624,8719,33295
32620,8732,33287
32644,8708,33039
32584,8737,33414
32560,8855,33249
32576,8741,33376
32604,8734,33409
32609,8770,33360
32608,8799,33576
32608,8741,33428
32572,8767,33508
32497,8717,33401
32484,8770,33586
32496,8725,33695
32536,8755,33605
32536,8725,33335
32528,8753,33600
32552,8732,33836
32544,8757,33692
32570,8718,33708
32601,8739,33534
32652,8708,33737
32636,8736,33935
32640,8710,33708
32565,8751,33847
32380,8727,33575
32460,8767,33864
32512,8737,34045
32464,8783,33824
32424,8725,33961
32416,8769,33700
32460,8730,34009
32477,8794,34159
32524,8746,33912
32524,8780,34063
32464,8763,33988
32472,8781,34212
32472,8730,34117
32468,8748,34063
32442,8722,34256
32476,8749,34148
32552,8775,34169
32588,8717,34140
32628,8769,34308
32594,8714,34184
32586,8749,34260
32584,8727,34231
32492,8749,34413
32570,8838,34276
32568,8735,34326
32568,8715,34237
32552,8741,34285
32521,8709,34388
32492,8762,34522
32532,8725,34293
32548,8768,34447
32580,8741,34142
32548,8728,34402
32549,8743,34584
32552,8788,34413
32492,8745,34518
32460,8829,34221
32504,8736,34540
32492,8843,34694
32556,8749,34582
32592,8723,34517
32640,8748,34580
32636,8724,34597
32624,8760,34671
32580,8719,34357
32512,8762,34609
32456,8715,34768
32480,8764,34844
32488,8727,34746
32548,8713,34622
32592,8740,34734
32568,8727,34775
32500,8743,34796
32248,8787,34932
32244,8741,34911
32160,8723,34941
32088,8757,34905
32160,8716,34823
32300,8754,34551
32405,8717,34844
32536,8763,34965
32612,8726,34788
32661,8758,34951
32644,8778,34644
32585,8711,35077
32564,8763,35141
32552,8723,34881
32569,8765,35006
32572,8708,34823
32516,8744,35171
32536,8727,34951
32584,8778,35079
32560,8743,35089
32536,8781,35009
32516,8715,35253
32528,8764,35261
32536,8709,35030
32552,8754,35174
32556,8708,35053
32568,8730,35309
32573,8776,35178
32612,8733,34920
32540,8860,35180
32484,8738,35397
32552,8772,35285
32652,8709,35345
32684,8729,35184
32676,8699,34972
32676,8743,35432
32628,8780,35300
32636,8721,35286
32748,8752,35431
32812,8725,35335
32816,8766,35381
32804,8710,35394
32812,8761,35532
32652,8707,35412
32652,8743,35081
32684,8700,35481
32684,8753,35308
32752,8715,35469
32776,8747,35417
32716,8723,35391
32704,8743,35496
32729,8754,35525
32668,8704,35388
32644,8733,35482
32624,8764,35591
32624,8714,35408
32652,8752,35544
32656,8723,35266
32636,8769,35484
32500,8719,35684
32236,8759,35516
31932,8713,35517
31528,8737,35572
31038,8702,35384
30436,8741,35536
29808,8709,35712
29256,8754,35511
29137,8729,35576
30189,8763,35584
32496,8728,35580
35748,8740,35596
39254,8713,35503
43012,8727,35590
46896,8766,35580
50205,8690,35304
52812,8752,35682
54364,8708,35703
53684,8777,35479
51016,8750,35617
48476,8836,35428
46360,8716,35689
44288,8745,35516
42732,8691,35564
41388,8707,35579
39856,8759,35514
38160,8703,35560
36228,8764,35484
34444,8727,35668
32960,8755,35415
31896,8719,35164
31094,8753,35463
30584,8762,35352
30248,8703,35470
30032,8724,35394
29841,8782,35291
29532,8699,35335
29464,8727,35514
29364,8718,35381
29304,8734,35276
29234,8774,35476
29181,8723,35344
29120,8748,35389
29092,8706,35524
29084,8726,35380
29044,8705,35380
29016,8717,35583
29028,8713,35373
29048,8749,35452
29056,8767,35416
29132,8723,35630
29108,8739,35478
29084,8791,35177
29208,8731,35425
29272,8767,35598
29324,8713,35428
29340,8741,35444
29345,8708,35374
29336,8742,35528
29298,8719,35271
29397,8738,35381
29484,8719,35269
29528,8742,35455
29577,8791,35212
29572,8727,35264
29520,8783,35156
29436,8710,35093
29413,8736,35138
29504,8822,35120
29684,8737,35020
29757,8737,34681
29752,8762,35077
29696,8711,34884
29804,8738,34573
29928,8762,34823
29976,8726,34840
29912,8706,34783
29912,8728,34660
29864,8835,34813
29864,8748,34668
29910,8759,34541
29940,8724,34693
30000,8754,34518
29968,8708,34540
29921,8727,34537
29872,8702,34580
29980,8716,34388
30096,8716,34532
30152,8750,34441
30192,8845,34519
30212,8739,34500
30145,8717,34192
30100,8743,34572
30088,8702,34431
30116,8724,34580
30132,8703,34267
30093,8723,34601
30108,8791,34772
30152,8723,34657
30148,8818,34700
30152,8749,34673
30108,8775,34868
30048,8719,34748
30101,8743,34844
30172,8710,34883
30272,8748,34823
30264,8706,34653
30232,8745,35137
30372,8777,34995
30376,8728,35111
30340,8770,35104
30336,8732,35269
30332,8757,35252
30336,8708,35313
30404,8726,35289
30468,8703,35367
30452,8733,35444
30420,8717,35324
30501,8740,35612
30512,8720,35561
30560,8748,35647
30632,8724,35613
30696,8730,35847
30768,8707,35735
30801,8723,35477
30837,8775,35982
30828,8712,35884
30816,8774,35935
30856,8746,35924
30892,8761,35967
30992,8730,35704
30972,8735,36165
30952,8719,36005
31096,8742,36180
31173,8747,36239
31156,8705,36157
31170,8731,35920
31148,8731,36347
31228,8772,36368
31348,8725,36477
31404,8754,36401
31396,8716,36487
31580,8729,36238
31756,8713,36553
31876,8725,36682
31920,8702,36583
31976,8729,36675
32092,8709,36630
32220,8729,36663
32390,8779,36670
32608,8727,36916
32730,8740,36820
32772,8714,36805
32820,8725,36893
32924,8741,36901
33014,8694,36933
33080,8717,36832
33084,8756,36844
33120,8707,36973
33228,8748,37017
33308,8765,37108
33460,8711,36932
33516,8740,37100
33536,8697,37117
33528,8713,37127
33512,8693,37127
33496,8714,36871
33488,8762,37220
33480,8711,37215
33548,8743,37217
33688,8709,37241
33740,8732,37255
33788,8701,37015
33924,8729,37436
33850,8733,37343
33796,8686,37404
33830,8704,37380
33828,8726,37493
33812,8705,37413
33736,8713,37492
33694,8735,37433
33736,8709,37453
33753,8720,37341
33748,8740,37221
33689,8720,37624
33644,8689,37446
33672,8713,37564
33692,8695,37551
33768,8730,37509
33704,8711,37638
33520,8725,37596
33504,8703,37780
33516,8719,37708
33544,8691,37684
33524,8704,37757
33524,8681,37729
33484,8727,37796
33334,8693,37823
33348,8738,37698
33364,8701,37833
33428,8738,37700
33480,8702,37969
33476,8730,37796
33476,8692,37887
33460,8717,37894
33439,8775,38061
33376,8719,37809
33352,8747,37938
33372,8700,37961
33444,8740,38092
33500,8708,37879
33476,8785,37999
33396,8723,37972
33252,8755,38172
33156,8720,37982
33197,8688,38071
33240,8704,38068
33276,8691,38196
33313,8723,38105
33364,8704,38061
33380,8730,38287
33356,8706,38141
33304,8726,38148
33240,8737,38241
33140,8686,38071
33100,8706,38225
33176,8681,38215
33348,8705,38292
33500,8812,38269
33437,8728,38236
33392,8764,38305
33344,8735,38212
33308,8759,38321
33296,8708,38320
33396,8725,38488
33377,8683,38308
33328,8724,38372
33280,8693,38271
33288,8740,38469
33321,8698,38290
33368,8732,38431
33420,8695,38486
33416,8732,38407
33396,8714,38436
33396,8680,38428
33364,8702,38480
33380,8686,38464
33356,8711,38116
33289,8696,38583
33222,8729,38464
33284,8750,38340
33297,8699,38575
33368,8724,38494
33448,8721,38509
33392,8684,38347
33389,8691,38245
33344,8708,38604
33380,8827,38407
33409,8722,38471
33394,8769,38407
33364,8703,38336
33336,8724,38388
33302,8714,38277
33356,8690,38376
33244,8715,38429
33212,8733,38389
33257,8680,38381
33312,8708,38388
33344,8747,38290
33302,8709,37973
33244,8759,38428
33278,8710,38245
33300,8737,37937
33345,8682,38400
33337,8714,38140
33360,8676,38225
33292,8695,38228
33284,8745,38148
33300,8724,38164
33240,8704,38151
33220,8715,38072
33168,8769,38240
33172,8727,37945
33152,8738,38047
33172,8683,37868
33172,8681,37968
33192,8694,38117
33222,8687,37839
33256,8732,37932
33284,8765,37972
33240,8732,37839
33180,8755,37891
33084,8722,37633
32988,8820,37879
32992,8693,37936
33048,8676,37686
33000,8693,37791
32948,8739,37836
33064,8696,37637
33108,8717,37396
33100,8750,37697
33152,8692,37699
32984,8705,37613
32956,8816,37775
33136,8697,37613
33129,8709,37383
33156,8682,37600
33133,8714,37611
33057,8725,37653
33108,8698,37561
33132,8726,37559
33100,8793,37505
33088,8697,37501
33082,8712,37525
33080,8677,37426
33044,8713,37551
33028,8721,37468
33049,8681,37463
33064,8735,37304
32996,8690,37405
32956,8728,37348
32924,8692,37362
32896,8716,37382
32924,8679,37320
32981,8691,37356
33116,8752,37344
33152,8680,37448
33180,8705,37310
33180,8735,37297
33149,8693,37180
33088,8727,37292
33013,8740,37239
32916,8695,37428
32904,8740,37197
32832,8680,37240
32885,8688,37366
32982,8717,36904
33017,8687,37189
33000,8697,37225
32948,8705,37364
32888,8734,37247
32909,8687,37181
32976,8720,37078
32996,8718,36844
33004,8668,37312
32916,8689,37164
32816,8715,37204
32820,8773,37156
32940,8684,37141
33020,8706,37228
33024,8746,37164
32992,8685,37117
33029,8716,37031
33064,8698,37101
33028,8737,37201
33044,8668,37136
32984,8677,37268
32936,8703,37173
32972,8687,37191
32960,8712,37140
32877,8725,37196
32908,8692,37033
32900,8696,37127
32953,8696,37287
32940,8768,37127
32980,8694,37093
33012,8717,37185
32860,8676,37113
32752,8724,37260
32684,8713,37156
32720,8804,37175
32812,8704,37076
32865,8706,36804
32920,8745,37154
32968,8675,37127
32904,8689,37200
32728,8712,37132
32638,8678,37108
32660,8680,37136
32690,8725,37093
32704,8735,37008
32823,8684,37124
32780,8705,37150
32609,8800,37045
32584,8681,37126
32560,8692,37258
32608,8775,37152
32700,8679,37189
32840,8705,37092
32900,8752,37094
32856,8708,37295
32804,8736,37151
32816,8681,37193
32881,8682,37172
32963,8699,37093
33020,8740,37127
33041,8675,37120
32984,8718,37111
32856,8740,37108
32868,8700,37172
32908,8705,37141
32911,8739,37132
32916,8684,36927
33000,8708,37311
33020,8674,37200
33020,8684,37231
32945,8743,37077
32864,8678,37017
32844,8698,37281
32852,8779,37228
32804,8724,37191
32776,8740,37172
32758,8675,37180
32776,8692,37213
32840,8672,37223
32964,8672,37364
33040,8717,37244
33088,8674,37319
33016,8698,37221
32992,8741,37195
32956,8687,37156
32920,8686,37284
32888,8692,37245
32908,8719,37316
32901,8671,37271
32869,8673,37409
32889,8688,37262
32900,8755,37412
33028,8685,36940
33108,8701,37276
33072,8741,36893
32984,8674,37271
33064,8714,36863
33064,8727,37285
32980,8665,37245
32928,8683,37346
33017,8668,37228
33009,8684,37175
32916,8760,37188
32752,8692,36829
32496,8715,37312
32188,8688,37013
31816,8678,37076
31409,8689,37119
30952,8801,37139
30420,8683,37165
29810,8726,37305
29517,8689,37163
29760,8742,37108
31632,8687,37092
34864,8708,37196
38592,8723,37132
42233,8675,37252
45968,8667,36801
49256,8688,37160
51752,8758,36817
53376,8665,37183
53132,8689,37093
50591,8726,37229
48100,8863,37093
45948,8667,37135
44020,8682,36783
43044,8687,37175
42084,8746,37072
40864,8651,37162
39296,8687,36645
37492,8718,37148
35688,8670,36991
34136,8711,37097
32876,8735,36944
31990,8679,37080
31408,8705,36934
31036,8745,36896
30680,8679,36743
30452,8698,36798
30284,8677,36823
30164,8668,36766
30055,8702,36772
29989,8707,36909
29940,8715,36556
29868,8745,36716
29746,8679,36818
29684,8676,36757
29648,8673,36759
29600,8692,36509
29556,8687,36704
29572,8719,36756
29540,8675,36780
29514,8681,36835
29504,8681,36556
29590,8701,36646
29644,8720,36564
29665,8675,36793
29690,8690,36759
29754,8669,36738
29744,8684,36656
29732,8708,36676
29736,8672,36556
29906,8689,36614
29892,8713,36550
29828,8769,36577
29960,8682,36567
29820,8709,36551
29836,8710,36423
29844,8670,36412
29932,8670,36337
30024,8680,36304
30092,8725,36500
30144,8679,36278
30176,8705,35982
30236,8689,36372
30236,8697,36158
30192,8719,36092
30148,8720,35989
30070,8665,35717
30060,8690,36164
30066,8694,36013
30036,8674,35918
30036,8692,35956
30152,8699,35912
30192,8738,35995
30212,8678,35878
30296,8700,35608
30324,8676,36004
30386,8666,35847
30397,8678,35856
30408,8723,35777
30389,8673,35783
30408,8683,35766
30448,8705,35767
30480,8726,35675
30540,8686,35441
30528,8679,35927
30512,8689,35846
30500,8669,35771
30500,8694,35854
30432,8698,35890
30332,8675,35864
30348,8705,35901
30460,8707,35566
30548,8714,35829
30588,8756,35975
30576,8675,36161
30624,8679,36068
30632,8677,36133
30620,8702,36068
30640,8722,36109
30736,8676,36172
30796,8682,36270
30848,8700,36240
30772,8727,36244
30752,8685,36152
30708,8681,35945
30730,8692,36492
30664,8698,36368
30804,8668,36526
30908,8700,36452
30960,8721,36508
30964,8684,36386
31004,8705,36487
31044,8763,36647
31102,8689,36522
31104,8706,36231
31134,8757,36729
31180,8673,36564
31220,8684,36276
31188,8726,36736
31176,8676,36341
31184,8686,36608
31237,8706,36356
31304,8727,36772
31420,8760,36388
31504,8806,36660
31557,8669,36636
31596,8670,36806
31676,8685,36783
31720,8699,36860
31764,8751,36847
31840,8676,36989
31916,8694,36909
31989,8700,37016
32096,8705,36925
32156,8730,36973
32132,8671,36835
32308,8680,36623
32424,8700,37061
32473,8725,36647
32512,8783,36992
32600,8677,36588
32640,8694,36964
32796,8712,37001
32941,8740,37109
33008,8674,37031
33100,8671,37014
33204,8683,37012
33248,8680,37068
33274,8718,36999
33325,8794,37025
33304,8675,37068
33236,8694,37141
33314,8702,37068
33436,8745,37049
33456,8672,36961
33444,8676,36953
33469,8688,37110
33612,8674,37037
33652,8711,37164
33657,8671,36729
33712,8670,36943
33752,8688,37046
33616,8691,37054
33478,8701,37127
33328,8673,37052
33390,8656,37157
33429,8671,37028
33536,8689,37165
33705,8656,37022
33790,8687,37044
33812,8701,36975
33782,8740,37031
33812,8676,36983
33873,8676,36989
33856,8680,36945
33764,8694,36914
33733,8708,36925
33792,8654,36959
33824,8658,36901
33828,8676,36905
33836,8720,36821
33884,8669,36664
33900,8672,36820
33924,8682,36864
33964,8681,36800
33932,8719,36518
33868,8655,37044
33856,8646,36900
33864,8658,36980
33896,8699,36871
33868,8694,36903
33848,8716,36824
33732,8674,36770
33668,8666,36773
33708,8684,36741
33680,8677,36717
33692,8759,36381
33720,8648,36870
33773,8665,36738
33828,8708,36649
33824,8667,36567
33804,8678,36622
33892,8686,36524
33832,8708,36519
33697,8662,36492
33653,8662,36479
33660,8667,36475
33721,8690,36221
33800,8717,36669
33808,8652,36564
33784,8677,36636
33768,8694,36519
33756,8670,36452
33716,8679,36596
33681,8716,36485
33696,8654,36501
33664,8656,36332
33664,8662,36206
33641,8676,36420
33616,8713,36404
33668,8750,36549
33797,8665,36423
33824,8689,36413
33848,8686,36356
33770,8689,36400
33709,8790,36307
33700,8649,36249
33728,8675,36248
33740,8676,36408
33764,8673,36280
33748,8688,36274
33736,8716,36231
33736,8725,36331
33696,8667,36154
33664,8673,36048
33676,8682,36031
33734,8684,36136
33726,8701,36073
33720,8791,36101
33712,8656,35990
33732,8679,35638
33764,8797,36085
33764,8671,35884
33752,8697,35865
33764,8701,35773
33656,8648,35747
33580,8665,35847
33550,8694,35756
33541,8707,35620
33636,8731,35720
33668,8659,35652
33564,8692,35578
33646,8697,35463
33628,8732,35462
33608,8654,35393
33657,8675,35401
33600,8665,35399
33529,8671,35375
33628,8699,35308
33696,8653,35195
33708,8682,35358
33648,8662,35176
33576,8678,35087
33620,8703,35016
33672,8656,35052
33638,8666,35052
33600,8689,34950
33616,8644,34856
33573,8644,34802
33580,8672,34532
33576,8725,34796
33524,8667,34729
33460,8689,34735
33509,8724,34641
33556,8658,34710
33560,8648,34202
33548,8650,34470
33544,8660,34112
33481,8703,34464
33432,8651,34033
33444,8671,34309
33417,8706,34242
33408,8732,34304
33356,8734,33876
33408,8654,33927
33392,8685,33686
33428,8670,34100
33432,8737,33937
33452,8643,33951
33444,8652,33612
33448,8675,33638
33396,8693,33813
33440,8679,33340
33412,8685,33577
33364,8760,33540
33312,8709,33508
33332,8785,33308
33336,8637,33309
33328,8644,33303
33412,8681,33285
33440,8675,33252
33369,8715,33229
33352,8663,33127
33413,8691,33043
33372,8676,33006
33384,8683,33061
33472,8777,32887
33478,8638,32871
33492,8651,32830
33484,8684,32892
33493,8678,32748
33484,8707,32782
33452,8764,32630
33344,8663,32713
33348,8666,32549
33420,8692,32457
33360,8645,32364
33334,8657,32395
33300,8644,32240
33256,8656,32398
33268,8673,32258
33248,8735,32133
33224,8661,32037
33228,8686,32144
33237,8781,32000
33232,8673,32180
33265,8675,32007
33293,8730,31885
33336,8645,31836
33328,8679,31904
33340,8655,31759
33324,8663,31806
33356,8687,31775
33336,8769,31696
33360,8682,31791
33390,8732,31533
33372,8650,31584
33352,8677,31508
33317,8644,31528
33306,8676,31498
33312,8668,31410
33261,8660,31549
33373,8660,31393
33392,8682,31255
33288,8649,31378
33073,8661,31164
33040,8641,31221
33120,8654,31207
33224,8698,30965
33232,8650,31142
33216,8701,31232
33192,8673,31118
33181,8716,30889
33236,8665,31005
33236,8685,30874
33156,8649,30996
33110,8660,30872
33094,8686,30826
33036,8644,30848
33104,8690,30687
33174,8651,30708
33232,8697,30878
33224,8666,30693
33212,8685,30661
33220,8648,30660
33181,8669,30548
33172,8642,30653
33112,8665,30633
33126,8644,30544
33205,8645,30424
33312,8670,30437
33340,8699,30184
33380,8662,30524
33344,8668,30372
33284,8693,30367
33244,8646,30369
33252,8656,30254
33292,8700,30273
33380,8659,30016
33376,8716,30148
33336,8652,30304
33380,8675,30204
33408,8717,30081
33300,8650,30148
33208,8678,30132
33228,8700,30042
33296,8644,30144
33328,8674,30045
33380,8634,29804
33340,8675,30061
33300,8644,29981
33300,8684,29884
33376,8656,29946
33352,8683,29766
33268,8642,29905
33260,8674,29762
33248,8669,29878
33284,8633,29769
33236,8674,29953
33288,8649,29748
33428,8675,29813
33380,8652,29644
33358,8704,29693
33324,8687,29783
33184,8649,29816
33124,8654,29744
33061,8636,29584
33060,8655,29662
33152,8702,29545
33148,8651,29665
33021,8685,29667
32744,8655,29567
32510,8687,29559
32152,8719,29473
31668,8703,29425
31153,8645,29521
30574,8676,29254
29920,8655,29380
29684,8687,29473
30364,8647,29572
32464,8683,29292
35744,8655,29415
39368,8676,29370
43064,8724,29368
46848,8639,29240
50156,8649,29344
52876,8796,29240
54648,8662,29447
54336,8705,29167
51836,8668,29255
49276,8733,29260
47196,8669,29126
45092,8681,29215
43712,8643,29180
42516,8671,29060
41112,8699,29248
39432,8623,29109
37476,8644,28965
35572,8690,29093
33990,8630,29012
32732,8663,28984
31984,8702,28940
31417,8664,28661
31005,8708,28812
30688,8661,28813
30432,8684,28804
30272,8641,28596
30086,8665,28879
29976,8638,28664
29908,8691,28708
29890,8646,28660
29860,8667,28589
29804,8658,28645
29760,8669,28621
29684,8682,28577
29732,8641,28387
29740,8672,28620
29612,8650,28745
29590,8685,28580
29558,8667,28596
29592,8696,28484
29673,8649,28418
29716,8681,28301
29708,8653,28596
29728,8673,28489
29760,8686,28448
29753,8634,28405
29796,8652,28268
29836,8634,28283
29884,8673,28326
29920,8651,28272
29880,8684,28107
29878,8713,28313
29864,8680,28001
29898,8707,28104
29924,8641,27908
29980,8669,28069
30004,8632,27820
30020,8647,27901
30040,8698,27764
30048,8677,27927
30016,8687,27777
30084,8653,27580
30048,8668,27756
30136,8701,27572
30181,8637,27356
30208,8668,27596
30232,8674,27402
30232,8632,27220
30240,8658,27383
30216,8747,27236
30180,8659,27156
30164,8681,27308
30180,8722,27173
30200,8647,27041
30304,8670,27360
30380,8634,27203
30433,8650,27010
30476,8660,27090
30286,8681,27167
30308,8647,27036
30264,8676,27028
30304,8691,27132
30356,8653,27172
30284,8652,27120
30240,8664,27052
30256,8635,27236
30284,8651,27186
30348,8674,27154
30408,8644,27271
30442,8689,27221
30404,8659,27052
30336,8682,27372
30341,8656,27277
30284,8674,27160
30268,8695,27396
30288,8644,27395
30306,8684,27216
30332,8636,27532
30320,8658,27494
30356,8654,27316
30372,8658,27677
30328,8677,27532
30364,8652,27645
30368,8668,27442
30384,8645,27657
30357,8656,27646
30352,8687,27772
30344,8640,27820
30392,8675,27700
30440,8694,27846
30524,8652,27919
30568,8686,27801
30597,8711,27964
30648,8673,27890
30680,8686,28149
30688,8638,28001
30760,8665,28071
30816,8733,28185
30800,8644,28070
30932,8686,28061
30892,8684,28148
30800,8740,28052
30820,8687,28309
30972,8713,28167
31080,8658,28271
31128,8689,28264
31165,8639,28208
31144,8669,28374
31232,8642,28184
31376,8669,28497
31517,8736,28423
31620,8656,28447
31732,8672,28369
31908,8681,28268
32037,8637,28542
32188,8650,28430
32348,8674,28444
32460,8732,28648
32556,8640,28389
32704,8672,28551
32820,8654,28583
32888,8677,28436
32984,8701,28838
33048,8647,28695
33157,8684,28750
33256,8629,28618
33328,8662,28828
33332,8651,28813
33317,8759,28724
33396,8679,28886
33456,8693,28868
33612,8649,28630
33648,8683,28932
33616,8640,28805
33640,8654,28916
33672,8660,29028
33740,8620,28856
33782,8642,28999
33796,8740,28906
33728,8649,29047
33700,8696,29024
33656,8681,29052
33697,8700,29067
33720,8646,29097
33724,8711,29077
33732,8637,28963
33744,8670,29235
33788,8622,29060
33704,8640,28985
33696,8695,29303
33877,8641,29214
33908,8655,29124
33818,8691,29092
33652,8633,29240
33646,8651,29212
33616,8671,29260
33598,8615,29185
33600,8638,29246
33660,8684,29077
33740,8637,29426
33704,8673,29321
33600,8665,29247
33557,8695,29237
33564,8633,29381
33544,8660,29316
33500,8620,29372
33500,8645,29417
33404,8678,29335
33444,8659,29476
33548,8665,29447
33504,8778,29394
33456,8644,29375
33465,8656,29372
33504,8672,29361
33516,8623,29230
33440,8649,29584
33344,8620,29471
33340,8649,29493
33328,8691,29469
33244,8661,29551
33192,8693,29544
33164,8658,29578
33208,8639,29484
33272,8646,29695
33349,8666,29603
33329,8618,29424
33264,8641,29756
33208,8695,29628
33244,8627,29576
33208,8649,29774
33248,8704,29726
33398,8638,29701
33400,8670,29735
33432,8668,29665
33342,8700,29659
33148,8622,29770
33180,8638,29953
33198,8683,29841
33184,8627,29872
33200,8649,29876
33292,8689,29980
33356,8634,29853
33388,8655,29773
33372,8747,30055
33288,8622,29949
33260,8639,30077
33256,8681,30004
33226,8620,30108
33288,8621,30036
33344,8667,30066
33304,8681,30052
33292,8695,30152
33260,8640,29853
33180,8653,30135
33232,8647,29943
33272,8673,30153
33188,8620,29906
33156,8612,30154
33212,8629,29975
33220,8663,30048
33188,8659,30084
33210,8688,30143
33244,8633,30101
33192,8629,30056
33141,8642,29942
33204,8634,30356
33184,8660,30229
33144,8616,29993
33168,8651,30230
33244,8677,30220
33284,8633,30056
33287,8648,30109
33204,8659,30223
33148,8696,30207
33193,8618,30189
33280,8629,30118
33232,8748,30340
33228,8634,30158
33064,8649,29925
32972,8751,30252
33056,8653,30055
33136,8634,30173
33108,8648,30073
33056,8671,30167
33028,8623,30150
33032,8619,30116
33080,8634,30023
33088,8621,30116
33076,8623,29996
32978,8661,30109
33048,8634,30082
33096,8669,30045
33009,8669,30166
32972,8622,30012
32932,8645,29829
33064,8635,30085
32984,8656,29992
32928,8626,29949
32992,8665,29892
33024,8624,29969
33009,8648,29856
33004,8719,29942
32976,8628,29927
32962,8646,29924
33008,8623,29853
33016,8640,29896
33012,8659,29793
33012,8634,29959
32960,8670,29754
32908,8621,29822
32888,8651,29864
32937,8711,29744
32936,8625,29648
32920,8643,29689
32876,8656,29530
32912,8618,29869
32878,8608,29767
32880,8626,29765
32924,8650,29613
32968,8686,29540
32968,8628,29809
32920,8644,29679
32884,8683,29670
32828,8644,29580
32816,8620,29790
32805,8631,29506
32752,8611,29631
32760,8635,29527
32768,8615,29749
32804,8661,29616
32860,8691,29342
32897,8642,29649
32988,8663,29437
32965,8624,29316
32897,8648,29677
32908,8660,29540
32800,8639,29304
32736,8612,29447
32744,8634,29575
32753,8622,29568
32804,8656,29534
32892,8738,29279
32856,8657,29489
32852,8666,29524
32840,8622,29524
32812,8619,29466
32800,8625,29448
32832,8670,29264
32812,8649,29553
32752,8681,29365
32788,8625,29493
32724,8645,29521
32824,8677,29382
32832,8623,29249
32824,8644,29529
32800,8669,29432
32752,8608,29348
32701,8639,29524
32796,8612,29530
32824,8651,29358
32829,8625,29469
32877,8654,29487
32861,8628,29364
32820,8635,29513
32821,8677,29492
32801,8608,29499
32788,8614,29551
32768,8644,29524
32736,8637,29556
32773,8707,29495
32808,8628,29399
32832,8649,29470
32824,8626,29516
32800,8647,29510
32808,8616,29596
32788,8622,29528
32732,8663,29447
32728,8613,29679
32752,8636,29544
32760,8706,29398
32752,8661,29608
32744,8631,29477
32772,8647,29575
32792,8659,29536
32756,8609,29677
32672,8620,29620
32581,8649,29691
32609,8605,29553
32648,8625,29506
32672,8671,29774
32628,8625,29664
32540,8662,29594
32562,8667,29669
32500,8615,29673
32429,8639,29600
32392,8664,29657
32432,8604,29511
32364,8624,29860
32320,8674,29716
32356,8613,29509
32388,8662,29860
32388,8647,29785
32368,8684,29714
32326,8616,29744
32270,8634,29847
32208,8613,29829
32156,8625,29736
32270,8632,29625
32392,8616,29989
32512,8636,29932
32532,8764,29845
32480,8661,29989
32536,8677,29991
32556,8617,30059
32572,8637,29959
32592,8606,30051
32616,8625,30057
32560,8605,30080
32540,8669,30103
32520,8620,30052
32606,8639,30120
32612,8741,29953
32660,8659,30311
32642,8704,30112
32616,8641,30284
32524,8651,30295
32496,8606,30198
32525,8631,30343
32492,8612,30392
32508,8640,30300
32580,8722,30198
32649,8656,30606
32668,8662,30518
32612,8622,30557
32630,8631,30708
32580,8746,30606
32508,8615,30660
32461,8673,30612
32432,8607,30609
32440,8647,30772
32448,8664,30831
32472,8627,30791
32546,8623,30792
32576,8630,30836
32500,8667,30678
32462,8603,31076
32480,8637,31024
32480,8676,30964
32484,8640,31117
32505,8659,30970
32508,8619,31252
32480,8655,31184
32401,8615,31104
32388,8645,31380
32340,8608,31341
32356,8643,31187
32384,8621,31381
32421,8656,31415
32408,8607,31477
32416,8634,31421
32378,8757,31668
32160,8656,31521
31792,8650,31628
31542,8648,31717
31116,8658,31589
30592,8610,31461
29836,8637,31879
29016,8607,31681
28637,8643,31848
28812,8624,31893
30469,8650,31807
33274,8673,31948
36660,8618,32005
40224,8632,31872
44168,8713,32060
47920,8628,32080
51220,8646,32068
53644,8589,32169
54648,8635,32126
53192,8798,32263
50244,8638,32276
47808,8657,32239
45552,8609,32431
43600,8626,32309
42144,8597,32391
40720,8631,32381
39104,8627,32324
37261,8594,32476
35188,8618,32406
33368,8737,32661
32063,8622,32534
31174,8645,32492
30492,8692,32512
30045,8620,32639
29784,8669,32438
29564,8620,32804
29280,8650,32564
29093,8604,32436
29068,8623,32919
29009,8647,32833
29000,8701,32903
28908,8627,32852
28693,8639,32868
28574,8666,32908
28496,8608,32993
28484,8615,33044
28480,8649,32878
28449,8604,33260
28549,8616,33302
28666,8662,33495
28708,8621,33414
28712,8635,33556
28749,8615,33369
28784,8646,33316
28792,8642,33700
28660,8603,33637
28552,8616,33758
28636,8642,33720
28720,8609,33726
28792,8634,33644
28808,8683,33518
28812,8616,33900
28937,8653,33554
28980,8678,34028
28920,8613,33898
28873,8661,33625
28864,8614,33959
28912,8654,33927
28978,8604,33676
29041,8646,34112
29090,8660,34042
29208,8743,34119
29248,8647,33909
29236,8655,34055
29224,8609,34133
29188,8632,34021
29176,8637,34085
29180,8599,34097
29224,8630,34216
29268,8670,34159
29296,8625,34132
29264,8649,34068
29258,8734,34165
29228,8616,34361
29129,8619,34252
29124,8672,34161
29188,8614,34342
29324,8645,34276
29452,8609,34022
29465,8636,34449
29476,8620,34300
29536,8639,34468
29500,8683,34597
29444,8611,34511
29376,8638,34567
29376,8646,34743
29428,8599,34744
29417,8613,34780
29496,8663,34852
29625,8638,34924
29700,8661,35079
29716,8634,35087
29514,8668,35129
29309,8614,35169
29428,8636,35252
29472,8644,35324
29437,8600,35332
29496,8617,35604
29596,8648,35551
29688,8616,35572
29724,8653,35652
29778,8664,35743
29812,8617,35886
29632,8643,35858
29690,8681,35685
29676,8633,36084
29676,8657,35964
29728,8601,35788
29744,8628,36245
29776,8677,36197
29846,8624,36356
29896,8659,36508
29924,8620,36404
29956,8674,36573
30052,8616,36684
30096,8636,36668
30144,8662,36380
30169,8604,36956
30205,8626,36833
30204,8615,36948
30240,8664,36972
30310,8628,37224
30408,8668,37185
30444,8644,37167
30442,8613,37263
30428,8622,37305
30476,8606,37444
30524,8635,37530
30640,8727,37399
30761,8642,37607
30844,8656,37628
30884,8676,37725
31000,8620,37785
31137,8635,37697
31192,8712,37511
31284,8610,38001
31192,8625,37886
31237,8704,37703
31372,8610,38141
31636,8644,38143
31872,8613,38212
31996,8631,38224
32102,8620,38456
32168,8642,38233
32052,8635,38069
32120,8666,38616
32236,8592,38532
32372,8606,38601
32568,8621,38547
32712,8677,38220
32788,8612,38765
32876,8628,38633
32932,8644,38614
32929,8669,38838
32948,8598,38841
32916,8641,38877
32964,8590,38994
33068,8612,38944
33108,8655,38894
33096,8606,38933
33128,8621,39028
33192,8628,39242
33256,8715,38991
33164,8634,39145
33080,8676,39148
33088,8603,39184
33053,8635,39259
32920,8585,39318
32928,8613,39310
33016,8654,39344
33110,8606,39468
33068,8641,39370
33072,8669,38989
33160,8630,39512
33192,8647,39511
33204,8622,39508
33160,8658,39137
33080,8597,39703
32924,8615,39564
32844,8665,39372
32880,8614,39780
32808,8649,39559
33012,8601,39732
33180,8615,39710
33244,8590,39873
33216,8610,39779
33212,8677,39815
33216,8619,39878
33140,8634,39967
33112,8601,39798
33076,8620,39943
33124,8683,39988
33024,8625,40096
32932,8645,40038
32964,8586,39788
32972,8612,40126
32920,8584,40041
32888,8613,40081
32896,8624,40277
32896,8599,40061
32916,8607,39936
32844,8633,40384
32860,8601,40192
32932,8617,40101
32925,8647,40436
32900,8605,40197
32836,8661,40327
32744,8610,39991
32732,8593,40334
32756,8612,40550
32804,8604,40341
32748,8630,40440
32812,8598,40160
32852,8612,40647
32832,8595,40470
32868,8593,40141
32884,8631,40613
33020,8581,40628
33184,8614,40605
33208,8601,40244
33160,8628,40820
33028,8665,40566
32910,8637,40700
32868,8601,40252
32896,8624,40892
32908,8639,40685
32967,8585,40289
32829,8604,40967
32824,8676,40836
32788,8606,40785
32796,8674,40877
32904,8632,40900
33052,8676,40815
32990,8597,40428
32948,8621,40830
32985,8642,40697
32880,8580,40966
32908,8603,40991
32945,8594,41192
32916,8593,40615
32900,8639,41040
32824,8645,41024
32846,8601,41232
32784,8606,41076
32816,8624,41060
32871,8584,40937
32892,8594,41077
32928,8644,41223
33001,8590,41100
33080,8609,41095
33032,8659,40966
32956,8597,40633
32892,8629,41262
32840,8651,41045
32872,8581,40612
32848,8623,41095
32780,8583,41156
32812,8619,41018
32900,8583,41026
32912,8611,41158
32896,8601,40967
32820,8631,41038
32804,8653,40996
32888,8593,41165
32860,8617,40908
32872,8580,40980
32892,8593,40801
32836,8579,41077
32784,8617,40804
32765,8592,40916
32736,8629,40868
32732,8597,41032
32808,8627,40897
32836,8614,40912
32908,8637,40772
32864,8579,40772
32780,8611,40716
32828,8580,40772
32946,8617,40700
32892,8646,40644
32868,8613,40790
32968,8644,40615
32992,8596,40234
32968,8611,40729
32932,8661,40564
32960,8595,40489
32904,8597,40487
32836,8583,40455
32744,8622,40068
32784,8647,40566
32748,8598,40308
32784,8631,40353
32836,8601,40309
32844,8590,40321
32865,8612,39926
32900,8581,40399
32864,8599,40236
32824,8641,40030
32812,8591,40304
32820,8620,40036
32740,8599,40089
32865,8631,40093
32928,8679,40223
32872,8614,39964
32648,8718,40012
32609,8592,39530
32657,8574,39919
32678,8594,40088
32765,8641,39852
32732,8587,39487
32768,8614,39929
32648,8601,39768
32636,8623,39808
32709,8628,39742
32760,8581,39902
32760,8602,39687
32801,8577,39606
32812,8617,39820
32808,8604,39583
32776,8626,39290
32752,8658,39635
32722,8612,39564
32784,8647,39278
32862,8589,39677
32924,8604,39508
32878,8636,39589
32716,8579,39421
32572,8615,39004
32578,8582,39584
32592,8610,39380
32636,8598,39176
32594,8618,39505
32508,8649,39354
32536,8590,39376
32520,8594,39279
32564,8580,38875
32556,8589,39341
32488,8677,39144
32508,8590,38804
32448,8611,39265
32504,8666,39193
32617,8611,39229
32748,8648,39103
32864,8595,39149
32876,8607,39233
32805,8576,39042
32762,8589,38917
32760,8581,39167
32764,8596,39061
32732,8590,38992
32692,8608,38860
32628,8689,38591
32676,8612,39057
32526,8641,38828
32568,8580,38676
32748,8601,39046
32956,8633,38901
32984,8577,39008
32988,8597,38852
33060,8627,38973
33164,8599,38800
33196,8629,38608
33144,8652,38783
33032,8606,38292
33008,8626,38735
32956,8580,38487
32968,8600,38817
32909,8588,38281
32744,8640,38656
32791,8589,38599
32852,8615,38665
32776,8705,38519
32896,8622,38470
32929,8644,38545
33020,8579,38477
33001,8603,38509
32976,8569,38306
32864,8596,38381
32908,8576,38456
33021,8619,38305
33120,8641,37938
33148,8589,38363
33160,8622,38244
33065,8632,38368
32996,8581,38228
33008,8574,38300
33024,8603,38166
33076,8570,38079
33161,8592,38018
33216,8638,37956
33212,8588,38021
33200,8603,37957
33092,8644,38057
32933,8580,37909
32724,8594,37954
32584,8603,37797
32368,8628,37780
32076,8575,37502
31712,8609,37552
31372,8629,37577
30928,8593,37453
30340,8611,37312
29982,8667,37423
30036,8604,37237
32112,8618,37252
35400,8567,37173
39092,8604,37373
42708,8568,37212
46320,8590,37198
49516,8644,37076
51900,8580,37088
53176,8629,36980
52448,8629,37012
49968,8585,36832
47780,8601,36828
45708,8631,36672
44152,8573,36454
43392,8609,36615
42568,8570,36444
41340,8614,36286
39768,8580,36416
38008,8654,36124
36196,8620,35725
34604,8638,36143
33360,8604,35906
32464,8574,35444
31861,8602,35836
31452,8629,35609
31237,8591,35388
31060,8685,35469
30912,8607,35324
30806,8590,35012
30700,8619,35106
30628,8586,34885
30568,8609,34900
30564,8571,34790
30509,8602,34594
30504,8610,34581
30508,8576,34605
30508,8608,34335
30512,8593,34084
30512,8607,34297
30506,8642,34148
30488,8612,33904
30544,8628,34123
30524,8572,33905
30580,8587,33820
30684,8617,33670
30744,8572,33351
30728,8611,33588
30728,8588,33365
30740,8608,33227
30720,8651,33031
30718,8586,32958
30776,8600,32912
30816,8680,32815
30828,8572,32812
30917,8586,32581
30960,8616,32599
30896,8586,32382
30864,8601,32276
30944,8633,32001
31005,8588,31852
31033,8612,32028
30984,8581,31800
30976,8587,31605
31024,8634,31472
31048,8566,31358
31044,8599,31493
31016,8585,31268
31009,8605,31070
31032,8589,31173
31060,8638,30844
31076,8586,30875
31152,8629,30732
31168,8580,30575
31169,8572,30567
31168,8603,30524
31092,8575,30499
31048,8608,30241
31092,8585,30039
31192,8612,30260
31301,8594,30041
31380,8583,29980
31388,8596,29887
31344,8627,29749
31356,8570,29915
31325,8589,29841
31370,8640,29913
31440,8581,29738
31496,8620,29807
31460,8647,29545
31468,8598,29633
31444,8608,29676
31463,8709,29565
31444,8577,29432
31408,8608,29598
31401,8571,29437
31389,8651,29444
31416,8601,29292
31425,8593,29324
31400,8629,29506
31440,8663,29396
31464,8602,29151
31452,8577,29272
31444,8602,29460
31450,8574,29204
31460,8590,29318
31368,8690,29330
31348,8607,29172
31384,8595,29255
31540,8609,29285
31540,8655,29185
31532,8607,29255
31504,8586,29313
31572,8631,29356
31622,8576,29217
31652,8608,29002
31660,8577,29223
31712,8604,29072
31765,8646,29172
31852,8594,29175
31872,8614,29116
31933,8585,29163
31968,8601,28896
31990,8578,29080
32020,8616,29172
32068,8569,29122
32112,8604,29012
32152,8589,29208
32204,8628,29096
32272,8709,28983
32376,8625,29120
32500,8668,29032
32588,8598,28884
32692,8609,29063
32672,8701,28796
32724,8586,29098
32820,8644,28993
32928,8583,28932
33058,8603,29021
33196,8644,29004
33316,8599,28994
33364,8619,28994
33436,8581,28980
33485,8603,28903
33537,8612,28844
33600,8569,28784
33617,8591,29014
33708,8676,28769
33736,8590,29090
33808,8604,28737
33960,8678,29092
34072,8595,28934
34076,8577,28717
34152,8580,28975
34112,8628,28892
34032,8596,28716
33976,8631,29056
33974,8599,28800
34004,8623,28706
34024,8581,29055
34048,8601,28928
34072,8575,28723
34093,8584,28801
34193,8571,28686
34196,8576,28940
34164,8564,28884
34156,8603,28996
34208,8636,28876
34208,8580,28916
34240,8617,28836
34252,8579,28788
34164,8596,28895
34057,8567,28884
34064,8584,28790
34034,8561,28876
34060,8584,28620
34064,8625,28980
34028,8575,28890
33996,8616,28868
33948,8580,28896
33952,8608,28880
33960,8635,28773
33948,8585,28700
33896,8620,29063
33880,8575,28937
33897,8598,29068
33885,8556,28955
33868,8584,28857
33888,8721,28935
33936,8574,28788
33972,8602,29083
33976,8568,28998
33976,8599,29001
33896,8623,28929
33780,8572,29025
33732,8607,28996
33768,8561,28988
33820,8598,28935
33856,8570,29116
33812,8612,29063
33792,8621,29225
33704,8569,29119
33610,8583,29118
33569,8623,29090
33524,8568,29154
33521,8556,29085
33588,8581,29326
33616,8566,29191
33649,8600,29096
33660,8574,29388
33624,8593,29321
33558,8715,29284
33524,8594,29349
33517,8671,29418
33496,8583,29380
33508,8615,29397
33493,8576,29519
33568,8593,29634
33532,8675,29572
33528,8573,29628
33580,8587,29632
33564,8573,29476
33500,8581,29825
33464,8602,29762
33436,8558,29807
33436,8584,29766
33448,8611,29624
33476,8567,29985
33508,8599,29889
33492,8657,29863
33468,8596,29940
33436,8611,30004
33448,8563,30108
33412,8583,30064
33369,8582,30091
33372,8555,30021
33416,8596,30144
33437,8604,30215
33488,8571,30226
33468,8588,30241
33392,8622,30278
33332,8567,30394
33312,8587,30324
33336,8595,30388
33192,8551,30324
33212,8587,30293
33296,8604,30365
33396,8566,30416
33440,8575,30576
33492,8603,30463
33364,8575,30543
33352,8596,30449
33344,8612,30237
33348,8555,30654
33320,8595,30509
33340,8575,30274
33308,8614,30606
33260,8566,30460
33244,8600,30584
33252,8567,30531
33253,8589,30501
33240,8626,30340
33136,8558,30661
33184,8562,30376
33192,8597,30756
33188,8550,30668
33184,8575,30655
33196,8634,30647
33193,8576,30607
33260,8602,30592
33260,8569,30464
33256,8580,30856
33224,8648,30519
33181,8557,30888
33128,8580,30799
33065,8553,30938
33135,8564,30823
33140,8610,30885
33168,8568,30850
33173,8585,30802
33136,8569,30752
33133,8577,30614
33152,8584,31013
33180,8553,30918
33156,8564,31029
33140,8583,30949
33133,8580,31099
33124,8651,30976
33152,8579,31048
33164,8592,30972
33212,8663,30917
33128,8557,30956
33088,8575,30908
33093,8656,31008
33092,8546,30904
33112,8561,30880
33132,8623,30902
33144,8582,31087
33184,8620,31025
33169,8568,31143
33172,8605,30785
33168,8590,30921
33148,8558,30892
33072,8577,31000
33008,8609,30786
33060,8548,31012
33048,8575,30823
33032,8558,31133
33012,8581,31064
32973,8621,31049
32956,8566,30996
32964,8583,31013
32980,8557,30968
33044,8581,30975
33072,8605,30947
33092,8546,31020
33088,8566,31032
33056,8654,30983
33020,8591,31239
33080,8612,31136
33072,8559,31135
33008,8596,31134
32940,8613,31127
32880,8549,31132
32848,8570,31060
32784,8547,31156
32736,8575,31180
32900,8666,31205
32940,8577,31135
32936,8599,30975
32884,8572,31194
32780,8580,30929
32741,8580,31069
32788,8605,31181
32808,8548,31120
32724,8567,31132
32557,8604,31226
32588,8559,31213
32728,8591,31342
32848,8608,31249
32932,8564,31312
32940,8564,31146
32968,8575,31116
33004,8601,31173
32992,8547,31192
32893,8572,31143
32932,8576,31150
32952,8562,31148
32981,8577,31181
33034,8616,31105
33140,8565,31167
33173,8589,31101
33124,8593,31312
33100,8548,31308
33088,8582,31404
33024,8588,31325
32968,8556,31350
32978,8585,31175
32992,8625,31292
33068,8564,31453
33112,8581,31327
33094,8563,31286
33108,8568,31198
33040,8601,31186
33060,8552,31273
33072,8572,31193
33056,8551,31300
33100,8568,31079
33136,8613,31445
33120,8563,31062
33118,8576,31457
33037,8604,31353
32992,8550,31423
33045,8582,31334
33100,8572,31447
33164,8545,31359
33172,8558,31484
33156,8582,31356
33156,8663,31358
32972,8570,31352
33008,8588,31437
33000,8623,31350
33060,8546,31364
33128,8551,31367
33124,8577,31439
33128,8566,31072
33116,8617,31295
33004,8553,31229
32996,8581,31456
32996,8561,31356
32952,8574,31402
32818,8594,31327
32576,8549,31256
32313,8569,31301
31972,8582,31247
31492,8548,31296
30904,8549,31343
30144,8594,31324
29576,8588,31423
29557,8576,31148
30940,8579,31300
33900,8594,31267
37512,8616,31238
41400,8536,31000
45528,8572,31326
49812,8557,31168
53640,8570,31150
56916,8612,31152
59060,8548,31199
59260,8549,31223
56808,8576,31180
53400,8631,31109
50516,8538,31118
47520,8577,31056
45176,8594,31089
43336,8530,31097
41432,8553,31221
39428,8561,31063
37236,8615,31128
35148,8555,31029
33344,8588,31087
32066,8595,30924
31124,8546,30895
30468,8544,30906
30012,8544,30976
29688,8578,30572
29449,8570,30772
29300,8595,30759
29168,8563,30765
29017,8598,30743
28932,8602,30752
28996,8553,30671
28968,8579,30608
28912,8544,30764
28816,8557,30821
28712,8545,30664
28644,8559,30524
28632,8607,30663
28576,8564,30517
28592,8596,30904
28644,8562,30713
28672,8581,30578
28700,8552,30885
28692,8562,30726
28652,8633,30630
28704,8549,30577
28676,8570,30551
28756,8557,30521
28864,8568,30364
28904,8596,30695
28956,8565,30537
28996,8588,30388
29000,8615,30660
29008,8564,30492
29013,8580,30373
29046,8544,30524
29104,8567,30373
29152,8559,30137
29134,8598,30429
29142,8621,30260
29168,8572,30133
29216,8611,30318
29244,8576,30123
29277,8583,30004
29284,8546,29912
29324,8578,29793
29337,8604,29961
29342,8585,29876
29376,8617,29887
29456,8565,29839
29532,8590,29763
29532,8557,29639
29540,8584,29583
29568,8593,29592
29612,8547,29612
29622,8544,29713
29620,8578,29588
29664,8556,29476
29596,8581,29421
29576,8617,29308
29624,8560,29406
29648,8572,29500
29624,8622,29443
29566,8554,29416
29592,8583,29476
29653,8556,29461
29712,8574,29461
29740,8557,29258
29780,8581,29396
29788,8609,29260
29760,8561,29536
29694,8584,29529
29684,8592,29456
29716,8548,29596
29716,8575,29588
29768,8576,29499
29790,8549,29703
29668,8581,29660
29628,8593,29646
29628,8642,29646
29682,8566,29600
29704,8582,29796
29697,8555,29775
29712,8567,29591
29736,8604,29901
29788,8544,29844
29752,8572,29778
29764,8602,29904
29840,8564,29877
29928,8596,29720
29964,8565,30017
29996,8594,29934
30012,8609,30018
30020,8551,29914
30032,8568,30121
30036,8593,29950
29992,8586,30065
30057,8607,30146
30116,8568,30078
30164,8587,29892
30212,8621,30296
30288,8559,30214
30372,8580,30128
30376,8615,30158
30368,8547,30062
30528,8566,30420
30664,8557,30237
30772,8589,30308
30804,8594,30431
30860,8572,30317
30948,8568,30296
31108,8580,30286
31204,8559,30413
31336,8563,30377
31488,8620,30620
31647,8549,30484
31780,8580,30255
31981,8556,30631
32174,8581,30512
32340,8615,30415
32472,8563,30664
32584,8579,30609
32680,8619,30417
32732,8575,30698
32904,8583,30669
33004,8544,30738
33124,8576,30693
33285,8611,30827
33360,8560,30811
33458,8582,30724
33552,8607,30784
33593,8548,30776
33601,8568,30749
33656,8556,30802
33748,8581,30775
33828,8537,30841
33876,8552,31036
33952,8626,30983
33932,8580,30896
33936,8587,30900
33896,8553,30776
33882,8563,31108
33874,8650,31063
33872,8575,31042
33892,8567,31064
33936,8532,30918
33936,8570,31239
33932,8548,31153
33996,8572,31115
34052,8551,31025
34087,8566,31159
34032,8679,31252
33868,8541,31206
33880,8569,31184
33856,8564,31101
33856,8535,31226
33888,8550,31284
33944,8573,31200
33932,8677,31074
33964,8551,31367
33888,8562,31292
33812,8606,31342
33773,8538,31260
33761,8548,31233
33736,8620,31468
33736,8533,31337
33712,8557,31269
33724,8612,31321
33732,8548,31302
33713,8559,31292
33648,8577,31191
33548,8601,31304
33476,8533,31367
33596,8569,31596
33632,8582,31488
33572,8556,31468
33588,8592,31403
33584,8542,31535
33572,8589,31478
33580,8649,31465
33592,8566,31604
33584,8598,31636
33536,8547,31560
33528,8576,31397
33556,8530,31821
33560,8551,31711
33524,8538,31668
33476,8577,31920
33500,8582,31834
33500,8549,31817
33500,8561,31901
33432,8604,31911
33436,8548,31951
33444,8575,31826
33320,8530,32016
33400,8548,31946
33432,8529,32189
33508,8555,31973
33520,8599,32120
33552,8545,32321
33553,8581,32236
33380,8577,32301
33300,8541,32297
33332,8532,32349
33360,8544,32352
33360,8591,32333
33308,8538,32356
33228,8563,32497
33232,8634,32681
33280,8550,32599
33272,8572,32559
33248,8660,32804
33248,8559,32722
33244,8568,32676
33256,8524,32930
33252,8559,32800
33228,8536,32836
33224,8559,32964
33240,8605,32895
33216,8548,32775
33232,8581,33091
33204,8545,33012
33088,8575,32944
33140,8594,33233
33172,8538,33060
33212,8544,33068
33232,8587,33109
33256,8541,33201
33305,8572,33200
33280,8548,33260
33248,8596,33245
33232,8538,33079
33236,8565,33444
33225,8532,33300
33236,8546,33287
33248,8527,33516
33224,8557,33381
33242,8564,33340
33296,8672,33447
33260,8547,33437
33204,8569,33532
33204,8572,33415
33304,8595,33389
33324,8527,33592
33276,8556,33508
33205,8573,33594
33132,8526,33476
33205,8552,33440
33201,8595,33511
33248,8546,33200
33248,8578,33655
33232,8604,33471
33216,8531,33451
33228,8563,33465
33274,8563,33266
33300,8535,33452
33256,8590,33516
33324,8536,33215
33188,8576,33671
33181,8570,33541
33192,8603,33627
33172,8546,33518
33196,8558,33447
33214,8533,33580
33236,8545,33493
33264,8525,33271
33260,8552,33650
33240,8613,33525
33248,8568,33284
33260,8592,33638
33285,8543,33506
33289,8575,33208
33252,8573,33668
33217,8524,33435
33240,8540,33517
33156,8584,33612
33224,8531,33497
33260,8553,33497
33268,8585,33492
33276,8549,33471
33316,8547,33370
33308,8586,33519
33264,8533,33466
33214,8560,33377
33172,8581,33508
33196,8553,33428
33104,8587,33641
32964,8552,33432
33104,8573,33392
33168,8546,33620
33197,8557,33498
33168,8542,33534
33148,8547,33404
33148,8558,33481
33136,8527,33440
33108,8538,33397
33040,8557,33433
33021,8617,33473
33052,8568,33428
33100,8596,33344
33184,8535,33153
33168,8548,33565
33116,8587,33418
33032,8526,33196
32996,8554,33605
33001,8663,33484
32980,8534,33461
32976,8553,33409
32968,8609,33393
32972,8543,33609
32997,8582,33420
33061,8537,33168
33077,8546,33596
33086,8557,33465
33060,8521,33407
33082,8561,33535
33086,8571,33476
33024,8541,33388
33012,8569,33540
33020,8542,33480
32940,8576,33276
32920,8572,33572
32846,8528,33473
32848,8535,33514
32820,8555,33396
32824,8580,33364
32824,8529,33605
32829,8576,33335
32844,8539,33466
32828,8570,33250
32789,8541,33603
32641,8540,33423
32676,8544,33208
32716,8584,33518
32712,8518,33351
32640,8541,33150
32632,8574,33481
32649,8539,33457
32612,8551,33501
32556,8572,33317
32616,8671,33145
32664,8538,33591
32728,8548,33424
32760,8581,33277
32816,8526,33596
32813,8553,33477
32808,8559,33599
32792,8540,33455
32776,8557,33396
32832,8578,33455
32876,8537,33472
32864,8573,33404
32860,8556,33350
32892,8581,33296
32917,8516,33576
32908,8557,33484
32964,8594,33484
32972,8534,33378
32942,8556,33224
32880,8546,33527
32888,8553,33388
32864,8599,33177
32852,8539,33495
32864,8559,33370
32848,8655,33429
32920,8519,33406
32924,8539,33260
32900,8576,33605
32964,8535,33532
32896,8569,33487
32992,8590,33384
33040,8533,33530
33024,8543,33596
33100,8553,33564
33008,8517,33629
32952,8532,33558
32960,8576,33587
33068,8530,33483
33216,8553,33600
33161,8586,33550
33148,8535,33501
32908,8554,33518
32824,8612,33734
32868,8530,33616
32911,8536,33516
32897,8514,33760
32924,8545,33568
32948,8525,33681
32976,8549,33772
32976,8643,33685
32992,8549,33663
32984,8575,33685
32981,8520,33722
32966,8536,33722
32831,8519,33632
32564,8548,33772
32241,8569,33840
31776,8531,33756
31290,8557,33490
30776,8537,33842
30041,8574,33745
29448,8539,33863
29430,8547,33796
30760,8583,33898
33584,8533,33892
37148,8569,33844
40948,8520,33901
44984,8562,33956
49216,8525,33904
52996,8558,33892
56248,8607,34001
58480,8548,33942
58748,8609,34076
56336,8547,34037
53028,8613,34033
50232,8520,34080
47320,8540,34019
45048,8575,34007
43232,8685,33953
41280,8529,34076
39196,8554,34262
37000,8682,34138
34932,8519,34149
33240,8534,34029
31952,8593,34138
31000,8511,34224
30408,8533,34184
30012,8583,34252
29716,8547,34128
29432,8577,33938
29256,8535,34332
29092,8547,34238
29013,8589,34192
28940,8520,34233
28860,8545,34333
28845,8516,34282
28756,8533,34479
28712,8577,34432
28564,8531,34430
28620,8549,34356
28600,8653,34205
28609,8565,34671
28642,8568,34577
28604,8521,34514
28636,8538,34653
28644,8519,34645
28704,8531,34780
28700,8583,34628
28716,8533,34353
28752,8549,34842
28768,8543,34727
28724,8539,34653
28796,8543,34594
28808,8525,34732
28762,8533,34753
28825,8575,34724
28855,8540,34564
28904,8580,34845
28984,8540,34716
29080,8568,34695
29068,8596,34632
29068,8535,34733
29112,8548,34867
29192,8522,34724
29254,8532,34740
29206,8613,34750
29264,8552,34705
29348,8592,34740
29428,8565,34609
29512,8590,34815
29516,8538,34639
29556,8555,34729
29616,8524,34673
29549,8537,34604
29460,8576,34724
29492,8521,34760
29526,8545,34593
29536,8531,34716
29556,8562,34662
29568,8538,34876
29592,8569,34695
29516,8533,34756
29588,8558,34899
29640,8559,34808
29673,8515,34780
29632,8546,34813
29617,8623,34500
29680,8551,34940
29724,8574,34853
29752,8535,34844
29804,8559,34784
29856,8570,34940
29828,8532,35125
29817,8520,35029
29736,8533,34975
29732,8557,34970
29808,8526,34861
29849,8545,35242
29872,8559,35200
29860,8595,35246
29861,8545,35206
29896,8564,34996
29885,8530,35422
29888,8550,35281
29780,8565,35300
29744,8520,35254
29752,8557,35277
29828,8553,35324
29932,8587,35225
29996,8546,35380
29908,8553,35295
30048,8570,35692
29961,8596,35253
29888,8533,35760
29892,8535,35665
29904,8562,35820
29964,8530,35705
30089,8561,35762
30224,8567,35744
30248,8594,35724
30208,8536,35772
30264,8570,35782
30360,8569,35770
30432,8601,35842
30492,8520,35945
30496,8518,36126
30445,8565,36028
30536,8534,36032
30624,8567,35972
30701,8643,35946
30817,8540,36029
30993,8570,36173
31136,8560,36334
31252,8576,35975
31252,8516,36461
31312,8535,36359
31425,8571,36503
31604,8529,36455
31732,8551,36568
31924,8590,36508
32136,8541,36568
32248,8537,36594
32372,8567,36565
32520,8524,36541
32640,8525,36471
32744,8533,36615
32881,8590,36405
33012,8533,36901
33076,8550,36484
33176,8577,36751
33260,8535,36863
33370,8548,36816
33508,8553,36937
33516,8515,37022
33528,8530,37023
33472,8569,37228
33552,8517,37127
33668,8543,37096
33788,8528,37255
33888,8547,37220
33944,8588,37225
33964,8522,37245
33956,8549,37320
33824,8516,37344
33865,8528,37367
33884,8512,37416
33892,8549,37452
33912,8577,37491
33916,8523,37463
33932,8551,37364
33936,8533,37630
33920,8552,37452
33920,8556,37284
33952,8513,37660
33904,8540,37676
33888,8574,37581
33920,8531,37806
33953,8538,37686
33912,8598,37743
34012,8554,37733
34008,8566,37920
34016,8519,37805
33969,8540,37817
33940,8508,37775
33873,8534,38013
33876,8565,37876
33844,8509,37541
33832,8533,38104
33832,8578,37996
33822,8527,37839
33824,8550,38168
33772,8517,37977
33815,8536,38029
33728,8649,37909
33716,8512,38239
33620,8548,38056
33504,8509,38029
33576,8530,38309
33600,8593,38164
33604,8526,38256
33664,8556,38088
33644,8518,38244
33584,8537,38229
33500,8513,38317
33472,8532,38238
33476,8512,37948
33545,8539,38460
33616,8568,38321
33656,8519,38244
33568,8558,38253
33530,8575,38353
33449,8517,38463
33388,8543,38298
33388,8502,38028
33344,8537,38588
33324,8569,38500
33352,8507,38519
33384,8551,38509
33440,8545,38651
33428,8561,38572
33425,8591,38720
33396,8522,38559
33404,8519,38756
33360,8528,38648
33328,8559,38738
33252,8504,38629
33184,8530,38649
33268,8577,38564
33300,8521,38679
33372,8537,38868
33421,8581,38756
33358,8519,38808
33316,8528,38740
33220,8523,38814
33212,8549,38748
33252,8504,38769
33248,8513,38780
33240,8554,38864
33352,8548,38859
33332,8657,38919
33352,8520,38848
33396,8548,38919
33316,8540,38868
33276,8512,38985
33228,8503,38885
33216,8521,39004
33204,8523,38884
33284,8542,39025
33376,8569,38856
33376,8632,38989
33360,8523,38854
33286,8544,38873
33168,8539,38597
33189,8581,38988
33237,8502,38850
33185,8507,38716
33200,8508,38791
33248,8545,38810
33316,8554,38919
33312,8603,38821
33248,8521,38895
33184,8540,38759
33208,8550,38696
33208,8507,38642
33225,8498,38714
33284,8515,38705
33260,8536,38822
33349,8526,38692
33340,8549,38764
33328,8521,38663
33332,8557,38628
33294,8548,38581
33253,8515,38535
33184,8537,38550
33204,8546,38548
33228,8499,38685
33200,8508,38134
33184,8535,38497
33109,8548,38060
33100,8580,38407
33149,8524,38101
33164,8529,38535
33188,8531,38380
33208,8548,38465
33228,8608,38308
33228,8500,38380
33192,8517,38277
33188,8548,38358
33100,8538,37830
33152,8586,38182
33140,8518,37840
33113,8528,38188
33077,8549,37723
33044,8509,38192
33004,8534,38036
33044,8580,37911
33152,8503,38083
33232,8528,37946
33253,8542,38018
33180,8563,37905
33064,8520,37989
33001,8522,37830
32942,8532,37639
32928,8507,37890
32992,8533,37725
33000,8551,37564
33000,8511,37552
33064,8508,37612
33121,8536,37589
33096,8537,37639
33108,8578,37503
33088,8513,37383
33044,8543,37661
33040,8551,37489
33045,8498,37484
33004,8525,37367
32966,8502,37017
32988,8543,37483
32932,8566,37314
32988,8519,37245
33052,8533,37149
33068,8565,37177
33062,8507,37141
33004,8510,37133
32948,8541,37092
32954,8574,36788
32936,8500,37067
32976,8523,36694
32940,8545,37048
33024,8517,37024
33044,8541,37089
33040,8516,36862
33006,8532,36972
33012,8639,36901
33001,8498,37011
32940,8517,36855
32876,8564,36957
32868,8508,36817
32868,8533,36885
32904,8634,36727
32896,8534,36641
32940,8516,36800
33000,8519,36633
33028,8534,36757
32980,8562,36583
32789,8494,36637
32868,8537,36274
32872,8566,36662
32936,8538,36436
32998,8561,36364
32972,8601,36380
32950,8508,36319
32932,8501,36364
32932,8497,36487
32952,8533,36302
32929,8524,36164
32920,8553,36292
32948,8568,36256
32912,8515,36352
32916,8548,36193
32904,8532,36168
32880,8548,35940
32864,8635,36125
32896,8501,36076
32812,8530,36148
32788,8512,36032
32797,8520,36140
32785,8554,35961
32800,8574,36030
32768,8641,35641
32736,8515,35965
32660,8530,35856
32660,8576,35828
32676,8500,35767
32662,8524,35700
32565,8533,35598
32696,8576,35636
32753,8508,35652
32820,8531,35500
32800,8537,35485
32740,8543,35535
32638,8563,35497
32626,8507,35308
32714,8500,35541
32772,8516,35493
32764,8531,35492
32780,8547,35415
32804,8628,35494
32864,8515,35158
32904,8545,35417
32896,8567,35301
32842,8514,35207
32868,8515,35159
32894,8522,35232
32940,8545,35124
32948,8551,35108
32960,8505,35068
32952,8509,34993
32960,8537,35079
32880,8648,34998
32948,8517,34911
32992,8528,34655
33000,8557,35105
32996,8498,34905
32988,8519,34788
32900,8529,34900
32940,8551,34604
32984,8511,34783
32996,8535,34532
32960,8555,34815
32936,8514,34701
32952,8535,34816
32968,8537,34623
32988,8556,34540
32872,8495,34708
32860,8513,34577
32992,8555,34497
33097,8505,34548
33144,8536,34493
33080,8575,34385
33056,8511,34438
33044,8530,34384
33108,8502,34069
33118,8509,34317
33122,8574,34409
33060,8496,34289
33056,8529,34264
32946,8558,34102
32996,8509,34070
33020,8547,34309
33032,8548,34160
33036,8507,34079
32958,8536,33984
32920,8535,34033
32904,8488,34092
32844,8509,33868
32628,8555,33958
32364,8512,33830
32057,8553,33961
31592,8520,33824
31110,8534,33847
30512,8547,33744
29844,8515,33871
29504,8534,33692
29896,8548,33399
31772,8500,33717
34824,8538,33664
38284,8533,33596
41844,8515,33540
45568,8552,33556
48832,8601,33301
51436,8505,33639
53260,8517,33485
53284,8552,33439
51028,8494,33264
48648,8516,33349
46608,8540,33468
44728,8494,33276
43468,8519,32983
42264,8505,33158
40896,8540,33342
39236,8553,33132
37368,8497,33117
35560,8517,32996
33956,8544,33020
32668,8489,32972
31908,8514,32848
31380,8587,32832
31004,8514,32998
30708,8541,32740
30380,8516,32770
30180,8543,32682
30088,8549,32601
30038,8526,32640
29965,8593,32486
29872,8526,32620
29784,8550,32439
29728,8626,32381
29708,8517,32608
29720,8527,32453
29712,8555,32353
29680,8505,32464
29672,8535,32383
29678,8544,32372
29676,8492,32340
29581,8523,32338
29550,8524,32314
29564,8507,32074
29634,8539,32390
29752,8542,32241
29764,8517,32108
29720,8546,32127
29752,8578,32128
29792,8519,32004
29808,8548,32157
29824,8505,31965
29888,8532,31653
29941,8503,31841
30000,8529,31724
30060,8516,31806
30076,8510,31879
30072,8525,31708
30084,8549,31623
30064,8499,31463
30064,8524,31524
30087,8539,31439
30140,8507,31364
30056,8532,31084
30072,8513,31416
30100,8530,31206
30136,8515,30921
30176,8540,31060
30238,8505,31216
30222,8525,30997
30224,8548,30743
30240,8491,30959
30206,8532,30848
30300,8538,30673
30326,8515,30951
30332,8543,30778
30400,8567,30653
30480,8516,30807
30520,8536,30684
30488,8504,30581
30412,8511,30622
30356,8516,30588
30373,8557,30652
30418,8506,30564
30420,8539,30560
30424,8550,30542
30420,8600,30583
30424,8510,30543
30424,8521,30456
30400,8548,30384
30376,8497,30533
30380,8534,30434
30372,8503,30581
30367,8548,30532
30364,8517,30377
30394,8566,30632
30408,8530,30425
30436,8562,30599
30464,8516,30412
30460,8534,30759
30456,8499,30600
30450,8526,30384
30461,8574,30716
30476,8541,30671
30500,8564,30611
30528,8518,30629
30568,8532,30532
30604,8559,30887
30580,8512,30788
30672,8531,30727
30624,8619,30775
30660,8531,30832
30709,8575,30869
30716,8539,30707
30788,8582,30876
30908,8517,30983
30944,8537,30911
30944,8546,30910
30944,8507,30823
30900,8508,30784
30912,8524,31064
31040,8548,30973
31076,8506,30905
31164,8544,30845
31216,8563,30907
31240,8521,31049
31241,8550,31007
31308,8541,31172
31376,8576,31065
31444,8503,31016
31508,8516,31072
31580,8553,31016
31708,8500,30983
31776,8536,31095
31944,8521,31180
32064,8530,31140
32176,8548,31076
32277,8514,31070
32381,8526,31174
32446,8501,31092
32520,8510,31252
32648,8501,31047
32800,8518,31210
32941,8609,31125
33048,8516,31108
33124,8535,31239
33128,8568,31284
33160,8505,31097
33264,8544,30966
33300,8500,31367
33324,8509,31276
33408,8551,31127
33502,8497,31288
33517,8538,31295
33564,8562,31201
33572,8519,31399
33624,8540,31270
33672,8512,31207
33669,8500,31195
33668,8509,31029
33656,8586,31372
33668,8495,31295
33693,8514,31220
33724,8503,31332
33764,8529,31325
33792,8505,31170
33800,8538,31460
33776,8504,31317
33730,8528,31319
33616,8519,31321
33692,8565,31332
33668,8486,31343
33680,8489,31456
33700,8532,31366
33748,8531,31436
33740,8509,31332
33632,8503,31316
33660,8516,31286
33680,8596,31226
33684,8486,31356
33684,8498,31111
33584,8536,31372
33508,8489,31375
33520,8513,31516
33516,8527,31146
33416,8547,31268
33516,8533,31425
33564,8547,31421
33533,8551,31448
33548,8483,31142
33465,8500,31288
33412,8499,31396
33412,8513,31409
33440,8557,31353
33464,8498,31288
33508,8538,31174
33480,8519,31314
33416,8559,31200
33464,8495,31551
33536,8509,31462
33524,8514,31520
33532,8485,31413
33428,8516,31372
33328,8551,31575
33364,8501,31229
33354,8515,31449
33344,8517,31226
33368,8548,31398
33368,8490,31455
33380,8521,31477
33402,8540,31568
33400,8487,31713
33380,8499,31616
33384,8515,31696
33440,8536,31631
33460,8601,31765
33446,8499,31662
33440,8519,31792
33436,8525,31678
33468,8484,31672
33472,8514,31647
33460,8512,31634
33456,8487,31716
33369,8527,31721
33408,8543,31772
33352,8639,31528
33352,8497,31912
33376,8510,31807
33376,8535,31854
33372,8490,31764
33396,8505,31727
33344,8506,31872
33320,8487,31857
33376,8519,31818
33348,8532,31836
33348,8587,31786
33452,8501,31788
33393,8509,31713
33376,8497,31960
33288,8512,31836
33152,8533,31674
33184,8478,32040
33220,8520,31916
33245,8548,31977
33276,8500,31909
33228,8519,31924
33228,8514,31696
33256,8555,31901
33248,8490,31813
33264,8508,31813
33217,8529,31588
33208,8475,32007
33200,8508,31892
33128,8544,31924
33104,8494,31842
33136,8512,31873
33169,8509,31844
33138,8516,31738
33132,8591,31535
33132,8493,31952
33156,8504,31820
33097,8500,31874
33032,8525,31599
33092,8487,31729
33116,8530,31500
33124,8538,31812
33152,8556,31572
33132,8489,31652
33152,8518,31632
33140,8515,31569
33164,8549,31639
33148,8506,31551
33142,8543,31380
33116,8483,31564
33136,8509,31382
33118,8556,31552
33128,8495,31595
33108,8525,31611
33080,8484,31452
33048,8497,31348
33024,8539,31566
32984,8481,31552
33047,8500,31640
33064,8532,31520
33008,8497,31641
32985,8503,31503
33104,8539,31544
33121,8490,31396
33092,8513,31361
33056,8512,31425
33020,8518,31480
33036,8554,31205
33018,8480,31271
32968,8496,31305
32944,8510,31337
32956,8536,31474
32988,8562,31345
33016,8494,31229
32976,8490,31252
32988,8496,31300
32944,8519,31303
32944,8564,31308
32940,8483,31313
32932,8486,31217
32940,8490,31262
32964,8532,31326
32972,8527,31248
32952,8493,31156
32928,8484,31198
32900,8494,31145
32917,8532,31189
32944,8471,31301
32929,8497,30916
32948,8508,31030
32933,8548,30915
32823,8499,31271
32850,8510,30871
32868,8544,31161
32896,8485,30852
32880,8483,30992
32876,8492,31022
32832,8518,31059
32770,8474,31093
32728,8501,31149
32749,8493,31052
32800,8521,31088
32724,8530,31220
32846,8493,31087
32864,8501,31202
32820,8496,30877
32796,8570,31143
32833,8473,31061
32840,8501,31198
32852,8532,31065
32790,8485,30990
32821,8513,31054
32828,8510,31103
32832,8549,31012
32888,8483,30956
32888,8511,30901
32920,8497,30973
32820,8514,31048
32769,8595,31065
32816,8487,31009
32820,8523,31038
32836,8516,31042
32860,8551,31017
32830,8486,31032
32816,8482,31061
32828,8497,30996
32820,8523,31155
32816,8472,31023
32813,8483,31140
32800,8511,31017
32828,8537,31137
32881,8487,31013
32912,8503,31119
32944,8518,30996
32884,8511,31044
32752,8611,30989
32812,8484,30900
32844,8492,30845
32824,8520,30758
32848,8572,30838
32944,8485,30857
32916,8502,30920
32881,8507,30910
32812,8544,30820
32752,8477,30694
32810,8491,31048
32808,8525,30928
32736,8470,30761
32712,8488,31079
32766,8517,30959
32804,8574,31058
32860,8488,30960
32880,8509,30934
32844,8552,30932
32796,8480,31020
32676,8510,30964
32668,8510,30997
32656,8469,30815
32665,8495,30663
32740,8483,30992
32772,8486,30919
32744,8504,30863
32672,8545,30879
32632,8483,30727
32620,8517,30917
32580,8517,30911
32560,8474,31036
32568,8490,30872
32564,8502,30727
32512,8484,31028
32516,8519,30914
32520,8519,31020
32484,8491,30936
32421,8507,31056
32414,8515,30925
32469,8567,31001
32464,8471,30910
32604,8493,30956
32720,8529,30810
32668,8485,30860
32624,8489,30868
32628,8507,30880
32616,8497,30809
32608,8483,30839
32572,8505,30629
32600,8475,30892
32608,8503,30885
32628,8536,30785
32644,8491,30896
32652,8506,30876
32720,8492,31034
32716,8509,30910
32712,8525,31013
32716,8493,30898
32600,8480,31005
32588,8481,30808
32602,8484,30828
32641,8505,30833
32728,8530,30842
32756,8476,30796
32744,8490,30848
32768,8504,30824
32808,8505,30880
32878,8519,30873
32892,8587,30820
32792,8476,30761
32705,8486,30875
32768,8472,30868
32774,8507,30836
32772,8535,30758
32768,8485,30618
32732,8508,30838
32580,8491,30724
32648,8481,30816
32784,8499,30845
32792,8474,30828
32784,8494,30853
32768,8469,30622
32784,8486,30945
32788,8482,30684
32745,8501,30823
32752,8484,30660
32780,8522,30957
32736,8540,30756
32733,8478,30804
32724,8501,30753
32788,8471,30818
32768,8483,30800
32752,8510,30695
32624,8480,30660
32388,8513,30755
32172,8514,30844
31801,8541,30720
31396,8483,30592
30828,8496,30727
30220,8526,30626
29601,8475,30447
29188,8486,30829
29456,8526,30704
31109,8484,30716
33940,8520,30633
37292,8490,30588
40845,8489,30552
44744,8525,30657
48368,8466,30761
51336,8487,30632
53504,8454,30405
54392,8480,30575
52760,8530,30565
50100,8467,30516
47924,8497,30588
45688,8485,30581
43912,8498,30476
42520,8473,30676
41050,8484,30521
39384,8516,30598
37500,8453,30503
35564,8480,30476
33848,8596,30416
32524,8500,30336
31616,8516,30268
31012,8488,30111
30616,8490,30468
30266,8509,30335
30060,8479,30438
29920,8491,30292
29816,8486,30356
29732,8469,30142
29632,8484,30239
29560,8534,30136
29516,8484,30176
29388,8493,30224
29320,8500,30193
29284,8518,30098
29268,8475,30325
29232,8486,30228
29196,8486,30152
29228,8523,30084
29224,8471,30109
29252,8495,30082
29280,8501,30103
29268,8522,30114
29386,8548,30196
29376,8484,30143
29320,8476,30180
29324,8501,29828
29357,8504,30111
29412,8464,30047
29460,8489,29921
29460,8483,29991
29388,8489,29928
29349,8502,29996
29480,8516,29636
29520,8605,29831
29524,8492,29772
29549,8502,29848
29596,8468,29674
29574,8472,29545
29596,8512,29737
29540,8475,29555
29592,8497,29393
29636,8534,29316
29708,8484,29144
29752,8485,29206
29744,8496,29127
29756,8485,29220
29808,8512,29124
29824,8471,29123
29833,8480,28928
29844,8492,29095
29929,8518,29052
30012,8483,28980
30056,8510,28928
30032,8493,28856
29968,8506,28900
29988,8544,28945
30016,8464,28860
30028,8502,28736
30061,8508,28907
30022,8480,28837
30036,8501,28721
30104,8502,28775
30104,8548,28661
30052,8484,28679
30020,8482,28692
30020,8505,28757
30072,8480,28844
30100,8492,28852
30084,8588,28790
30121,8479,28844
30060,8487,28972
30044,8505,28929
30124,8511,29065
30140,8515,28718
30148,8519,28877
30001,8476,28900
30008,8470,29028
29978,8487,29082
29972,8530,29092
30000,8484,29089
30061,8501,29169
30100,8560,29092
30117,8485,29252
30128,8500,29260
30158,8595,29185
30168,8484,29262
30176,8489,29322
30189,8581,29413
30252,8476,29361
30321,8501,29304
30341,8566,29585
30288,8499,29408
30236,8516,29292
30368,8485,29501
30433,8506,29564
30484,8549,29556
30440,8501,29604
30452,8541,29590
30492,8476,29530
30532,8498,29434
30551,8559,29814
30588,8515,29622
30628,8508,29672
30664,8572,29675
30688,8508,29812
30756,8524,29940
30860,8485,29844
30944,8495,29900
30996,8480,29929
31088,8495,29865
31188,8516,29873
31280,8487,30025
31430,8506,30009
31452,8567,30037
31544,8506,29832
31682,8500,30010
31828,8528,30103
32008,8465,30167
32120,8505,30180
32281,8520,30196
32424,8485,30154
32540,8514,30175
32636,8525,30311
32672,8589,30471
32736,8504,30349
32816,8499,30327
32904,8466,30279
32968,8482,30343
33024,8504,30439
33128,8479,30484
33248,8497,30607
33320,8534,30282
33376,8479,30575
33416,8509,30574
33452,8528,30575
33500,8468,30624
33480,8484,30648
33444,8517,30648
33445,8459,30621
33576,8486,30641
33628,8476,30716
33656,8505,30732
33580,8522,30629
33574,8473,30769
33552,8484,30785
33561,8548,30708
33580,8480,30849
33536,8530,30776
33420,8480,30895
33424,8516,30916
33568,8473,30716
33584,8490,30949
33556,8613,30996
33576,8471,31068
33576,8496,31043
33550,8480,31156
33476,8479,31065
33454,8546,31149
33516,8460,31122
33496,8503,31279
33468,8518,31194
33396,8478,31317
33324,8491,31216
33312,8497,31148
33276,8532,31169
33284,8494,31276
33304,8491,31406
33284,8516,31332
33268,8457,31444
33240,8478,31340
33232,8528,31234
33225,8474,31491
33212,8489,31416
33116,8525,31285
33040,8460,31398
32981,8457,31477
32964,8465,31623
32960,8505,31574
32921,8457,31604
32976,8462,31589
33033,8505,31626
33069,8506,31585
33108,8471,31657
33100,8485,31801
33096,8534,31728
33096,8460,31669
33105,8468,31740
33088,8491,31736
33068,8457,31790
32960,8471,31849
32956,8497,32020
32976,8619,31940
33001,8484,31895
33010,8496,31914
33000,8519,31870
33044,8451,32069
33068,8471,32071
33156,8508,32097
33120,8451,32132
33022,8481,32057
32948,8473,32047
32828,8487,32037
32868,8513,32087
32908,8551,32175
32932,8464,32216
32948,8459,32233
32736,8468,32236
32876,8469,32276
32916,8517,32492
32944,8459,32421
32969,8484,32375
32989,8523,32405
33016,8474,32404
33036,8463,32483
33036,8479,32460
33024,8590,32396
33028,8449,32460
33045,8463,32483
33024,8507,32488
32968,8456,32649
32948,8499,32305
32904,8506,32719
32893,8470,32652
32865,8478,32657
32812,8484,32636
32860,8452,32575
32929,8486,32784
33048,8500,32711
33124,8451,32712
33104,8492,32695
33072,8506,32655
33049,8471,32676
33057,8501,32468
33032,8509,32758
32972,8458,32748
32908,8484,32743
32912,8449,32757
32936,8480,32775
32892,8451,32708
32872,8500,32870
32888,8464,32783
32960,8500,32826
33000,8517,32740
33029,8457,32709
32996,8484,32708
32964,8450,32772
32888,8466,32692
32862,8444,32816
32868,8464,32468
32909,8492,32880
32924,8461,32772
32940,8492,32855
32902,8514,32775
32842,8464,32807
32880,8461,32768
32892,8467,32791
32825,8493,32759
32829,8578,32822
32824,8448,32650
32824,8484,32628
32892,8485,32718
32916,8511,32735
32868,8467,32711
32840,8472,32696
32860,8484,32650
32844,8452,32718
32828,8441,32658
32780,8477,32780
32792,8498,32745
32776,8455,32772
32752,8479,32702
32764,8486,32687
32788,8549,32654
32793,8462,32665
32736,8482,32655
32588,8462,32656
32644,8479,32711
32624,8512,32722
32657,8448,32724
32640,8484,32732
32673,8477,32760
32696,8484,32856
32688,8492,32612
32700,8501,32613
32648,8513,32664
32625,8458,32712
32624,8491,32772
32596,8442,32838
32572,8452,32727
32628,8490,32553
32660,8458,32886
32677,8495,32775
32664,8489,32824
32636,8527,32731
32560,8459,32667
32600,8470,32692
32600,8499,32464
32600,8441,32876
32596,8453,32697
32684,8469,32838
32776,8500,32774
32776,8527,32877
32753,8462,32805
32640,8463,32941
32552,8468,32823
32620,8495,32824
32621,8441,32693
32632,8469,32540
32640,8532,32879
32648,8453,32848
32672,8479,32763
32717,8548,32716
32752,8465,32730
32752,8476,32740
32735,8511,32789
32716,8448,32892
32673,8468,32889
32601,8577,33037
32572,8441,32908
32564,8487,33044
32642,8480,32946
32696,8511,32964
32660,8456,32932
32637,8477,32840
32641,8487,32967
32660,8465,32980
32678,8506,33076
32660,8443,32775
32660,8439,32906
32583,8464,32829
32536,8512,32980
32560,8459,32890
32576,8495,32941
32608,8490,32981
32592,8447,32927
32604,8481,32804
32656,8489,33124
32604,8436,32781
32621,8462,33224
32644,8469,33120
32652,8451,33029
32660,8473,33168
32704,8510,33124
32736,8452,33277
32784,8481,33151
32744,8487,33159
32732,8435,33127
32700,8456,33103
32728,8487,33085
32680,8448,32899
32576,8475,33213
32572,8491,33213
32496,8463,33326
32550,8457,33255
32584,8481,33359
32596,8460,32943
32688,8495,33316
32700,8438,33285
32708,8471,33198
32740,8452,33429
32676,8483,33311
32604,8519,33428
32552,8460,33008
32572,8482,33345
32520,8475,33141
32533,8508,33221
32548,8443,33125
32472,8469,33503
32484,8445,33380
32492,8453,33321
32512,8474,33271
32512,8517,33108
32468,8457,33396
32404,8482,33287
32424,8495,33346
32472,8445,33479
32492,8448,33447
32524,8456,33526
32500,8486,33172
32512,8587,33620
32516,8447,33516
32468,8491,33565
32500,8488,33449
32548,8518,33284
32596,8472,33557
32680,8486,33585
32689,8537,33543
32692,8459,33670
32729,8459,33604
32732,8490,33591
32733,8453,33492
32776,8462,33524
32736,8497,33601
32696,8485,33568
32681,8446,33604
32620,8460,33640
32668,8493,33647
32680,8433,33621
32677,8462,33385
32724,8518,33796
32688,8469,33580
32668,8482,33555
32668,8458,33663
32720,8452,33671
32636,8468,33769
32652,8477,33900
32788,8454,33508
32812,8485,33836
32752,8440,33799
32720,8460,33929
32720,8474,33799
32737,8574,33679
32728,8460,33939
32688,8470,33837
32728,8482,33964
32772,8438,33828
32726,8454,33799
32672,8476,33895
32686,8439,33904
32688,8476,34018
32732,8498,33941
32712,8451,34012
32704,8491,33914
32748,8493,33864
32772,8442,34049
32796,8476,33969
32764,8454,34077
32672,8487,33980
32428,8434,34088
32132,8446,33969
31808,8469,34084
31444,8516,33949
31012,8466,33720
30529,8484,34092
29916,8502,33995
29420,8448,34117
29372,8448,34017
30424,8457,34052
32792,8474,34005
36228,8503,34017
39796,8548,34023
43544,8441,34056
47244,8470,33964
50300,8515,33949
52664,8434,33878
53780,8460,33961
52604,8455,33984
49876,8478,33959
47512,8548,33893
45376,8453,33716
43708,8477,34120
42612,8436,33976
41480,8474,33951
40024,8487,33916
38256,8439,33704
36372,8428,33974
34580,8441,33961
33048,8462,34092
31936,8433,33901
31172,8439,33878
30700,8467,33898
30402,8474,33836
30208,8529,33944
30044,8455,33888
29956,8461,33782
29836,8487,33729
29808,8430,33669
29752,8444,33941
29688,8465,33823
29560,8560,33806
29500,8456,33766
29452,8480,33628
29460,8447,33911
29452,8461,33861
29408,8485,33890
29345,8435,33836
29260,8446,33844
29268,8458,33864
29309,8536,33817
29386,8446,33781
29504,8469,33869
29556,8507,34025
29512,8482,33821
29500,8524,33871
29468,8441,33868
29442,8454,33834
29428,8437,33754
29504,8442,33734
29560,8449,33758
29636,8473,33725
29713,8498,33669
29772,8477,33552
29784,8490,33302
29804,8445,33652
29764,8477,33542
29792,8434,33522
29832,8449,33425
29900,8508,33157
29888,8444,33529
29893,8463,33340
29921,8451,33222
30044,8470,33153
30048,8472,32916
30084,8449,33157
30096,8442,33081
30152,8461,32800
30200,8551,33127
30228,8445,32932
30173,8542,32988
30160,8442,32924
30164,8466,32876
30140,8512,32612
30188,8449,33026
30148,8478,32900
30117,8465,32856
30196,8437,32978
30220,8444,32881
30208,8468,32684
30177,8438,32965
30152,8443,32874
30196,8477,32816
30188,8484,32825
30180,8492,32790
30108,8452,33065
30037,8445,32676
30064,8466,33103
30160,8449,32786
30196,8459,33065
30324,8487,33108
30368,8445,33257
30404,8451,33213
30332,8483,33231
30248,8482,33301
30228,8502,33357
30221,8444,33368
30224,8437,33408
30308,8449,33503
30421,8449,33567
30438,8490,33536
30438,8449,33636
30460,8481,33574
30476,8494,33508
30432,8459,33847
30320,8449,33853
30453,8480,34050
30484,8483,33972
30482,8437,33939
30556,8466,34044
30604,8466,34037
30696,8570,34020
30766,8460,34050
30840,8473,34205
30860,8521,33977
30868,8451,34256
30924,8477,34115
30968,8492,34567
31000,8436,34497
30989,8456,34665
31060,8473,34588
31132,8445,34588
31172,8465,34773
31204,8505,34716
31216,8466,34692
31160,8503,34838
31160,8447,34526
31216,8458,34993
31292,8478,34905
31416,8436,34983
31536,8454,34924
31636,8476,34935
31724,8453,34913
31805,8459,35028
31900,8483,35140
31952,8474,35220
32014,8532,35191
32132,8436,35090
32252,8454,35212
32374,8465,35248
32444,8437,35312
32531,8442,35284
32708,8458,35383
32772,8480,35452
32832,8447,35596
32928,8476,35496
33013,8502,35556
33120,8450,35433
33268,8471,35588
33300,8425,35572
33252,8447,35536
33208,8495,35301
33176,8437,35837
33224,8479,35716
33340,8489,35876
33432,8437,35777
33460,8462,35757
33396,8428,35685
33304,8439,35522
33294,8421,35968
33392,8441,35862
33356,8491,35730
33340,8435,36085
33344,8461,35975
33460,8585,35945
33508,8451,36149
33472,8475,36038
33464,8425,36016
33400,8435,35984
33390,8469,36023
33292,8422,36028
33220,8462,35876
33196,8494,36199
33240,8434,35847
33332,8474,36192
33342,8496,36244
33278,8425,36439
33144,8445,36329
33140,8419,36295
33160,8453,36537
33196,8474,36425
33164,8425,36527
33148,8468,36503
33212,8491,36512
33236,8433,36472
33244,8450,36372
33316,8490,36735
33340,8419,36629
33260,8438,36667
33188,8446,36636
33060,8481,36528
33040,8420,36581
33036,8465,36624
33060,8516,36885
33112,8465,36780
33145,8452,36913
33104,8428,36778
33064,8455,36846
33032,8421,36980
33032,8430,36823
33036,8419,36940
33032,8444,36940
33024,8436,36863
33028,8463,36975
33004,8497,37147
32992,8428,36998
32952,8441,36967
32968,8480,37005
32948,8417,36965
32944,8449,37325
33009,8473,37204
32992,8423,37224
32968,8428,37238
32976,8463,37308
33012,8454,37288
33031,8474,37303
33045,8486,37349
33052,8419,37383
33089,8441,37300
33024,8470,37461
32972,8415,37439
32936,8444,37543
32968,8513,37532
33024,8437,37647
33128,8457,37519
33172,8502,37465
33196,8423,37585
33200,8449,37255
33120,8436,37783
33040,8419,37698
32976,8452,37639
32948,8479,37694
33016,8430,37319
33024,8463,37814
33028,8470,37636
33052,8434,37742
33036,8458,37848
33040,8455,37748
33074,8540,37694
33073,8413,37732
33012,8433,37834
33040,8450,37777
33148,8490,37820
33220,8430,37816
33224,8460,37813
33160,8464,37980
33076,8430,37808
33040,8421,37716
32988,8435,37964
33008,8475,37824
32936,8447,37621
32873,8480,37952
32908,8425,37696
32964,8446,37557
32940,8475,37951
32928,8434,37812
32966,8435,37507
32996,8542,37924
33140,8423,37774
33184,8457,37709
33200,8420,37734
33148,8436,37550
33080,8486,37639
33068,8434,37702
33052,8454,37616
33072,8530,37285
33078,8426,37828
33112,8463,37565
33084,8412,37604
33045,8441,37511
33000,8449,37287
33028,8417,37748
32992,8463,37596
32964,8474,37600
32960,8434,37505
32988,8433,37485
33032,8443,37532
33120,8468,37473
33156,8414,37583
33136,8434,37488
32984,8447,37524
32893,8420,37302
32884,8461,37030
32940,8458,37520
32964,8436,37388
32968,8442,37332
32956,8468,37288
32976,8543,37279
33036,8422,37245
32972,8422,36903
32968,8467,37417
32964,8423,37253
32958,8426,37381
32980,8454,37205
33048,8451,37182
33016,8464,36999
33000,8487,37112
32964,8414,37104
32916,8448,37255
32880,8432,37088
33004,8454,37005
33096,8558,36903
33132,8434,37137
33168,8465,36948
33101,8458,36908
33092,8428,36983
33044,8440,37015
33021,8412,37111
33084,8436,36828
33076,8530,36905
33004,8411,37065
32992,8434,36924
32976,8463,36999
32964,8558,36884
32920,8431,36901
32908,8454,36773
32904,8484,36765
32960,8421,36846
32984,8428,36786
32972,8466,36881
32928,8412,36644
32880,8449,36473
32900,8469,36861
32840,8425,36716
32812,8445,36653
32864,8460,36628
32904,8415,36324
32880,8434,36684
32876,8457,36565
32884,8405,36562
32976,8429,36553
33036,8467,36236
33072,8424,36736
33025,8446,36565
32960,8485,36597
32960,8425,36521
32980,8434,36252
33036,8467,36452
33060,8407,36527
33072,8447,36422
32996,8413,36615
32944,8452,36477
32944,8433,36136
32912,8487,36524
32886,8425,36399
32864,8440,36404
32800,8444,36419
32740,8416,36358
32700,8426,36324
32740,8447,36141
32816,8410,36389
32877,8453,36351
32836,8473,36409
32844,8427,36265
32852,8460,36139
32944,8425,36432
33001,8441,36324
33052,8497,36334
33045,8412,36302
33036,8423,36248
32904,8479,36229
32936,8418,36269
32944,8460,36112
33012,8426,35867
33045,8463,36290
33116,8471,36212
33132,8419,36276
33100,8428,36052
33060,8428,36056
33080,8546,36177
33117,8424,36184
33126,8430,36134
33128,8509,36140
33116,8425,36055
33128,8449,36038
33136,8484,36006
33136,8422,36022
33116,8432,36133
33125,8411,36068
33172,8405,36165
33220,8422,36026
33180,8477,35996
33260,8424,36021
33257,8453,35995
33204,8486,36123
33196,8421,35975
33216,8432,36064
33240,8413,35940
33208,8420,35973
33180,8434,35903
33260,8462,35913
33312,8418,35876
33240,8447,35967
33188,8556,35867
33136,8424,35937
33133,8456,35748
33212,8457,35704
33273,8411,35501
33334,8406,35687
33328,8428,35688
33308,8454,35624
33304,8408,35652
33268,8453,35621
33248,8480,35434
33321,8421,35521
33372,8419,35660
33368,8425,35629
33336,8423,35724
33188,8436,35223
32961,8484,35487
32668,8414,35197
32392,8432,35590
32064,8461,35135
31599,8522,35478
31056,8422,35125
30384,8458,35389
29908,8455,35394
29896,8466,35471
31264,8487,34988
34177,8402,35440
37838,8420,35264
41552,8465,35304
45216,8551,35224
48616,8416,35252
51240,8439,35120
53116,8459,34892
53432,8406,35252
51380,8441,35060
48868,8399,34744
46716,8435,35087
44628,8473,34980
43500,8398,34949
42717,8435,34836
41664,8486,34789
40180,8412,34977
38396,8432,34820
36504,8482,34748
34756,8403,34666
33372,8420,34679
32444,8452,34741
31792,8401,34585
31336,8424,34367
31008,8543,34625
30840,8450,34446
30668,8472,34380
30484,8418,34310
30280,8424,34215
30184,8429,34265
30116,8461,34181
30105,8401,34269
30124,8417,34092
30120,8455,34140
30192,8419,34020
30208,8434,33952
30208,8444,33934
30152,8492,33880
30080,8417,33796
30062,8432,33550
30072,8410,33989
30061,8413,33799
30064,8422,33701
30096,8471,33880
30124,8417,33692
30150,8441,33607
30109,8477,33558
30072,8416,33472
30104,8436,33588
30152,8461,33460
30240,8464,33516
30300,8402,33318
30284,8402,33400
30324,8433,33223
30333,8460,33222
30392,8424,33092
30432,8421,33085
30416,8438,32917
30428,8465,32798
30488,8474,32808
30476,8407,32748
30516,8428,32577
30496,8425,32424
30525,8442,32594
30509,8417,32487
30500,8423,32535
30568,8441,32364
30564,8476,32221
30524,8418,32089
30528,8430,31988
30540,8461,32109
30608,8400,31788
30677,8428,32151
30668,8415,31981
30673,8423,31901
30625,8452,31864
30565,8481,31854
30604,8477,31847
30646,8414,31895
30648,8443,31782
30662,8427,31716
30709,8455,31631
30764,8407,31662
30784,8428,31597
30864,8438,31622
30916,8452,31725
30916,8479,31653
30833,8421,31692
30724,8435,31638
30668,8468,31732
30656,8420,31604
30704,8439,31550
30752,8473,31631
30808,8412,31711
30880,8437,31638
30912,8444,31744
30872,8524,31608
30817,8421,31593
30785,8421,31674
30765,8426,31684
30778,8450,31674
30836,8403,31501
30878,8433,31770
30884,8444,31517
30909,8493,31792
31004,8425,31623
31062,8436,31675
31092,8445,31717
31060,8476,31774
31096,8413,31877
31061,8405,31850
31056,8407,31777
31093,8412,31858
31140,8434,31900
31220,8459,32000
31285,8514,31637
31332,8427,31868
31365,8445,31873
31432,8445,31962
31420,8466,32068
31408,8412,31687
31418,8409,31984
31456,8425,31956
31616,8466,31935
31756,8422,31847
31896,8434,31945
31980,8450,31968
32052,8484,31983
32064,8420,31968
32060,8438,31890
32084,8522,31751
32096,8414,32173
32160,8434,32071
32228,8546,32008
32388,8414,32078
32512,8425,32201
32576,8458,32104
32668,8453,32168
32776,8417,32084
32952,8441,32021
33096,8424,32106
33148,8463,32241
33108,8523,32047
33160,8412,32100
33288,8433,32071
33412,8479,32125
33477,8416,32098
33605,8430,32092
33602,8468,32058
33594,8412,32028
33552,8420,31970
33524,8462,31999
33572,8395,32046
33660,8438,32096
33716,8460,32063
33764,8415,31997
33852,8437,32128
33880,8472,32247
33860,8410,32124
33864,8425,32031
33856,8452,31973
33848,8395,32020
33828,8397,31956
33880,8431,31867
33908,8406,32196
33896,8421,32073
33876,8466,31948
33808,8415,32141
33856,8438,31967
33892,8395,32036
33904,8416,32134
33856,8429,31997
33828,8393,31716
33748,8418,32145
33680,8449,31993
33661,8407,32073
33708,8433,31924
33752,8413,31712
33788,8409,32109
33796,8415,31805
33765,8443,32122
33728,8386,32007
33688,8409,32008
33647,8509,31856
33644,8400,31768
33700,8426,32100
33756,8460,31975
33816,8405,31895
33818,8419,31861
33792,8425,31948
33664,8530,31857
33560,8395,31794
33492,8420,31623
33556,8392,31967
33572,8425,31857
33556,8453,31797
33560,8407,31994
33560,8439,31876
33588,8456,31957
33632,8391,31796
33612,8404,31570
33593,8431,31973
33556,8388,31802
33556,8422,31547
33572,8400,31764
33500,8440,31893
33448,8408,31772
33390,8441,31584
33340,8547,31845
33364,8412,31665
33364,8388,31801
33388,8451,31525
33404,8420,31541
33484,8402,31726
33536,8456,31895
33497,8443,31804
33464,8475,31822
33440,8418,31732
33372,8425,31695
33348,8457,31542
33352,8396,31841
33377,8422,31677
33398,8389,31824
33444,8432,31789
33488,8438,31747
33488,8404,31548
33448,8442,31918
33428,8453,31764
33423,8403,31815
33392,8435,31679
33436,8391,31921
33460,8407,31750
33444,8446,31495
33436,8404,31761
33456,8433,31746
33423,8408,31746
33348,8406,31744
33334,8426,31463
33269,8488,31876
33220,8415,31736
33196,8412,31644
33278,8387,31748
33348,8419,31688
33352,8455,31653
33404,8407,31580
33438,8448,31645
33452,8408,31740
33480,8434,31588
33488,8452,31405
33493,8396,31712
33436,8403,31517
33396,8386,31264
33439,8404,31469
33456,8455,31413
33408,8410,31490
33428,8449,31376
33368,8405,31519
33312,8435,31372
33253,8458,31108
33276,8410,31372
33304,8432,31239
33248,8389,31130
33264,8393,31285
33305,8415,31036
33364,8492,31296
33404,8413,31196
33364,8423,31096
33334,8447,31039
33318,8394,31146
33301,8419,31262
33252,8415,31111
33188,8438,31131
33208,8398,30928
33216,8420,30871
33214,8485,30967
33208,8404,30743
33216,8421,31052
33268,8460,30953
33252,8397,31034
33292,8391,30903
33292,8420,30922
33308,8438,30713
33316,8389,30578
33316,8395,30933
33284,8433,30788
33290,8455,30661
33220,8405,30687
33136,8425,30468
33064,8420,30799
33032,8424,30535
33056,8388,30620
33120,8384,30596
33176,8402,30697
33160,8446,30583
33212,8392,30540
33268,8411,30506
33284,8441,30244
33228,8497,30620
33146,8399,30477
33124,8411,30440
33136,8437,30404
33128,8382,30372
33108,8378,30394
33108,8421,30388
33104,8414,30354
33116,8443,30397
33150,8517,30327
33184,8399,30309
33200,8431,30260
33220,8421,30198
33192,8462,30132
33160,8389,29972
33112,8404,30319
33108,8440,30222
33152,8396,30162
33148,8424,30056
33162,8424,29916
33164,8545,30239
33196,8395,30145
33268,8423,30047
33272,8427,30023
33228,8381,30131
33160,8400,30041
33124,8452,30057
33133,8396,30000
33148,8417,29958
33188,8442,29908
33192,8397,30206
33210,8409,30037
33172,8435,29900
33044,8383,30143
32980,8405,30002
32908,8526,29944
32940,8391,29981
32988,8413,29780
33000,8395,29987
33016,8414,29944
33024,8433,29782
32962,8395,30142
32901,8390,29799
32868,8410,30116
32880,8457,29994
32912,8380,29832
32884,8407,30144
32836,8437,29839
32808,8403,30012
32836,8430,30019
32908,8456,29989
32932,8389,29996
32940,8420,29781
32928,8433,30092
32876,8380,30008
32881,8413,30052
32968,8388,29888
33044,8418,30060
33037,8471,30052
33044,8404,30077
32980,8417,30004
32996,8395,30043
33006,8408,29956
32996,8441,30093
33072,8406,30057
33148,8420,30063
33144,8385,29908
33144,8409,30044
33136,8445,30124
33152,8463,29815
33160,8397,29983
33157,8401,29806
33148,8399,29945
33112,8423,29826
33104,8382,30173
33100,8387,30056
33112,8403,29989
33149,8537,30112
33157,8395,30063
33192,8428,30164
33216,8417,29889
33216,8435,29980
33252,8381,29932
33262,8415,30214
33276,8436,30098
33260,8377,30124
33240,8397,30055
33264,8474,30087
33300,8415,30240
33256,8431,30079
33221,8398,29888
33190,8386,30198
33140,8397,30105
33116,8462,30022
33056,8398,30079
33040,8411,29861
33029,8384,30244
33073,8399,30132
33069,8420,30009
33088,8395,30038
33024,8412,29845
32988,8441,30168
32956,8383,30084
32888,8413,30010
32700,8431,30120
32460,8385,30101
32096,8413,30001
31624,8516,29978
31057,8434,30088
30408,8454,29990
29808,8404,30062
29604,8406,30048
30432,8489,30084
32724,8391,29955
36054,8439,30055
39700,8419,29940
43472,8455,30137
47348,8413,29898
50664,8420,29935
53344,8387,30156
54972,8417,30030
54636,8438,29919
52108,8372,29928
49528,8396,29973
47232,8364,29941
44957,8409,29913
43448,8443,29784
42168,8375,29924
40668,8409,29647
38936,8386,29945
37004,8415,29870
35144,8436,29805
33564,8380,29796
32384,8391,29807
31540,8462,29793
30976,8381,29693
30604,8393,29652
30348,8479,29552
30168,8396,29415
30053,8405,29663
29896,8421,29479
29785,8459,29476
29661,8379,29490
29534,8384,29575
29452,8389,29648
29448,8413,29560
29512,8452,29666
29533,8475,29317
29564,8394,29582
29564,8398,29446
29572,8392,29420
29536,8409,29541
29484,8435,29637
29488,8375,29557
29480,8388,29618
29425,8393,29477
29453,8428,29274
29468,8388,29574
29520,8399,29242
29553,8408,29540
29564,8423,29419
29612,8387,29438
29644,8405,29340
29656,8403,29315
29692,8493,29263
29700,8375,29330
29640,8416,29214
29616,8412,29272
29661,8497,29127
29728,8423,28984
29780,8432,28916
29806,8388,28752
29840,8399,29055
29847,8405,28892
29816,8474,28975
29892,8378,28771
29960,8400,28877
30028,8437,28705
30076,8397,28737
30128,8399,28585
30136,8419,28669
30102,8447,28273
30120,8379,28336
30052,8374,28345
30044,8376,28372
30060,8405,28282
30076,8397,28317
30117,8459,28199
30164,8392,28216
30148,8427,28184
30204,8417,28229
30220,8470,28295
30229,8388,28190
30240,8392,28150
30282,8450,28157
30296,8375,28196
30284,8407,28125
30293,8498,28052
30308,8395,28140
30329,8410,28160
30312,8511,28134
30260,8422,27950
30280,8414,28313
30208,8378,28220
30268,8387,28284
30300,8401,28058
30288,8471,28231
30324,8391,28068
30336,8433,28456
30340,8395,28377
30326,8413,28292
30316,8463,28364
30304,8385,28357
30328,8408,28353
30280,8458,28423
30300,8380,28549
30400,8399,28598
30408,8412,28633
30436,8515,28551
30472,8421,28572
30496,8427,28488
30492,8391,28879
30473,8388,28543
30480,8401,28922
30472,8453,28821
30496,8383,28750
30532,8414,29004
30561,8447,28945
30657,8398,29062
30672,8411,29017
30752,8427,29099
30776,8484,29076
30808,8380,29221
30852,8403,29128
30916,8409,29161
31005,8378,29166
31040,8418,29245
31093,8438,29237
31056,8397,29382
31104,8414,29292
31164,8488,29228
31240,8417,29285
31301,8424,29147
31400,8485,29437
31536,8377,29191
31696,8389,29575
31877,8413,29393
31996,8441,29401
32101,8486,29492
32208,8399,29592
32320,8400,29580
32404,8412,29520
32534,8426,29569
32688,8373,29668
32860,8380,29598
32976,8407,29748
33096,8411,29734
33168,8455,29750
33256,8406,29599
33301,8419,29977
33376,8388,29888
33412,8418,29807
33408,8407,29793
33464,8368,29668
33496,8405,30017
33522,8419,29988
33632,8374,30009
33672,8411,29985
33688,8421,29956
33704,8390,29953
33708,8402,29797
33716,8413,30204
33760,8445,30116
33804,8406,29887
33824,8410,30204
33820,8364,30165
33864,8375,30204
33900,8398,30148
33864,8437,30092
33796,8387,30164
33804,8384,30125
33764,8392,30196
33760,8417,30161
33756,8361,30133
33752,8399,30084
33780,8394,30160
33812,8439,30227
33816,8374,30300
33816,8395,30170
33824,8406,30215
33800,8452,30253
33800,8395,30395
33760,8411,30401
33716,8359,30550
33696,8397,30452
33692,8421,30447
33648,8369,30449
33708,8411,30528
33728,8431,30527
33760,8388,30624
33738,8397,30548
33642,8407,30460
33544,8368,30590
33504,8372,30315
33489,8382,30612
33492,8435,30581
33516,8363,30718
33592,8388,30620
33608,8431,30788
33614,8380,30680
33556,8400,30585
33540,8439,30565
33526,8367,30465
33481,8394,30852
33441,8357,30628
33408,8385,30772
33424,8505,30861
33452,8383,30761
33500,8421,30556
33476,8376,30911
33369,8413,30882
33420,8419,30924
33380,8366,30808
33364,8384,30836
33384,8395,30889
33404,8357,31001
33448,8391,30937
33468,8375,30910
33480,8403,30806
33481,8420,31225
33448,8375,31045
33444,8384,30945
33424,8462,31303
33436,8371,31198
33432,8401,31205
33416,8359,31111
33440,8385,31249
33396,8431,31405
33417,8380,31300
33372,8402,31232
33380,8438,31268
33380,8369,31117
33380,8385,31457
33360,8361,31428
33340,8367,31525
33329,8378,31458
33345,8366,31288
33376,8388,31513
33428,8431,31236
33420,8377,31476
33372,8399,31525
33444,8370,31685
33460,8383,31583
33436,8415,31500
33316,8360,31735
33204,8399,31617
33236,8363,31540
33220,8404,31516
33252,8418,31557
33296,8376,31653
33248,8382,31391
33212,8387,31676
33220,8413,31672
33185,8354,31812
33101,8390,31694
33210,8399,31751
33249,8361,31688
33252,8389,31552
33248,8478,31717
33264,8375,31609
33248,8374,31657
33208,8390,31612
33248,8396,31552
33268,8492,31410
33244,8377,31706
33252,8396,31555
33254,8363,31680
33224,8389,31708
33252,8424,31613
33280,8380,31656
33312,8384,31676
33280,8397,31520
33224,8399,31596
33234,8361,31568
33212,8385,31388
33189,8451,31612
33144,8395,31545
33156,8394,31502
33144,8424,31708
33132,8371,31539
33156,8389,31295
33172,8370,31655
33232,8392,31533
33260,8384,31537
33241,8356,31453
33216,8373,31228
33212,8398,31640
33220,8368,31488
33220,8379,31394
33249,8395,31393
33240,8414,31373
33222,8462,31337
33196,8359,31302
33124,8389,31487
33078,8377,31429
33036,8357,31456
33074,8361,31372
33084,8381,31302
33104,8412,31239
33116,8377,31213
33108,8406,31263
33152,8404,31079
33124,8460,31340
33088,8353,31180
33092,8353,31228
33108,8373,31253
33124,8372,31279
33144,8401,31263
33180,8444,31311
33136,8370,31429
33180,8389,31278
33060,8407,31168
32996,8421,31268
33068,8357,31312
33032,8360,31400
33044,8373,31291
33036,8418,31420
33124,8367,31016
33144,8368,31188
33104,8382,31377
33084,8403,31268
33050,8386,31260
33052,8404,31140
33052,8354,31161
33076,8386,31194
33060,8383,31264
33063,8357,31116
33108,8389,31248
33112,8411,31282
33132,8370,31375
33118,8401,31327
33056,8385,31394
33032,8414,31321
32992,8349,31265
32980,8356,31337
32980,8366,31429
32984,8391,31335
33012,8364,31481
33000,8365,31359
33000,8407,31401
33016,8411,31345
32968,8361,31406
32960,8387,31381
32920,8452,31508
32914,8348,31148
32944,8369,31517
32964,8387,31316
33032,8385,31340
33086,8411,31340
33080,8369,31367
33049,8377,31325
32945,8384,31359
32960,8388,31195
32992,8409,31457
33012,8343,31428
32962,8355,31408
32924,8374,31380
32858,8402,31430
33012,8421,31434
32993,8367,31366
32960,8370,31412
32868,8357,31416
32872,8380,31404
32928,8396,31253
32928,8347,31543
32924,8386,31436
32826,8390,31351
32828,8364,31555
32840,8383,31435
32896,8415,31336
32884,8362,31487
32856,8366,31468
32860,8377,31393
32864,8408,31429
32860,8347,31417
32864,8385,31428
32840,8374,31463
32844,8414,31467
32828,8362,31465
32856,8394,31392
32864,8368,31308
32804,8379,31481
32774,8368,31204
32732,8383,31486
32732,8492,31468
32672,8360,31605
32629,8388,31500
32648,8364,31484
32624,8400,31394
32552,8425,31504
32505,8374,31537
32516,8399,31388
32540,8354,31529
32512,8377,31478
32484,8347,31636
32444,8387,31545
32508,8413,31436
32608,8364,31500
32709,8405,31555
32740,8370,31517
32780,8396,31431
32744,8417,31532
32676,8353,31681
32728,8372,31550
32740,8413,31477
32736,8357,31463
32748,8373,31543
32786,8397,31598
32804,8373,31571
32776,8398,31557
32800,8415,31440
32812,8358,31552
32816,8374,31644
32804,8406,31527
32740,8348,31290
32724,8361,31651
32692,8475,31444
32812,8372,31550
32880,8388,31673
32828,8369,31487
32749,8382,31567
32764,8363,31470
32764,8389,31676
32813,8424,31445
32844,8376,31557
32852,8407,31292
32860,8351,31679
32816,8382,31549
32820,8365,31447
32840,8372,31562
32878,8386,31536
32904,8356,31456
32876,8384,31544
32921,8393,31545
32936,8341,31444
32874,8365,31648
32869,8353,31520
32892,8379,31425
32908,8416,31647
32952,8359,31535
32944,8379,31437
32852,8418,31366
32800,8353,31217
32764,8360,31628
32788,8383,31437
32788,8340,31594
32806,8361,31431
32820,8354,31458
32756,8386,31372
32592,8360,31581
32433,8395,31424
32192,8387,31340
31900,8439,31321
31440,8346,31205
30818,8358,31465
30120,8395,31415
29508,8355,31296
29332,8374,31295
30156,8420,31348
32366,8367,31326
35412,8379,31220
38896,8419,31044
42696,8344,31424
46776,8378,31184
50380,8376,31412
53396,8330,31247
55577,8364,30996
55960,8415,31264
53928,8353,31141
50976,8396,31205
48604,8418,31225
46036,8344,31135
44024,8356,31127
42424,8360,31159
40828,8415,31107
39040,8328,31056
36988,8363,31013
35004,8388,30889
33354,8428,30849
32184,8356,30926
31310,8389,30924
30720,8379,31028
30345,8405,30834
30060,8344,30749
29846,8365,30838
29708,8381,30797
29556,8346,30642
29408,8369,30823
29348,8388,30521
29285,8366,30673
29261,8367,30481
29174,8380,30848
29052,8349,30708
29014,8365,30636
29000,8363,30645
28992,8384,30663
29024,8347,30557
29078,8373,30703
29066,8412,30652
29100,8367,30660
29096,8376,30492
29141,8414,30748
29164,8348,30629
29188,8374,30581
29230,8378,30473
29264,8462,30532
29220,8365,30541
29269,8366,30220
29288,8378,30349
29308,8391,30150
29336,8410,30444
29328,8359,30332
29328,8380,30335
29393,8380,30245
29504,8342,30327
29476,8340,30144
29504,8378,30238
29633,8375,29804
29704,8416,30124
29684,8359,29957
29620,8364,29871
29616,8388,29612
29648,8372,29923
29652,8397,29749
29696,8340,29616
29748,8353,29556
29760,8398,29484
29748,8355,29588
29828,8385,29464
29836,8380,29549
29864,8404,29383
29864,8355,29451
29888,8364,29273
29904,8357,29172
29880,8393,29314
29916,8345,29210
29932,8347,29245
29992,8359,29148
30036,8364,29252
30060,8379,29089
30053,8414,28948
30064,8354,29169
30076,8385,29044
30000,8370,28927
30001,8418,29180
30008,8337,29064
30020,8355,29166
30020,8376,28959
30036,8357,29089
30052,8384,29065
30033,8382,28969
30012,8400,28910
30013,8353,29260
30040,8356,28916
30028,8378,29300
30044,8344,29190
30112,8349,29318
30116,8383,29053
30085,8388,29132
30000,8427,29153
29996,8362,29266
29981,8363,29313
30026,8385,29365
30046,8385,29348
30076,8345,29396
30088,8342,29437
30128,8363,29429
30154,8400,29373
30268,8361,29487
30304,8377,29509
30316,8467,29444
30300,8392,29652
30336,8403,29596
30356,8347,29501
30404,8373,29509
30444,8420,29661
30416,8353,29575
30452,8381,29706
30496,8360,29716
30504,8392,29637
30580,8402,29850
30660,8356,29774
30684,8374,29703
30770,8368,29692
30822,8401,29592
30880,8344,30008
30888,8361,29908
30960,8369,30013
31024,8388,29953
31084,8426,30000
31232,8362,29988
31360,8357,29998
31476,8375,29899
31524,8381,29807
31640,8346,30198
31769,8344,30108
31936,8358,30200
32105,8396,30134
32236,8358,30025
32388,8380,30225
32520,8395,29972
32596,8352,30278
32704,8367,30228
32828,8375,30149
32924,8396,30153
33064,8335,30203
33148,8345,30215
33248,8381,30221
33256,8402,30245
33320,8355,30085
33416,8366,30480
33500,8365,30372
33516,8395,30303
33540,8338,30397
33584,8378,30388
33589,8329,30333
33646,8372,30401
33697,8378,30446
33696,8410,30566
33724,8354,30492
33732,8361,30380
33728,8370,30484
33733,8380,30513
33768,8328,30521
33772,8334,30263
33748,8417,30520
33672,8332,30303
33696,8378,30580
33720,8388,30564
33730,8351,30448
33725,8381,30726
33786,8366,30612
33764,8387,30689
33768,8330,30601
33652,8344,30397
33612,8389,30631
33640,8332,30655
33632,8375,30637
33612,8398,30565
33516,8344,30528
33512,8363,30642
33588,8367,30679
33561,8338,30791
33572,8350,30666
33560,8350,30623
33584,8406,30612
33560,8338,30741
33580,8356,30855
33548,8393,30724
33560,8351,30684
33524,8346,30920
33500,8358,30765
33540,8413,30553
33548,8329,30964
33464,8341,30812
33394,8379,30675
33388,8327,30997
33404,8363,30816
33416,8443,30640
33466,8363,31030
33488,8368,30913
33516,8344,30820
33517,8355,31069
33480,8376,30938
33472,8326,30721
33405,8340,31036
33320,8390,30980
33248,8356,31042
33280,8395,30996
33292,8357,31214
33332,8385,31120
33312,8348,31103
33296,8394,31025
33312,8343,31077
33320,8321,31196
33304,8348,31129
33306,8398,31209
33321,8357,31156
33380,8340,31280
33345,8370,31357
33320,8341,31224
33344,8354,31052
33277,8334,31370
33312,8346,31323
33304,8323,31373
33324,8327,31329
33324,8356,31332
33356,8335,31449
33336,8377,31324
33372,8383,31521
33428,8345,31505
33436,8355,31438
33380,8378,31652
33244,8324,31481
33196,8353,31580
33216,8319,31308
33297,8352,31544
33317,8411,31679
33280,8352,31589
33280,8400,31655
33252,8353,31364
33256,8340,31589
33220,8356,31726
33196,8323,31711
33232,8338,31657
33152,8401,31415
33188,8342,31744
33192,8357,31577
33140,8343,31725
33172,8360,31438
33208,8380,31751
33172,8333,31871
33220,8352,31715
33228,8392,31653
33232,8337,31876
33252,8376,31617
33172,8359,31702
33212,8391,31745
33232,8339,31655
33224,8360,31716
33244,8397,31743
33248,8335,31650
33220,8350,31584
33194,8367,31636
33192,8323,31751
33184,8345,31720
33184,8367,31689
33140,8331,31649
33192,8369,31673
33190,8354,31658
33145,8389,31665
33140,8336,31768
33128,8358,31543
33180,8380,31652
33172,8320,31578
33052,8349,31492
33072,8346,31343
33120,8387,31730
33156,8344,31469
33216,8365,31580
33244,8409,31612
33256,8332,31561
33240,8345,31428
33117,8394,31685
33148,8323,31489
33116,8332,31266
33112,8364,31622
33086,8334,31399
33028,8354,31520
33012,8401,31541
33032,8346,31512
33028,8383,31495
33040,8330,31209
33092,8345,31530
33088,8380,31454
33013,8339,31473
33000,8362,31272
32948,8326,31536
32960,8365,31460
32976,8338,31457
32968,8351,31348
32984,8391,31414
32969,8348,31433
32936,8378,31156
32992,8319,31460
32933,8350,31428
32928,8319,31409
32928,8367,31287
32928,8404,31509
32980,8361,31312
32972,8396,31388
32960,8369,31220
32916,8379,31373
32917,8316,31239
32932,8339,31332
32928,8317,31276
32884,8353,31461
32904,8380,31357
32888,8338,31189
32896,8360,31460
32950,8339,31228
32940,8349,31356
32932,8321,31101
32892,8363,31259
32844,8311,31337
32848,8329,31052
32869,8381,31377
32872,8362,31239
32900,8412,31350
32938,8337,31356
32952,8355,31254
32896,8332,31340
32900,8350,31084
32820,8366,31322
32906,8313,31272
32950,8358,31337
32933,8319,31157
32953,8341,31484
32965,8385,31367
32892,8336,31302
32856,8382,31509
32880,8333,31301
32884,8385,31372
32868,8348,31104
32878,8365,31456
32908,8311,31239
32928,8359,31385
32968,8341,31400
32940,8401,31397
32904,8356,31120
32800,8329,31309
32736,8392,31472
32756,8357,31322
32752,8321,31292
32736,8337,31140
32768,8314,31378
32772,8339,31375
32825,8382,31396
32836,8348,31426
32832,8394,31298
32780,8342,31424
32768,8389,31268
32856,8340,31341
32858,8313,31416
32852,8336,31304
32764,8316,31444
32748,8331,31426
32792,8326,31351
32812,8361,31570
32821,8377,31444
32813,8356,31445
32824,8391,31380
32764,8332,31566
32768,8363,31425
32775,8309,31460
32764,8330,31424
32784,8317,31613
32761,8346,31573
32780,8396,31464
32788,8356,31500
32765,8390,31428
32692,8354,31596
32676,8365,31396
32632,8310,31549
32608,8337,31456
32614,8311,31685
32620,8335,31556
32612,8324,31588
32620,8390,31493
32600,8365,31591
32608,8333,31341
32521,8359,31613
32496,8396,31736
32468,8350,31494
32472,8436,31620
32548,8349,31353
32620,8385,31669
32700,8339,31652
32740,8464,31544
32760,8359,31650
32804,8331,31652
32697,8366,31587
32752,8353,31606
32692,8320,31712
32676,8327,31751
32696,8400,31706
32764,8350,31714
32824,8425,31692
32864,8351,31844
32920,8332,31751
32928,8359,31712
32948,8326,31764
32864,8358,31601
32808,8313,31781
32796,8329,31725
32820,8384,31801
32892,8312,31722
32936,8358,31933
32900,8338,31708
32825,8383,31828
32828,8332,31776
32836,8356,31792
32872,8316,31820
32884,8330,31719
32908,8306,31837
32920,8350,32005
32889,8340,31783
32884,8457,31873
32864,8341,31876
32884,8325,31820
32901,8348,31913
32936,8316,32025
32916,8333,31808
32828,8356,31935
32764,8303,31805
32738,8327,31988
32804,8312,32056
32844,8337,31928
32840,8426,31768
32881,8345,32047
32870,8431,31865
32872,8345,31997
32813,8320,31885
32788,8323,32039
32774,8382,31898
32784,8324,32004
32804,8365,31935
32760,8326,32154
32588,8369,32006
32328,8335,32028
32109,8385,31956
31714,8348,32146
31260,8365,32039
30692,8326,31767
30016,8381,32001
29500,8331,32187
29548,8322,32004
31006,8356,32058
33600,8361,31985
36812,8326,32206
40360,8366,31988
44248,8316,31829
48064,8327,32148
51336,8297,31988
53936,8327,32104
55428,8373,32116
54648,8303,32088
51952,8409,31973
49372,8350,32068
46972,8393,32050
44720,8334,31977
43112,8357,32081
41588,8301,31972
39880,8330,32165
37940,8293,32052
35892,8338,31964
34112,8372,31879
32685,8317,31989
31708,8361,31936
30992,8324,31973
30472,8337,31986
30144,8373,31871
29896,8326,31997
29724,8352,31792
29652,8308,31922
29544,8333,31822
29496,8312,32016
29392,8342,31933
29336,8372,31682
29260,8326,32004
29260,8372,32059
29185,8319,31932
29132,8343,31694
29112,8313,31940
29096,8355,32064
29124,8311,31986
29136,8330,31796
29092,8320,32072
29024,8340,32096
29064,8325,32030
29092,8343,32036
29152,8319,31968
29168,8348,32064
29168,8326,32148
29216,8378,31919
29292,8310,31728
29216,8334,32105
29288,8321,31937
29312,8345,31688
29317,8378,32024
29316,8327,31684
29384,8351,32048
29530,8365,31848
29608,8308,31777
29632,8329,31933
29648,8307,31815
29668,8327,31588
29660,8320,31740
29696,8358,31652
29706,8384,31672
29688,8359,31397
29700,8397,31680
29670,8349,31464
29676,8368,31239
29664,8321,31498
29681,8351,31368
29673,8316,31138
29768,8330,31471
29828,8325,31247
29840,8339,31058
29860,8423,31280
29796,8347,31140
29797,8359,31238
29808,8311,31285
29812,8348,31279
29868,8325,31092
29948,8313,31224
29920,8337,31135
29860,8328,31244
29852,8324,31239
29944,8356,31144
29984,8321,31280
29964,8329,31254
29961,8308,31272
29903,8318,31407
29829,8311,31320
29820,8325,31317
29804,8382,31121
29856,8356,31458
29900,8329,31456
29902,8328,31514
29872,8352,31449
29857,8318,31694
29856,8308,31637
