ECG,EDA,RR
32896,7362,30196
32888,7461,30301
32924,7384,30553
32900,7466,30388
32908,7358,30146
32996,7333,30341
33008,7399,30502
32988,7359,30215
33024,7345,30388
33088,7371,30254
32805,7432,30297
32844,7370,30508
32806,7407,30279
32888,7359,30097
32896,7399,30348
32900,7354,30314
32879,7420,30382
32956,7357,30334
32960,7347,30198
33028,7361,30449
33032,7423,30456
33008,7353,30313
33053,7399,30092
33044,7356,30341
33024,7372,30336
33000,7335,30224
32964,7388,30177
33044,7339,30372
33028,7378,30405
33026,7463,30439
33024,7359,30420
33088,7413,30418
33188,7348,30305
33068,7367,30214
33024,7398,30254
33024,7362,30196
32928,7394,30030
32884,7353,30260
32944,7367,30268
32860,7420,30277
32829,7346,30248
32685,7366,30271
32509,7408,30265
32296,7351,30260
31960,7366,30241
31532,7332,30191
31108,7368,30163
30504,7397,30068
29872,7350,30061
29414,7387,30101
29600,7394,30145
31104,7438,30166
33776,7346,30148
36989,7362,30164
40396,7389,30172
44128,7323,30165
47544,7359,30130
50452,7380,29924
52928,7410,30121
53960,7338,30180
52608,7391,30033
50004,7395,30010
47741,7337,29944
45448,7353,29804
43525,7373,29815
42160,7316,30049
40752,7368,30017
39172,7330,29997
37392,7354,29968
35500,7396,29964
33877,7344,29941
32744,7344,29902
31860,7361,29862
31040,7362,29683
30536,7426,29821
30272,7331,29569
30104,7360,29781
29900,7378,29737
29868,7344,29756
29840,7369,29712
29772,7358,29579
29592,7354,29669
29581,7369,29808
29544,7389,29690
29508,7354,29596
29433,7363,29600
29368,7332,29463
29332,7352,29741
29446,7470,29708
29476,7354,29700
29508,7370,29764
29636,7446,29765
29540,7376,29769
29600,7341,29613
29588,7366,29609
29468,7381,29719
29460,7333,29596
29497,7341,29727
29624,7369,29728
29668,7371,29716
29700,7354,29652
29656,7366,29559
29700,7376,29641
29652,7340,29765
29662,7366,29620
29844,7334,29420
29932,7352,29332
29916,7336,29551
29932,7380,29523
30072,7482,29500
30024,7361,29476
29980,7365,29454
29869,7417,29390
29944,7356,29247
29957,7378,29301
30014,7373,29332
30040,7333,29068
29973,7345,29199
30032,7370,29245
30132,7400,29386
30181,7354,29253
30060,7378,29199
29984,7397,29252
30060,7336,29191
30140,7359,29060
30176,7371,29134
30153,7332,29156
30176,7361,29138
30276,7410,29170
30293,7383,29104
30328,7408,29055
30276,7349,29130
30232,7364,29152
30192,7422,29129
30140,7354,29101
30197,7381,29140
30190,7333,29144
30232,7373,29172
30240,7351,29290
30189,7403,29322
30208,7358,29301
30324,7407,29548
30380,7354,29502
30369,7397,29424
30308,7359,29364
30348,7453,29577
30368,7339,29600
30372,7348,29553
30340,7371,29583
30400,7419,29544
30420,7353,29521
30476,7366,29804
30444,7437,29861
30450,7338,29912
30400,7334,29898
30312,7364,29887
30358,7335,29829
30506,7364,29917
30480,7409,29935
30480,7356,29879
30524,7382,29917
30580,7353,29954
30612,7403,30196
30695,7356,30234
30660,7374,30349
30693,7335,30471
30600,7351,30516
30580,7397,30501
30692,7352,30407
30781,7388,30343
30744,7356,30548
30872,7380,30564
30876,7349,30493
30864,7357,30600
30896,7415,30774
30956,7366,30669
31017,7468,30502
31072,7346,30793
31101,7381,30813
31148,7356,30808
31320,7372,30753
31380,7360,30800
31513,7365,30921
31572,7417,31111
31744,7368,30996
31764,7392,30971
31776,7348,30830
31872,7373,30843
31952,7473,30975
32080,7367,31048
32220,7403,31004
32417,7349,30964
32568,7361,31000
32696,7341,31308
32696,7352,31220
32817,7396,31239
32832,7341,31404
32964,7398,31399
33136,7381,31218
33268,7349,31460
33404,7379,31596
33396,7346,31510
33456,7372,31434
33412,7341,31535
33436,7380,31543
33540,7334,31465
33716,7386,31526
33792,7332,31484
33748,7388,31521
33696,7361,31727
33693,7391,31788
33701,7345,31768
33612,7380,31659
33544,7441,31797
33576,7329,31879
33612,7355,31772
33700,7332,31751
33768,7368,31744
33804,7396,31764
33788,7340,31780
33708,7373,31805
33724,7375,31815
33773,7334,31887
33852,7367,31900
33660,7373,31853
33704,7320,31956
33637,7339,31975
33600,7389,31998
33548,7333,32021
33548,7354,32033
33636,7360,32046
33660,7398,32031
33665,7356,31901
33604,7356,31924
33640,7321,32190
33660,7352,32181
33568,7421,32197
33452,7336,32132
33484,7368,32014
33472,7341,31999
33493,7364,31797
33509,7340,32111
33548,7345,32093
33440,7357,32100
33328,7475,32124
33288,7323,32135
33348,7358,32116
33432,7333,32040
33568,7364,32150
33616,7465,32263
33361,7364,32207
33296,7375,32127
33288,7334,32117
33248,7361,32088
33288,7349,32092
33280,7325,32104
33210,7330,32121
33152,7355,32101
33196,7336,31901
33296,7349,31943
33340,7373,31980
33390,7340,32214
33412,7340,32208
33216,7359,32245
33236,7420,32257
33280,7321,31991
33208,7359,32244
33172,7325,32281
33173,7348,32263
33137,7386,32301
33124,7340,32300
33208,7354,32316
33176,7358,32065
33248,7425,32214
33080,7320,32276
33069,7353,32380
33260,7354,32377
33312,7383,32404
33304,7334,32420
33224,7342,32381
33104,7352,32380
33173,7340,32378
33192,7364,32332
33196,7378,32321
33128,7325,32364
33124,7343,32372
33092,7324,32364
33108,7348,32393
33184,7376,32377
33248,7333,32385
33104,7371,32380
33056,7486,32416
33120,7335,32423
33205,7349,32455
33244,7420,32432
33168,7319,32428
33020,7345,32445
33124,7326,32412
33120,7346,32415
33160,7388,32434
33180,7341,32412
33212,7355,32400
33100,7407,32388
33157,7325,32413
33232,7337,32412
33177,7381,32402
33076,7322,32218
33134,7348,32289
33268,7331,32179
33324,7363,32382
33256,7336,32385
32989,7359,32381
33056,7475,32368
33080,7361,32353
33072,7374,32116
33132,7339,32348
33102,7361,32327
33136,7326,32061
33140,7335,32423
33057,7373,32402
33148,7394,32333
33276,7335,32237
33189,7350,32186
33120,7328,32084
33112,7336,32227
33072,7319,32232
33068,7356,32197
33088,7391,32053
33012,7329,32047
33076,7370,32229
33021,7392,32280
33033,7331,32211
33028,7368,32172
33066,7365,32007
33052,7320,32036
33126,7337,32053
33125,7344,32041
33128,7332,32012
33128,7366,31820
33085,7378,31773
32988,7338,32048
33056,7338,31879
33056,7370,32039
33062,7324,32043
33004,7350,32021
32998,7364,31920
33056,7313,31980
33148,7357,32109
33062,7435,32084
32961,7344,31879
33108,7381,31929
33100,7330,31950
33224,7357,31945
33028,7357,31928
32964,7320,31876
32840,7349,31807
32940,7346,31776
32952,7417,31740
33000,7331,31948
33032,7364,31995
33044,7458,31829
32940,7333,31828
32968,7334,31927
33000,7344,31782
33036,7419,31751
33068,7348,31555
33156,7364,31654
33056,7327,31821
32970,7346,31558
33032,7396,31811
32940,7341,31785
32877,7350,31781
32932,7383,31776
32944,7322,31783
32896,7333,31783
32948,7378,31727
33004,7327,31677
32996,7355,31633
33056,7328,31613
33104,7349,31629
33040,7378,31677
32932,7339,31751
32880,7331,31745
32805,7343,31484
32840,7368,31461
32924,7311,31444
32912,7339,31744
32933,7365,31734
32992,7429,31473
32940,7336,31440
32960,7369,31535
32864,7368,31636
32908,7330,31637
32904,7356,31639
32924,7353,31724
32862,7315,31737
32780,7332,31716
32912,7394,31764
32912,7329,31826
32960,7361,31810
33024,7336,31828
32945,7363,31822
32916,7384,31764
32900,7320,31773
32952,7350,31781
32916,7319,31835
32976,7348,31782
33004,7348,31788
32984,7411,31659
33000,7335,31785
32869,7363,31751
32900,7410,31796
32784,7325,31773
32724,7337,31728
32736,7355,31791
32712,7315,31703
32620,7333,31700
32628,7345,31684
32737,7391,31698
32892,7332,31767
32820,7356,31702
32604,7409,31641
32538,7331,31670
32528,7331,31800
32544,7335,31766
32644,7444,31780
32724,7350,31789
32756,7373,31789
32912,7330,31684
32857,7359,31628
32716,7341,31586
32741,7353,31369
32800,7329,31381
32748,7338,31661
32760,7384,31655
32816,7315,31429
32850,7330,31351
32752,7397,31641
32905,7364,31647
33028,7394,31640
33068,7335,31629
33088,7361,31631
33093,7360,31636
33072,7329,31750
32872,7346,31569
32742,7310,31582
32897,7331,31676
32936,7384,31728
32908,7329,31693
32892,7354,31702
32844,7373,31748
32900,7328,31715
32968,7341,31740
33033,7371,31727
32968,7313,31727
32924,7331,31729
32992,7363,31751
32956,7317,31716
33072,7355,31724
33116,7332,31668
32972,7368,31677
32964,7377,31632
33064,7321,31693
33108,7329,31726
33065,7337,31740
33064,7365,31529
33044,7438,31468
32964,7327,31508
32964,7340,31479
33120,7401,31712
33108,7333,31714
33064,7345,31730
32944,7368,31639
32829,7319,31548
33020,7314,31586
32994,7333,31427
32816,7362,31463
32640,7321,31493
32412,7363,31481
32064,7386,31484
31728,7335,31463
31145,7364,31605
30492,7333,31684
29824,7340,31609
29516,7377,31626
30028,7319,31527
31888,7333,31524
34520,7387,31454
37528,7326,31461
40868,7349,31540
44532,7509,31556
47656,7356,31509
50180,7364,31516
51988,7312,31495
52152,7332,31473
50160,7332,31524
47884,7377,31565
45896,7315,31577
43860,7331,31516
42520,7351,31495
41296,7416,31500
39965,7320,31524
38352,7346,31472
36429,7341,31394
34736,7359,31249
33329,7311,31218
32144,7310,31213
31612,7345,31239
31196,7351,31192
30816,7391,31212
30524,7376,31092
30332,7333,31145
30222,7323,31223
30074,7338,31117
30045,7372,31097
29976,7311,31097
29996,7338,31180
29985,7336,31177
29744,7361,31182
29656,7388,31160
29632,7335,31176
29648,7349,31180
29692,7392,31071
29696,7326,31000
29740,7351,31039
29812,7313,30998
29888,7350,31007
29876,7343,31056
29820,7398,31013
29788,7346,31056
29890,7371,31060
30012,7396,31065
29984,7318,31054
29760,7343,31024
29792,7331,30999
29912,7371,30912
30044,7311,31088
30048,7356,31120
30078,7356,31133
30092,7393,31056
30156,7336,31081
30120,7332,31064
30205,7356,31055
30245,7345,31012
30324,7366,30935
30208,7314,30848
30316,7351,30683
30356,7359,30783
30380,7332,30736
30436,7349,30695
30377,7355,30748
30400,7331,30717
30496,7343,30572
30489,7368,30372
30393,7321,30629
30306,7345,30581
30348,7376,30488
30372,7318,30641
30408,7354,30684
30518,7362,30597
30624,7335,30456
30654,7337,30416
30576,7340,30408
30528,7364,30282
30684,7315,30516
30600,7337,30513
30544,7358,30491
30564,7323,30646
30540,7350,30519
30680,7374,30303
30700,7336,30608
30656,7338,30600
30697,7340,30612
30768,7356,30598
30736,7372,30613
30752,7316,30798
30824,7335,30732
30789,7373,30777
30737,7328,30702
30720,7351,30594
30820,7367,30566
30764,7364,30836
30844,7333,30893
30760,7321,30896
30768,7331,30918
30733,7346,30830
30720,7361,30865
30740,7401,30983
30730,7332,30913
30956,7333,30956
31100,7350,31229
31032,7392,31183
30988,7325,31093
30888,7354,30937
31004,7341,30982
31049,7320,31258
30828,7351,31281
30924,7353,31314
31052,7460,31296
31148,7356,31318
31209,7353,31428
31044,7364,31332
31065,7388,31427
31220,7326,31540
31198,7341,31586
31180,7317,31432
31208,7347,31432
31236,7354,31255
31196,7400,31574
31250,7334,31559
31400,7350,31508
31488,7378,31495
31588,7326,31764
31616,7341,31719
31620,7324,31585
31680,7331,31432
31680,7358,31750
31724,7329,31718
31760,7396,31810
31820,7337,31940
31957,7363,31913
32044,7437,31823
32168,7324,31823
32452,7340,31874
32568,7370,31620
32562,7315,31933
32556,7341,31949
32624,7370,31972
32896,7327,31982
32980,7333,31989
33088,7350,31999
33164,7382,31959
33229,7322,32130
33204,7353,32140
33284,7349,32007
33456,7312,31969
33637,7313,31950
33580,7356,32003
33644,7377,31818
33572,7331,32122
33648,7352,32096
33814,7375,32103
33884,7318,32082
33781,7334,32078
33684,7467,32175
33612,7308,32073
33624,7306,32026
33677,7335,32103
33696,7369,32052
33824,7322,32236
33876,7364,32308
33924,7338,32105
33872,7348,32108
33744,7392,32186
33752,7343,32248
33844,7301,32277
33832,7334,32175
33784,7376,32199
33744,7327,32192
33716,7341,32292
33720,7361,32318
33724,7321,32205
33724,7360,32287
33660,7308,32417
33556,7336,32240
33578,7301,32309
33629,7331,32333
33660,7313,32281
33606,7317,32321
33672,7353,32325
33580,7361,32324
33480,7325,32302
33456,7339,32293
33484,7379,32437
33472,7324,32344
33344,7340,32249
33342,7316,32277
33352,7342,32292
33389,7317,32289
33640,7337,32160
33652,7395,32143
33516,7334,32364
33568,7359,32335
33508,7305,32221
33384,7332,32093
33369,7307,31953
33368,7301,32233
33512,7343,32231
33548,7360,32054
33550,7325,32239
33556,7326,32221
33409,7356,32237
33408,7362,32170
33348,7307,32316
33320,7318,32303
33452,7389,32133
33440,7299,31925
33428,7347,32228
33392,7341,32228
33520,7324,32140
33445,7349,32218
33369,7351,32324
33341,7376,32329
33288,7308,32151
33240,7333,31924
33324,7306,32204
33404,7300,32196
33508,7343,32178
33381,7345,32144
33344,7323,32069
33300,7340,32310
33380,7380,32260
33392,7309,32212
33256,7335,32206
33280,7325,32220
33412,7365,32237
33388,7300,32254
33320,7342,32224
33320,7353,32092
33376,7366,32062
33528,7322,32064
33400,7353,32052
33424,7379,32125
33279,7320,32101
33244,7342,32069
33181,7301,32148
33253,7330,32078
33360,7308,32008
33472,7345,32184
33500,7386,32080
33384,7323,31986
33360,7355,31842
33294,7357,32047
33304,7310,32041
33296,7333,31905
33216,7355,32143
33236,7301,32099
33200,7320,31865
33184,7361,31698
33160,7319,32000
33236,7337,31988
33204,7385,31950
33188,7330,32082
33284,7349,31909
33240,7301,31856
33216,7336,31709
33238,7338,31676
33256,7308,31623
33356,7323,31650
33312,7340,31620
33188,7381,31710
33196,7312,31560
33257,7336,31844
33196,7310,31781
33156,7313,31893
33092,7353,31670
33016,7305,31764
33125,7331,31630
33260,7394,31720
33221,7349,31765
33156,7356,31639
33288,7318,31413
33200,7349,31701
33118,7368,31661
33072,7302,31516
33068,7324,31502
33112,7294,31771
33210,7322,31700
33153,7383,31620
33105,7349,31364
33100,7388,31550
33082,7352,31575
33192,7356,31691
33181,7309,31637
33072,7310,31588
33128,7330,31489
33140,7399,31477
33166,7322,31461
33204,7351,31432
33092,7321,31420
33160,7340,31494
33312,7420,31217
33249,7312,31220
33030,7320,31192
33025,7334,31380
33052,7366,31433
32992,7301,31476
32956,7303,31572
32957,7346,31558
33024,7352,31504
32976,7317,31347
33044,7349,31158
33045,7365,31396
33000,7319,31417
32996,7338,31386
33032,7294,31255
33100,7323,31344
33024,7462,31373
32961,7348,31480
32904,7378,31329
32985,7313,31281
33008,7333,31256
32956,7375,31116
32968,7314,31351
32889,7339,31351
32876,7297,31296
32900,7346,31345
32952,7302,31332
32832,7337,31433
32820,7316,31433
32856,7340,31356
32821,7344,31215
32828,7325,31207
32976,7448,31049
33116,7336,31308
33116,7354,31297
32932,7313,31236
32856,7345,31178
32869,7303,31124
32824,7357,31400
32820,7334,31173
32864,7368,30984
32920,7317,31271
32888,7320,31236
32864,7367,31252
32862,7297,31225
32888,7333,31013
32852,7360,31238
32840,7319,31180
32900,7359,31129
32832,7333,31357
32776,7372,31260
32752,7303,31367
32764,7325,31335
32752,7293,31134
32848,7328,31230
32900,7299,31209
32888,7333,31109
32920,7367,31308
32792,7319,31256
32756,7358,31119
32696,7315,30925
32640,7333,30925
32632,7303,31215
32680,7319,31213
32472,7344,31188
32440,7302,31053
32508,7360,31293
32716,7335,31119
32704,7350,31111
32656,7407,31154
32668,7327,31116
32724,7352,31117
32800,7310,30911
32916,7355,31209
32868,7293,31201
32878,7334,31180
32768,7303,31060
32668,7370,31271
32673,7332,31093
32584,7315,31205
32588,7338,31166
32620,7309,31044
32801,7318,31057
32871,7350,31052
32804,7297,31252
32728,7316,31326
32784,7365,31318
32828,7318,31213
32708,7348,31097
32692,7315,30908
32780,7331,31201
32790,7388,31196
32798,7317,31116
32817,7359,31236
32905,7305,31316
32876,7355,31227
32744,7300,31112
32732,7334,30932
32604,7314,31201
32668,7339,31156
32784,7428,31049
32824,7322,31298
32816,7387,31167
32882,7300,31072
33076,7351,31186
32997,7315,31215
32900,7358,31173
32838,7307,31149
32788,7331,31045
32884,7425,31225
32904,7330,31290
32780,7306,31168
32752,7317,31069
32764,7297,31223
32908,7310,31087
32932,7348,31328
33024,7297,31263
32832,7323,31140
32762,7310,31237
32704,7347,31180
32720,7381,31072
32688,7318,31337
32736,7355,31166
32632,7294,31007
32430,7324,30928
32276,7353,31230
31909,7299,31216
31410,7343,31212
30856,7373,31080
30276,7319,31227
29784,7335,31348
29473,7385,31332
29629,7307,31249
31112,7315,31242
33432,7390,31101
36144,7302,31222
39228,7318,31232
42696,7365,31233
46007,7310,31209
48540,7332,30932
50304,7341,30940
50552,7303,30961
48732,7332,31217
46688,7341,31228
45008,7280,31177
43296,7316,31160
41980,7361,31040
40860,7293,31211
39544,7321,31281
38120,7309,31116
36544,7345,31060
35012,7353,30886
33588,7301,30982
32456,7326,31087
31432,7344,31090
30877,7292,31030
30536,7322,31060
30488,7303,31074
30368,7336,30941
30224,7316,30905
30188,7340,30830
30180,7378,30972
30148,7302,30956
30156,7325,30910
30056,7297,30836
29981,7333,30932
30024,7329,31044
29948,7301,31028
30000,7333,30876
29884,7428,30794
29972,7330,30996
30024,7310,31122
29996,7362,30892
29888,7316,31021
29940,7303,31141
30010,7297,30972
30042,7314,31060
30086,7306,31054
30020,7328,31181
30102,7312,31081
30048,7353,31004
29964,7308,30834
29980,7316,30826
30004,7365,31080
30124,7292,31111
30312,7312,31103
30356,7383,31053
30376,7309,30940
30324,7350,31202
30256,7312,30980
30264,7334,30772
30224,7306,31048
30164,7320,30901
30277,7333,30878
30330,7294,30860
30312,7320,31080
30316,7344,31020
30328,7306,30733
30396,7333,30956
30385,7313,30822
30441,7335,30940
30421,7445,30871
30372,7335,30652
30384,7352,30916
30496,7289,30864
30504,7305,30755
30456,7354,30985
30652,7308,30924
30616,7344,31017
30625,7378,30821
30588,7325,30928
30492,7330,30949
30440,7299,30815
30432,7324,31016
30528,7298,30900
30588,7314,30757
30625,7418,31054
30704,7326,30928
30780,7310,31221
30664,7338,31132
30488,7310,30980
30485,7330,31185
30492,7302,31236
30684,7317,31260
30744,7345,31312
30664,7295,31357
30720,7327,31151
30844,7342,31296
30772,7315,31184
30678,7344,31213
30716,7355,31542
30740,7311,31600
30696,7333,31608
30668,7301,31593
30800,7317,31553
30852,7354,31668
30788,7299,31719
30741,7325,31715
30868,7388,31734
30896,7324,31876
30860,7362,31996
30848,7308,31919
30918,7332,31804
30951,7302,32069
30912,7321,32048
30940,7343,31973
30988,7301,32185
31100,7324,32225
31112,7369,32152
31246,7316,32047
31300,7336,32111
31232,7369,32340
31264,7301,32365
31272,7335,32397
31172,7346,32428
31262,7293,32455
31300,7322,32495
31472,7399,32530
31504,7320,32574
31396,7350,32585
31476,7317,32604
31584,7344,32608
31748,7362,32628
31596,7297,32630
31572,7323,32654
31684,7298,32629
31868,7324,32734
32012,7364,32875
32046,7315,32783
32168,7350,32879
32296,7312,32912
32196,7353,32812
32280,7303,33019
32380,7343,32925
32528,7297,32717
32540,7352,33064
32548,7302,33024
32657,7363,33211
32892,7315,33263
33084,7348,33239
33104,7308,33121
33080,7336,32991
32960,7319,33215
33133,7396,33162
33240,7322,33332
33288,7426,33389
33320,7322,33372
33284,7302,33247
33377,7335,33360
33332,7314,33383
33462,7327,33276
33508,7300,33485
33468,7340,33366
33308,7294,33269
33348,7328,33493
33476,7290,33484
33456,7349,33582
33376,7310,33533
33472,7354,33445
33532,7323,33591
33620,7372,33543
33796,7330,33717
33688,7303,33652
33600,7347,33572
33384,7303,33652
33368,7320,33682
33461,7288,33724
33440,7343,33597
33381,7321,33733
33440,7373,33751
33508,7320,33735
33484,7301,33787
33500,7345,33608
33413,7311,33798
33396,7435,33894
33316,7300,33849
33324,7392,33671
33324,7316,33845
33312,7301,33688
33330,7332,33975
33392,7307,33768
33380,7329,33841
33332,7294,33828
33272,7308,33708
33304,7435,33897
33308,7301,33956
33270,7291,33788
33268,7315,33872
33336,7302,33876
33320,7338,33798
33192,7368,33888
33204,7333,33903
33136,7394,33716
33205,7297,33910
33260,7283,33819
33192,7312,34029
33208,7290,33978
33228,7316,33829
33308,7385,33609
33344,7338,33917
33358,7445,33924
33188,7312,33973
33232,7373,33892
33204,7318,33964
33164,7364,33957
33221,7293,33826
33300,7315,33965
33304,7294,34104
33228,7316,33932
33140,7349,33674
33096,7319,33996
33076,7362,34120
33156,7307,33972
33088,7286,34064
33050,7324,33927
33000,7319,34055
33044,7290,33749
33056,7314,34055
33120,7379,34098
33204,7301,34205
33258,7339,34060
33182,7303,34125
33076,7327,34144
33064,7282,34015
33212,7308,34244
33340,7286,34092
33228,7361,34151
33200,7317,34311
33180,7307,34005
33125,7362,34215
33148,7309,34156
33204,7341,34116
33150,7285,34358
33088,7366,34100
33128,7318,33903
33153,7353,34257
33184,7322,34218
33248,7295,34303
33168,7337,34362
33096,7408,34196
33132,7315,33943
33140,7295,34264
33206,7309,34228
33244,7433,34135
33193,7302,34304
33120,7340,34375
33132,7314,34240
33128,7360,33991
33204,7316,34303
33216,7325,34247
33200,7326,34307
33160,7330,34390
33092,7285,34358
33152,7302,34244
33196,7281,34062
33184,7296,34302
33228,7364,34276
33216,7293,34272
33196,7320,34189
33198,7299,34383
33128,7316,34420
33092,7343,34424
33096,7292,34264
33168,7311,34240
33192,7279,34143
33145,7340,34311
32996,7321,34168
33028,7363,34438
33132,7327,34360
33144,7365,34124
33132,7313,34310
32985,7355,34292
33017,7285,34156
33064,7315,34324
33096,7279,34404
33028,7293,34340
33072,7395,34225
33044,7306,33978
32984,7346,34311
32960,7301,34307
33004,7334,34181
32968,7293,34350
32854,7300,34215
32820,7422,34398
32860,7310,34316
32912,7337,34208
32784,7279,34337
32736,7326,34349
32872,7294,34367
32929,7316,34383
33024,7356,34372
32954,7291,34384
32832,7313,34372
32780,7277,34420
32792,7311,34420
32756,7275,34388
32701,7307,34345
32740,7290,34359
32728,7316,34439
32783,7395,34460
32770,7323,34332
32728,7376,34484
32720,7287,34512
32734,7324,34524
32608,7271,34413
32556,7303,34549
32584,7285,34519
32608,7314,34461
32592,7340,34689
32600,7311,34242
32636,7339,34589
32624,7290,34501
32640,7339,34632
32632,7313,34430
32616,7279,34652
32648,7295,34550
32741,7384,34749
32784,7301,34780
32676,7354,34380
32612,7303,34743
32468,7332,34653
32532,7291,34886
32481,7301,34823
32542,7278,34510
32538,7301,34840
32480,7275,34776
32492,7303,34933
32504,7350,35024
32516,7301,34996
32484,7335,35079
32424,7386,34897
32408,7308,34989
32480,7291,34871
32484,7296,35132
32372,7280,35044
32300,7303,34952
32352,7354,35101
32392,7313,35010
32392,7350,35248
32398,7300,35117
32368,7346,34882
32361,7292,35217
32416,7328,35095
32440,7278,35346
32408,7311,35335
32352,7279,35172
32308,7305,35332
32245,7293,35335
32288,7306,35340
32369,7334,35253
32472,7299,35532
32428,7310,35453
32396,7289,35335
32412,7302,35497
32405,7426,35364
32360,7294,35556
32360,7410,35492
32392,7314,35572
32460,7340,35561
32468,7300,35679
32504,7333,35567
32512,7292,35669
32524,7337,35549
32548,7294,35730
32481,7348,35720
32440,7282,35774
32436,7324,35636
32444,7288,35914
32492,7328,35754
32548,7297,35844
32544,7336,35740
32532,7291,35956
32516,7311,35766
32548,7279,35941
32480,7340,36080
32428,7310,35685
32476,7352,35948
32472,7315,36146
32564,7349,36014
32654,7303,35692
32684,7327,36092
32560,7290,35973
32448,7319,36136
32452,7338,36084
32504,7311,36178
32436,7279,36233
32408,7301,36087
32412,7287,36210
32484,7332,36340
32500,7324,36276
32484,7440,36292
32404,7307,36193
32409,7285,36311
32376,7301,36391
32311,7279,36284
32360,7333,36391
32250,7311,36271
32172,7393,36500
32212,7326,36290
32160,7348,36420
32132,7310,36399
31972,7350,36615
31824,7317,36325
31504,7277,36405
31036,7327,36648
30548,7295,36484
29996,7343,36564
29416,7293,36524
29092,7339,36730
29328,7301,36640
30848,7316,36565
33344,7361,36562
36308,7289,36616
39528,7303,36682
43060,7287,36596
46220,7288,36828
48736,7378,36762
50484,7302,36652
50484,7398,36720
48416,7315,36684
46132,7290,36868
44252,7304,36824
42524,7279,36704
41464,7311,36401
40384,7265,36744
39184,7285,36660
37680,7277,36895
36052,7298,36777
34476,7369,36580
33088,7308,36791
32032,7335,36782
31232,7291,36719
30670,7319,36796
30300,7282,36748
30052,7304,36743
29912,7279,36621
29760,7312,36696
29636,7285,36720
29557,7308,36701
29556,7299,36860
29496,7330,36592
29444,7308,36703
29420,7350,36886
29472,7292,36472
29484,7276,36736
29496,7290,36936
29540,7277,36775
29616,7312,36845
29668,7295,36854
29530,7312,36753
29477,7293,36937
29476,7332,36913
29428,7297,36850
29445,7324,37046
29477,7295,36980
29556,7278,36983
29572,7311,37101
29596,7289,36957
29652,7307,36633
29676,7296,36983
29740,7314,36872
29844,7333,36925
29804,7282,37109
29728,7296,37022
29744,7351,36895
29776,7308,36577
29860,7305,36940
29928,7303,36823
30036,7300,37029
30109,7309,37030
30086,7347,36852
30112,7290,36522
30124,7301,36876
30176,7342,36844
30192,7302,36785
30144,7325,36836
30112,7279,36898
30040,7322,36735
30068,7290,36709
30109,7323,36772
30204,7308,36761
30096,7388,36718
30144,7307,36732
30156,7282,36711
30144,7325,36868
30164,7273,36818
30216,7302,36652
30278,7343,36709
30367,7309,36717
30444,7337,36665
30496,7307,36852
30388,7345,36812
30245,7320,36806
30260,7285,37039
30294,7293,36969
30320,7377,36948
30381,7316,36764
30336,7350,37101
30332,7323,37037
30388,7303,37321
30380,7319,37117
30364,7295,37292
30429,7309,37273
30438,7284,37543
30524,7301,37545
30592,7277,37468
30584,7321,37591
30524,7295,37489
30508,7336,37800
30532,7314,37701
30556,7358,37818
30560,7330,37786
30589,7336,37818
30612,7282,37946
30625,7297,38151
30656,7283,38256
30660,7316,38276
30668,7356,38143
30660,7321,38271
30660,7385,38181
30713,7336,38509
30792,7293,38220
30812,7335,38460
30820,7289,38663
30853,7312,38663
30922,7300,38630
30944,7289,38588
30932,7305,38791
30920,7301,38912
30920,7320,38857
30975,7301,38686
30926,7334,38929
31045,7346,38927
31196,7284,38984
31232,7305,38943
31276,7277,39172
31348,7300,39209
31392,7430,39088
31436,7321,39237
31408,7304,39216
31532,7333,39247
31617,7295,39380
31656,7331,39520
31728,7285,39487
31780,7316,39417
31876,7280,39404
31944,7335,39533
32000,7308,39444
32092,7298,39757
32236,7328,39762
32348,7336,39807
32464,7295,39839
32505,7308,39828
32544,7282,39732
32564,7300,39317
32680,7273,39829
32812,7304,39815
32900,7289,39835
32952,7342,40036
33016,7319,39847
33024,7297,39941
33103,7313,39828
33224,7284,40117
33256,7311,39988
33308,7275,39996
33264,7293,39815
33220,7278,39872
33228,7313,39756
33300,7294,40093
33380,7336,40128
33368,7325,40044
33468,7285,40245
33492,7310,40177
33516,7279,39692
33548,7365,40199
33548,7307,40184
33568,7274,40180
33596,7356,40312
33540,7306,40141
33464,7293,40256
33437,7309,40281
33448,7286,40236
33432,7307,40471
33420,7277,40285
33352,7327,40327
33304,7279,40364
33317,7328,40289
33334,7288,40300
33360,7289,40468
33328,7308,40379
33328,7284,40012
33328,7331,40432
33204,7294,40372
33054,7269,40501
32960,7333,40440
33068,7285,40304
33124,7273,40487
33108,7343,40452
33164,7308,40454
33172,7435,40396
33220,7303,40593
33289,7283,40452
33296,7339,40447
33280,7297,40415
33268,7305,40553
33252,7265,40469
33168,7340,40431
33104,7322,40436
33024,7299,40479
33060,7292,40372
33192,7305,40591
33237,7287,40455
33256,7298,40252
33196,7280,40511
33144,7269,40518
33088,7292,40517
33124,7269,40356
33124,7305,40526
33144,7284,40485
33200,7385,40709
33232,7317,40625
33300,7353,40481
33380,7311,40077
33300,7415,40596
33200,7282,40538
33180,7268,40681
33190,7309,40679
33200,7277,40684
33308,7335,40560
33292,7322,40640
33244,7384,40577
33252,7302,40728
33288,7276,40731
33232,7332,40640
33232,7280,40612
33184,7267,40834
33100,7301,40674
33073,7277,40668
33088,7346,40711
33064,7305,40820
33116,7348,40677
33240,7295,40421
33336,7316,40709
33400,7280,40581
33396,7319,40839
33320,7300,40668
33237,7375,40708
33252,7292,40676
33320,7279,40822
33348,7317,40564
33304,7283,40695
33300,7336,40663
33232,7302,40583
33200,7322,40834
33228,7271,40780
33212,7320,40606
33212,7299,40680
33228,7424,40607
33216,7294,40709
33216,7287,40806
33036,7313,40412
32924,7277,40664
32964,7300,40636
32968,7273,40693
32996,7318,40639
32988,7269,40160
33024,7295,40615
33028,7278,40522
33033,7298,40720
33064,7290,40223
33060,7322,40576
32996,7338,40541
32928,7291,40415
32872,7312,40575
32936,7266,40669
32896,7284,40525
32940,7330,40320
32944,7272,39989
32980,7321,40452
33056,7281,40310
33040,7305,40327
32956,7281,40541
32861,7295,40368
32750,7274,40249
32740,7296,40036
32806,7329,40005
32901,7277,40327
33012,7334,40272
33088,7298,40165
33109,7335,40144
33089,7283,40189
33017,7303,40343
32900,7282,40376
32804,7291,40184
32797,7267,40164
32820,7286,40177
32820,7342,40124
32864,7311,39999
32904,7331,40023
32904,7285,39973
32928,7321,39965
32896,7416,40057
32908,7294,40196
32952,7268,40028
32920,7316,40023
32872,7269,40022
32856,7289,39997
32888,7273,39893
32904,7316,39861
32908,7291,40117
32878,7316,39943
32848,7279,39836
32836,7299,39718
32800,7268,39481
32741,7298,39916
32701,7287,39892
32712,7324,39860
32714,7306,39848
32772,7282,39844
32824,7308,39391
32836,7287,39862
32864,7311,39801
32844,7275,39791
32788,7300,39973
32734,7351,39836
32728,7300,39676
32815,7270,39431
32800,7293,39397
32812,7356,39513
32776,7319,39470
32765,7435,39783
32805,7317,39752
32809,7274,39696
32812,7289,39663
32806,7268,39765
32820,7284,39863
32800,7377,39844
32813,7285,39769
32836,7347,39721
32862,7298,39751
32888,7334,39748
32908,7313,39679
32912,7330,39645
32897,7266,39791
32806,7289,39785
32708,7272,39870
32712,7284,39773
32672,7276,39684
32736,7304,39740
32860,7288,39676
32992,7320,39687
32968,7355,39871
32968,7298,39772
32893,7321,39709
32796,7268,39748
32712,7317,39732
32748,7271,39705
32794,7310,39860
32852,7281,39894
32856,7317,39880
32816,7286,39895
32796,7281,39889
32789,7315,39831
32716,7270,39783
32708,7281,39615
32756,7265,39298
32799,7304,39775
32904,7277,39743
33032,7300,39780
33077,7282,39876
33080,7300,39768
33016,7345,39688
32929,7270,39669
32836,7290,39344
32877,7258,39750
32892,7296,39736
32952,7267,39943
32892,7308,39903
32848,7279,39792
32764,7302,39373
32804,7284,39832
32809,7316,39825
32685,7276,39749
32488,7340,39888
32244,7294,39785
31984,7322,39367
31616,7279,39845
31232,7319,39740
30824,7293,39951
30244,7332,39958
29768,7287,39916
29604,7327,39716
30700,7282,39800
33372,7294,39368
36916,7430,39796
40372,7276,39828
43956,7449,39712
47464,7307,39836
50024,7343,39970
51824,7264,39956
51976,7322,39909
49816,7383,39937
47120,7311,39780
44892,7337,39328
43008,7289,39788
42036,7315,39711
41300,7302,39919
40452,7260,39625
39158,7290,39716
37525,7282,39704
35888,7296,39637
34352,7381,39569
33024,7287,39526
32136,7296,39573
31432,7267,39738
30849,7289,39708
30476,7262,39657
30318,7301,39505
30352,7337,39436
30360,7288,38980
30276,7325,39408
30184,7276,39366
30116,7313,39324
30038,7267,39293
29964,7286,39232
29912,7263,39175
29884,7285,39172
29972,7336,39156
30016,7312,39072
29896,7287,39340
29836,7303,39297
29788,7402,39303
29736,7290,39175
29786,7269,38971
29904,7282,39115
29972,7387,39104
30104,7292,39071
30116,7319,38991
30100,7280,38919
30057,7303,38837
30176,7366,38930
30160,7285,39014
30072,7311,38972
30136,7284,38838
30124,7267,38672
30104,7281,38237
30272,7352,38620
30334,7310,38520
30324,7286,38407
30312,7299,38543
30380,7377,38500
30398,7317,38279
30388,7392,37871
30372,7302,38133
30340,7310,38079
30380,7263,37960
30468,7301,37862
30533,7273,37997
30632,7309,37847
30612,7291,37709
30552,7319,37631
30574,7337,37580
30596,7276,37553
30624,7281,37572
30664,7325,37556
30750,7263,37460
30776,7298,37321
30784,7278,37302
30788,7319,37304
30788,7286,37233
30808,7306,37136
30808,7422,37319
30785,7280,37220
30796,7310,37276
30788,7267,37247
30748,7304,37111
30772,7343,37036
30760,7284,37028
30776,7328,36676
30848,7289,37076
30916,7333,37024
30944,7290,36996
30968,7321,37215
30910,7271,37133
30892,7319,37021
30884,7285,37084
30908,7271,37116
30992,7301,37031
31056,7283,37080
31116,7303,37180
31149,7287,37261
31156,7315,37173
31145,7278,37000
31156,7292,37089
31108,7272,36988
31104,7302,37236
31160,7348,37220
31272,7316,37255
31332,7286,37332
31228,7319,37255
31244,7348,36936
31292,7315,37276
31268,7306,37215
31342,7328,37439
31440,7270,37397
31465,7287,37315
31502,7330,37287
31490,7309,37064
31480,7322,36917
31492,7288,37322
31554,7310,37265
31623,7375,37248
31716,7296,37252
31760,7303,37180
31748,7335,37248
31744,7284,37171
31760,7273,37255
31832,7280,37173
31928,7315,37164
31952,7299,37184
31904,7324,37285
32008,7326,37261
32164,7275,37255
32256,7294,37338
32276,7334,37260
32288,7267,37297
32404,7295,37337
32492,7363,37284
32680,7289,37288
32820,7342,37143
32916,7293,36775
32972,7326,37145
33048,7274,37127
33144,7311,37048
33208,7267,36964
33288,7287,37209
33300,7354,37201
33284,7280,37178
33380,7297,37192
33485,7343,37165
33518,7280,37111
33652,7295,37080
33732,7399,36986
33676,7304,36638
33756,7286,36887
33838,7284,36820
33892,7311,36904
33944,7272,36520
33864,7288,36655
33868,7326,36764
33856,7284,36780
33820,7307,36751
33824,7384,36751
33844,7297,36751
33852,7329,36719
33880,7263,36775
33900,7297,36741
33920,7266,36695
33900,7337,36464
33876,7296,36644
33868,7317,36615
33824,7272,36410
33836,7300,36604
33856,7264,36482
33860,7286,36708
33856,7258,36495
33774,7294,36418
33736,7269,36157
33796,7297,36509
33820,7283,36428
33740,7302,36623
33708,7274,36463
33732,7285,36386
33745,7265,36103
33712,7281,36404
33685,7332,36342
33672,7367,36020
33704,7302,36321
33764,7330,36175
33852,7280,36418
33908,7301,36378
33892,7333,36380
33780,7278,36212
33724,7310,35935
33672,7258,35835
33648,7295,36160
33632,7307,36156
33700,7273,36134
33712,7291,35941
33688,7329,36052
33668,7275,36172
33660,7299,36013
33684,7268,35916
33632,7287,36007
33576,7261,35961
33536,7274,35821
33556,7342,35937
33640,7282,35943
33716,7338,35837
33668,7308,35873
33628,7341,35868
33660,7306,35847
33717,7331,35814
33768,7264,35724
33812,7285,35820
33760,7254,35692
33664,7278,35904
33705,7265,35847
33812,7299,35785
33832,7341,35721
33764,7276,35646
33728,7300,35625
33712,7268,35327
33660,7289,35675
33632,7258,35577
33600,7284,35541
33688,7261,35737
33660,7305,35724
33604,7329,35643
33592,7277,35484
33568,7299,35223
33557,7273,35508
33612,7319,35457
33620,7268,35378
33564,7293,35381
33592,7400,35301
33588,7274,35428
33616,7302,35461
33653,7272,35452
33712,7332,35292
33764,7282,35216
33738,7304,35191
33668,7270,35110
33660,7298,35207
33600,7328,35162
33592,7254,35143
33636,7285,34765
33669,7293,34996
33660,7276,34900
33596,7312,35040
33532,7340,35004
33520,7283,34932
33500,7293,34909
33500,7265,34836
33488,7270,34739
33492,7290,34864
33476,7262,34781
33472,7325,34455
33488,7282,34732
33534,7310,34671
33572,7348,34676
33536,7274,34598
33455,7295,34480
33404,7331,34460
33337,7261,34590
33377,7308,34661
33424,7259,34647
33428,7299,34473
33408,7275,34384
33360,7278,34439
33360,7291,34368
33380,7415,34290
33400,7277,34265
33440,7279,34349
33436,7395,34261
33420,7290,33943
33452,7315,34199
33463,7271,34189
33456,7334,34097
33380,7300,34140
33336,7279,33783
33328,7290,34044
33317,7369,33933
33248,7269,33884
33204,7303,34020
33140,7260,34044
33045,7271,34044
33000,7297,33967
33052,7276,33868
33092,7291,33737
33036,7341,33612
33012,7273,33540
33064,7301,33752
33074,7255,33693
33012,7272,33636
32896,7334,33600
32910,7284,33719
32980,7327,33493
33050,7305,33572
33104,7281,33384
33160,7296,33532
33189,7271,33541
33183,7287,33369
33168,7384,33423
33124,7275,33355
33080,7314,33287
33132,7264,33463
33132,7304,33375
33148,7274,33305
33258,7294,33214
33280,7276,33220
33293,7299,33212
33345,7324,33177
33392,7266,33129
33352,7274,33103
33332,7260,33073
33292,7286,33055
33257,7269,33025
33260,7288,32897
33284,7332,32913
33268,7279,32872
33310,7292,32913
33344,7273,32824
33348,7292,32748
33345,7321,32766
33364,7260,32884
33420,7288,32936
33392,7333,32792
33352,7274,32829
33344,7298,32712
33332,7276,32821
33284,7289,32851
33304,7305,32806
33356,7260,32665
33352,7292,32535
33345,7290,32552
33388,7251,32537
33400,7300,32519
33352,7313,32487
33292,7273,32474
33348,7301,32476
33348,7307,32458
33316,7268,32356
33320,7289,32412
33304,7255,32553
33269,7263,32531
33268,7273,32420
33248,7334,32504
33232,7269,32466
33176,7303,32384
33166,7275,32222
33124,7281,32103
33016,7300,32129
32817,7328,32164
32586,7255,32095
32060,7287,31908
31500,7342,32194
30952,7269,32156
30332,7310,32137
29804,7278,32080
29644,7313,32036
30776,7368,31949
33436,7268,31964
36928,7300,31901
40560,7253,31872
44344,7268,32002
48056,7250,32092
51124,7276,32068
53404,7323,32044
54341,7258,31997
53013,7312,32015
50172,7317,31964
47858,7258,31965
45672,7277,31908
43868,7292,31821
42656,7239,31804
41376,7269,31828
39896,7254,31802
38180,7292,31596
36388,7265,31446
34700,7304,31584
33280,7354,31348
32276,7268,31476
31528,7305,31399
31060,7269,31286
30692,7308,31212
30432,7287,31117
30268,7308,31047
30134,7293,31293
30040,7320,31012
29976,7278,30964
29952,7326,31013
29893,7264,30876
29864,7277,30855
29758,7299,30845
29692,7261,31018
29740,7256,31189
29742,7281,30991
29758,7356,30985
29788,7273,31127
29800,7310,31182
29796,7327,31136
29800,7267,31152
29740,7290,30841
29654,7296,30828
29668,7255,30865
29708,7274,30901
29756,7284,30848
29797,7325,30550
29840,7276,30589
29912,7290,30606
29922,7289,30589
29956,7301,30679
29996,7262,30692
30000,7257,30671
30016,7285,30516
30004,7282,30462
30052,7288,30199
30060,7303,30365
30088,7334,30170
30104,7275,30254
30100,7280,29932
30148,7290,30058
30213,7262,29973
30248,7274,29957
30276,7309,30082
30304,7260,30049
30152,7292,29911
30152,7276,29856
30220,7305,29826
30257,7324,29851
30352,7279,29748
30440,7272,29650
30362,7284,29655
30340,7264,29352
30397,7265,29383
30404,7292,29329
30396,7400,29437
30428,7287,29376
30417,7319,29396
30408,7275,29408
30440,7291,29396
30434,7324,29479
30408,7261,29447
30384,7288,29468
30397,7299,29521
30416,7263,29575
30444,7272,29484
30504,7292,29353
30548,7335,29472
30524,7279,29508
30504,7303,29518
30477,7273,29540
30460,7278,29537
30428,7266,29463
30409,7279,29557
30472,7295,29616
30520,7275,29680
30516,7277,29722
30484,7302,29506
30400,7341,29679
30460,7278,29871
30594,7281,29748
30532,7281,29825
30484,7303,29893
30492,7326,29968
30549,7263,30019
30596,7304,29869
30612,7332,29924
30620,7285,30084
30664,7280,29918
30689,7293,30148
30692,7329,30148
30764,7265,30290
30784,7284,30352
30804,7342,30399
30840,7274,30325
30864,7324,30308
30832,7285,30212
30889,7298,30346
30906,7341,30405
30912,7287,30428
30916,7328,30447
30964,7274,30484
31040,7288,30496
31134,7304,30435
31264,7267,30518
31336,7303,30605
31310,7318,30700
31305,7366,30528
31432,7280,30553
31600,7301,30637
31629,7329,30444
31712,7266,30596
31852,7278,30629
31956,7320,30695
32112,7262,30795
32294,7288,30892
32404,7333,30871
32592,7281,30843
32724,7307,30838
32824,7330,30725
32864,7268,30844
32992,7277,30869
33088,7289,30837
33188,7327,30876
33186,7261,30883
33240,7288,30918
33348,7330,30941
33437,7278,30669
33564,7275,30905
33652,7302,31040
33672,7295,30965
33665,7264,30862
33592,7259,30907
33637,7289,30941
33672,7256,30951
33693,7292,31004
33700,7327,30800
33748,7276,30932
33797,7271,31109
33844,7289,31110
33880,7279,31029
33816,7260,31049
33692,7253,30809
33660,7280,30812
33640,7256,30973
33620,7295,30988
33692,7300,30983
33768,7269,30948
33800,7285,30804
33828,7333,30804
33804,7280,31092
33743,7294,31094
33608,7245,31101
33620,7268,31109
33653,7314,31111
33628,7332,31071
33572,7266,31208
33593,7289,31215
33612,7317,31140
33628,7268,31108
33596,7293,31074
33560,7279,31068
33476,7319,31073
33528,7249,31077
33504,7267,31020
33476,7264,31158
33500,7274,31164
33532,7285,31161
33576,7315,30921
33626,7266,31068
33592,7263,31084
33408,7278,30978
33288,7314,31101
33228,7261,30916
33236,7267,31116
33288,7308,31199
33296,7268,31159
33317,7286,31157
33308,7299,31350
33316,7361,31364
33340,7264,31333
33324,7279,31125
33269,7357,31102
33282,7248,31204
33292,7269,31279
33288,7303,31277
33340,7269,31062
33336,7275,31231
33328,7286,31349
33292,7307,31444
33324,7264,31468
33373,7285,31498
33304,7281,31439
33304,7315,31383
33334,7252,31340
33381,7266,31438
33404,7293,31473
33360,7268,31489
33368,7297,31473
33288,7327,31408
33304,7255,31460
33372,7268,31428
33388,7253,31605
33344,7252,31552
33321,7276,31737
33276,7341,31744
33196,7267,31692
33232,7313,31460
33240,7266,31661
33220,7278,31704
33368,7335,31718
33344,7260,31740
33244,7277,31751
33240,7248,31748
33228,7281,31760
33220,7304,31781
33214,7265,31782
33302,7269,31774
33301,7300,31557
33287,7320,31561
33244,7258,31667
33252,7250,31734
33260,7263,31735
33236,7309,31653
33172,7248,31845
33188,7314,31781
33220,7273,31941
33153,7326,31940
33148,7281,31917
33144,7375,31783
33137,7284,31639
33121,7255,31871
33125,7268,31874
33080,7267,31852
33104,7311,31849
33092,7257,31812
33136,7287,31750
33128,7381,31742
33166,7262,31712
33108,7279,31879
33053,7348,31954
33044,7253,31933
33088,7267,31923
33088,7245,31931
33096,7263,31953
33081,7319,31930
33088,7260,31816
33076,7270,31719
33048,7282,31775
33040,7313,31789
33030,7260,31766
33076,7247,31636
33124,7249,31725
33144,7258,31813
33134,7263,31687
33148,7305,31744
33116,7267,31728
33064,7299,31703
33120,7298,31712
33060,7331,31566
32966,7257,31653
32952,7261,31825
32909,7267,31607
32925,7294,31624
32976,7358,31672
32960,7253,31450
32964,7276,31568
32960,7287,31748
32953,7327,31744
33060,7264,31608
33076,7282,31517
33004,7409,31645
32916,7239,31509
32932,7276,31516
32928,7272,31434
32992,7404,31532
33028,7264,31549
33020,7280,31534
32996,7327,31548
32956,7263,31532
32920,7283,31526
32952,7248,31469
32912,7280,31477
32908,7306,31396
32912,7282,31524
32852,7321,31431
32848,7267,31207
32873,7314,31459
32941,7260,31468
32936,7286,31385
32904,7252,31364
32884,7268,31540
32928,7323,31517
32948,7249,31423
32896,7289,31329
32880,7259,31263
32860,7275,31136
32868,7263,31421
32876,7286,31321
32836,7258,31510
32884,7290,31527
32908,7256,31533
32892,7280,31452
32796,7287,31439
32620,7247,31461
32672,7269,31543
32712,7305,31549
32696,7264,31539
32720,7298,31452
32688,7329,31316
32692,7262,31341
32685,7278,31425
32637,7292,31401
32700,7248,31260
32754,7263,31116
32745,7290,31392
32672,7265,31108
32680,7280,31118
32756,7296,31266
32808,7258,31384
32832,7291,31278
32844,7246,31396
32890,7268,31524
32892,7245,31396
32860,7287,31294
32792,7311,31226
32852,7257,31124
32885,7292,31176
32912,7293,31285
32924,7266,31288
32996,7280,31316
33029,7302,31269
32996,7240,31070
33004,7275,31367
33000,7248,31296
33004,7283,31284
33024,7263,31462
33060,7293,31370
33077,7319,31382
33100,7262,31324
33136,7298,31207
33124,7245,31008
33108,7262,31292
33088,7243,31279
33041,7289,31151
33020,7265,31406
33040,7352,31196
33120,7271,31070
33184,7303,31285
33268,7256,31230
33116,7280,31159
33096,7305,31263
33112,7242,31169
33108,7279,31200
33096,7301,31264
33060,7249,31392
33105,7283,31271
33120,7260,31156
33142,7297,31040
33128,7295,31101
33128,7247,31028
33112,7265,31013
33052,7258,31038
32920,7295,31064
32900,7364,31143
32948,7252,31230
33006,7295,31236
33048,7288,31284
33030,7332,31322
33033,7252,31356
32984,7271,31319
32880,7313,31290
32696,7240,31253
32400,7270,31131
32090,7249,31108
31656,7268,31088
31104,7342,31088
30416,7300,31018
29788,7322,31034
29504,7264,31068
29988,7275,31048
31892,7316,31044
34932,7256,30949
38376,7279,31024
42092,7420,31076
46232,7242,31165
50080,7279,31150
53264,7256,31156
55576,7298,31156
56416,7320,31066
54785,7236,30954
51688,7287,31018
49160,7302,30844
46492,7243,30856
44236,7289,30986
42588,7239,30920
40936,7291,31007
39122,7323,30996
37200,7252,30973
35352,7279,30829
33684,7257,30661
32400,7269,30615
31480,7308,30644
30760,7257,30417
30340,7303,30678
30073,7253,30643
29905,7297,30573
29736,7263,30462
29572,7279,30532
29444,7318,30529
29396,7253,30560
29328,7265,30566
29260,7285,30364
29136,7243,30364
29061,7283,30360
29092,7257,30574
29148,7275,30565
29164,7268,30426
29156,7297,30261
29128,7297,30250
29136,7252,30382
29112,7267,30270
29152,7301,30276
29188,7244,30285
29244,7276,30268
29308,7253,30215
29332,7294,30164
29360,7309,30153
29468,7269,30257
29488,7271,30264
29492,7280,30254
29530,7250,30221
29524,7242,30271
29540,7275,30088
29496,7294,30055
29566,7262,30204
29608,7319,30124
29628,7268,30052
29664,7300,29978
29672,7259,29932
29708,7269,29864
29768,7290,29821
29888,7382,29799
29936,7250,29723
29920,7283,29687
29728,7256,29637
29704,7297,29679
29772,7267,29661
29857,7292,29564
29972,7321,29527
30068,7254,29493
30076,7268,29391
30004,7318,29520
29920,7243,29484
29897,7262,29412
29952,7306,29440
30036,7262,29502
30100,7279,29447
30145,7306,29413
30188,7378,29465
30080,7263,29412
30008,7283,29319
30074,7249,29260
30122,7259,29204
30129,7277,29331
30148,7258,29357
30148,7295,29335
30200,7307,29343
30325,7273,29236
30330,7291,29267
30200,7261,29272
30180,7271,29311
30221,7279,29329
30205,7246,29504
30222,7268,29657
30176,7281,29692
30198,7289,29596
30204,7268,29567
30244,7277,29571
30201,7382,29569
30213,7262,29545
30244,7268,29654
30248,7317,29654
30236,7249,29600
30280,7278,29849
30364,7257,29896
30288,7298,29809
30356,7267,30069
30413,7307,29984
30492,7269,29905
30532,7307,30044
30504,7252,30077
30476,7263,30109
30392,7314,29992
30448,7255,30031
30468,7292,30168
30612,7292,30236
30668,7327,30271
30684,7269,30256
30656,7295,30268
30664,7295,30303
30600,7257,30351
30592,7253,30385
30620,7276,30396
30684,7256,30337
30828,7276,30341
30977,7348,30528
31073,7289,30662
31104,7294,30705
30944,7267,30617
31074,7292,30548
31176,7308,30401
31242,7260,30429
31326,7287,30716
31420,7253,30756
31553,7301,30732
31740,7262,30692
31920,7284,30766
32084,7266,30708
32204,7296,30860
32284,7255,31014
32412,7282,31022
32545,7249,31044
32736,7289,31012
32877,7244,31121
32972,7273,30854
33033,7283,30991
33118,7339,31044
33226,7277,31063
33292,7300,31092
33300,7254,31107
33336,7273,31133
33480,7296,31149
33564,7308,31047
33692,7244,31085
33660,7274,31096
33516,7259,31111
33628,7276,31128
33636,7332,31150
33665,7277,31133
33640,7333,31247
33632,7268,31292
33632,7293,31317
33671,7243,31324
33693,7260,31351
33660,7324,31332
33701,7259,31367
33744,7277,31386
33784,7261,31367
33772,7267,31300
33788,7244,31511
33784,7271,31532
33776,7240,31469
33780,7245,31372
33764,7270,31432
33728,7246,31556
33716,7270,31588
33712,7257,31426
33694,7295,31391
33708,7315,31231
33642,7243,31260
33692,7257,31250
33652,7310,31529
33596,7239,31574
33629,7271,31573
33640,7370,31560
33677,7267,31541
33648,7301,31479
33594,7264,31728
33640,7285,31741
33672,7242,31696
33604,7267,31653
33516,7237,31641
33454,7268,31636
33511,7306,31612
33496,7260,31588
33453,7297,31656
33436,7256,31691
33532,7286,31744
33416,7292,31741
33384,7241,31720
33396,7254,31668
33416,7331,31663
33404,7234,31692
33352,7248,31751
33464,7300,31781
33516,7256,31743
33448,7284,31666
33453,7260,31606
33460,7255,31764
33432,7263,31808
33430,7320,31852
33444,7235,32054
33404,7245,32072
33404,7260,31924
33464,7246,31911
33478,7251,31920
33368,7277,32028
33364,7292,31783
33376,7249,31973
33368,7249,32184
33308,7259,32135
33332,7233,31989
33324,7262,32097
33352,7377,32130
33381,7259,32196
33388,7303,32194
33360,7253,32119
33300,7300,32150
33232,7315,32124
33356,7246,32151
33388,7279,32403
33420,7234,32440
33432,7247,32442
33252,7292,32484
33132,7236,32500
33192,7265,32416
33224,7258,32397
33240,7270,32535
33224,7273,32468
33253,7249,32573
33260,7259,32513
33294,7298,32390
33257,7241,32166
33224,7262,32209
33224,7242,32492
33324,7312,32591
33364,7288,32424
33320,7348,32320
33232,7263,32313
33220,7275,32448
33238,7237,32441
33254,7261,32246
33248,7233,32532
33273,7242,32255
33248,7271,32524
33244,7245,32546
33248,7306,32504
33252,7286,32638
33306,7250,32480
33318,7258,32437
33232,7236,32391
33160,7262,32551
33104,7231,32556
33184,7251,32552
33177,7306,32544
33232,7260,32506
33312,7311,32373
33277,7289,32535
33192,7250,32588
33188,7257,32553
33252,7275,32564
33292,7231,32507
33208,7244,32594
33180,7293,32536
33200,7274,32452
33096,7339,32382
33068,7252,32376
33092,7280,32253
33089,7247,32279
33152,7275,32301
33180,7293,32127
33132,7234,32367
33140,7250,32335
33016,7237,32348
33028,7257,32307
33040,7309,32292
33128,7251,32263
33117,7291,32158
33128,7270,32373
33064,7244,32001
32977,7250,32276
33008,7357,32208
33032,7242,32285
33066,7350,32343
33077,7275,32177
33124,7287,32175
33164,7244,32129
33081,7275,32205
33056,7250,32194
33116,7263,32118
33073,7237,32161
33012,7266,32263
32898,7264,32273
32948,7237,32161
32986,7238,32145
33096,7269,32207
33100,7245,32034
33080,7272,32001
33048,7248,31901
33044,7255,31908
33072,7277,32044
33128,7236,32016
33044,7262,31981
33000,7237,31995
33076,7263,32034
33080,7299,32010
33009,7250,31696
33000,7275,31893
33056,7312,31857
33056,7277,31685
33024,7250,32089
33028,7276,31879
32980,7225,31809
33017,7252,31821
33020,7344,31870
33096,7283,31903
33120,7303,31905
32946,7257,31892
32880,7269,31874
32892,7240,31892
32918,7269,31789
32940,7231,31729
32972,7237,31823
32952,7261,31816
32872,7316,31751
32912,7243,31840
32944,7263,31853
32936,7300,31835
32974,7240,31732
32936,7264,31884
32956,7266,31936
33001,7326,31665
32948,7233,31701
32880,7266,31742
32846,7337,31796
32884,7246,31589
32940,7263,31700
32936,7290,31814
32958,7248,31751
32944,7244,31700
32948,7256,31751
33084,7337,31748
33148,7252,31717
33060,7260,31437
32868,7326,31580
32704,7255,31652
32784,7311,31611
32736,7277,31449
32696,7297,31390
32768,7236,31420
32752,7249,31598
32796,7230,31703
32736,7242,31781
32748,7257,31668
32796,7236,31663
32748,7265,31678
32757,7288,31558
32712,7265,31751
32692,7334,31565
32718,7265,31604
32769,7234,31590
32708,7245,31576
32596,7259,31602
32558,7289,31289
32486,7237,31569
32504,7277,31569
32464,7279,31556
32332,7252,31540
32337,7270,31548
32385,7287,31517
32432,7343,31540
32528,7234,31517
32581,7225,31214
32672,7248,31495
32596,7295,31505
32672,7245,31500
32696,7267,31492
32688,7251,31495
32660,7261,31479
32568,7269,31468
32608,7234,31356
32672,7248,31408
32688,7228,31456
32788,7267,31500
32816,7298,31452
32716,7249,31412
32764,7292,31321
32805,7252,31185
32768,7286,31110
32526,7240,31396
32536,7284,31332
32600,7267,31389
32756,7315,31329
32809,7268,31242
32777,7295,31167
32716,7259,31351
32742,7273,31349
32768,7251,31340
32788,7269,31309
32908,7281,31180
32960,7235,31317
32845,7288,31280
32788,7241,31211
32788,7228,31417
32792,7249,31416
32850,7241,31292
32880,7276,31333
32940,7305,31178
32888,7250,31177
32784,7270,31172
32804,7228,31080
32768,7266,31232
32800,7223,31251
32804,7255,31226
32848,7235,31176
32904,7279,31156
32888,7316,31078
32950,7245,31120
32868,7268,31128
32856,7340,31168
32804,7242,31196
32781,7249,30893
32736,7369,31153
32653,7240,30916
32452,7295,31167
32280,7259,31145
31793,7337,31111
31236,7263,31081
30676,7297,30981
30016,7265,31043
29572,7238,30990
29524,7269,30981
30580,7262,30966
32972,7231,30951
36180,7257,31046
39688,7281,30956
43552,7244,31044
47436,7258,31100
50828,7318,31132
53504,7237,31105
55224,7273,30964
54780,7222,30902
52140,7245,30983
49352,7223,31007
46912,7264,31020
44696,7308,30972
43032,7250,30912
41445,7292,30772
39816,7224,30700
37964,7279,30492
36048,7234,30732
34313,7250,30704
32972,7306,30672
31936,7224,30628
31212,7251,30608
30764,7306,30566
30361,7257,30508
30066,7270,30493
29948,7240,30431
29796,7272,30292
29642,7233,30279
29542,7237,30264
29524,7267,30265
29544,7227,30292
29537,7237,30308
29480,7261,30321
29352,7301,30376
29328,7252,30247
29368,7268,30329
29376,7297,30377
29400,7234,30191
29416,7228,30390
29388,7242,30257
29368,7240,30090
29397,7252,30405
29536,7276,30246
29660,7265,30324
29660,7272,30223
29552,7275,30406
29508,7279,30168
29596,7364,30234
29718,7247,30175
29613,7268,30122
29612,7231,30082
29616,7244,30084
29686,7271,30090
29776,7317,30063
29836,7246,30049
29920,7259,30012
29944,7269,29964
29989,7293,29663
29936,7228,29626
29856,7242,29585
29964,7263,29724
30001,7305,29831
30112,7245,29753
30184,7269,29756
30060,7304,29754
30045,7244,29641
30060,7266,29665
30132,7271,29588
30244,7229,29611
30224,7236,29551
30028,7247,29510
30036,7293,29508
30092,7243,29450
30132,7251,29446
30188,7250,29317
30193,7260,29254
30212,7294,29140
30228,7234,29413
30212,7249,29401
30208,7232,29312
30220,7263,29250
30292,7276,29324
30400,7306,29396
30424,7248,29292
30456,7267,29311
30324,7277,29199
30244,7257,29296
30328,7293,29205
30256,7226,29468
30248,7265,29504
30272,7276,29530
30348,7240,29489
30444,7272,29580
30424,7308,29645
30432,7258,29559
30369,7271,29575
30383,7243,29517
30404,7249,29518
30372,7235,29389
30340,7254,29656
30360,7334,29612
30436,7271,29853
30468,7308,29838
30452,7252,29827
30431,7270,29764
30504,7301,29775
30516,7239,29807
30592,7257,29831
30652,7302,29742
30644,7237,29745
30637,7263,30023
30600,7240,30048
30704,7254,30087
30800,7300,30049
30848,7246,30068
30864,7269,30185
30692,7302,30171
30772,7244,30012
30829,7265,30230
30910,7236,30285
30864,7271,30301
30869,7289,30241
30956,7240,30329
30984,7270,30396
31068,7297,30433
31109,7381,30465
31224,7257,30486
31260,7263,30245
31261,7363,30531
31224,7232,30572
31360,7263,30341
31476,7282,30370
31560,7308,30532
31646,7250,30613
31772,7245,30787
31904,7272,30823
32030,7282,30901
32128,7300,30794
32244,7226,30923
32316,7245,30978
32444,7260,30900
32485,7241,30800
32533,7248,30884
32676,7267,30892
32896,7327,30861
33020,7252,30855
33152,7267,30916
33212,7247,31124
33260,7267,31140
33296,7339,30940
33420,7224,30926
33564,7267,30976
33652,7282,31049
33764,7301,31138
33616,7244,31141
33576,7240,30878
33524,7269,31020
33580,7239,31246
33677,7263,31239
33733,7282,31092
33736,7226,31196
33800,7234,31257
33876,7272,31253
33920,7287,31012
33892,7240,31301
33752,7264,31332
33732,7331,31341
33700,7227,31325
33728,7235,31348
33821,7239,31369
33826,7317,31389
33805,7243,31375
33768,7261,31367
33668,7297,31392
33608,7237,31379
33640,7268,31320
33624,7290,31490
33580,7222,31334
33596,7255,31332
33600,7292,31537
33612,7235,31592
33596,7253,31586
33644,7295,31600
33680,7242,31492
33624,7296,31314
33540,7234,31513
33528,7243,31539
33582,7266,31540
33520,7362,31542
33572,7233,31543
33524,7267,31537
33512,7228,31494
33508,7265,31517
33508,7263,31566
33412,7381,31550
33420,7235,31591
33416,7229,31599
33420,7236,31598
33460,7255,31585
33445,7219,31599
33448,7239,31593
33420,7251,31623
33380,7287,31628
33412,7235,31622
33476,7271,31630
33430,7258,31640
33360,7252,31552
33364,7276,31654
33357,7320,31765
33348,7218,31773
33324,7233,31749
33349,7237,31789
33430,7270,31794
33420,7310,31869
33364,7236,31815
33340,7236,31809
33224,7258,31885
33188,7221,31904
33192,7244,31912
33340,7216,31920
33345,7250,31885
33352,7276,31815
33340,7237,31770
33284,7236,31759
33260,7251,31769
33292,7273,31797
33388,7224,31834
33258,7236,31814
33252,7271,31816
33300,7212,31724
33372,7252,31775
33380,7260,31846
33324,7305,31985
33376,7239,32072
33268,7254,32074
33212,7276,32102
33220,7229,32108
33181,7241,32116
33268,7246,32025
33248,7218,31897
33300,7225,31870
33388,7258,31998
33324,7252,31704
33312,7284,31910
33316,7293,32128
33176,7236,31879
33176,7225,32007
33172,7241,31766
33148,7238,31932
33148,7270,32108
33104,7220,31929
33124,7221,32007
33100,7264,31748
33173,7255,31974
33248,7281,32120
33296,7233,31862
33280,7246,31925
33312,7252,31945
33214,7210,31927
33226,7228,31933
33156,7269,31975
33088,7220,31932
33100,7247,31637
33160,7291,31800
33176,7234,31928
33148,7260,32031
33220,7281,31900
33240,7218,31740
33188,7230,31751
33112,7274,31829
33088,7214,31852
33038,7260,31820
33052,7278,31572
33132,7228,31716
33181,7246,31695
33216,7283,31741
33208,7220,31836
33160,7256,31878
33192,7265,31816
33116,7211,31780
33080,7252,31585
33028,7253,31677
33016,7361,31694
33056,7228,31381
33133,7268,31568
33210,7261,31636
33184,7330,31689
33136,7214,31724
33049,7228,31481
32986,7229,31546
32960,7263,31566
33060,7222,31572
33104,7226,31444
33192,7268,31598
33120,7264,31548
33088,7231,31511
33080,7251,31532
33052,7275,31452
33001,7208,31432
33066,7221,31508
33140,7244,31495
33024,7288,31496
32953,7228,31495
32944,7245,31452
33012,7294,31178
33008,7231,31305
32984,7252,31468
32972,7219,31455
32992,7229,31444
32996,7272,31428
32964,7225,31444
33018,7278,31420
33093,7232,31408
33132,7265,31414
33013,7236,31358
33080,7279,31284
33008,7218,31352
32948,7239,31332
32956,7210,31256
32924,7221,31318
32920,7235,31308
32948,7269,31231
32924,7233,31364
32932,7247,31369
32948,7276,31356
32900,7227,31373
32958,7236,31375
32989,7243,31377
33045,7268,31364
33012,7210,31354
32884,7221,31067
32876,7239,31081
32896,7261,31263
33001,7232,31252
33124,7244,31271
33046,7252,31255
32986,7301,31354
33000,7216,31406
33049,7235,31372
33072,7238,31191
32984,7217,31239
32968,7259,31332
32960,7270,31391
32976,7232,31433
32976,7227,31273
33092,7225,31248
33092,7224,31435
32956,7251,31272
33000,7238,31300
33020,7268,31023
32896,7215,31236
32864,7222,31436
32897,7262,31318
32920,7259,31198
32928,7291,31299
33002,7222,31004
32992,7255,31105
32928,7269,31207
32888,7209,31229
32844,7220,31248
32908,7225,31281
32924,7236,30987
32996,7269,31208
33028,7311,31332
33093,7235,31287
33032,7249,31140
32888,7250,31213
32824,7341,31239
32800,7204,31259
32857,7216,31132
33040,7228,31300
33092,7255,31298
33148,7284,31158
33124,7225,31105
32904,7248,31104
32908,7279,31253
32924,7220,31076
32920,7227,31144
32912,7234,31237
32936,7279,31340
32932,7209,31124
32918,7234,31147
32876,7229,31083
32877,7261,31100
32908,7252,31207
32816,7280,31231
32732,7216,31220
32831,7240,31232
32908,7204,31205
32864,7252,31156
32764,7213,31204
32732,7240,31212
32776,7222,31211
32824,7267,31199
32736,7273,31172
32664,7241,31184
32588,7277,31170
32586,7211,30908
32612,7237,31052
32520,7356,31016
32512,7228,31087
32516,7248,31095
32516,7226,31126
32598,7226,31306
32664,7247,31216
32816,7290,31108
32920,7218,31092
32864,7243,31130
32868,7236,31148
32837,7260,31034
32725,7366,31051
32708,7214,31199
32733,7252,31193
32808,7257,30983
32880,7273,31073
32912,7225,31132
32912,7254,30874
32932,7248,30822
32949,7329,31015
32924,7225,31020
32872,7249,31013
32816,7285,31138
32925,7221,31201
32929,7243,31145
32892,7254,30940
32878,7279,31044
32916,7217,31093
32972,7221,31084
33024,7229,30978
32961,7230,31070
32928,7245,31199
32964,7331,30996
32956,7218,30965
32992,7244,31028
32940,7247,30809
32928,7275,30964
32896,7220,31149
32952,7232,31063
32970,7228,31048
32921,7256,30927
32924,7274,31148
32824,7218,30906
32916,7228,30999
32868,7269,30996
32862,7221,30936
32904,7247,31044
32880,7253,31032
32860,7303,30928
32925,7207,31164
32960,7214,30929
33020,7222,31029
33064,7251,30732
33040,7293,30936
32916,7231,31143
32780,7226,30876
32837,7236,30967
32660,7271,30999
32364,7206,31009
32077,7218,30725
31696,7236,30889
31164,7207,31073
30560,7234,30940
29917,7275,30875
29509,7235,30934
29616,7252,30957
30768,7228,30951
33121,7231,30916
36073,7259,30656
39424,7206,30844
43025,7206,31022
46740,7224,30917
50000,7411,30849
52552,7212,30853
54092,7269,30852
53388,7226,30885
50904,7245,30887
48632,7242,30612
46260,7276,30743
44104,7188,30828
42520,7215,30910
41150,7281,30896
39644,7219,30692
37812,7258,30648
35936,7226,30839
34412,7258,30770
33120,7217,30717
32020,7248,30614
31260,7268,30596
30680,7203,30468
30408,7241,30564
30072,7246,30529
29978,7222,30257
29872,7228,30360
29728,7244,30416
29668,7281,30471
29736,7223,30516
29633,7249,30550
29572,7236,30396
29496,7289,30457
29428,7209,30244
29472,7229,30437
29476,7274,30592
29512,7223,30415
29524,7249,30492
29580,7248,30231
29445,7269,30403
29356,7214,30567
29393,7236,30628
29445,7284,30487
29472,7208,30463
29480,7223,30476
29526,7252,30196
29646,7229,30361
29729,7228,30557
29764,7247,30460
29808,7284,30284
29796,7214,30359
29740,7229,30087
29792,7232,30254
29848,7249,30422
29776,7267,30237
29873,7218,29967
29828,7255,30140
29852,7277,30297
29896,7228,30032
29961,7225,30065
29942,7243,30045
29942,7231,29991
30096,7253,30110
30056,7266,29889
29936,7211,29923
29989,7238,29892
30000,7244,29653
30060,7225,29744
30092,7261,29867
30108,7244,29838
30030,7277,29645
30032,7204,29740
30136,7228,29739
30177,7248,29460
30212,7346,29684
30188,7219,29664
30184,7241,29564
30213,7312,29651
30240,7229,29684
30284,7266,29441
30376,7220,29458
30248,7237,29629
30184,7213,29672
30192,7212,29863
30212,7230,29762
30316,7271,29724
30388,7223,29806
30376,7241,29833
30428,7297,29869
30456,7221,29860
30520,7253,29677
30498,7270,29729
30425,7206,29948
30292,7242,30149
30368,7242,29932
30486,7271,30100
30549,7226,29848
30496,7241,30061
30380,7247,30269
30256,7282,30272
30358,7223,30120
30504,7243,30284
30484,7280,30319
30428,7212,30376
30429,7244,30408
30544,7221,30441
30636,7243,30212
30638,7268,30410
30572,7232,30464
30588,7261,30628
30548,7295,30660
30652,7230,30767
30756,7236,30621
30768,7272,30581
30712,7218,30758
30741,7221,30681
30894,7245,30672
30892,7362,30703
30868,7233,30796
30941,7261,31056
31040,7258,30855
31056,7244,30964
31108,7288,31028
31070,7211,30765
31024,7241,30888
31152,7251,31008
31288,7287,31171
31274,7231,31306
31256,7269,31249
31344,7260,31169
31432,7221,31141
31516,7237,31204
31508,7265,31333
31668,7212,31367
31908,7216,31312
31952,7237,31486
32084,7329,31598
32180,7266,31572
32340,7292,31541
32388,7243,31513
32528,7274,31471
32600,7215,31508
32644,7241,31524
32776,7210,31562
32912,7248,31652
33048,7278,31695
33092,7221,31800
33128,7260,31833
33200,7269,31866
33300,7219,31888
33316,7237,31924
33445,7284,31949
33472,7230,31969
33516,7276,31940
33488,7241,31908
33584,7218,31867
33668,7257,31753
33800,7229,31767
33689,7234,31812
33530,7237,31880
33585,7219,31920
33764,7224,31973
33844,7236,32004
33668,7200,32023
33600,7234,32004
33660,7212,31936
33686,7254,32052
33748,7221,32072
33756,7254,32060
33709,7217,32044
33704,7216,32062
33716,7252,31999
33756,7206,32101
33765,7279,32277
33688,7216,32300
33764,7234,32116
33784,7282,32184
33756,7215,32228
33664,7250,32108
33592,7264,32169
33608,7208,32181
33608,7236,32180
33600,7199,32190
33608,7232,32290
33568,7206,32431
33432,7245,32412
33457,7262,32211
33512,7216,32304
33493,7236,32312
33485,7267,32043
33452,7208,32226
33472,7206,32294
33632,7228,32437
33504,7202,32391
33472,7204,32452
33404,7249,32471
33424,7218,32427
33328,7232,32335
33320,7270,32220
33300,7212,32461
33300,7237,32505
33340,7206,32468
33344,7225,32485
33368,7198,32417
33308,7228,32414
33264,7295,32540
33276,7221,32509
33264,7248,32402
33360,7255,32429
33428,7212,32180
33280,7239,32353
33244,7246,32480
33212,7199,32568
33289,7202,32437
33344,7224,32487
33285,7273,32391
33360,7216,32421
33418,7235,32533
33396,7269,32655
33480,7210,32543
33444,7243,32380
33292,7245,32468
33328,7278,32552
33316,7201,32551
33133,7230,32569
33173,7352,32544
33208,7217,32279
33364,7244,32484
33477,7235,32604
33488,7269,32738
33420,7205,32476
33365,7217,32529
33132,7249,32623
33112,7224,32481
33224,7247,32580
33308,7336,32620
33256,7222,32605
33232,7254,32549
33304,7237,32677
33212,7268,32750
33176,7206,32655
33252,7215,32623
33328,7264,32511
33284,7197,32604
33292,7238,32649
33156,7258,32613
33236,7218,32615
33228,7245,32524
33312,7223,32421
33365,7239,32428
33332,7261,32366
33248,7203,32420
33240,7230,32540
33184,7268,32327
33153,7204,32443
33176,7254,32336
33208,7209,32518
33276,7237,32623
33244,7222,32717
33276,7247,32733
33269,7266,32715
33296,7230,32679
33349,7254,32599
33125,7195,32591
33040,7217,32447
33092,7255,32406
33196,7218,32508
33172,7234,32524
33188,7302,32524
33100,7234,32500
33112,7246,32476
33222,7341,32335
33128,7199,32492
33060,7235,32437
33156,7250,32452
33172,7221,32519
33210,7260,32492
33236,7220,32260
33056,7245,32338
33152,7257,32378
33180,7209,32373
33108,7213,32097
33172,7213,32349
33184,7243,32425
33180,7201,32211
33192,7237,32184
33224,7252,32309
33241,7213,32320
33092,7248,32277
32984,7209,32233
33036,7220,32250
33076,7244,31996
33032,7195,32249
33008,7231,31957
32976,7250,32161
33140,7207,32337
33189,7251,32276
33056,7217,32182
33008,7244,32132
33072,7208,32216
33068,7225,32250
33030,7195,32258
33184,7233,32056
33144,7249,32154
33000,7194,32196
32908,7254,32164
32896,7245,32101
32877,7269,32105
32912,7216,32106
32928,7237,32140
32980,7265,31911
32996,7199,32070
33032,7199,32212
33004,7215,32233
33022,7265,32255
32952,7204,31975
32940,7239,32077
32973,7338,32084
33052,7209,31936
33045,7230,32014
32980,7200,32100
32948,7245,32048
33004,7193,32101
32896,7207,32212
32928,7268,32140
32952,7206,32010
33000,7249,32015
32984,7278,32044
32932,7252,31788
32849,7335,31788
32876,7238,31909
32840,7258,31968
32884,7211,32044
32932,7227,32117
32976,7265,32037
32956,7204,31748
32960,7227,32046
32896,7275,32048
32964,7277,32055
33006,7237,32052
33028,7290,32044
32920,7221,32037
32940,7233,31919
33032,7212,31748
33072,7240,31965
33076,7202,31959
33028,7231,31974
33060,7268,32039
32968,7206,32108
32948,7224,32120
32904,7263,32130
32905,7193,32105
33008,7226,32116
33000,7222,32012
32857,7276,32020
32888,7204,31975
32952,7244,32025
32996,7238,32049
32952,7211,32047
32912,7239,32050
32964,7252,32045
32932,7196,32047
32916,7207,32057
32948,7219,31792
32888,7273,31948
32879,7202,31967
32880,7227,32104
32900,7266,32140
32884,7213,32172
32916,7219,32071
32888,7309,31959
32884,7205,31938
32921,7228,31831
32945,7195,31958
32876,7201,31988
32896,7235,32007
32892,7213,32015
32876,7240,31818
32920,7210,31777
32952,7232,31771
32848,7244,31930
32761,7199,32060
32824,7211,32154
32842,7205,31996
32889,7265,32041
32896,7215,32084
32772,7236,31788
32768,7357,31972
32756,7223,32025
32784,7238,32148
32832,7204,32181
32920,7230,32119
32732,7252,32177
32628,7212,32230
32700,7261,32229
32672,7239,32212
32648,7249,32215
32646,7210,32060
32696,7221,32022
32700,7228,32104
32709,7338,32121
32672,7218,32100
32673,7239,32088
32716,7191,31994
32693,7229,32132
32788,7229,31957
32816,7212,32155
32737,7222,32001
32764,7231,31844
32840,7245,31960
32816,7201,32005
32808,7229,31856
32752,7261,32169
32828,7196,32168
32932,7224,32135
32828,7205,32052
32788,7239,32028
32810,7251,32049
32905,7212,32097
32932,7217,32043
32912,7257,32038
32840,7192,32119
32840,7194,32174
32940,7205,32150
32900,7259,32149
32720,7204,32191
32724,7241,32185
32728,7230,32204
32820,7274,32193
32836,7202,32193
32876,7224,32197
32897,7232,32186
32944,7194,32165
32965,7188,32163
33056,7207,32172
32996,7248,32222
32652,7225,32127
32692,7240,32119
32824,7208,32103
32888,7230,32097
32852,7250,32111
32796,7193,32239
32696,7204,32101
32692,7253,32089
32832,7197,32180
32704,7223,32243
32788,7301,32233
32742,7206,31929
32760,7219,32153
32733,7266,32199
32672,7202,32201
32568,7205,32326
32292,7215,32226
32094,7251,32197
31800,7192,32231
31372,7203,32034
30724,7231,32143
30044,7274,32136
29528,7209,32128
29328,7225,32240
29964,7259,32223
31884,7196,32157
34732,7225,32121
37768,7271,32180
41197,7190,32231
44924,7254,32206
48260,7194,32288
50872,7229,32326
52516,7274,32252
52364,7188,32229
50360,7215,32070
48116,7251,32116
45980,7178,32145
43724,7179,32080
42272,7205,32236
41128,7215,32074
39700,7273,31964
37852,7198,32083
36012,7239,32068
34420,7222,31765
33004,7241,31956
32058,7192,31981
31222,7184,32094
30736,7206,32009
30492,7250,31879
30160,7201,31895
30036,7223,31893
29956,7263,31843
29976,7204,31716
29872,7224,31751
29826,7254,31776
29648,7198,31751
29572,7224,31829
29673,7246,31805
29632,7195,31776
29520,7205,31807
29464,7205,31941
29472,7213,31747
29540,7228,31759
29525,7261,31804
29556,7200,31756
29496,7209,31844
29492,7231,31893
29536,7192,31585
29564,7203,31661
29596,7222,31805
29785,7251,31996
29820,7212,31727
29720,7213,31828
29680,7226,31853
29724,7257,31843
29896,7191,31811
29813,7209,31805
29892,7190,31780
29948,7203,31776
29980,7227,31509
29880,7265,31573
29748,7212,31611
29828,7223,31601
29792,7241,31747
29892,7237,31465
29984,7222,31576
29957,7191,31269
29976,7217,31358
30028,7239,31363
30104,7298,31457
30088,7203,31538
30089,7239,31364
30088,7228,31324
30125,7228,31364
30145,7271,31072
30124,7191,31229
30080,7201,31335
30100,7208,31388
30140,7242,31170
30156,7312,31265
30260,7207,31253
30277,7237,31253
30264,7206,31181
30292,7208,31209
30256,7223,31239
30289,7216,30973
30272,7252,31165
30214,7191,31361
30264,7199,31260
30240,7223,31294
30340,7231,31079
30456,7237,31254
30372,7212,31271
30349,7220,31332
30356,7217,31532
30372,7227,31300
30440,7266,31460
30484,7190,31262
30432,7194,31604
30368,7206,31551
30456,7214,31568
30436,7226,31524
30400,7226,31767
30413,7243,31555
30436,7201,31660
30469,7188,31556
30504,7204,31542
30496,7236,31687
30576,7253,31866
30500,7204,31906
30628,7210,31991
30701,7215,31879
30636,7216,31962
30680,7223,31684
30660,7221,31792
30720,7247,31951
30804,7199,32013
30652,7193,32152
30740,7217,32191
30820,7220,32284
30873,7230,32100
30908,7253,32149
30976,7255,32182
31012,7265,32258
31112,7202,32302
31164,7209,32307
31116,7217,32343
31100,7212,32067
31000,7217,32343
31032,7225,32386
31240,7230,32409
31404,7237,32493
31412,7228,32585
31324,7228,32457
31390,7224,32513
31520,7234,32440
31508,7281,32519
31617,7192,32681
31760,7196,32630
31860,7204,32620
32012,7206,32439
32076,7211,32774
32196,7205,32545
32284,7236,32697
32400,7217,32421
32492,7238,32788
32628,7228,32664
32772,7226,32476
32748,7236,32812
32764,7265,32832
33040,7207,32775
33197,7206,32526
33112,7221,32688
33172,7238,32788
33260,7273,32997
33428,7185,32989
33428,7216,32773
33364,7220,32916
33440,7247,32932
33532,7204,32773
33700,7203,32994
33752,7241,33101
33696,7231,32846
33708,7247,32995
33597,7200,32904
33540,7184,33138
33708,7179,32964
33684,7180,32800
33601,7204,33148
33600,7219,33005
33608,7232,32862
33728,7214,33169
33752,7220,33053
33632,7234,33069
33388,7247,32995
33456,7321,33141
33556,7182,33228
33608,7200,33039
33550,7199,33109
33536,7225,33125
33528,7219,32991
33592,7224,33132
33568,7244,32908
33576,7255,33138
33568,7184,33218
33552,7181,33140
33509,7202,33125
33480,7230,33095
33564,7258,33101
33548,7192,33149
33480,7196,33177
33436,7203,33008
33428,7200,32823
33384,7221,33053
33340,7223,33223
33420,7253,32975
33448,7176,33123
33314,7180,32800
33336,7206,33028
33376,7265,33208
33484,7204,33125
33436,7224,33108
33356,7230,33105
33420,7206,32949
33310,7211,32772
33228,7215,33201
33296,7225,33016
33360,7181,33079
33344,7180,32822
33440,7195,33207
33320,7226,32967
33220,7220,33096
33428,7244,33005
33444,7191,33096
33344,7181,33108
33192,7190,33012
33220,7207,33156
33269,7302,32950
33280,7181,33100
33316,7224,32944
33324,7226,33106
33356,7282,33200
33340,7199,33116
33390,7190,32903
33324,7199,33079
33436,7233,33196
33424,7175,33200
33421,7183,33055
33260,7225,33095
33284,7211,33020
33332,7244,33212
33216,7264,32997
33276,7319,32903
33328,7191,33109
33268,7186,33216
33374,7197,33052
33422,7212,32818
33408,7219,33189
33244,7242,32957
33220,7189,33092
33224,7198,33009
33252,7213,33168
33328,7217,33010
33400,7231,33071
33356,7238,32988
33236,7231,33135
33312,7177,32938
33320,7180,33050
33373,7201,32784
33252,7237,33006
33124,7194,33069
33185,7217,33121
33256,7267,33145
33312,7189,33120
33237,7209,33104
33272,7181,33022
33268,7200,32846
33216,7226,32828
33238,7178,32836
33380,7211,32901
33284,7295,32935
33253,7197,32797
33132,7216,32892
33126,7204,32904
33104,7224,32873
33132,7225,32768
33110,7236,32887
33069,7290,32648
33284,7180,32940
33344,7190,32791
33244,7224,32818
33124,7222,32600
33112,7256,32933
33232,7185,32663
33244,7191,32784
33248,7213,32708
33216,7210,32729
33188,7210,32736
33088,7199,32711
33088,7226,32738
33108,7239,32380
33144,7238,32820
33088,7264,32518
33028,7183,32669
33136,7198,32496
33280,7200,32769
33237,7211,32564
33048,7291,32599
33088,7183,32382
33172,7223,32585
33316,7211,32589
33084,7249,32424
32892,7278,32557
32940,7190,32473
32924,7179,32561
33156,7172,32495
33184,7191,32199
32840,7228,32404
32712,7173,32584
32828,7214,32340
32932,7227,32423
33068,7295,32463
33056,7232,32441
33048,7224,32192
32964,7183,32325
32944,7191,32385
32964,7215,32391
32901,7166,32535
32918,7208,32359
33032,7242,32229
33104,7344,32351
33096,7192,32245
33056,7206,32263
33036,7244,32444
33056,7179,32452
33101,7195,32381
33036,7209,32179
33000,7237,32284
32881,7179,32089
32960,7184,32263
33080,7219,32316
33056,7212,32214
32988,7251,32239
33028,7182,32175
33080,7186,32357
33016,7188,32209
32960,7215,32207
32832,7177,32175
32980,7185,32321
33038,7222,32224
33104,7208,32175
32948,7219,32223
32957,7251,32141
32894,7180,32172
32816,7181,32084
32916,7190,32303
33008,7206,32138
32985,7249,31885
32896,7175,32165
32884,7202,32276
32932,7245,32047
32916,7188,32151
32884,7189,32068
32896,7203,32250
32884,7178,32112
32924,7188,32062
33124,7201,32120
32988,7208,32032
32862,7180,32236
32836,7189,32061
33065,7213,31806
33032,7222,32097
32889,7246,32157
32948,7183,32024
32880,7183,32101
32892,7207,31980
32877,7213,32049
32804,7173,32212
32788,7173,32032
32856,7223,32072
32910,7237,31773
32944,7192,32004
33044,7208,32182
33017,7205,32050
32852,7229,31956
32857,7169,31952
32840,7199,32020
32864,7204,32040
32888,7287,32046
32788,7194,32020
32656,7204,31963
32668,7211,32138
32704,7217,31919
32736,7237,32049
32817,7307,31956
32876,7186,31967
32768,7224,31958
32504,7171,32167
32568,7199,32015
32580,7205,32021
32668,7191,32017
32668,7209,31980
32684,7274,32002
32656,7186,32045
32628,7194,32028
32604,7221,31847
32608,7176,31946
32662,7190,31980
32904,7208,32164
32952,7247,32057
32912,7187,31895
32900,7212,32007
32980,7204,31756
33064,7229,31941
32948,7280,32078
32869,7273,31972
32908,7167,32028
32792,7175,31933
32877,7201,32104
32892,7202,31908
32989,7237,31961
32884,7191,32020
32754,7192,31773
32660,7211,32026
32852,7197,32080
32912,7215,31875
32900,7178,31954
32888,7167,32016
32961,7213,31711
32980,7205,31925
32768,7233,32143
32737,7188,32045
32878,7212,31863
32972,7241,31949
33009,7235,31966
32964,7295,31918
32868,7168,31953
32884,7188,32125
32848,7234,31860
32800,7182,32004
32909,7207,31757
32916,7225,31908
32904,7193,32068
32884,7180,32127
32894,7190,32111
32956,7222,31857
32940,7162,31913
32912,7185,31879
32908,7199,31871
32858,7236,31894
32808,7188,31892
32824,7213,31868
32928,7209,31878
32888,7238,31901
32848,7175,31909
32788,7171,31962
32728,7163,31968
32788,7167,31975
32684,7188,31993
32456,7223,31988
32328,7253,31989
32060,7187,31982
31453,7218,31963
30916,7209,31921
30360,7234,31934
29852,7263,31959
29548,7175,31959
29892,7175,31960
31561,7175,31940
34152,7222,31953
37080,7205,31921
40140,7254,31640
43725,7184,31639
47068,7180,31746
49828,7190,31836
51516,7190,31936
51388,7218,32045
49440,7233,31844
47344,7282,31849
45624,7169,31780
43736,7173,31889
42336,7219,31869
41056,7204,31852
39776,7237,31556
38296,7245,31727
36500,7158,31700
34768,7202,31585
33384,7210,31468
32324,7314,31525
31588,7180,31424
31116,7213,31428
30797,7212,31375
30528,7255,31652
30325,7200,31593
30209,7203,31552
30193,7221,31548
30136,7164,31453
29992,7181,31488
29844,7205,31542
29844,7196,31536
29772,7215,31536
29861,7284,31495
29900,7185,31413
29848,7198,31676
29792,7240,31599
29716,7173,31612
29812,7173,31590
29856,7187,31519
29869,7231,31305
30020,7182,31615
30152,7213,31545
30020,7190,31521
29696,7204,31725
29788,7309,31533
29900,7172,31495
29904,7186,31300
29960,7220,31278
29896,7172,31543
29892,7197,31540
30024,7240,31428
30081,7188,31593
30156,7204,31545
30192,7279,31404
30148,7183,31292
30188,7187,31174
30256,7226,31431
30112,7169,31401
30208,7197,31388
30320,7218,31357
30402,7185,31292
30336,7192,31294
30232,7207,31239
30240,7185,31252
30280,7191,31287
30388,7204,31348
30386,7171,31220
30344,7183,31076
30458,7172,31012
30410,7204,31166
30540,7180,31071
30549,7220,31269
30484,7193,30842
30436,7234,31076
30541,7178,31157
30612,7189,31230
30732,7189,31163
30744,7208,30997
30656,7229,31148
30696,7181,30990
30628,7179,31196
30772,7222,31276
30644,7220,31244
30500,7184,31263
30573,7180,31234
30657,7200,30961
30601,7194,31178
30559,7224,31416
30644,7170,31311
30616,7195,31223
30710,7237,31388
30784,7188,31234
30768,7196,31484
30724,7218,31455
30772,7201,31503
30784,7221,31367
30892,7168,31359
30848,7178,31534
30832,7204,31699
30736,7211,31693
30768,7249,31651
30893,7247,31599
30954,7188,31885
30852,7184,31712
30876,7196,31845
31024,7195,31637
31005,7209,31811
31049,7248,32068
30997,7169,31878
30976,7214,31998
30900,7229,31727
30996,7189,31761
31064,7208,32032
31108,7246,32247
31008,7180,32220
31109,7189,32042
31297,7220,32181
31552,7171,32217
31464,7179,32033
31308,7200,32202
31172,7271,32289
31260,7286,32295
31456,7191,32333
31588,7274,32403
31436,7181,32463
31392,7182,32325
31444,7190,32462
31496,7186,32238
31474,7209,32417
31540,7244,32604
31708,7284,32460
31840,7192,32566
32016,7188,32516
32100,7194,32764
32120,7215,32516
32168,7194,32647
32188,7209,32625
32352,7197,32724
32548,7233,32792
32670,7179,32796
32720,7221,32870
32824,7221,32897
32884,7252,32673
32960,7183,32796
33065,7197,32855
33101,7194,32829
33136,7220,32799
33192,7164,32858
33205,7164,32929
33368,7197,32788
33560,7214,32932
33613,7263,32916
33720,7183,32744
33816,7178,32885
33872,7199,32897
33808,7230,32982
33780,7156,33028
33905,7186,33125
33812,7183,32949
33935,7230,32932
33789,7180,33055
33848,7175,33031
33968,7199,32983
33712,7196,33106
33756,7211,33208
33820,7169,32945
33949,7158,33105
33988,7171,33042
33948,7196,33260
33888,7186,33052
33997,7214,32821
33900,7248,33069
33884,7174,33166
33824,7206,33282
33733,7211,33148
33716,7232,33167
33808,7156,33188
33912,7172,33133
33857,7176,33287
33836,7200,33324
33828,7240,33096
33800,7183,33201
33805,7180,33165
33716,7174,33295
33740,7172,33092
33744,7183,32906
33688,7188,33159
33676,7175,33281
33586,7211,33327
33488,7172,33242
33536,7180,33041
33640,7212,33167
33728,7206,33053
33892,7227,33189
33860,7167,33304
33729,7188,33237
33676,7314,33079
33608,7156,33164
33624,7185,33164
33508,7173,33031
33324,7186,33187
33472,7237,33180
33404,7203,33109
33340,7215,33081
33320,7233,33200
33344,7162,33213
33320,7195,33132
33385,7218,33205
33501,7162,33218
33389,7192,33120
33420,7247,33093
33460,7210,33076
33540,7179,33223
33488,7204,33223
33472,7205,33021
33460,7161,33125
33484,7179,33188
33520,7201,33018
33505,7162,33303
33428,7204,33030
33440,7204,33168
33524,7221,33092
33461,7253,33287
33556,7172,33156
33556,7172,32887
33560,7179,33264
33488,7207,33144
33580,7255,33159
33540,7153,33078
33556,7184,33218
33276,7234,33252
33216,7173,33044
33354,7195,33149
33577,7211,33064
33720,7301,33271
33428,7163,33216
33140,7166,33101
33296,7177,33120
33248,7190,33032
33249,7237,33232
33212,7175,32990
33248,7212,33091
33428,7206,33008
33436,7236,33193
33336,7166,32996
33292,7176,33063
33340,7207,32959
33248,7221,32967
33188,7164,32997
33188,7161,33058
33344,7173,32935
33454,7213,32660
33384,7201,33029
33249,7213,32908
33128,7166,32636
33140,7161,33030
33164,7177,32860
33232,7193,32639
33224,7181,32812
33232,7193,32877
33217,7218,32804
33173,7233,32704
33248,7180,32816
33320,7171,32893
33376,7167,32692
33344,7191,32774
33232,7174,32758
33152,7213,32799
33208,7278,32718
33164,7170,32436
33032,7205,32596
33120,7174,32768
33282,7203,32697
33260,7217,32496
33120,7163,32620
33188,7183,32509
33073,7186,32462
33060,7188,32252
33124,7157,32548
33104,7187,32559
33016,7194,32523
33108,7199,32517
33121,7213,32404
32984,7237,32453
33024,7161,32485
33057,7165,32348
33036,7189,32413
32916,7169,32484
32879,7187,32373
32954,7208,32295
33032,7220,32350
33060,7245,32367
33108,7172,32388
33016,7164,32312
33044,7164,32230
33060,7193,32431
33056,7180,32260
32896,7201,32052
32868,7222,32413
33060,7169,32257
33204,7167,32136
33124,7175,32364
32825,7176,32238
32880,7178,32141
32932,7204,32313
33036,7191,32164
33028,7156,32199
32884,7181,32173
32945,7174,32085
32920,7211,32271
32873,7171,32109
32948,7174,32124
33060,7199,32042
33152,7237,32252
33045,7160,32049
32960,7157,31844
32966,7168,32108
32996,7281,32108
32932,7193,32166
32920,7166,32206
32972,7204,32153
33024,7230,31924
32957,7172,32029
33013,7196,32060
32940,7163,32051
32860,7181,31749
32836,7156,31998
32784,7157,31944
32808,7172,32028
32924,7202,31845
32964,7168,31932
32961,7183,32120
32908,7205,31952
32996,7309,31986
33036,7170,31932
32958,7180,32129
32940,7262,31866
32869,7165,31954
32748,7190,31994
32804,7162,31711
32892,7187,31893
32984,7230,32053
32944,7177,32078
32878,7189,31860
32876,7309,31924
32856,7166,31975
32868,7198,31959
32856,7148,31866
32952,7190,32054
32944,7197,31829
32748,7318,31953
32788,7200,31660
32780,7200,31932
32790,7173,32054
32820,7197,31836
32952,7183,31912
32805,7201,31946
32721,7152,31964
32608,7165,31919
32596,7190,31885
32720,7201,31965
32810,7203,31920
32701,7309,31836
32576,7167,31925
32616,7165,31924
32612,7178,31929
32668,7185,31876
32670,7170,31723
32596,7207,31982
32721,7259,31863
32840,7169,31628
32728,7198,31879
32650,7236,32004
32680,7171,31850
32776,7180,31887
32744,7202,31927
32656,7157,31889
32804,7150,31910
32836,7191,31802
32836,7189,31874
32812,7262,31851
32920,7170,31866
32944,7171,31914
32992,7173,31781
32924,7179,31878
32633,7194,31803
32656,7153,32005
32909,7175,31848
32942,7170,31743
32780,7205,31935
32616,7248,31738
32688,7265,31606
32796,7169,32015
32805,7171,31876
32844,7179,31793
32884,7215,31973
32900,7148,31816
32820,7180,31853
32868,7177,31776
32824,7196,31983
32852,7226,31878
32924,7266,31853
32860,7168,31733
32965,7185,31854
33168,7196,31852
33172,7222,31844
32864,7143,31836
32696,7160,31772
32644,7184,31878
32749,7158,31975
32800,7189,31845
32877,7213,31738
32904,7274,31828
32776,7163,31860
32760,7176,31692
32886,7199,31925
32964,7150,31961
32881,7156,31829
32676,7187,31724
32661,7160,31790
32716,7196,31751
32672,7165,31795
32504,7193,31769
32336,7258,31839
31744,7171,31817
31332,7197,31556
30748,7151,31738
30164,7174,31874
29632,7197,31815
29440,7235,31794
29896,7170,31824
31480,7210,31526
33848,7210,31728
36584,7242,31804
39664,7159,31944
43064,7196,31676
46312,7200,31779
48832,7141,31817
50296,7184,31511
50048,7215,31694
48144,7158,31784
46400,7204,31880
44588,7215,31733
42860,7157,31610
41672,7186,31736
40628,7188,31474
39328,7238,31772
37824,7141,31694
36093,7188,31652
34592,7202,31673
33148,7295,31633
32220,7163,31596
31688,7171,31493
31127,7198,31303
30796,7178,31599
30552,7204,31518
30428,7148,31517
30356,7159,31463
30320,7176,31384
30172,7220,31577
30190,7165,31353
30272,7199,31133
30180,7197,31396
30088,7209,31272
29844,7164,31433
29712,7150,31303
29740,7180,31468
29784,7204,31576
29844,7170,31476
29904,7210,31367
30012,7170,31460
30168,7195,31506
30268,7205,31373
30316,7201,31506
30126,7226,31476
29932,7175,31492
30040,7176,31409
29992,7206,31508
30052,7157,31218
29940,7175,31380
30002,7208,31476
30152,7314,31540
30240,7173,31376
30320,7186,31399
30216,7229,31413
30141,7154,31444
30232,7181,31263
30156,7173,31308
30165,7215,31367
30256,7162,31468
30428,7180,31265
30333,7209,31189
30436,7250,31285
30348,7162,31239
30286,7189,31160
30340,7197,31143
30400,7148,31280
30396,7162,31288
30316,7182,31043
30384,7220,31155
30428,7168,30889
30604,7193,31122
30541,7193,30960
30400,7205,31108
30436,7227,30828
30456,7255,31177
30468,7148,30945
30500,7149,31095
30582,7156,30972
30616,7168,31040
30600,7249,31015
30674,7170,31100
30632,7178,31111
30480,7202,30903
30416,7204,31060
30452,7247,31175
30488,7150,31197
30510,7165,31036
30549,7172,31380
30616,7204,31181
30700,7225,31287
30728,7262,31404
30617,7172,31460
30740,7186,31253
30796,7202,31421
30757,7285,31262
30804,7152,31564
30792,7183,31485
30760,7181,31547
30776,7221,31323
30821,7228,31663
30800,7171,31756
30792,7207,31652
30836,7194,31486
30980,7225,31696
30996,7159,31944
30956,7160,31739
30988,7176,31894
31108,7256,31908
31188,7167,31778
31220,7193,31975
31032,7213,32001
30992,7225,32057
31096,7312,31815
31152,7163,32192
31197,7163,32146
31216,7177,32135
31268,7234,32231
31301,7158,32220
31399,7184,32199
31252,7217,32449
31188,7260,32216
31273,7179,32356
31337,7173,32396
31365,7180,32423
31396,7193,32472
31448,7251,32450
31508,7177,32518
31596,7192,32692
31808,7236,32442
31840,7179,32614
31776,7193,32549
31772,7190,32774
31876,7198,32708
31948,7228,32636
32100,7156,32805
32144,7158,32621
32180,7174,32797
32168,7238,32828
32324,7160,32613
32488,7187,32904
32618,7191,32759
32682,7223,32929
32713,7165,32940
32772,7191,32720
32877,7180,32996
32944,7213,32999
33128,7146,33007
33212,7190,32756
33156,7190,33055
33136,7167,33160
33269,7189,33172
33348,7165,33049
33464,7178,33009
33464,7216,33162
33364,7147,33169
33302,7173,33132
33228,7211,33340
33392,7155,33123
33524,7175,33247
33620,7216,33264
33501,7254,33219
33472,7169,33372
33492,7185,33454
33492,7248,33269
33496,7145,33359
33480,7177,33388
33534,7197,33383
33548,7143,33398
33552,7162,33337
33588,7194,33553
33594,7167,33453
33524,7175,33373
33556,7175,33599
33652,7188,33495
33592,7298,33333
33429,7138,33663
33329,7162,33396
33321,7196,33538
33420,7153,33479
33480,7194,33553
33560,7209,33672
33471,7156,33415
33484,7193,33549
33433,7194,33244
33476,7220,33639
33452,7141,33441
33376,7180,33524
33409,7201,33543
33468,7155,33506
33416,7187,33532
33228,7224,33572
33302,7169,33463
33384,7204,33521
33440,7149,33588
33392,7182,33345
33270,7183,33617
33160,7143,33715
33276,7166,33540
33144,7156,33501
33172,7189,33584
33156,7203,33495
33248,7231,33596
33284,7154,33588
33288,7186,33565
33260,7191,33612
33264,7216,33580
33172,7144,33505
33260,7171,33608
33369,7218,33644
33384,7157,33589
33332,7173,33342
33372,7182,33615
33342,7180,33519
33280,7196,33614
33285,7146,33481
33312,7137,33711
33376,7146,33495
33304,7184,33620
33288,7215,33617
33144,7159,33548
33300,7178,33541
33432,7180,33751
33370,7192,33526
33436,7242,33628
33316,7142,33340
33454,7153,33609
33276,7168,33647
33264,7213,33605
33188,7150,33422
33304,7192,33639
33404,7188,33649
33437,7205,33642
33164,7225,33368
33064,7149,33764
33208,7143,33592
33252,7141,33364
33221,7140,33628
33272,7145,33625
33240,7184,33553
33088,7179,33759
33108,7196,33493
33104,7220,33639
33137,7151,33448
33205,7159,33647
33202,7158,33561
33212,7152,33617
33196,7161,33493
33188,7171,33700
33108,7200,33592
33100,7217,33463
33184,7207,33676
33189,7197,33574
33096,7183,33631
33130,7173,33556
33196,7187,33461
33212,7211,33588
33128,7139,33542
32988,7169,33324
33052,7195,33573
33136,7226,33381
33248,7231,33196
33296,7156,33572
33300,7155,33417
33240,7170,33149
33278,7160,33477
33226,7173,33446
33044,7199,33446
33065,7212,33404
33128,7156,33276
33286,7151,33413
33301,7167,33401
33148,7190,33237
33120,7179,33351
33016,7179,33486
33008,7217,33327
33128,7139,33354
33182,7170,33263
33132,7173,33468
32980,7290,33238
32924,7156,33292
33100,7175,33304
33136,7179,33319
33000,7214,33218
32945,7149,33044
32988,7139,33319
32968,7151,33404
33008,7140,33385
33056,7170,33109
33022,7186,33216
33144,7161,33225
33140,7153,33133
33080,7167,33337
33024,7183,33081
32952,7212,33196
33088,7140,33110
33176,7140,33308
33184,7174,33034
33120,7179,33181
33160,7187,33114
33188,7213,33199
33164,7222,33103
33128,7161,32820
32921,7149,33061
32760,7179,33256
33000,7163,33005
32998,7178,33119
33068,7226,33012
33088,7139,33159
33008,7179,33220
32956,7222,32973
32960,7158,32969
33072,7170,33004
33109,7193,33066
33084,7141,33062
32956,7136,32978
32908,7163,33109
32776,7156,33189
32996,7191,33079
32964,7224,32980
32892,7151,33044
32884,7150,32945
32940,7166,33117
33030,7182,32886
32996,7171,33021
32976,7185,32936
33056,7187,33148
33064,7189,33005
32952,7186,32996
32925,7183,32895
33000,7180,32850
32980,7180,33060
32992,7165,33017
33054,7165,32940
32992,7162,33018
32896,7162,33020
33004,7159,32921
33060,7165,33094
32992,7168,32980
32960,7182,32857
32916,7174,33017
32860,7182,32975
32950,7221,32942
33032,7147,32964
32972,7139,33000
33016,7140,32992
33033,7151,33153
32884,7172,32885
32788,7177,33020
32812,7163,32933
32860,7179,33148
32852,7175,32997
32824,7177,32880
32752,7178,33135
32836,7235,32967
32864,7137,32732
32720,7136,32974
32620,7138,32887
32549,7157,33020
32528,7185,32937
32532,7174,33142
32692,7180,32948
32788,7182,33004
32805,7173,32965
32684,7158,32959
32692,7160,33025
32762,7156,32993
32832,7170,32945
32909,7166,32857
32892,7151,33140
32961,7173,32990
33082,7183,32868
32940,7181,33152
32884,7165,32903
32864,7160,33031
32841,7156,32969
32892,7164,33152
32844,7159,32988
32956,7172,33031
32985,7170,33169
32856,7152,33047
32828,7160,33065
32992,7214,32957
32993,7228,33035
32872,7148,33030
32893,7136,33176
32904,7139,32997
32981,7139,32748
32968,7145,33172
33000,7146,32952
33012,7151,33060
33120,7153,32980
32980,7167,33188
32944,7149,33031
32936,7143,33036
33020,7134,33108
32960,7133,33007
32832,7128,33060
32896,7139,33037
32968,7143,32924
32980,7147,33070
33060,7149,32985
33072,7150,33061
32952,7143,33076
32956,7138,32978
32901,7136,33189
32912,7132,33057
32952,7131,32948
33016,7144,33159
33014,7145,33039
32956,7187,33045
32944,7173,33076
33052,7199,33113
32916,7205,33072
32676,7201,33002
32528,7140,33178
32444,7220,33088
32180,7140,32808
31784,7139,33036
31452,7166,33173
30896,7172,33188
30396,7181,32976
29988,7214,33045
29600,7289,33085
30376,7145,32896
32144,7136,33205
34680,7140,33018
37476,7156,33084
40860,7185,32994
44152,7208,33164
46944,7233,33063
49060,7147,33069
50276,7149,33012
49392,7183,33213
47332,7175,32997
45560,7148,33071
43852,7185,32892
42388,7130,33093
41288,7125,33192
40272,7141,32990
38912,7177,33024
37332,7171,32713
35692,7189,32948
34241,7207,33142
33012,7140,32884
32008,7278,32981
31492,7135,32871
31209,7139,33059
31038,7141,32907
30740,7148,32616
30408,7177,32895
30268,7172,32861
30284,7197,32688
30340,7147,32767
30304,7140,32791
30132,7168,32519
30072,7249,32762
30072,7137,32496
30228,7157,32829
30176,7164,32853
30028,7198,32796
30052,7203,32559
30156,7152,32751
30244,7158,32836
30260,7153,32932
30106,7163,32994
30004,7205,32993
30064,7207,32713
29996,7139,32869
29968,7150,32848
30024,7160,32784
30172,7169,32866
30228,7198,32880
30241,7147,32941
30308,7148,32987
30264,7174,32848
30390,7132,32903
30456,7143,32687
30408,7157,32694
30396,7202,32759
30528,7157,32764
30612,7151,32759
30517,7167,32671
30448,7161,32750
30528,7168,32829
30540,7232,32692
30376,7131,32548
30552,7151,32500
30488,7197,32582
30432,7144,32604
30544,7160,32271
30710,7172,32479
30652,7190,32660
30630,7200,32481
30644,7138,32417
30740,7139,32383
30788,7169,32444
30724,7166,32461
30836,7198,32196
30628,7148,32360
30444,7153,32476
30544,7175,32518
30760,7182,32341
30752,7195,32445
30778,7201,32390
30778,7135,32567
30737,7160,32376
30732,7167,32431
30804,7285,32201
30816,7179,32396
30805,7175,32575
30788,7207,32510
30758,7154,32543
30988,7183,32549
31136,7166,32505
31018,7179,32740
30929,7133,32517
30796,7142,32663
30796,7163,32372
30800,7184,32812
30852,7225,32620
30824,7152,32774
30910,7188,32605
31000,7182,32748
31000,7208,32972
30944,7137,32773
31016,7141,32903
31012,7156,32860
31040,7184,33103
31156,7260,32950
31272,7158,33004
31060,7162,32980
31104,7188,33180
31072,7165,33127
31104,7165,33067
31260,7171,33264
31244,7185,33169
31280,7215,32954
31288,7143,33156
31232,7184,33367
31272,7170,33253
31372,7172,33244
31424,7174,33394
31408,7180,33375
31436,7205,33087
31564,7139,33390
31616,7170,33582
31648,7154,33489
31700,7161,33479
31616,7171,33412
31670,7184,33256
31752,7215,33634
31748,7151,33480
31840,7146,33338
31736,7143,33744
31832,7135,33588
32016,7137,33383
32064,7146,33853
32064,7155,33737
32020,7165,33792
32224,7178,33676
32364,7207,33556
32448,7154,33872
32516,7149,33743
32644,7152,33897
32700,7164,33924
32768,7208,33957
32828,7135,34020
32924,7157,34003
33000,7203,33900
33182,7151,33978
33136,7170,34206
33262,7189,34055
33180,7273,33765
33220,7134,34053
33396,7143,34253
33384,7155,34172
33220,7180,33847
33256,7135,34136
33280,7151,34340
33380,7165,34221
33388,7197,34235
33356,7245,33959
33384,7138,34300
33548,7150,34271
33584,7149,34325
33592,7124,34357
33612,7129,34308
33588,7161,34470
33560,7175,34405
33673,7175,34150
33632,7188,34463
33588,7237,34437
33552,7136,34505
33526,7165,34439
33518,7160,34607
33512,7265,34695
33540,7132,34552
33484,7152,34572
33512,7197,34620
33480,7153,34653
33464,7186,34634
33460,7138,34416
33444,7171,34716
33460,7173,34848
33285,7122,34671
33344,7140,34597
33476,7253,34695
33436,7166,34732
33368,7188,34776
33256,7142,34748
33344,7163,34500
33316,7205,34677
33328,7137,34782
33324,7163,34929
33352,7167,34814
33476,7124,34687
33464,7153,34820
33396,7156,34640
33236,7237,34823
33156,7143,34964
33208,7165,34996
33249,7212,34919
33280,7132,34855
33204,7168,34934
33152,7188,34951
33164,7124,34940
33189,7145,34620
33204,7194,34897
33172,7136,34933
33168,7165,34941
33152,7145,34968
33221,7139,35148
33188,7150,35188
33173,7181,35207
33192,7124,35228
33172,7151,35140
33200,7124,35031
33201,7150,35045
33236,7201,35076
33268,7143,35133
33284,7177,35120
33220,7137,35174
33238,7160,35201
33201,7135,35180
33172,7162,34968
33140,7160,35292
33122,7125,35271
33193,7148,35256
33252,7156,35204
33276,7201,35418
33356,7141,35167
33292,7157,35271
33076,7131,35284
33040,7154,35356
33016,7129,34988
33076,7128,35377
33081,7159,35513
33064,7185,35368
33040,7135,35052
33088,7181,35415
33160,7200,35527
33132,7139,35349
32986,7151,35437
33072,7195,35268
33088,7119,35493
32980,7140,35496
33012,7166,35325
33040,7283,35479
33056,7144,35400
32976,7156,35625
32980,7203,35365
32976,7135,35509
32956,7169,35493
32960,7182,35454
32940,7121,35607
32950,7128,35474
32976,7167,35460
33048,7127,35533
33008,7139,35294
33052,7169,35516
33024,7210,35680
32888,7140,35497
32864,7146,35561
32748,7141,35511
32776,7159,35701
32828,7124,35439
32700,7126,35578
32784,7152,35237
32892,7191,35501
32804,7140,35632
32664,7145,35556
32793,7158,35504
32832,7228,35583
32840,7129,35561
32868,7137,35216
32880,7173,35581
32854,7121,35716
32746,7137,35519
32696,7171,35198
32796,7166,35684
32760,7182,35492
32813,7190,35564
32764,7133,35583
32730,7121,35543
32696,7126,35591
32764,7136,35532
32813,7220,35700
32856,7131,35542
32800,7157,35591
32660,7200,35544
32584,7138,35765
32609,7151,35556
32648,7165,35622
32608,7128,35646
32576,7118,35601
32568,7117,35631
32564,7143,35636
32688,7191,35800
32672,7131,35549
32612,7164,35676
32688,7163,35505
32677,7182,35821
32624,7125,35726
32624,7133,35672
32600,7141,35742
32600,7188,35680
32657,7119,35887
32688,7144,35748
32824,7195,35656
32712,7142,35785
32620,7163,35733
32588,7136,35884
32572,7164,35932
32604,7177,35697
32508,7118,35833
32452,7140,35475
32529,7174,35861
32592,7125,35996
32613,7150,35749
32629,7140,35839
32672,7142,35547
32628,7160,35888
32612,7202,36065
32700,7121,35876
32700,7134,35956
32664,7120,35968
32624,7159,35884
32564,7172,36103
32592,7202,35872
32580,7137,36028
32622,7154,35798
32637,7164,36160
32584,7174,36036
32584,7123,35983
32608,7134,36124
32544,7161,36119
32488,7118,36055
32512,7159,36135
32533,7166,36095
32629,7289,36253
32584,7132,36133
32576,7168,36136
32533,7159,35807
32482,7188,36228
32540,7120,36263
32500,7130,36183
32488,7142,36244
32352,7129,35862
32296,7164,36196
32324,7176,36345
32388,7287,36421
32392,7142,36157
32412,7145,36304
32472,7180,36285
32484,7119,36252
32392,7133,36356
32450,7151,36496
32420,7176,36333
32431,7138,36366
32468,7140,36175
32492,7175,36457
32520,7168,36437
32540,7181,36431
32628,7131,36385
32698,7117,36587
32700,7133,36557
32712,7175,36341
32616,7130,36486
32508,7134,36271
32460,7172,36545
32508,7158,36485
32602,7193,36551
32637,7125,36302
32586,7140,36697
32556,7141,36497
32536,7161,36636
32580,7128,36584
32621,7127,36796
32632,7148,36551
32532,7187,36696
32580,7190,36845
32718,7130,36695
32777,7158,36738
32856,7157,36717
32652,7118,36857
32632,7123,36908
32656,7146,36743
32688,7214,36854
32660,7140,36889
32664,7159,36569
32700,7201,36847
32704,7132,37038
32680,7127,37087
32624,7137,36840
32624,7171,36994
32617,7115,37037
32660,7134,37015
32668,7146,37160
32684,7177,36990
32726,7196,36724
32716,7254,37274
32692,7129,37058
32677,7152,37201
32684,7140,36923
32445,7165,37311
32172,7172,37199
32040,7123,37260
31692,7132,37260
31156,7158,37359
30588,7143,37494
30036,7174,37383
29608,7163,37348
29404,7191,37433
30076,7127,37326
32012,7136,37424
34653,7186,37556
37664,7123,37612
41060,7143,37484
44448,7180,37572
47344,7135,37541
49580,7128,37692
50688,7149,37727
49532,7268,37533
47148,7112,37678
45112,7144,37465
43292,7160,37750
42040,7106,37861
41244,7129,37648
40276,7140,37756
39004,7182,37537
37412,7135,37766
35716,7127,37904
34172,7137,37639
32908,7181,37767
31976,7110,37476
31329,7153,37906
30964,7140,37746
30700,7206,37753
30532,7132,37729
30408,7157,37895
30224,7210,37615
30036,7131,37760
29920,7141,37716
29888,7172,37909
29945,7119,37711
30012,7112,37604
29928,7142,37797
29880,7128,37946
29784,7140,37697
29813,7148,37468
29824,7188,37920
29780,7134,38016
29804,7142,37937
29880,7151,37932
29840,7180,37999
29844,7119,37985
29884,7127,37975
29888,7157,38044
29880,7162,38012
29900,7180,37802
29968,7259,38172
30013,7134,37977
30017,7142,38041
30032,7166,38133
30048,7179,37937
30088,7119,38052
30124,7117,38144
30188,7153,37936
30213,7148,38032
30201,7176,38119
30213,7139,38117
30136,7132,38037
30112,7140,37764
30156,7152,38132
30278,7154,38016
30316,7204,37925
30220,7121,37822
30240,7129,37540
30400,7141,38055
30464,7153,37884
30560,7163,37828
30480,7189,38001
30392,7130,37750
30429,7143,37473
30484,7157,37991
30392,7163,37861
30400,7178,37859
30564,7126,37935
30552,7157,37785
30380,7161,37889
30400,7140,37918
30400,7141,37848
30416,7148,38015
30380,7173,38068
30340,7198,38011
30320,7116,38010
30416,7133,38132
30416,7143,37989
30412,7187,38137
30452,7136,38215
30529,7172,37868
30632,7164,38343
30702,7178,38214
30752,7243,38407
30628,7114,38432
30500,7136,38645
30472,7164,38445
30412,7182,38636
30478,7188,38808
30592,7231,38647
30628,7137,38827
30649,7151,38901
30656,7145,38820
30677,7149,39006
30732,7141,39182
30734,7164,39142
30700,7181,39162
30712,7209,39279
30756,7137,39327
30800,7141,39374
30814,7173,39456
30884,7165,39494
30896,7185,39503
30932,7121,39776
30924,7117,39666
30848,7156,39431
30853,7151,39940
30884,7177,39829
30956,7193,39760
30980,7206,40111
31021,7279,39996
30997,7134,39612
30960,7148,40289
31025,7160,40148
31032,7138,40095
31079,7146,40326
31044,7150,39828
31124,7173,40496
31244,7162,40412
31344,7193,40511
31416,7144,40513
31480,7132,40560
31448,7151,40756
31448,7143,40631
31556,7162,40645
31620,7263,40793
31664,7124,40780
31718,7157,40909
31860,7170,40944
31973,7141,40877
32089,7153,40966
32260,7270,41018
32352,7132,40895
32420,7155,41265
32484,7159,41106
32505,7179,41191
32608,7124,41199
32684,7119,41196
32748,7167,41301
32876,7169,41135
33020,7134,41423
33100,7137,41341
33148,7140,41441
33076,7151,41129
33096,7186,41680
33144,7111,41431
33216,7140,41580
33308,7174,41159
33396,7134,41805
33440,7129,41529
33432,7162,41679
33380,7158,41789
33296,7187,41628
33320,7113,41287
33348,7108,41911
33304,7130,41807
33252,7165,41820
33286,7246,41949
33344,7123,41822
33320,7150,41527
33292,7145,42084
33348,7155,41856
33328,7176,41991
33380,7178,41977
33352,7108,42128
33364,7111,42132
33404,7127,42100
33460,7161,41911
33396,7120,42265
33272,7162,42136
33164,7149,42207
33104,7157,42224
33157,7213,42212
33184,7110,42257
33232,7138,42200
33264,7124,42420
33348,7166,42199
33368,7203,41794
33304,7124,42437
33252,7127,42316
33217,7128,42351
33192,7144,42300
33180,7137,41935
33180,7141,42503
33136,7142,42372
33040,7165,41916
33060,7109,42460
33072,7127,42361
33116,7160,42441
33140,7143,42448
33164,7158,42524
33156,7148,42468
33140,7138,42502
33173,7165,42566
33172,7164,42503
33152,7179,42461
33100,7109,42500
33128,7117,42492
33160,7119,42600
33241,7151,42599
33253,7141,42608
33216,7158,42572
33129,7181,42727
33064,7109,42613
33100,7118,42280
33100,7117,42785
33071,7140,42552
33096,7170,42734
33125,7275,42660
33080,7128,42852
33072,7155,42689
33072,7150,42800
33030,7187,42544
33045,7109,42887
33096,7104,42849
33085,7107,42540
33040,7134,42681
33113,7113,42694
33188,7139,42868
33296,7189,43009
33356,7128,43004
33340,7161,43036
33284,7109,43015
33220,7130,42941
33184,7231,42829
33128,7120,43009
33056,7130,42663
33044,7150,43101
33120,7174,42905
33172,7278,43050
33152,7122,43015
33120,7118,42924
33248,7130,43070
33260,7128,42584
33236,7170,43030
33137,7107,43052
33054,7117,43004
33008,7130,43089
32984,7164,42668
33056,7218,43156
33144,7118,42917
33164,7122,43092
33156,7140,43014
33168,7120,43141
33132,7148,42911
33153,7168,43076
33256,7259,43008
33242,7114,43141
33197,7135,42969
33112,7181,43057
33104,7117,43054
33150,7137,42980
33156,7133,43072
33136,7128,43013
33128,7165,42944
33082,7099,42996
33100,7113,43052
33060,7136,42820
33016,7154,42940
33076,7129,42620
33068,7148,42900
33048,7155,42996
33040,7268,42916
33013,7103,42869
33056,7108,42496
33072,7139,42940
33108,7122,42916
33128,7157,42748
33082,7182,42766
33060,7121,42788
33068,7133,42905
32988,7138,42780
32956,7146,42809
32945,7147,42748
33008,7159,42717
33108,7101,42766
33132,7131,42484
33160,7129,42821
33118,7139,42644
33156,7174,42685
33156,7121,42757
33124,7132,42564
33084,7126,42716
33060,7140,42655
33126,7204,42785
33125,7097,42608
33164,7113,42349
33153,7142,42775
33036,7139,42672
32904,7150,42629
32924,7162,42582
32888,7174,42628
32852,7108,42751
32900,7121,42671
32956,7129,42652
32988,7159,42185
32976,7107,42732
32920,7108,42669
32884,7124,42657
32904,7149,42620
32872,7148,42716
32900,7157,42656
32952,7169,42688
32881,7177,42497
32784,7099,42165
32724,7110,42663
32672,7130,42724
32676,7151,42528
32716,7252,42636
32732,7120,42644
32524,7124,42489
32416,7112,42138
32438,7123,42725
32512,7137,42520
32608,7128,42620
32709,7159,42548
32812,7106,42676
32864,7114,42631
32860,7119,42636
32848,7122,42636
32796,7145,42488
32688,7182,42532
32712,7108,42632
32748,7136,42148
32868,7136,42540
32996,7102,42589
32992,7133,42735
33008,7133,42584
33084,7166,42247
32952,7119,42604
32900,7136,42733
32868,7171,42460
32836,7107,42594
32848,7116,42583
32824,7158,42583
32856,7097,42727
32842,7124,42449
32784,7155,42560
32812,7118,42532
32816,7122,42717
32829,7140,42551
32793,7118,42444
32845,7140,42482
32860,7194,42597
32820,7133,42541
32804,7134,42543
32908,7133,42700
32968,7123,42607
32996,7165,42595
32969,7118,42428
33016,7134,42556
33112,7171,42448
33108,7104,42614
33140,7103,42392
33172,7112,42537
33099,7156,42516
33072,7098,42637
33054,7128,42410
33024,7196,42532
33088,7139,42455
33108,7178,42332
33088,7115,42527
33029,7134,42617
32900,7249,42375
32916,7135,42463
32880,7134,42468
32840,7196,42437
32682,7117,42599
32408,7141,42414
32065,7118,42366
31734,7133,42297
31277,7116,42311
30808,7142,42431
30200,7164,42095
29752,7106,42452
29636,7123,42517
30724,7150,42287
33384,7119,42364
36876,7128,42308
40404,7155,42476
43928,7226,42260
47152,7110,42345
49548,7140,41820
51292,7179,42340
51520,7086,42381
49436,7136,42161
46884,7177,42255
44772,7108,42247
43072,7168,42221
42176,7108,41676
41512,7134,42127
40532,7106,42240
39100,7135,42184
37432,7138,42044
35832,7097,41991
34404,7117,41991
33156,7141,42077
32177,7207,41880
31488,7115,41911
31017,7124,41836
30748,7167,41908
30592,7109,41751
30422,7138,41688
30340,7107,41670
30208,7123,41105
30088,7213,41654
30016,7106,41597
30012,7128,41512
29925,7171,41431
29908,7114,41421
29912,7134,41548
29920,7169,41255
29960,7107,41223
29976,7139,41335
29992,7103,41322
30012,7136,40828
29928,7103,41204
29888,7129,41320
29806,7178,41275
29764,7125,41132
29796,7159,41128
29840,7111,41100
29886,7126,41019
29973,7233,41001
30032,7096,40928
30144,7109,40873
30240,7137,40980
30308,7140,40646
30336,7167,40718
30364,7211,40660
30374,7115,40749
30336,7133,40533
30228,7140,40436
30160,7124,40348
30204,7165,40239
30324,7098,40255
30256,7141,40278
30254,7132,40026
30248,7151,39660
30304,7220,39981
30400,7117,39893
30460,7119,39745
30573,7125,39677
30612,7161,39566
30622,7101,39632
30604,7115,39344
30616,7129,39373
30584,7182,39356
30572,7115,38848
30548,7121,39303
30552,7154,39099
30612,7127,39139
30744,7137,39039
30648,7150,39144
30540,7158,38996
30548,7098,38943
30648,7134,38900
30688,7148,39036
30736,7165,38836
30800,7196,38374
30853,7117,38846
30792,7127,38765
30856,7140,38785
30796,7122,38793
30848,7128,38658
30912,7150,38740
30960,7164,38848
30965,7117,38617
30912,7120,38752
30868,7139,38652
30908,7142,38837
30896,7149,38624
30905,7177,38768
30920,7099,38345
30888,7114,38820
30916,7122,38870
31028,7164,38789
31128,7114,38808
31176,7144,38386
31244,7152,38701
31260,7171,38953
31272,7115,38749
31280,7124,38844
31308,7127,38616
31344,7167,38908
31340,7104,39021
31280,7140,38775
31280,7156,38913
31280,7120,38886
31264,7158,38532
31368,7249,38782
31480,7133,38807
31520,7150,38900
31568,7176,39079
31668,7102,38948
31764,7135,38951
31872,7125,38919
31924,7139,38936
32022,7161,38965
32049,7240,38509
31937,7120,38974
31900,7151,38996
31848,7143,38933
31856,7108,38950
31936,7112,38928
32032,7121,39101
32144,7141,38868
32212,7182,38932
32372,7123,38982
32436,7134,38823
32472,7136,38527
32568,7132,39023
32612,7133,38881
32680,7164,38933
32800,7099,38575
32896,7136,38892
32984,7125,39077
33116,7143,38849
33144,7179,38885
33098,7111,38860
33236,7143,39012
33375,7144,38743
33398,7228,38825
33444,7096,38436
33501,7114,38807
33569,7143,38908
33632,7173,38692
33540,7111,38783
33524,7118,38776
33594,7121,38788
33644,7128,38676
33677,7154,38700
33692,7161,38620
33732,7093,38791
33728,7097,38587
33696,7128,38588
33700,7124,38396
33744,7163,38636
33868,7228,38518
33992,7108,38407
34017,7133,38457
33893,7144,38516
33744,7130,38572
33720,7154,38280
33737,7089,38340
33748,7124,38345
33808,7120,37893
33852,7161,38239
33912,7115,38242
33840,7123,38276
33800,7137,38340
33720,7107,38262
33732,7106,38076
33781,7116,38124
33640,7132,38116
33609,7163,38031
33544,7243,38206
33500,7104,37932
33588,7109,38016
33636,7140,37924
33616,7134,38079
33612,7122,37891
33561,7120,37469
33542,7115,37993
33532,7120,37765
33484,7136,37782
33484,7100,37405
33524,7101,37649
33604,7128,37777
33668,7139,37793
33652,7158,37734
33596,7177,37511
33572,7096,37489
33572,7118,37485
33528,7117,37455
33500,7156,37042
33505,7095,37325
33552,7130,37421
33584,7138,37428
33552,7249,37149
33576,7118,37228
33504,7119,36912
33448,7133,37183
33472,7151,37228
33488,7090,37005
33496,7091,37101
33488,7137,36893
33508,7129,37077
33548,7158,37092
33564,7109,36919
33600,7143,36800
33660,7141,36815
33676,7154,36884
33676,7157,36793
33692,7088,36951
33661,7092,36645
33616,7113,36679
33586,7156,36727
33497,7106,36661
33440,7140,36589
33472,7127,36605
33548,7138,36609
33556,7158,36508
33586,7235,36119
33544,7092,36351
33552,7117,36431
33512,7096,36471
33524,7106,36310
33540,7140,36245
33548,7153,36256
33572,7105,36231
33676,7120,36157
33716,7164,36160
33704,7088,35756
33728,7095,36001
33710,7127,36144
33604,7121,36014
33610,7152,35890
33542,7207,35908
33508,7112,35910
33536,7105,35756
33573,7123,35748
33620,7122,35719
33584,7140,35484
33540,7094,35687
33468,7099,35738
33456,7119,35524
33508,7116,35476
33600,7159,35409
33616,7260,35541
33532,7108,35295
33452,7101,35316
33476,7095,35408
33432,7123,35110
33540,7126,35221
33550,7221,34909
33468,7094,35156
33468,7139,35093
33464,7138,34973
33412,7249,34956
33444,7108,34791
33452,7123,34967
33456,7153,34749
33492,7089,34759
33421,7088,34632
33300,7105,34772
33338,7116,34664
33392,7134,34609
33296,7175,34243
33224,7108,34516
33201,7122,34601
33188,7145,34372
33174,7233,34398
33160,7087,34332
33224,7085,34394
33252,7106,34192
33236,7118,34188
33220,7157,34108
33265,7108,34279
33286,7112,34021
33216,7142,34031
33132,7121,33917
33113,7140,34049
33100,7172,33812
33080,7086,33817
33049,7104,33718
33080,7114,33836
33015,7161,33809
32974,7107,33636
33056,7140,33529
33088,7144,33605
33089,7186,33437
33088,7094,33582
33181,7119,33407
33277,7128,33412
33349,7095,33405
33313,7094,33202
33184,7138,33231
33152,7127,33317
33162,7141,33199
33169,7134,33196
33188,7120,33159
33292,7114,33061
33344,7108,32892
33344,7118,33173
33324,7121,32988
33280,7148,32868
33232,7161,32889
33210,7106,32875
33276,7127,32545
33278,7165,32736
33241,7101,32889
33284,7102,32824
33228,7108,32620
33192,7142,32695
33175,7234,32636
33172,7095,32557
33196,7138,32546
33220,7121,32676
33244,7170,32428
33300,7102,32488
33196,7124,32503
33084,7122,32450
33176,7148,32181
33264,7087,32292
33348,7099,32508
33380,7119,32334
33364,7163,32310
33316,7103,32324
33297,7111,32197
33284,7140,32351
33245,7119,32164
33232,7116,32201
33212,7139,32217
33196,7087,32154
33220,7094,32018
33176,7110,32052
33252,7142,32084
33288,7183,32205
33212,7103,31967
33033,7098,32020
32832,7135,32026
32572,7125,31708
32340,7185,31813
31952,7086,31864
31496,7109,31841
31040,7142,31908
30444,7196,31983
29944,7108,31857
29788,7127,31801
30980,7158,31818
33544,7099,31766
36786,7100,31737
40324,7090,31858
43924,7100,31614
47484,7139,31668
50336,7078,31682
52496,7120,31644
53296,7143,31530
51744,7136,31709
49112,7141,31479
46996,7127,31548
45000,7153,31503
43536,7074,31400
42520,7087,31478
41392,7107,31558
39996,7152,31365
38129,7094,31297
36268,7095,31333
34680,7120,30999
33384,7116,31167
32428,7118,31343
31790,7133,31269
31293,7139,31084
30944,7141,30837
30628,7084,30964
30432,7105,30986
30320,7131,31090
30272,7140,30884
30292,7128,30893
30252,7139,30714
30236,7145,30905
30148,7156,30721
30089,7088,30780
30088,7085,30653
30000,7105,30812
30012,7108,30743
30052,7114,30703
30021,7139,30612
29920,7141,30628
29869,7135,30652
29877,7127,30489
29956,7143,30516
30056,7203,30645
30081,7092,30405
30124,7145,30471
30104,7163,30500
30024,7163,30436
30046,7227,30319
30148,7182,30057
30132,7144,30397
30116,7153,30198
30124,7095,30044
30124,7085,30136
30142,7086,29986
30104,7084,30143
30116,7106,29918
30168,7133,29936
30208,7119,29781
30216,7126,29876
30240,7131,29737
30224,7131,29697
30232,7143,29604
30248,7094,29720
30308,7087,29413
30285,7122,29367
30336,7110,29463
30418,7125,29352
30464,7142,29425
30368,7146,29332
30364,7145,29191
30380,7149,29359
30348,7149,29220
30380,7086,29198
30484,7093,29013
30526,7119,29240
30532,7131,29068
30612,7135,28829
30600,7131,29024
30582,7148,29078
30444,7160,29035
30416,7158,28924
30436,7095,29149
30424,7090,28958
30408,7089,28777
30473,7106,28925
30512,7131,29150
30548,7163,29013
30604,7109,29053
30601,7108,29038
30592,7136,29229
30568,7122,29021
30568,7126,29156
30573,7140,29076
30640,7088,29113
30564,7106,29368
30460,7114,29116
30512,7143,29297
30592,7112,29093
30592,7124,29266
30676,7148,29357
30660,7161,29463
30704,7092,29364
30668,7109,29512
30704,7110,29292
30740,7130,29618
30824,7105,29480
30812,7111,29648
30848,7111,29638
30820,7116,29587
30846,7110,29625
30908,7101,29792
30932,7110,29834
30972,7110,29703
30956,7113,29885
30948,7114,29818
31017,7135,30064
31092,7168,29993
31168,7110,29931
31116,7119,30038
31098,7132,29809
30934,7138,30052
30914,7135,30148
31040,7110,30092
31140,7139,30189
31244,7143,30071
31340,7194,30215
31448,7103,30368
31536,7127,30336
31624,7140,30250
31668,7133,30308
31820,7138,30351
31912,7123,30250
32012,7140,30413
32088,7160,30245
32132,7091,30364
32272,7102,30608
32348,7132,30372
32388,7130,30503
32572,7163,30532
32684,7105,30292
32765,7097,30505
32864,7093,30576
32984,7124,30604
33104,7125,30342
33144,7157,30559
33208,7091,30660
33260,7117,30804
33376,7121,30620
33312,7142,30670
33300,7104,30722
33384,7108,30444
33492,7108,30719
33476,7110,30880
33440,7222,30761
33401,7087,30660
33444,7129,30768
33553,7119,30789
33616,7157,30704
33668,7098,30899
33676,7097,30804
33588,7124,30736
33604,7127,30784
33684,7080,30829
33676,7098,30852
33660,7202,30854
33534,7098,30880
33556,7120,30775
33560,7104,30659
33584,7113,30780
33580,7117,30855
33552,7131,31052
33572,7143,30877
33560,7143,30918
33488,7166,30916
33449,7077,30750
33488,7119,30876
33505,7124,30945
33568,7234,31039
33516,7099,30925
33555,7121,30845
33516,7115,30954
33428,7236,30985
33424,7103,30712
33468,7099,30831
33560,7140,30893
33564,7088,30907
33508,7108,30920
33508,7159,30940
33552,7096,31049
33573,7101,31105
33516,7120,30948
33460,7103,30860
33429,7109,30972
33412,7109,30692
33408,7127,30872
33392,7142,30953
33410,7090,31088
33476,7094,30881
33464,7100,30948
33360,7109,30725
33344,7117,30857
33416,7183,30875
33520,7090,30879
33576,7092,30893
33552,7137,30892
33396,7079,30916
33308,7118,30969
33360,7124,31023
33408,7155,31101
33484,7093,30865
33476,7088,30953
33468,7103,31015
33372,7138,31013
33288,7077,30933
33305,7098,31013
33292,7108,31174
33412,7145,30917
33413,7096,31057
33376,7103,30773
33380,7111,31022
33380,7130,31129
33305,7146,31008
33232,7077,31088
33308,7091,31110
33344,7096,30821
33369,7126,30955
33438,7152,31132
33437,7102,31145
33390,7093,31104
33296,7109,31141
33344,7135,31158
33368,7081,31164
33356,7076,31077
33412,7074,31309
33432,7107,31204
33544,7100,31044
33380,7132,31162
33342,7150,31196
33324,7095,30916
33404,7107,30937
33480,7122,31119
33512,7204,31106
33440,7081,31239
33412,7086,31313
33340,7095,31265
33293,7112,31220
33348,7145,31048
33432,7097,31101
33464,7092,31184
33492,7109,31161
33376,7102,31048
33340,7102,31087
33284,7133,31079
33320,7074,31078
33389,7097,31081
33444,7107,31132
33437,7149,31263
33412,7100,31062
33416,7092,31068
33352,7127,31068
33280,7111,31095
33284,7124,31085
33292,7082,30829
33256,7074,31004
33328,7076,31180
33332,7087,30905
33245,7127,30964
33188,7123,31009
33236,7170,30716
33240,7090,30820
33216,7124,30825
33172,7118,30792
33180,7071,30772
33220,7087,30709
33300,7153,30732
33292,7094,30663
33284,7111,30740
33300,7141,30647
33316,7199,30815
33276,7087,30950
33248,7117,30951
33204,7108,30727
33248,7142,30756
33228,7074,30807
33204,7090,30653
33280,7105,30823
33248,7133,30849
33216,7095,30610
33245,7093,30720
33196,7125,30431
33240,7116,30601
33326,7135,30727
33308,7216,30721
33296,7074,30574
33276,7086,30525
33208,7114,30624
33126,7106,30320
33088,7126,30584
32928,7142,30486
32900,7090,30532
32968,7087,30541
32904,7108,30240
32888,7118,30337
32832,7142,30528
32888,7073,30450
32893,7107,30375
32904,7110,30461
32864,7137,30176
32868,7179,30372
32800,7092,30546
32728,7088,30396
32672,7100,30292
32736,7115,30373
32820,7120,30109
32928,7136,30305
33036,7148,30500
33046,7088,30367
32992,7095,30237
33064,7106,30348
33128,7117,30329
33092,7151,30098
33056,7079,30255
33108,7076,30444
33040,7108,30229
32976,7120,30268
32968,7089,30279
33032,7119,30293
33044,7128,30113
33064,7141,30245
33056,7193,30406
33020,7086,30291
32978,7116,30124
33012,7140,30193
33034,7209,30223
33036,7075,30203
33096,7089,30375
33120,7109,30092
33184,7122,30201
33088,7151,30233
32949,7087,30234
32957,7082,29951
32980,7085,30124
33000,7092,30166
33008,7120,30319
33044,7230,30196
33032,7085,30071
33060,7112,30025
33128,7152,30126
33069,7093,30040
32948,7123,30009
32940,7128,30149
33004,7188,29882
33120,7075,30041
33140,7092,30034
33056,7131,30017
32944,7074,30006
32864,7098,30046
32940,7123,30175
33004,7148,30140
32992,7092,30020
32942,7079,30061
32912,7094,30065
32912,7132,30071
32836,7075,30048
32807,7097,30044
32768,7182,30028
32588,7086,30025
32208,7120,30031
31876,7139,29993
31500,7089,30002
31048,7105,29996
30461,7107,29719
29964,7094,29840
29512,7112,29901
29576,7080,29889
30956,7117,29959
33589,7136,29925
36884,7091,29909
40316,7127,29944
44100,7132,30036
47784,7072,30036
51088,7104,29923
53652,7145,29869
54840,7052,29774
53804,7073,29860
51116,7123,29837
48672,7110,29594
46452,7142,29764
44404,7166,29836
42836,7073,29692
41260,7072,29709
39580,7088,29716
37800,7109,29683
35884,7159,29437
34209,7074,29476
32832,7079,29504
31885,7085,29610
31212,7106,29464
30788,7106,29510
30404,7117,29469
30244,7120,29310
30121,7117,29429
29960,7131,29504
29836,7071,29401
29648,7102,29445
29600,7134,29359
29488,7092,29428
29476,7095,29295
29497,7126,29301
29416,7126,29319
29332,7081,29218
29304,7103,29261
29321,7102,29324
29316,7074,29268
29332,7081,29331
29380,7105,29402
29469,7117,29176
29512,7141,29247
29536,7144,28985
29556,7090,29117
29596,7080,29103
29604,7111,29143
29540,7118,29166
29572,7075,29241
29564,7076,28999
29557,7098,28989
29574,7130,29007
29668,7093,28972
29752,7089,28807
29664,7120,28660
29720,7116,28608
29836,7076,28720
29956,7105,28664
29960,7105,28822
29924,7138,28736
29824,7137,28653
29776,7132,28505
29893,7172,28567
29928,7093,28669
29888,7166,28488
29940,7215,28445
29968,7148,28359
29976,7072,28469
29956,7085,28500
29960,7096,28232
30048,7095,28287
30060,7107,28091
30088,7143,28140
30132,7096,28282
30132,7092,28148
30124,7085,28136
30086,7105,28193
30112,7086,27932
30236,7111,28053
30212,7140,28065
30212,7084,28143
30272,7113,28297
30224,7114,28182
30240,7118,28163
30326,7135,28152
30280,7197,28005
30213,7078,28110
30241,7089,28280
30288,7089,28165
30309,7122,28132
30304,7170,28286
30260,7088,28325
30288,7130,28257
30292,7115,28504
30208,7118,28353
30136,7160,28423
30052,7077,28237
30112,7109,28417
30128,7127,28443
30160,7075,28580
30224,7121,28724
30176,7123,28581
30112,7231,28695
30236,7108,28517
30295,7113,28724
30351,7142,28829
30332,7079,28785
30300,7110,28861
30316,7108,28644
30404,7171,28822
30468,7088,28976
30533,7118,28969
30482,7114,28999
30457,7138,29045
30528,7232,28988
30540,7085,29217
30512,7107,29231
30592,7097,29153
30648,7133,29188
30622,7088,29148
30656,7091,29353
30676,7128,29145
30740,7114,29324
30888,7134,29249
30916,7156,29508
30937,7087,29288
30912,7101,29447
31000,7101,29370
31128,7127,29617
31180,7155,29470
31232,7091,29528
31392,7098,29600
31516,7098,29596
31576,7127,29604
31669,7106,29656
31796,7103,29642
31956,7102,29662
32120,7124,29700
32232,7174,29740
32372,7076,29512
32408,7119,29701
32564,7115,29953
32592,7145,29685
32624,7154,29871
32677,7237,29679
32836,7239,29948
32877,7076,30042
32956,7068,29818
32996,7075,29945
33060,7108,29689
33166,7113,30023
33272,7109,29959
33296,7120,30014
33340,7140,29933
33384,7085,30143
33360,7078,29985
33324,7097,29940
33384,7080,30212
33388,7095,30048
33440,7108,29855
33530,7105,30206
33468,7113,30016
33492,7107,30158
33500,7131,29964
33436,7203,30052
33472,7075,30188
33512,7068,30245
33512,7096,30205
33524,7111,30252
33536,7219,30055
33504,7074,30279
33532,7103,30326
33504,7101,30276
33460,7120,30031
33460,7155,30228
33480,7072,30426
33532,7106,30431
33552,7104,30293
33372,7130,30304
33380,7183,30348
33376,7074,30253
33412,7106,30356
33508,7119,30276
33454,7117,30389
33366,7093,30116
33344,7108,30303
33344,7115,30534
33364,7129,30287
33448,7062,30393
33288,7096,30417
33262,7103,30413
33324,7124,30287
33325,7086,30356
33328,7095,30534
33340,7108,30513
33328,7068,30511
33301,7093,30504
33256,7063,30538
33248,7090,30607
33253,7087,30341
33248,7119,30508
33260,7141,30420
33284,7080,30537
33226,7095,30500
33260,7098,30432
33320,7098,30538
33276,7139,30548
33264,7062,30312
33200,7074,30505
33204,7083,30722
33250,7101,30540
33209,7149,30624
33160,7081,30342
33234,7108,30624
33244,7098,30696
33224,7101,30620
33156,7137,30674
33140,7058,30676
33248,7096,30557
33302,7093,30783
33288,7101,30628
33164,7122,30703
33164,7140,30477
33184,7089,30666
33276,7082,30748
33404,7105,30923
33416,7080,30722
33292,7077,30541
33156,7076,30880
33212,7102,30748
33256,7108,30580
33172,7101,30972
33120,7085,30790
33080,7106,30892
33212,7105,30876
33264,7131,30837
33140,7184,31057
33064,7059,30933
33124,7100,30881
33144,7109,30880
33200,7124,30734
33184,7148,30889
33104,7081,31047
33060,7076,30866
33088,7074,30996
33108,7087,30904
33116,7095,31124
33108,7079,30901
33096,7105,31013
33140,7127,30755
33124,7073,31031
33180,7079,31127
33196,7099,30974
33196,7087,30733
33156,7092,31097
33128,7082,30921
33108,7082,31037
33116,7104,30903
33096,7122,31112
33068,7221,30911
33088,7074,30984
33098,7078,30927
33088,7116,31111
33092,7094,31004
33028,7098,30714
33084,7105,31034
33172,7077,30972
33168,7082,30735
33060,7091,31082
32864,7087,30856
32848,7124,30940
32924,7149,30831
33001,7081,31042
33080,7076,30761
33188,7077,30893
33192,7075,30796
33190,7079,30913
32956,7086,30841
32964,7131,30852
32912,7067,30694
32852,7070,30922
32865,7076,30760
32932,7081,30521
32992,7096,30929
32960,7091,30740
32852,7093,30788
32920,7111,30636
32942,7057,30669
32957,7090,30673
32885,7121,30660
32849,7072,30845
32956,7109,30837
32964,7105,30676
32928,7140,30717
32912,7076,30620
32876,7063,30831
32960,7061,30586
32912,7081,30672
32868,7094,30544
32960,7089,30668
33072,7107,30660
33108,7132,30649
33028,7144,30551
32876,7168,30765
32868,7072,30516
32900,7067,30614
32920,7073,30525
32920,7078,30732
32925,7111,30586
32952,7065,30476
32917,7086,30567
32828,7095,30308
32852,7117,30471
32862,7106,30669
32868,7117,30432
32880,7159,30542
32873,7066,30444
32832,7058,30588
32908,7060,30522
33012,7098,30484
33028,7093,30500
32936,7087,30413
32896,7099,30532
32922,7100,30489
33004,7092,30502
32976,7079,30361
32864,7084,30397
32762,7083,30561
32912,7078,30423
32944,7080,30205
32792,7092,30508
32724,7113,30506
32804,7188,30420
32868,7156,30189
32856,7071,30405
32872,7063,30578
32829,7071,30372
32848,7074,30439
32772,7087,30524
32792,7099,30332
32896,7097,30356
32940,7108,30591
32892,7095,30466
32856,7128,30369
32830,7135,30597
32846,7204,30343
32916,7062,30453
32944,7210,30356
32948,7214,30456
32824,7066,30376
32908,7188,30176
32788,7180,30506
32668,7078,30405
32753,7074,30391
32844,7085,30136
32856,7079,30395
32862,7076,30416
32804,7080,30353
32804,7103,30408
32804,7128,30181
32845,7070,30310
32812,7081,30469
32780,7098,30514
32848,7100,30273
32996,7090,30380
33005,7101,30119
32964,7115,30381
32896,7139,30388
32800,7052,30340
32852,7061,30353
32756,7068,30265
32784,7079,30484
32794,7093,30290
32812,7110,30342
32800,7160,30270
32741,7219,30273
32704,7141,30333
32712,7052,30204
32832,7067,30377
32864,7098,30281
32776,7094,30335
32724,7117,30340
32616,7078,30072
32646,7095,30225
32656,7101,30211
32616,7064,30228
32660,7074,30260
32708,7080,30469
32704,7105,30185
32848,7067,30336
32844,7067,30072
32876,7076,30269
32820,7095,30440
