ECG,EDA,RR
33616,4847,32718
33548,4823,32817
33486,4801,32556
33496,4826,32754
33512,4806,32550
33522,4847,32903
33488,4818,32623
33500,4857,32848
33508,4821,32927
33496,4894,32925
33524,4829,32884
33576,4798,32852
33516,4835,32884
33452,4821,32889
33540,4993,32851
33608,4843,32840
33624,4824,32791
33561,4984,32692
33434,4827,32796
33364,4803,32718
33340,4848,32764
33338,4802,32752
33356,4861,32732
33352,4834,32839
33382,4810,32985
33368,4829,32549
33388,4906,32748
33384,4817,32916
33390,4858,32780
33352,4802,32767
33352,4874,32744
33333,4799,32687
33325,4827,32747
33410,4796,32721
33448,4868,32742
33472,4842,32695
33396,4877,32804
33272,4807,32519
33240,4844,32501
33280,4804,32528
33321,4868,32503
33336,4820,32492
33316,4798,32505
33328,4834,32612
33333,4803,32493
33300,4833,32340
33268,4816,32406
33248,4831,32462
33236,4885,32408
33272,4802,32452
33288,4817,32213
33288,4845,32389
33268,4803,32244
33210,4861,32279
33204,4825,32331
33220,4891,32309
33260,4854,32195
33257,4882,32268
33312,4807,32219
33310,4846,32135
33316,4791,32207
33296,4819,32169
33304,4977,32148
33356,4829,32119
33373,4852,31969
33364,4815,32189
33380,4843,31812
33376,4868,31988
33352,4824,32012
33270,4828,31699
33264,4919,31872
33285,4822,32068
33312,4844,31741
33428,4799,31854
33388,4864,31855
33432,4810,31872
33448,4858,31719
33156,4810,31874
33117,4835,31817
33160,4805,31724
33148,4835,31837
33096,4851,31450
33104,4797,31692
33121,4820,31858
33124,4799,31429
33108,4841,31548
33152,4814,31647
33196,4845,31373
33196,4901,31501
33160,4812,31653
33148,4831,31444
33176,4794,31576
33145,4820,31545
33109,4865,31568
33056,4806,31577
33100,4841,31544
33153,4817,31438
33176,4830,31407
33184,4976,31460
33192,4818,31517
33168,4801,31543
33148,4829,31471
33080,4836,31215
33076,4802,31469
33100,4830,31359
33148,4809,31498
33148,4847,31176
33152,4886,31360
33152,4838,31484
33176,4897,31184
33188,4809,31377
33056,4824,31289
32952,4794,31439
32966,4820,31208
33033,4988,31333
33052,4847,31364
33024,4870,31276
32984,4811,31318
32944,4845,31332
32900,4800,31207
32876,4813,31286
32896,4841,31216
32865,4797,31374
32872,4807,31191
32780,4855,31250
32800,4809,31116
32872,4832,31255
32868,4932,31208
32830,4810,31141
32805,4819,31313
32869,4862,31188
32865,4801,31176
32780,4840,31176
32712,4796,31089
32812,4825,31145
32848,4991,31227
32868,4832,30816
32864,4813,31045
32892,4825,30964
32926,4876,31090
32952,4802,31181
32988,4847,30971
33032,4804,31065
33012,4856,30925
33088,4813,31020
33184,4844,30733
33128,4807,30851
33112,4853,30910
33016,4815,30967
32996,4883,31056
33016,4837,30684
32984,4798,30887
32926,4831,31083
32952,4847,30871
32992,4983,30820
33025,4836,30915
33064,4862,30857
33052,4807,31012
33029,4827,30802
33068,4855,30588
33088,4793,30868
33084,4829,30804
33057,4848,30831
33084,4877,30788
33104,4798,30903
33112,4827,30700
33168,4887,30764
33172,4814,30917
33024,4824,30762
33018,4859,30463
33063,4802,30712
33052,4833,30884
33040,4791,30642
33084,4833,30711
33149,4859,30649
33156,4808,30791
33101,4839,30602
33064,4901,30664
32972,4831,30533
32984,4868,30772
32988,4796,30557
32960,4808,30604
32973,4861,30604
33000,4797,30590
32956,4837,30574
32856,4813,30569
32684,4842,30441
32328,4808,30554
31852,4827,30222
31372,4903,30381
30832,4828,30557
30108,4837,30337
29536,4799,30447
29428,4819,30417
30718,4867,30460
33254,4810,30383
36520,4854,30504
40000,4809,30282
43848,4859,30342
47640,4789,30396
50896,4825,30232
53524,5021,30308
55124,4803,30184
54440,4854,30312
51812,4795,30088
49440,4835,30212
47192,4796,30304
45116,4841,30180
43600,4803,30103
42030,4832,30092
40340,4781,29946
38372,4825,29959
36324,4786,30013
34508,4848,30028
33104,4805,29974
32102,4887,30006
31377,4828,29901
30868,4813,29978
30440,4833,29529
30240,4803,29703
30064,4816,29756
29964,4797,29720
29876,4809,29797
29800,4879,29389
29710,4823,29755
29684,4815,29622
29644,4854,29745
29460,4821,29615
29356,4876,29693
29320,4818,29600
29328,4796,29695
29368,4838,29601
29348,4791,29602
29328,4820,29481
29340,4810,29548
29412,4831,29556
29476,4874,29420
29512,4814,29496
29560,4842,29315
29564,4952,29365
29521,4811,29421
29524,4907,29369
29596,4827,29321
29640,4861,29326
29673,4833,29380
29704,4876,29077
29745,4830,29183
29776,4847,29260
29828,4899,29031
29848,4810,29077
29856,4815,28925
29916,4855,29077
29948,4809,28657
29996,4849,28898
30028,4806,28710
29960,4828,28764
30036,4860,28545
30100,4809,28647
30108,4841,28575
30096,4910,28591
30072,4799,28408
30127,4824,28441
30172,4793,28228
30208,4816,28327
30216,4810,28269
30176,4830,28205
30245,4818,28066
30240,4836,28031
30313,4807,27933
30352,4828,27908
30368,4799,27928
30268,4819,28009
30192,4798,28052
30224,4821,27805
30224,4810,27935
30216,4838,27991
30301,4822,27786
30353,4854,27873
30304,4861,27825
30316,4825,27860
30318,4894,27873
30344,4837,27773
30332,4844,27856
30304,4805,27744
30373,4847,27887
30436,4875,27737
30368,4819,27983
30294,4846,27665
30312,4813,27896
30297,4828,28040
30276,4805,27856
30292,4818,28000
30272,4898,27928
30220,4817,27989
30256,4814,28053
30264,4843,28047
30308,4816,28001
30376,4850,28115
30380,4813,28021
30380,4833,28063
30316,4805,28167
30300,4860,28249
30284,4802,27977
30316,4830,28213
30428,4808,28421
30476,4847,28201
30520,4824,28332
30584,4836,28385
30677,4906,28282
30732,4834,28392
30844,4856,28532
30762,4824,28260
30670,4958,28431
30756,4827,28497
30892,4817,28524
31012,4842,28442
31036,4890,28615
31032,4835,28591
31036,4820,28500
30997,4837,28661
31136,4847,28493
31160,4880,28704
31190,4807,28661
31252,4843,28654
31308,4809,28789
31460,4856,28869
31528,4831,28615
31644,4933,28758
31784,4831,28788
31900,4806,28896
32042,4834,29037
32124,4798,28692
32168,4821,28925
32236,4805,29105
32372,4836,29029
32529,4812,28959
32688,4868,28997
32832,4820,29087
32945,4859,29260
33024,4804,29057
33076,4843,29191
33188,4793,29250
33292,4839,29034
33385,4807,29204
33504,4872,29415
33604,4837,29176
33716,4878,29319
33742,4818,29460
33688,4860,29212
33712,4807,29341
33752,4870,29348
33744,4810,29340
33716,4797,29396
33732,4851,29316
33796,4844,29212
33856,4814,29440
33912,4836,29206
33944,4813,29589
33977,4861,29214
33876,4835,29468
33808,4871,29426
33796,4817,29526
33800,4842,29678
33829,4797,29308
33848,4866,29517
33902,4836,29593
33872,4883,29415
33832,4816,29601
33824,4854,29706
33820,4823,29536
33884,4798,29614
33900,4825,29713
33804,4799,29577
33760,4814,29607
33684,4803,29648
33728,4859,29648
33796,4841,29631
33806,4917,29740
33728,4833,29855
33640,4802,29764
33648,4792,29807
33652,4834,29789
33608,4809,29917
33584,4797,29804
33532,4839,29941
33532,4814,29570
33553,4917,29698
33612,4832,29752
33610,4804,29702
33552,4844,29775
33520,4804,29733
33532,4864,29797
33480,4795,29888
33508,4839,30028
33540,4807,29650
33517,4869,29794
33525,4826,29863
33568,4808,29946
33616,4853,30097
33624,4794,29856
33588,4813,30029
33452,4798,30047
33444,4831,29968
33436,4799,30068
33417,4816,30032
33384,4812,30248
33396,4821,30049
33412,4884,30085
33420,4822,30069
33400,4803,30129
33358,4830,30133
33364,4797,30229
33373,4808,30124
33397,4856,30208
33401,4803,30272
33453,4869,30300
33428,4846,30021
33420,4899,30277
33328,4845,30288
33288,4857,30341
33344,4814,30428
33412,4941,30103
33368,4804,30398
33336,4835,30499
33240,4804,30352
33344,4847,30444
33437,4810,30549
33432,4863,30493
33324,4806,30468
33276,4852,30436
33268,4794,30552
33284,4818,30456
33312,4799,30532
33200,4827,30596
33204,4866,30692
33268,4835,30317
33348,4877,30463
33312,4827,30535
33288,4810,30572
33300,4829,30637
33308,4941,30646
33248,4795,30556
33228,4840,30516
33236,4799,30535
33276,4829,30792
33344,4819,30420
33337,4851,30661
33376,4817,30796
33224,4864,30580
33188,4805,30669
33240,4847,30788
33240,4799,30388
33216,4848,30500
33220,4825,30560
33252,4977,30617
33204,4826,30584
33244,4815,30590
33260,4862,30621
33230,4834,30669
33184,4836,30575
33097,4793,30673
33168,4857,30580
33116,4798,30540
33044,4823,30501
33156,4799,30553
33200,4847,30441
33245,4950,30586
33200,4845,30212
33142,4806,30346
33172,4828,30502
33212,4864,30172
33153,4809,30413
33144,4863,30529
33044,4830,30137
33088,4865,30373
33104,4800,30471
33124,4826,30324
33088,4876,30116
33076,4803,30363
33061,4850,30461
33037,4794,30359
33100,4820,30228
33112,4824,30338
33056,4795,30200
32996,4833,30368
32984,4870,30040
33080,4814,30264
33120,4876,30313
33132,4822,30287
32984,4874,30226
32888,4833,30168
32913,4863,30262
32896,4785,30084
32920,4812,30332
32996,4854,30130
33004,4818,30227
33038,4852,30148
33085,4808,30294
33008,4820,30132
32976,4860,30179
32976,4791,30087
32948,4827,30147
32928,4858,30073
32860,4805,30151
32852,4863,30245
32929,4840,30157
32960,4811,30138
32980,4843,30162
32996,4860,29900
33000,4801,30076
33040,4844,30077
33000,4795,30127
32896,4831,30155
32916,4789,29948
32920,4825,30048
32936,4871,30126
32988,4803,30123
33028,4839,29993
32960,4872,30068
32946,4792,30048
32948,4821,29982
32852,4822,30191
32825,4943,29970
32798,4793,30046
32812,4822,30056
32844,4893,30084
32900,4822,29965
32912,4843,29816
32916,4932,30068
32960,4808,30055
32864,4812,29956
32864,4885,30164
32924,4817,29772
32793,4824,30036
32804,4798,30210
32756,4843,29920
32714,4870,30073
32728,4805,29927
32748,4820,30211
32756,4851,30020
32712,4791,30046
32749,4827,30024
32776,4850,30199
32780,4804,30052
32824,4848,29919
32928,4803,30084
32948,4847,29833
32756,4872,30044
32724,4814,30208
32656,4854,29817
32669,4794,30084
32720,4853,30215
32752,4829,29800
32764,4871,30065
32741,4828,30034
32772,4880,30020
32788,4842,30095
32816,4940,30181
32804,4842,30002
32788,4874,30054
32736,4815,29929
32753,4857,29983
32776,4829,29988
32776,4879,29992
32788,4819,30056
32776,4812,30215
32797,4825,29805
32746,4812,29940
32728,4805,30116
32732,4817,30117
32729,4799,30083
32744,4807,29945
32784,4958,30061
32720,4813,30094
32680,4862,29935
32692,4839,30052
32682,4884,30104
32692,4817,30115
32672,4841,30036
32704,4804,30116
32700,4845,30180
32636,4797,30092
32520,4836,29978
32384,4792,30181
32353,4830,30138
32400,4808,30226
32465,4871,30111
32532,4838,30191
32570,4871,29887
32680,4800,30121
32701,4830,30260
32668,4798,30148
32676,4796,30052
32736,4833,30124
32680,4805,29877
32636,4874,30169
32688,4846,29957
32717,4960,30060
32634,4827,30143
32680,4924,30218
32700,4836,30348
32704,4865,29937
32752,4789,30212
32833,4832,30375
32836,4810,29951
32840,4853,30117
32797,4808,30197
32798,4827,30272
32824,4808,30353
32813,4827,29993
32768,4794,30233
32706,4824,30285
32676,4794,30296
32668,4812,30150
32708,4880,30295
32728,4805,30314
32777,4843,30237
32796,4838,30325
32848,4800,30417
32852,4827,30371
32780,4793,30483
32752,4858,30377
32760,4801,30396
32728,4883,30396
32736,4815,30492
32772,4805,30420
32800,4811,30409
32789,4838,30447
32808,4816,30575
32804,4863,30161
32773,4833,30436
32750,4794,30336
32756,4810,30449
32776,4798,30409
32792,4867,30456
32872,4841,30435
32864,4810,30406
32836,4855,30447
32832,4830,30389
32850,4816,30463
32736,4964,30532
32497,4820,30575
32212,4799,30553
31936,4877,30685
31544,4829,30602
30980,4816,30716
30204,4885,30348
29516,4833,30751
29194,4809,30612
29676,4863,30789
31548,4836,30657
34400,4788,30786
37660,4960,30693
41260,4823,30774
45184,4841,30661
48712,4796,30629
51784,4884,30684
54092,4833,30654
54900,4805,30872
53132,4800,30772
50348,4836,30812
48040,4806,30661
45668,4780,30610
43824,4818,30634
42304,4805,30590
40636,4794,30836
38892,4972,30673
36868,4846,30789
34840,4832,30944
33168,4805,30808
31952,4843,30885
31136,4809,30809
30588,4790,30862
30208,4839,30763
29964,4817,30706
29792,4808,30700
29624,4811,30793
29556,4935,30716
29440,4845,30700
29320,4827,30576
29216,4794,30973
29174,4825,30860
29140,4798,30996
29044,4863,30916
29014,4821,30847
28964,4811,31086
28974,4969,30981
29005,4840,30756
28992,4818,31188
28984,4808,31089
28980,4831,31052
29040,4831,31108
29061,4793,31129
29084,4860,31180
29060,4810,31170
29124,4902,31196
29186,4832,31172
29220,4811,31317
29216,4842,31198
29172,4806,31308
29176,4863,31188
29220,4812,31334
29240,4908,31108
29272,4818,31050
29336,4801,30948
29357,4860,31321
29376,4828,31199
29368,4814,31282
29340,4857,31157
29316,4827,31228
29300,4798,31151
29352,4857,31125
29376,4814,30961
29380,4802,31004
29400,4836,31048
29364,4815,31076
29468,4844,31030
29548,4812,31076
29584,4852,30708
29584,4838,31125
29616,4801,30976
29628,4842,31099
29664,4804,30956
29636,4802,31092
29688,4852,30951
29672,4842,30784
29652,4831,31080
29641,4812,30964
29628,4871,31092
29608,4826,30958
29612,4801,31113
29577,4909,31020
29612,4825,31094
29609,4803,31049
29572,4871,31096
29488,4839,31025
29544,4820,31152
29576,4860,31306
29638,4828,31228
29704,4803,31283
29681,4848,31237
29669,4814,31282
29677,4796,31255
29664,4839,31431
29704,4807,31337
29760,4867,31476
29792,4841,31591
29636,4885,31665
29600,4815,31622
29574,4845,31813
29640,4813,31841
29668,4862,31964
29712,4836,31641
29760,4913,31857
29776,4816,32125
29856,4845,31818
29949,4814,32135
29992,4849,32140
29968,4815,32146
29952,4867,32217
29880,4807,32340
29918,4847,32536
30032,4831,32504
30040,4799,32688
30084,4852,32300
30024,4830,32580
30056,4818,32391
30121,4838,32676
30176,4810,32748
30236,4860,32845
30229,4810,32932
30208,4849,33020
30176,4806,33201
30224,4898,33145
30284,4831,33249
30364,4849,33149
30412,4820,33071
30480,4882,33470
30560,4833,33143
30644,4883,33453
30720,4832,33582
30732,4803,33592
30852,4823,33749
30944,4809,33722
31076,4868,33883
31192,4845,33828
31236,4935,33869
31300,4852,33799
31460,4813,33917
31572,4853,34012
31736,4823,34164
31905,4797,34156
32001,4851,34311
32152,4809,34223
32208,4878,34447
32350,4831,34362
32412,4813,34516
32436,4884,34461
32461,4831,34592
32502,4802,34540
32536,4858,34617
32612,4808,34621
32696,4790,34744
32768,4853,34740
32860,4817,34914
32948,4804,34792
32996,4876,34976
33013,4825,34695
33012,4861,34924
32925,4832,34940
32892,4794,34935
32952,4860,34719
33012,4811,35128
33044,4852,35073
33056,4833,35081
33125,4799,35173
33140,4845,35248
33142,4845,35257
33121,4808,35372
33188,4852,35348
33356,4824,35463
33501,4791,35495
33604,4821,35568
33624,4828,35548
33608,4793,35658
33624,4888,35622
33594,4830,35623
33636,4804,35633
33664,4805,35360
33584,4800,35866
33605,4865,35808
33606,4810,35815
33672,4805,36013
33664,4867,35951
33492,4825,36068
33452,4833,36036
33444,4804,36161
33416,4857,36094
33408,4816,36231
33372,4797,36173
33320,4854,36332
33316,4829,36237
33264,4785,36394
33210,4829,35895
33204,4802,36308
33236,4839,36391
33224,4831,36327
33120,4806,36389
33040,4841,36408
32932,4804,36452
32824,4854,36532
32740,4825,36645
32700,4790,36316
32649,4808,36572
32632,4802,36720
32708,4830,36276
32820,4806,36583
32876,4860,36676
32908,4818,36737
32884,4958,36831
32736,4815,36815
32636,4784,36711
32652,4813,36822
32620,4793,36892
32628,4831,37004
32700,4801,36897
32644,4854,36969
32624,4808,36888
32620,4838,37068
32588,4969,37055
32544,4829,36984
32496,4794,37073
32504,4828,37103
32576,4800,37185
32696,4888,37203
32816,4831,37358
32789,4868,37191
32756,4805,37271
32726,4853,37221
32542,4806,37284
32608,4826,37322
32700,4795,37248
32700,4817,37493
32644,4840,37340
32645,4799,37023
32648,4837,37408
32620,4869,37561
32644,4845,37118
32684,4805,37574
32656,4847,37507
32580,4801,37636
32572,4964,37116
32622,4814,37434
32576,4787,37511
32576,4826,37572
32616,4805,37682
32616,4843,37156
32652,4804,37465
32656,4832,37594
32655,4799,37623
32662,4831,37757
32640,4785,37313
32598,4836,37580
32558,4798,37607
32557,4848,37647
32657,4837,37600
32692,4947,37692
32716,4823,37648
32660,4868,37589
32616,4834,37368
32576,4967,37636
32484,4816,37780
32436,4836,37640
32448,4797,37665
32497,4871,37773
32596,4807,37344
32628,4829,37633
32640,4806,37772
32672,4825,37223
32616,4882,37622
32584,4816,37796
32600,4849,37588
32608,4796,37509
32580,4831,37718
32532,4795,37440
32452,4828,37604
32445,4899,37431
32464,4826,37695
32463,4869,37365
32437,4817,37465
32432,4928,37669
32500,4829,37316
32524,4789,37444
32496,4819,37530
32536,4796,37485
32648,4845,37365
32648,4804,37551
32596,4852,37465
32504,4813,37505
32472,4859,37321
32492,4790,37442
32532,4810,37394
32608,4793,37396
32652,4811,37406
32676,4792,37543
32668,4836,37162
32670,4805,37260
32681,4842,37476
32685,4864,37428
32656,4800,36950
32528,4856,37334
32444,4792,37413
32524,4826,37077
32608,4799,37255
32640,4850,37383
32684,4799,37292
32728,4828,37281
32728,4876,37382
32753,4818,37248
32608,4862,37292
32564,4792,37140
32548,4821,37401
32560,4786,36935
32504,4840,37149
32532,4798,37284
32536,4845,37239
32640,4811,37239
32704,4879,37148
32752,4816,37245
32736,4855,37157
32696,4791,37303
32689,4816,36844
32596,4792,37165
32472,4824,37328
32524,4838,37281
32648,4805,36788
32680,4842,37172
32724,4805,37325
32660,4833,37151
32562,4884,36805
32496,4813,37156
32526,4860,37316
32572,4795,36804
32612,4826,37145
32718,4799,37319
32712,4818,37068
32672,4807,37116
32660,4823,37295
32668,4809,37201
32625,4818,37284
32577,4865,36820
32573,4823,37232
32552,4859,36928
32580,4793,37116
32672,4838,37143
32704,4797,37132
32760,4858,37156
32732,4837,37141
32748,4808,37229
32685,4836,37198
32696,4794,37343
32685,4835,37217
32701,4801,37308
32668,4877,36929
32616,4812,37086
32617,4805,37045
32652,4970,37108
32728,4821,37213
32760,4803,37200
32828,4832,37368
32836,4795,37222
32792,4859,37209
32700,4804,37184
32656,4798,37245
32584,4821,37292
32576,4801,36871
32532,4897,37108
32492,4827,37127
32484,4803,37233
32448,4827,37359
32512,4791,36916
32510,4815,37231
32544,4786,37375
32568,4825,37236
32620,4794,37141
32636,4846,37313
32669,4804,37287
32616,4863,37200
32500,4841,37221
32420,4797,37241
32480,4826,37420
32556,4788,36878
32632,4822,37298
32616,4801,37383
32477,4862,37327
32532,4836,37364
32588,4807,37147
32564,4839,37188
32516,4808,37287
32444,4871,37291
32396,4809,37366
32472,4927,37340
32576,4808,37282
32624,4788,37302
32584,4867,37312
32672,4836,37340
32748,4817,37341
32756,4809,37452
32688,4843,37364
32592,4816,37511
32600,4797,37380
32580,4836,37527
32628,4807,37386
32764,4794,37505
32784,4812,37328
32780,4942,37383
32812,4819,37510
32856,4809,37372
32808,4838,37533
32812,4796,37012
32836,4836,37268
32816,4796,37379
32828,4823,37412
32854,4787,37550
32877,4826,36980
32856,4799,37277
32901,4844,37488
32988,4800,37383
33020,4850,37284
33008,4802,37521
32888,4813,37397
32760,4788,37471
32768,4861,37095
32864,4816,37380
32916,4839,37411
33008,4798,37375
32980,4824,37432
32980,4809,37568
33020,4820,37324
33030,4883,37367
33052,4810,37556
33042,4847,37372
33068,4787,37388
33068,4835,37565
33060,4797,37357
32972,4840,37313
32837,4817,37380
32656,4871,37403
32396,4825,37412
32085,4844,37350
31720,4795,37359
31325,4829,37260
30800,4791,37465
30112,4861,37356
29577,4840,37477
29485,4808,37146
30492,4842,37296
33040,4809,37373
36533,4840,37274
40144,4788,37312
43796,4854,37436
47304,4813,37268
50140,4849,37260
52416,4784,37390
53500,4857,37289
52200,4823,37187
49640,4880,37222
47448,4810,37284
45276,4871,37384
43824,4812,37212
42936,4780,37361
41836,4866,37196
40432,4823,37140
38628,4855,37280
36624,4805,36956
34724,4834,37141
33244,4805,37179
32280,4827,37095
31600,4806,37072
31128,4838,36948
30716,4792,37095
30392,4846,37001
30256,4787,36832
30158,4818,36995
30117,4793,36512
30012,4825,36844
29813,4807,37006
29676,4831,36828
29636,4854,36836
29668,4799,36711
29804,4854,36919
29766,4829,36784
29628,4795,36668
29548,4827,36862
29496,4841,36660
29572,4830,36711
29668,4806,36772
29736,4852,36793
29760,4812,36911
29856,4876,36730
29820,4826,36736
29792,4792,36413
29756,4826,36620
29805,4798,36726
29828,4820,36616
29801,4936,36476
29911,4838,36575
29984,4853,36399
30088,4804,36422
30078,4831,36526
30078,4799,36242
30072,4829,36268
30113,4856,36385
30132,4831,36174
30168,4812,36213
30204,4848,35772
30304,4806,35964
30360,4836,36020
30376,4812,35897
30305,4856,35719
30298,4797,35912
30304,4814,35681
30309,4867,35684
30340,4803,35508
30408,4854,35681
30404,4823,35166
30340,4880,35456
30290,4809,35585
30304,4826,35384
30316,4882,35079
30340,4816,35349
30416,4853,35440
30473,4793,35244
30432,4818,35292
30440,4800,35247
30568,4836,35140
30625,4875,35399
30708,4806,35260
30752,4837,35278
30712,4802,35148
30676,4842,35267
30636,4808,35300
30612,4864,35230
30638,4822,35461
30764,4859,35343
30738,4801,35157
30668,4844,35405
30636,4852,35474
30556,4805,35344
30596,4836,35624
30688,4803,35572
30776,4823,35585
30836,4790,35569
30864,4835,35720
30856,4803,35688
30816,4839,35415
30760,4809,35817
30736,4841,35757
30750,4878,36020
30828,4836,35756
30844,4801,35956
30844,4825,36117
30892,4863,36008
30908,4829,36119
30916,4863,36026
31036,4819,36340
31076,4856,36165
31112,4814,36260
31192,4810,36308
31273,4837,36346
31284,4835,36332
31280,4796,36557
31304,4802,36524
31301,4830,36431
31281,4802,36541
31336,4838,36448
31356,4812,36709
31432,4857,36415
31480,4817,36628
31560,4851,36724
31648,4809,36669
31712,4857,36748
31756,4800,36692
31793,4845,36900
31896,4817,36829
31972,4868,36783
32080,4809,36983
32112,4887,36905
32116,4836,36929
32120,4979,36956
32097,4832,36969
32184,4885,36904
32308,4829,37140
32380,4798,36852
32485,4823,37045
32532,4890,37116
32596,4817,37215
32584,4883,37127
32709,4807,37188
32910,4840,37182
33012,4798,37295
33120,4820,37124
33162,4791,37269
33192,4818,37252
33164,4798,37351
33220,4838,37029
33248,4887,37308
33268,4828,37360
33300,4841,37456
33336,4799,37308
33380,4816,37347
33436,4851,37358
33452,4790,37309
33464,4830,37440
33544,4795,37372
33556,4839,37342
33504,4804,37492
33492,4839,37408
33484,4798,37545
33472,4845,37056
33520,4796,37357
33472,4815,37550
33365,4779,37329
33306,4816,37434
33316,4789,37592
33444,4832,37380
33580,4971,37449
33680,4839,37420
33704,4809,37344
33664,4816,37413
33592,4797,37509
33584,4819,37520
33564,4823,37318
33521,4782,37473
33468,4831,37626
33494,4798,37172
33552,4836,37460
33648,4798,37593
33752,4853,37521
33716,4797,37394
33668,4820,37593
33604,4780,37517
33496,4814,37505
33417,4792,37467
33361,4844,37527
33384,4834,37621
33468,4801,37532
33504,4835,37652
33508,4802,37268
33524,4871,37432
33576,4816,37548
33584,4802,37527
33568,4786,37620
33550,4815,37526
33576,4791,37647
33556,4841,37448
33529,4836,37375
33488,4805,37520
33496,4817,37519
33517,4794,37653
33468,4845,37156
33416,4816,37493
33422,4779,37263
33392,4855,37383
33332,4819,37532
33340,4916,37540
33356,4822,37702
33396,4966,37476
33372,4820,37528
33316,4795,37255
33372,4816,37508
33436,4783,37558
33545,4817,37590
33600,4782,37714
33540,4810,37590
33368,4790,37572
33268,4840,37652
33328,4836,37596
33456,4803,37632
33544,4823,37616
33632,4794,37503
33672,4803,37727
33628,4788,37239
33584,4825,37621
33580,4863,37711
33636,4805,37607
33712,4869,37629
33772,4819,37788
33808,4846,37594
33757,4799,37192
33680,4829,37592
33608,4841,37683
33616,4784,37615
33644,4850,37592
33722,4824,37708
33784,4795,37149
33812,4818,37509
33761,4810,37644
33696,4834,37097
33588,4847,37449
33536,4791,37576
33556,4824,37424
33572,4781,37463
33548,4828,37532
33552,4789,37361
33580,4825,37376
33656,4798,37500
33656,4820,37260
33684,4801,37246
33672,4834,37335
33648,4817,37237
33626,4789,37330
33568,4814,37208
33488,4785,37316
33484,4793,36742
33540,4825,37127
33576,4801,37041
33632,4860,37127
33656,4820,36632
33661,4878,36945
33660,4803,37047
33588,4864,36925
33524,4803,36903
33488,4866,36780
33489,4816,36832
33496,4793,36906
33568,4851,36748
33600,4828,36840
33556,4801,36672
33520,4815,36626
33496,4887,36728
33440,4821,36385
33516,4785,36455
33564,4819,36476
33512,4794,36497
33468,4877,36615
33440,4823,36359
33480,4803,36348
33520,4840,36462
33484,4798,36321
33456,4847,36238
33404,4805,36353
33352,4787,36221
33348,4804,36342
33348,4785,35800
33348,4866,36174
33287,4829,35940
33296,4802,36020
33390,4841,36065
33461,4803,36040
33496,4790,36132
33477,4823,35966
33372,4782,36037
33340,4807,35846
33321,4787,35784
33316,4863,35844
33320,4823,35820
33388,4803,35875
33392,4916,35749
33452,4818,35782
33397,4786,35552
33296,4848,35516
33270,4821,35609
33204,4786,35631
33184,4825,35640
33236,4816,35228
33261,4894,35463
33264,4819,35581
33284,4800,35492
33312,4866,35492
33396,4827,35436
33428,4783,35544
33416,4822,35200
33320,4803,35356
33204,4795,35220
33152,4819,35191
33164,4836,35153
33176,4804,35146
33280,4865,35064
33260,4833,35166
33300,4795,35212
33264,4818,35192
33296,4780,35280
33320,4810,35079
33348,4787,35133
33272,4820,35007
33252,4797,35161
33232,4832,34740
33210,4802,35004
33188,4866,35105
33240,4808,35026
33276,4785,34894
33304,4852,34956
33256,4806,34994
33188,4789,35088
33184,4882,34936
33124,4842,34916
33056,4831,34813
33076,4798,34823
33132,4815,34919
33180,4798,34545
33210,4910,34791
33192,4807,34925
33208,4782,34814
33204,4827,34676
33212,4802,34724
33192,4900,34753
33146,4831,34721
33084,4814,34702
33028,4797,34683
32972,4845,34695
32948,4818,34823
32926,4785,34697
32820,4851,34809
32768,4819,34583
32844,4795,34625
32852,4855,34791
32832,4838,34455
32852,4805,34567
32860,4831,34713
32872,4793,34302
32960,4819,34567
33088,4803,34687
33124,4786,34588
33072,4831,34696
33008,4799,34444
33004,4871,34517
32972,4824,34657
32927,4919,34388
32920,4820,34382
32956,4791,34421
32988,4788,34378
33048,4816,34508
33120,4780,34436
33184,4817,34415
33200,4794,34439
33144,4829,34337
33133,4834,34279
33160,4804,34372
33054,4848,34393
32976,4829,34493
32960,4784,34361
32993,4851,34477
33064,4802,34367
33128,4805,34493
33184,4978,34320
33224,4830,34415
33241,4812,34154
33236,4803,34183
33248,4855,34108
33192,4826,34349
33160,4805,33992
33110,4784,34304
33057,4784,33902
33064,4816,34147
33136,4794,34224
33224,4884,34266
33248,4836,34294
33224,4821,34231
33185,4968,34344
33137,4824,33853
33124,4806,34077
33116,4787,34177
33084,4830,34167
33056,4806,34258
33056,4793,34172
33218,4796,34202
33416,4842,33773
33633,4799,34067
33828,4862,34094
33928,4812,34089
33948,4783,34177
33932,4822,34077
33852,4838,34052
33608,4807,34067
33300,4826,34084
32916,4798,34028
32432,4901,34095
31884,4825,34000
31233,4801,34004
30492,4871,33856
29944,4816,33900
29977,4787,34020
31448,4842,33934
34308,4824,33933
37817,4793,33558
41504,4800,33884
45264,4851,33812
48688,4841,33821
51400,4782,33788
53336,4852,33820
53760,4821,33916
51832,4782,33539
49304,4802,33772
47196,4776,33892
45112,4869,33750
43804,4823,33583
42816,4791,33680
41552,4842,33689
39844,4825,33772
37824,4789,33537
35832,4806,33604
34140,4782,33668
32780,4857,33543
31844,4803,33600
31184,4789,33373
30741,4882,33311
30452,4822,33325
30272,4799,33301
30108,4858,33325
29964,4804,33273
29860,4863,33228
29736,4799,33140
29652,4786,33108
29564,4844,33079
29522,4800,33098
29528,4866,33224
29492,4819,32748
29488,4805,32948
29528,4847,32982
29520,4807,32912
29444,4788,32860
29380,4784,33007
29380,4833,32984
29434,4812,33093
29417,4797,32961
29396,4837,33025
29308,4834,32887
29313,4871,32989
29352,4823,32716
29464,4856,32737
29629,4818,32652
29740,4907,32673
29730,4801,32728
29688,4896,32561
29713,4819,32657
29704,4800,32195
29712,4838,32253
29812,4816,32271
29828,4803,32254
29761,4816,32292
29730,4787,32164
29744,4825,32055
29740,4785,31976
29756,4807,32006
29784,4855,31932
29816,4806,31772
29864,4840,31766
29964,4802,31766
29988,4849,31705
30028,4815,31693
30060,4786,31633
30116,4844,31684
30156,4819,31252
30237,4791,31365
30284,4810,31476
30412,4804,31441
30464,4841,31260
30452,4866,31476
30428,4803,31281
30344,4851,31335
30297,4810,31436
30296,4789,31042
30271,4815,31283
30260,4941,31369
30388,4813,31006
30448,4804,31176
30470,4819,31253
30457,4802,31312
30468,4833,31430
30512,4794,31036
30532,4838,31208
30480,4811,31284
30440,4957,31391
30396,4812,31553
30404,4800,31362
30364,4821,31461
30396,4812,31517
30432,4850,31538
30444,4809,31443
30404,4864,31661
30381,4794,31557
30409,4830,31702
30376,4786,31626
30352,4817,31812
30372,4796,31532
30412,4831,31847
30448,4801,31739
30508,4834,32036
30488,4808,31622
30528,4859,31961
30552,4800,32116
30544,4834,32095
30528,4818,32092
30520,4799,32241
30564,4821,32060
30592,4886,32191
30588,4828,32068
30601,4811,32105
30713,4838,32262
30804,4817,32293
30892,4797,32363
30952,4814,32156
30972,4788,32335
31052,4826,32460
31128,4798,32453
31142,4853,32536
31120,4808,32407
31174,4855,32493
31212,4831,32647
31272,4797,32597
31296,4836,32737
31290,4803,32304
31332,4822,32668
31408,4799,32812
31545,4803,32724
31646,4843,32864
31772,4838,32754
31904,4811,32783
32056,4841,32612
32180,4830,32873
32280,4791,32657
32344,4837,32799
32428,4817,32838
32516,4794,32927
32584,4861,33020
32645,4824,32957
32693,4799,32948
32760,4862,32677
32830,4824,32856
32848,4790,32980
32932,4838,33049
33008,4823,33181
33076,4778,32811
33144,4808,33089
33180,4793,33151
33236,4840,33007
33301,4837,33036
33328,4806,33041
33348,4791,33001
33388,4826,33210
33404,4805,33146
33416,4781,33280
33437,4873,32888
33458,4827,33160
33464,4807,33009
33508,4799,33031
33520,4825,33132
33544,4807,33124
33577,4887,33308
33572,4823,33022
33540,4851,33194
33513,4802,33143
33484,4788,33109
33464,4806,33183
33532,4788,33304
33608,4862,33207
33644,4817,33240
33632,4801,32867
33584,4900,33159
33572,4827,33124
33540,4785,33169
33460,4805,33194
33464,4779,33220
33501,4852,33221
33508,4827,33244
33572,4792,33342
33588,4858,33254
33612,4815,33251
33572,4901,33167
33500,4823,33188
33488,4785,33252
33428,4861,33255
33388,4794,33385
33400,4783,33224
33400,4850,33287
33420,4819,33220
33392,4793,33344
33398,4869,33218
33384,4827,33345
33416,4798,33069
33439,4901,33172
33382,4795,33279
33352,4777,33233
33308,4833,33268
33264,4809,33214
33332,4799,33284
33404,4962,32913
33488,4821,33076
33472,4793,33079
33464,4847,33137
33424,4791,33255
33384,4780,33228
33377,4838,33278
33348,4803,33228
33360,4796,33310
33372,4791,33237
33344,4803,33277
33364,4833,33267
33392,4829,33305
33412,4788,33014
33420,4850,33209
33428,4807,33109
33432,4785,33164
33448,4874,33193
33428,4829,33212
33464,4808,33309
33512,4867,33276
33502,4834,33276
33452,4793,33058
33464,4825,33236
33452,4779,33213
33436,4826,33242
33396,4789,33383
33392,4862,33303
33416,4815,33408
33332,4797,33208
33336,4835,33230
33369,4800,33283
33336,4887,33231
33364,4820,33208
33381,4800,33200
33408,4780,33238
33400,4812,33237
33404,4781,33366
33454,4869,33250
33476,4832,33308
33528,4826,33183
33500,4793,33142
33420,4857,33183
33356,4803,33297
33364,4777,33140
33416,4821,33072
33432,4787,32829
33413,4788,33044
33452,4849,32895
33460,4823,32959
33424,4794,32743
33430,4862,32975
33397,4807,32842
33372,4905,32969
33342,4812,33062
33334,4782,32652
33296,4862,32733
33276,4803,32772
33300,4798,32713
33288,4884,32781
33228,4813,32775
33228,4863,32615
33232,4807,32631
33312,4791,32676
33364,4807,32569
33380,4782,32541
33412,4868,32257
33388,4819,32412
33392,4798,32616
33381,4846,32412
33332,4795,32276
33308,4853,32399
33221,4819,32527
33196,4959,32275
33208,4821,32353
33245,4841,32173
33276,4789,32341
33292,4849,31925
33292,4823,32180
33325,4791,31878
33346,4854,32036
33364,4831,32045
33364,4801,32084
33312,4817,32175
33312,4845,31968
33308,4776,32006
33360,4824,31930
33372,4781,31904
33285,4832,31908
33292,4833,31861
33277,4799,31797
33268,4814,31808
33228,4790,31748
33224,4882,31484
33236,4820,31700
33288,4782,31677
33324,4818,31676
33308,4779,31687
33356,4860,31612
33348,4811,31702
33344,4803,31232
33324,4830,31486
33300,4859,31557
33288,4795,31433
33228,4836,31292
33237,4779,31336
33264,4838,31388
33292,4815,31485
33328,4859,31216
33278,4822,31274
33260,4845,31372
33268,4794,30988
33262,4815,31180
33252,4783,31259
33216,4816,31201
33196,4777,31148
33168,4796,31165
33132,4783,31132
33172,4830,31193
33192,4802,31087
33196,4836,31141
33173,4795,30742
33156,4837,30871
33165,4822,30911
33135,4786,30950
33132,4805,31039
33100,4809,30934
33088,4777,30744
33122,4905,30764
33116,4811,30956
33140,4794,30887
33136,4820,30853
33117,4786,30756
33080,4835,30800
33088,4820,30836
33072,4780,30804
33088,4807,30764
33116,4778,30711
33158,4836,30752
33192,4795,30780
33221,4869,30492
33192,4815,30600
33188,4792,30439
33188,4789,30557
33217,4823,30452
33208,4814,30583
33166,4778,30500
33172,4837,30506
33129,4818,30560
33101,4791,30573
33136,4839,30650
33156,4813,30561
33112,4793,30604
33084,4853,30521
33104,4804,30396
33092,4847,30567
33080,4797,30485
33049,4778,30612
33016,4823,30264
33016,4828,30450
33066,4796,30348
33112,4818,30432
33080,4791,30534
33129,4816,30319
33132,4779,30386
33152,4868,30295
33096,4814,30278
33004,4788,30361
32992,4807,30351
33020,4792,30277
33068,4889,30337
33072,4829,30388
33089,4796,30213
33064,4825,30292
32964,4780,30192
32960,4843,30303
32924,4803,30121
32904,4839,30244
32832,4786,30256
32789,4841,30183
32796,4806,30244
32864,4847,30132
32932,4818,30144
32992,4965,30232
33080,4817,30228
33072,4786,29893
33044,4809,30117
33034,4791,30064
32992,4878,30142
32968,4855,30136
33000,4836,30114
33049,4865,30097
33088,4794,30160
33100,4929,30201
33096,4808,30140
33060,4778,30028
33044,4804,30063
33064,4779,30111
33096,4823,30039
33080,4794,30000
33088,4817,30087
33118,4943,30188
33052,4822,29807
33048,4856,30042
33069,4787,30086
33076,4838,30057
33080,4782,30056
33093,4860,29852
33109,4794,30052
33088,4829,29928
33120,4793,30114
33164,4831,29751
33168,4789,29897
33136,4810,30053
33113,4895,29818
33108,4799,30019
33184,4825,30056
33230,4782,29988
33276,4813,30009
33256,4790,30017
33172,4856,29913
33180,4809,29964
33128,4932,30124
33100,4822,29754
33060,4781,29949
33120,4809,29983
33166,4776,29996
33177,4785,30047
33148,4827,29983
33120,4802,29881
33104,4794,29712
33076,4834,29894
32996,4796,29797
32964,4859,29860
33012,4805,30044
32958,4858,29964
32792,4804,29848
32516,4789,29785
32228,4860,29940
31800,4831,29799
31316,4799,29821
30680,4837,29716
30020,4802,29871
29596,4835,29833
29808,4787,29905
31508,4829,30047
34348,4796,29637
37692,4858,29869
41344,4804,29934
45324,4781,29892
49012,4858,29999
52136,4823,29784
54584,4781,29734
55616,4817,29868
54176,4782,29870
51400,4849,29857
49172,4813,29739
46780,4770,29708
44844,4845,29781
43372,4805,29790
41808,4780,29773
40024,4847,29628
37936,4825,29608
35840,4779,29621
34044,4848,29655
32652,4803,29780
31720,4772,29632
31093,4906,29740
30736,4806,29565
30456,4797,29487
30252,4815,29634
30056,4800,29285
29917,4830,29468
29812,4785,29524
29720,4805,29361
29613,4776,29444
29552,4811,29271
29524,4788,29326
29550,4812,29421
29532,4799,29513
29542,4863,29407
29561,4824,29382
29540,4862,29303
29516,4823,29361
29477,4938,29398
29480,4800,29380
29476,4777,29410
29520,4812,29316
29532,4789,29190
29540,4866,29153
29540,4817,29188
29559,4797,29142
29556,4831,29188
29592,4813,29184
29648,4784,29107
29660,4807,29031
29640,4781,28920
29668,4827,28976
29712,4796,29068
29728,4845,28618
29777,4800,28800
29860,4876,28621
29932,4813,28725
29968,4852,28780
29980,4824,28640
29912,4784,28700
29928,4810,28525
29924,4783,28584
29972,4837,28153
29996,4806,28209
30036,4879,28176
30028,4817,28108
30004,4796,27924
30005,4864,28260
29996,4839,28052
30072,4815,27927
30132,4780,27833
30160,4853,27699
30156,4814,28004
30152,4799,27872
30152,4875,27948
30156,4817,27788
30124,4800,27708
30144,4825,27613
30158,4788,27601
30168,4868,27591
30200,4797,27597
30216,4788,27685
30244,4815,27676
30272,4795,27655
30248,4879,27552
30221,4815,27567
30244,4804,27642
30300,4826,27812
30268,4786,27456
30234,4815,27600
30180,4783,27578
30172,4819,27684
30244,4792,27687
30296,4834,27737
30306,4802,27764
30292,4868,27673
30364,4809,27610
30345,4792,27797
30288,4816,27623
30236,4787,27780
30212,4817,27780
30212,4782,27868
30236,4830,27817
30244,4829,28001
30288,4808,27805
30352,4851,28214
30376,4819,28097
30384,4810,27888
30352,4784,28294
30360,4882,28194
30432,4827,28129
30436,4824,28199
30486,4794,28140
30506,4908,28449
30564,4852,28356
30604,4836,28357
30666,4800,28262
30676,4951,28177
30648,4834,28606
30660,4803,28505
30728,4786,28604
30840,4788,28423
30892,4885,28594
30908,4831,28664
30853,4839,28594
30820,4803,28412
30932,4799,28798
31092,4834,28727
31228,4810,28533
31288,4810,28902
31248,4794,28667
31360,4791,28640
31488,4856,29020
31624,4821,28892
31744,4797,28877
31880,4836,28924
31954,4801,28964
32008,4867,28996
32138,4809,28965
32264,4780,28996
32392,4839,28869
32526,4800,28978
32688,4876,29048
32846,4828,29156
32928,4798,29027
33020,4874,29166
33092,4825,29002
33116,4866,29101
33232,4809,29173
33308,4772,29240
33396,4854,29133
33448,4815,29207
33514,4786,29086
33504,4835,29373
33556,4811,29384
33592,4820,29304
33616,4787,29266
33624,4849,29168
33660,4818,29529
33673,4777,29474
33724,4853,29552
33740,4803,29489
33784,4873,29643
33760,4806,29536
33757,4792,29573
33760,4829,29566
33752,4788,29687
33732,4810,29392
33732,4781,29560
33732,4843,29354
33722,4801,29476
33820,4778,29349
33880,4836,29726
33876,4825,29632
33848,4890,29732
33764,4813,29671
33732,4781,29689
33800,4819,29703
33776,4784,29845
33768,4861,29453
33714,4794,29684
33637,4777,29460
33676,4822,29883
33668,4799,29787
33624,4877,29922
33608,4824,29559
33640,4855,29679
33669,4798,29728
33672,4777,29825
33640,4823,29552
33600,4777,29882
33552,4842,29630
33516,4814,29816
33556,4921,29912
33576,4815,29909
33608,4788,29996
33496,4819,29642
33332,4781,29857
33368,4817,30084
33400,4800,29960
33389,4770,29924
33376,4844,29917
33446,4801,29932
33456,4785,30006
33476,4829,30079
33504,4798,30204
33472,4845,29830
33500,4809,30039
33452,4843,30100
33430,4793,30175
33370,4822,30171
33341,4774,30184
33404,4800,30215
33364,4953,30194
33316,4818,30172
33300,4792,30229
33292,4817,30428
33316,4860,30045
33364,4778,30326
33430,4830,30417
33484,4806,30380
33344,4781,30351
33380,4818,30429
33456,4790,30468
33520,4810,30367
33596,4792,30434
33544,4822,30628
33564,4853,30404
33581,4796,30412
33625,4948,30538
33656,4788,30594
33660,4842,30486
33672,4800,30513
33693,4789,30617
33772,4827,30757
33734,4900,30361
33760,4806,30524
33764,4785,30665
33720,4795,30701
33676,4845,30607
33672,4790,30647
33724,4845,30749
33676,4798,30822
33688,4836,30705
33712,4797,30764
33712,4822,30644
33708,4790,30805
33632,4836,30785
33564,4773,30764
33500,4793,30692
33530,4958,30773
33509,4815,30888
33500,4922,30810
33566,4825,30788
33552,4859,30695
33550,4795,30749
33476,4853,30865
33468,4800,30803
33512,4847,30716
33476,4771,30689
33384,4805,30716
33336,4780,30821
33416,4800,30761
33504,4788,30849
33484,4832,30727
33476,4787,30584
33452,4807,30749
33264,4782,30717
33248,4804,30836
33224,4771,30592
33241,4805,30538
33268,4773,30638
33324,4820,30660
33360,4790,30596
33336,4839,30564
33328,4793,30604
33358,4850,30653
33340,4801,30596
33288,4773,30621
33148,4808,30543
33144,4771,30391
33168,4794,30512
33180,4839,30527
33217,4785,30468
33220,4810,30461
33181,4788,30484
33148,4827,30609
33148,4842,30406
33108,4780,30462
33096,4805,30416
33085,4767,30393
33036,4803,30429
33070,4786,30424
33124,4821,30280
33166,4866,30279
33189,4802,30333
33140,4842,30391
33080,4799,30500
32945,4840,30079
32929,4783,30322
32953,4824,30256
32952,4773,30332
32981,4798,30433
32996,4796,30037
33004,4821,30248
33016,4849,30433
33012,4788,30197
32968,4810,30272
32895,4776,30310
32913,4793,29965
32912,4776,30133
32872,4810,30160
32836,4872,30174
32892,4800,30228
32920,4852,30228
32956,4785,30333
32932,4846,30209
32962,4790,30321
32974,4837,30025
32956,4771,30191
32836,4818,29889
32700,4775,30040
32708,4813,30080
32802,4782,30148
32844,4821,30224
32792,4792,30153
32788,4803,30017
32764,4853,30165
32788,4797,30157
32784,4840,29996
32820,4793,30100
32784,4842,30152
32716,4778,30103
32792,4807,30101
32832,4788,30156
32820,4822,30004
32844,4861,30037
32848,4812,30092
32848,4821,30244
32814,4776,30136
32800,4794,30160
32796,4772,30025
32776,4793,30068
32696,4788,30087
32752,4804,30119
32789,4856,29957
32764,4794,30146
32772,4832,30078
32744,4775,29959
32817,4801,30180
32832,4867,29996
32809,4785,30080
32768,4838,29960
32708,4797,29989
32704,4830,30080
32712,4786,29967
32692,4821,30026
32660,4790,30073
32692,4813,30055
32676,4774,30196
32656,4791,30036
32700,4836,30037
32768,4773,30077
32784,4819,29990
32816,4788,30069
32800,4821,30073
32776,4781,30148
32700,4804,29941
32657,4774,30028
32692,4805,30119
32720,4768,30052
32780,4823,30045
32832,4815,30169
32864,4971,29768
32736,4819,29921
32716,4789,30152
32676,4802,29804
32640,4848,30050
32564,4776,30180
32576,4796,29845
32601,4939,30065
32616,4803,30046
32648,4831,30081
32689,4786,29812
32644,4807,30060
32460,4863,30008
32449,4794,30113
32568,4814,30017
32632,4773,30045
32560,4799,29925
32496,4767,30016
32452,4802,29780
32448,4773,29956
32452,4833,30049
32472,4818,30074
32420,4864,30124
32460,4794,30089
32578,4901,30064
32628,4812,29932
32596,4779,29964
32528,4814,29972
32552,4779,30006
32532,4846,30096
32592,4824,30215
32609,4794,30078
32580,4799,29940
32596,4859,30008
32661,4799,30048
32650,4778,30148
32676,4792,29817
32641,4773,30012
32636,4791,30143
32672,4781,30099
32676,4813,30077
32720,4786,30068
32704,4832,30117
32685,4796,30194
32700,4851,30028
32748,4797,30133
32728,4848,30252
32700,4803,29906
32704,4775,30060
32680,4807,30044
32684,4785,30116
32704,4825,30267
32712,4787,29883
32736,4819,30245
32702,4787,30160
32708,4838,30270
32712,4796,30161
32676,4778,30273
32684,4843,29904
32724,4797,30116
32824,4784,29988
32840,4810,30109
32832,4789,30154
32752,4820,30176
32604,4949,30303
32608,4808,30148
32652,4836,30117
32708,4792,29984
32704,4940,30044
32688,4798,29956
32668,4882,30121
32692,4816,30231
32668,4867,30180
32652,4785,30095
32604,4844,30080
32620,4789,30136
32496,4894,30117
32224,4786,30164
31964,4779,30279
31713,4808,29870
31324,4865,30027
30836,4803,30087
30208,4849,30121
29580,4809,30201
29248,4876,30157
29572,4789,30172
31244,4860,29836
33924,4792,30213
37132,4917,29886
40676,4801,30052
44620,4775,30032
48256,4841,30088
51400,4786,30201
53812,4843,29828
55008,4775,29977
53752,4838,30023
50984,4765,30087
48712,4801,30222
46328,4759,29796
44352,4799,29944
42804,4769,29974
41168,4822,29898
39364,4820,29887
37272,4783,29884
35176,4817,29984
33408,4863,30004
32130,4804,30048
31223,4923,29855
30632,4802,29836
30248,4775,29660
29972,4821,29833
29768,4791,29912
29600,4855,29852
29464,4808,29868
29296,4783,29596
29208,4798,29759
29142,4774,29942
29084,4807,29719
29056,4773,29774
29044,4826,29888
29060,4785,29573
29024,4813,29836
29037,4793,29957
29036,4804,29807
29024,4787,29860
29054,4785,29738
28967,4808,29958
28989,4775,29879
29057,4818,29777
29096,4778,29980
29120,4803,29749
29112,4861,29853
29096,4817,29797
29108,4850,29737
29124,4804,29824
29160,4828,29839
29204,4782,29620
29204,4823,29700
29260,4778,29868
29284,4806,29484
29296,4782,29599
29346,4846,29607
29396,4817,29645
29436,4917,29748
29476,4806,29572
29476,4934,29492
29404,4807,29642
29376,4771,29204
29396,4831,29304
29420,4809,29407
29445,4786,29391
29506,4847,29220
29568,4821,29316
29600,4888,29055
29628,4813,29181
29676,4792,29141
29716,4839,29205
29745,4787,29327
29756,4775,29160
29740,4806,29180
29744,4783,29048
29720,4836,29072
29780,4795,29140
29806,4866,29119
29796,4810,29216
29710,4778,29125
29664,4826,29055
29734,4793,29105
29828,4837,29129
29940,4814,29043
29896,4904,29164
29908,4833,29175
29946,4800,29255
29916,4835,29236
29925,4784,29218
29870,4827,29380
29796,4786,29343
29752,4838,29298
29716,4796,29410
29728,4906,29500
29796,4810,29548
29880,4797,29313
29948,4916,29549
29998,4807,29716
30017,4863,29736
30012,4808,29861
30016,4780,29672
30013,4802,29929
30060,4775,29847
29976,4811,29997
29916,4788,30184
29988,4838,29829
30020,4812,30122
30020,4919,30129
30023,4815,30129
30008,4799,30055
30040,4779,30372
30082,4820,30237
30122,4783,30495
30112,4836,30632
30016,4800,30629
30012,4851,30535
30036,4809,30618
30076,4846,30783
30136,4785,30961
30216,4815,30629
30200,4775,30828
30198,4817,30936
30264,4780,31060
30340,4840,31081
30380,4793,31215
30398,4889,31397
30392,4815,31335
30432,4798,31455
30476,4820,31458
30496,4795,31542
30558,4782,31532
30636,4793,31661
30776,4869,31663
30900,4802,31791
31005,4788,31472
31176,4808,31784
31305,4890,32017
31408,4824,31878
31496,4847,32026
31569,4777,32052
31696,4796,32064
31836,4776,32180
31928,4809,32242
32058,4778,32297
32100,4860,32333
32136,4828,32404
32202,4790,32565
32304,4813,32176
32408,4781,32397
32524,4831,32607
32640,4776,32324
32664,4825,32659
32708,4790,32697
32769,4777,32791
32884,4805,32969
32965,4794,32879
32992,4789,33068
32996,4821,32969
33028,4781,32871
33068,4804,33077
33132,4766,33121
33125,4805,33238
33068,4791,32961
33132,4775,33094
33140,4821,33205
33200,4798,33188
33188,4789,33293
33124,4801,33356
33008,4773,33383
33000,4807,33453
33028,4766,33641
33064,4872,33597
33057,4788,33751
33084,4771,33644
33048,4840,33842
32970,4789,33415
32908,4857,33783
32880,4816,33733
32940,4859,33850
33012,4791,33937
33028,4763,33977
33028,4783,34092
32985,4772,33981
32949,4802,34094
32932,4934,34252
32976,4803,34016
33084,4789,34189
33073,4804,34372
32996,4775,33983
32912,4835,34260
32836,4785,34463
32780,4765,34071
32692,4811,34410
32692,4772,34557
32716,4825,34528
32756,4780,34209
32808,4803,34588
32812,4853,34599
32748,4806,34762
32708,4844,34685
32746,4767,34656
32732,4810,34777
32748,4774,34740
32704,4832,34984
32676,4783,34815
32612,4823,34913
32592,4787,34958
32588,4834,34994
32600,4771,34653
32580,4833,34951
32576,4793,35039
32556,4878,35140
32608,4799,35121
32684,4769,35140
32721,4815,35197
32724,4785,35404
32748,4820,35256
32812,4777,35348
32805,4804,35254
32756,4772,35525
32684,4834,35140
32664,4780,35342
32698,4763,35555
32708,4797,35517
32616,4779,35535
32561,4799,35519
32524,4782,35582
32552,4835,35685
32616,4779,35637
32736,4854,35831
32768,4777,35702
32701,4830,35813
32696,4785,35687
32753,4842,35858
32760,4792,35873
32728,4922,35847
32673,4800,36022
32632,4847,35800
32716,4777,35977
32804,4835,35885
32872,4765,36108
32888,4813,35705
32822,4776,36009
32704,4834,36216
32676,4810,35949
32608,4821,36116
32588,4810,36016
32636,4845,36280
32599,4811,35813
32620,4847,36181
32653,4788,36319
32700,4764,36149
32720,4812,36229
32704,4771,36161
32684,4829,36240
32685,4811,36209
32617,4787,36268
32638,4806,36306
32648,4778,36375
32660,4785,36208
32652,4767,36292
32552,4799,36264
32540,4765,36359
32640,4829,35894
32713,4815,36204
32864,4781,36432
32876,4827,36220
32812,4812,36244
32756,4778,36383
32732,4810,36302
32752,4767,36231
32758,4839,36352
32748,4782,36300
32668,4955,36154
32568,4794,36272
32540,4784,36303
32553,4812,36264
32588,4806,36225
32641,4847,36271
32708,4790,36388
32845,4769,36213
32844,4779,36248
32781,4951,36359
32712,4805,36022
32712,4948,36220
32664,4818,36407
32616,4778,36261
32560,4844,36129
32492,4798,36295
32544,4766,36295
32548,4805,36285
32564,4765,36244
32566,4807,36308
32584,4768,36220
32672,4793,36392
32729,4846,36248
32732,4782,36308
32740,4805,36277
32660,4948,36433
32608,4807,35928
32572,4884,36176
32576,4793,36389
32569,4759,36268
32554,4814,36327
32522,4783,36320
32520,4850,36468
32564,4816,35949
32600,4783,36223
32604,4808,36317
32544,4785,36324
32548,4844,36391
32524,4786,36383
32532,4765,36470
32568,4831,36421
32656,4798,36552
32640,4778,36414
32596,4850,36447
32576,4818,36175
32428,4776,36316
32336,4791,36517
32408,4767,36062
32424,4777,36408
32484,4771,36437
32592,4855,36486
32677,4789,36589
32684,4779,36435
32664,4808,36396
32636,4786,36460
32613,4773,36588
32532,4828,36526
32505,4770,36661
32505,4833,36517
32532,4795,36464
32576,4940,36304
32592,4797,36457
32632,4783,36476
32620,4915,36527
32616,4798,36516
32588,4772,36564
32524,4823,36743
32520,4800,36225
32472,4758,36517
32456,4848,36557
32432,4783,36637
32420,4776,36732
32560,4849,36658
32655,4811,36709
32640,4775,36668
32600,4811,36533
32484,4805,36636
32472,4765,36561
32504,4780,36740
32530,4769,36295
32568,4798,36815
32592,4772,36463
32592,4803,36710
32556,4778,36869
32530,4811,36332
32485,4778,36740
32500,4812,36815
32492,4763,36735
32496,4821,36788
32552,4798,36928
32512,4772,36385
32588,4790,36744
32673,4776,36884
32752,4831,36844
32744,4783,36937
32644,4847,36520
32408,4793,36813
32364,4820,37012
32280,4764,36596
32204,4826,36756
32176,4769,36935
32256,4804,36532
32300,4781,36924
32444,4799,36806
32592,4782,37015
32604,4793,36871
32484,4888,36895
32429,4782,37060
32344,4759,36952
32340,4803,36831
32320,4769,37031
32420,4803,36976
32572,4781,36880
32612,4800,37156
32613,4842,36871
32608,4770,37039
32572,4807,36964
32565,4813,37125
32560,4763,37027
32496,4816,37058
32481,4799,37116
32533,4805,37111
32612,4780,37149
32628,4806,36820
32640,4780,37119
32576,4814,37061
32482,4837,36998
32476,4771,37240
32512,4818,37144
32544,4763,36820
32613,4810,37162
32705,4772,37025
32748,4842,37220
32736,4801,37188
32708,4774,37255
32740,4837,36998
32672,4785,37089
32628,4762,37239
32637,4797,37224
32696,4786,37341
32708,4770,37229
32852,4794,37108
32925,4778,37288
32924,4835,37239
32888,4796,37328
32768,4769,37289
32497,4808,37412
32464,4772,37105
32524,4805,37300
32588,4792,37432
32660,4842,37104
32784,4796,37316
32864,4832,37272
32904,4805,37111
32848,4858,37341
32772,4775,37285
32732,4845,37408
32720,4778,37364
32644,4755,37492
32716,4828,37332
32732,4782,37345
32684,4771,37316
32660,4823,37383
32437,4807,37517
32177,4861,37357
31972,4798,37443
31744,4780,37352
31448,4765,37509
31056,4804,37383
30512,4764,37270
29892,4827,37464
29428,4810,37373
29588,4779,37471
31273,4867,37028
34360,4803,37472
38032,4779,37230
41756,4770,37408
45652,4816,37396
49116,4786,37540
51732,4758,36998
53448,4862,37568
53440,4799,37413
51024,4799,37536
48512,4889,37196
46352,4805,37352
44422,4794,37023
43384,4759,37308
42444,4800,37383
41140,4772,37268
39376,4751,37349
37364,4808,37341
35380,4804,37309
33556,4772,37206
32161,4815,37305
31368,4786,37300
30920,4848,37353
30596,4787,37284
30276,4767,37328
30121,4902,37217
30036,4789,37245
29896,4765,37192
29845,4805,37035
29788,4808,37084
29704,4780,37014
29644,4809,37076
29666,4775,37060
29664,4862,36957
29604,4782,36954
29496,4762,37049
29360,4803,37065
29360,4770,37116
29264,4816,37101
29318,4789,37173
29365,4783,37032
29412,4823,36967
29520,4792,36994
29500,4768,37063
29517,4787,37024
29618,4765,36869
29664,4798,36909
29701,4766,36903
29764,4832,36961
29828,4801,36869
29836,4901,36924
29820,4813,36764
29840,4775,36813
29876,4856,36684
29864,4790,36664
29849,4830,36276
29832,4790,36362
29920,4773,36337
29942,4793,36372
30012,4780,36359
29988,4837,36285
30013,4813,36340
30049,4850,36117
30096,4804,36127
30202,4821,35941
30328,4763,36101
30353,4790,35566
30336,4769,35802
30356,4815,35807
30417,4780,35797
30436,4823,35894
30384,4780,35515
30272,4814,35580
30296,4771,35693
30412,4811,35664
30472,4778,35749
30492,4837,35324
30488,4790,35584
30542,4773,35529
30672,4809,35591
30844,4787,35709
30916,4846,35220
30908,4790,35487
30816,4771,35513
30536,4794,35584
30592,4785,35724
30656,4821,35549
30664,4765,35614
30626,4807,35497
30652,4900,35785
30688,4796,35607
30778,4782,35729
30768,4793,35753
30764,4786,35700
30776,4868,35815
30832,4785,35898
30820,4769,35725
30800,4825,35921
30828,4775,35928
30932,4818,35916
31080,4780,36015
31064,4813,35926
31056,4829,36197
31024,4774,36159
30984,4800,35772
30912,4818,36157
30972,4772,36325
31093,4828,36141
31194,4785,36255
31272,4814,36143
31364,4866,36393
31396,4799,36289
31380,4841,36381
31400,4791,36332
31392,4833,36405
31376,4778,36452
31396,4842,36397
31428,4790,36255
31528,4777,36457
31628,4831,36591
31690,4808,36524
31760,4785,36500
31752,4803,36526
31716,4770,36614
31660,4788,36580
31724,4858,36757
31900,4784,36504
32008,4848,36614
32016,4807,36758
32076,4841,36711
32076,4786,36295
32148,4849,36615
32332,4787,36855
32520,4797,36754
32549,4835,36348
32644,4762,36757
32696,4788,36700
32656,4771,36903
32608,4793,36724
32644,4863,36785
32708,4796,36649
32784,4846,36868
32960,4793,36437
33156,4835,36678
33308,4782,36921
33432,4831,36671
33448,4773,36804
33438,4812,36664
33548,4772,36911
33568,4796,36552
33532,4782,36735
33568,4816,36883
33652,4776,36602
33736,4799,36708
33788,4829,36681
33852,4770,36804
33788,4809,36292
33786,4764,36669
33800,4796,36566
33832,4772,36615
33900,4799,36581
33980,4779,36449
34004,4804,36640
34016,4827,36117
34052,4759,36420
34092,4800,36545
34104,4761,36057
34068,4826,36240
34000,4804,36276
34053,4926,36273
34084,4808,36292
34036,4772,36231
34044,4845,36289
34049,4795,36146
34028,4770,36089
34028,4884,36036
34012,4775,36174
33996,4849,35865
33988,4807,35925
33929,4844,36044
33928,4795,35836
34036,4853,35863
34032,4806,35767
33976,4765,35693
33996,4785,35729
34032,4764,35783
34040,4828,35233
34100,4799,35455
34096,4883,35660
34080,4798,35117
34056,4773,35289
34052,4804,35428
34013,4782,35326
33965,4868,35216
33940,4797,35254
33916,4852,35196
33953,4784,35108
34076,4817,35209
34124,4770,34919
34090,4838,34972
33992,4806,35029
34008,4946,34951
34048,4796,34897
34004,4763,34713
33920,4764,34439
33972,4764,34908
33988,4799,34725
34009,4788,34839
34052,4890,34322
34136,4793,34653
34096,4779,34590
34089,4778,34598
34000,4834,34389
34000,4815,34492
33960,4800,34436
33982,4794,34392
33992,4759,34439
34056,4793,34328
34068,4795,34209
34084,4771,34408
34136,4843,34284
34117,4803,34300
34072,4772,33967
34017,4812,34318
33948,4787,34166
33924,4756,34244
33908,4807,34121
33960,4796,34113
34056,4770,34042
34072,4827,33992
34076,4804,33839
34076,4804,33617
33956,4773,34013
33932,4831,33900
33929,4793,33984
33920,4776,33823
33880,4764,33744
33860,4759,33665
33900,4842,33384
33884,4806,33839
33888,4798,33693
33876,4771,33764
33790,4896,33632
33772,4804,33639
33794,4772,33548
33812,4761,33607
33896,4795,33478
34012,4766,33505
33992,4775,33415
33848,4802,33391
33868,4809,33287
33912,4769,33076
33900,4838,33384
33864,4795,33239
33845,4779,33216
33808,4758,33133
33730,4824,33109
33757,4798,32956
33780,4802,32913
33816,4771,32989
33836,4840,32677
33728,4794,33073
33592,4799,32903
33536,4768,32657
33524,4840,32870
33644,4779,32567
33648,4750,32719
33564,4822,32646
33480,4767,32695
33544,4820,32740
33568,4787,32647
33616,4877,32713
33628,4806,32566
33656,4819,32669
33612,4758,32228
33552,4762,32467
33564,4790,32440
33560,4759,32110
33554,4809,32526
33576,4771,32373
33504,4816,32357
33440,4786,32319
33408,4895,32390
33412,4804,32263
33464,4772,32273
33480,4758,32204
33449,4763,32184
33404,4814,32101
33272,4806,32135
33332,4769,32095
33420,4773,32000
33433,4849,31896
33452,4823,32020
33440,4789,32000
33508,4769,31928
33472,4763,31852
33400,4787,31852
33400,4763,31913
33456,4866,31863
33420,4804,31948
33380,4847,31589
33412,4801,31662
33417,4767,31684
33436,4764,31653
33469,4828,31598
33496,4781,31590
33448,4778,31406
33432,4763,31687
33460,4815,31374
33496,4791,31705
33548,4773,31281
33436,4788,31568
33340,4772,31652
33272,4804,31529
33340,4789,31636
33368,4755,31511
33382,4790,31519
33408,4782,31392
33440,4766,31166
33424,4910,31493
33405,4796,31105
33356,4771,31283
33344,4817,31325
33346,4781,31321
33364,4757,31362
33312,4806,31391
33288,4754,31375
33248,4815,31226
33280,4780,31278
33325,4777,31263
33356,4797,31247
33388,4780,31026
33389,4770,31312
33308,4821,31150
33142,4800,31198
33140,4757,31229
33217,4805,31288
33180,4783,31207
33148,4795,31154
33106,4775,31108
33092,4812,31168
33080,4787,31264
33040,4827,31258
33064,4775,31171
33012,4877,31183
32984,4788,31204
32945,4764,31234
32948,4814,31267
32872,4804,31389
32836,4770,31005
32848,4837,31284
32880,4791,30940
32948,4772,31190
33008,4815,30964
33008,4783,31373
33004,4756,31239
32996,4829,31361
32964,4786,31248
32952,4775,31356
32948,4769,31239
32992,4821,31368
32988,4799,31234
33004,4766,31333
33064,4818,30930
33128,4789,31317
33120,4755,30939
33116,4829,31239
33088,4804,31233
33053,4790,31220
33000,4784,31192
32968,4777,31141
32968,4869,31273
33028,4796,30956
33060,4780,31261
32998,4762,30929
32952,4796,31337
32936,4769,31252
32968,4765,31396
33040,4833,31255
33149,4799,31168
33216,4877,31189
33184,4794,31269
33181,4779,31252
33154,4764,31252
33124,4824,31228
33180,4784,31191
33220,4754,31316
33140,4818,31352
33148,4803,31476
33152,4771,31092
33148,4797,31213
33084,4771,31293
33088,4812,31388
33068,4783,31400
33020,4761,31412
33056,4772,31486
32932,4761,31440
32912,4787,31569
32964,4765,31470
33032,4804,31340
33016,4778,31460
32944,4775,31471
32927,4812,31448
32897,4787,31516
32785,4755,31535
32644,4759,31481
32460,4813,31222
32144,4788,31692
31708,4782,31542
31120,4774,31576
30397,4809,31409
29752,4796,31518
29512,4771,31428
30236,4808,31549
32400,4795,31554
35672,4760,31601
39436,4781,31716
43344,4767,31595
47444,4946,31716
51048,4821,31612
54084,4805,31719
56224,4765,31353
56788,4792,31539
54728,4747,31600
51888,4811,31618
49448,4785,31703
46776,4745,31607
44784,4821,31549
43228,4797,31433
41528,4770,31472
39516,4769,31392
37313,4794,31432
35280,4764,31408
33548,4803,31533
32304,4763,31476
31448,4828,31546
30888,4798,31441
30476,4794,31529
30168,4766,31380
29800,4814,31319
29560,4788,31026
29472,4837,31170
29405,4807,31198
29324,4769,31217
29260,4791,30977
29160,4759,31225
29140,4839,31177
29092,4795,31263
28992,4770,31271
28960,4812,31249
28992,4804,31360
29040,4774,31269
29028,4802,31384
29056,4789,31252
29068,4767,31280
29048,4787,30932
29017,4766,31319
29074,4764,31214
29100,4796,31294
29208,4779,31144
29264,4783,31220
29284,4833,31124
29280,4813,31108
29328,4791,30999
29348,4798,30960
29376,4761,30964
29368,4820,30856
29385,4783,30804
29404,4769,30607
29480,4858,30744
29548,4799,30692
29576,4775,30725
29556,4836,30663
29520,4782,30604
29520,4770,30538
29584,4757,30442
29580,4799,30488
29552,4765,30495
29564,4848,30404
29682,4808,30436
29788,4778,30485
29864,4817,30345
29936,4788,30413
29868,4764,30284
29820,4763,30202
29829,4777,30215
29908,4763,30127
29920,4767,30095
29992,4796,30041
30092,4772,30093
30124,4804,30061
30088,4775,30044
30060,4797,30052
29966,4770,29937
29960,4811,30036
29964,4777,30053
29982,4825,30157
30020,4799,29858
30008,4766,29959
30056,4791,30182
30108,4777,29862
30104,4805,30056
30112,4774,30164
30088,4838,30113
30060,4803,30141
30056,4799,29959
30052,4761,30100
30064,4789,30300
30080,4769,30274
30140,4829,30306
30188,4814,30245
30125,4781,30327
30112,4817,30372
30156,4771,30436
30204,4818,30434
30220,4770,30433
30192,4862,30397
30188,4785,30487
30188,4771,30625
30248,4799,30784
30344,4776,30463
30385,4816,30583
30337,4777,30652
30316,4801,30788
30240,4769,30932
30301,4816,30561
30358,4799,30861
30420,4845,30868
30469,4791,30951
30548,4842,30876
30574,4790,31058
30590,4839,31017
30636,4808,30967
30663,4773,30845
30692,4797,31040
30688,4767,31239
30612,4781,31085
30664,4767,31184
30800,4794,31289
30840,4775,31231
30924,4818,31396
31018,4794,31300
31066,4781,31453
31164,4809,31308
31236,4766,31248
31220,4836,31333
31368,4774,31444
31528,4766,31436
31640,4854,31382
31804,4803,31428
31920,4804,31389
32064,4775,31255
32192,4803,31511
32352,4767,31735
32496,4820,31650
32600,4763,31665
32688,4789,31701
32708,4761,31708
32788,4788,31584
32924,4772,31570
33024,4839,31623
33108,4775,31724
33181,4799,31740
33272,4762,31804
33308,4791,31989
33430,4753,31563
33548,4809,31750
33640,4763,31965
33704,4815,31604
33732,4771,31794
33768,4795,31968
33828,4768,31965
33808,4806,31901
33780,4764,31948
33774,4808,32018
33792,4757,32045
33820,4784,32007
33837,4758,32048
33876,4813,32175
33856,4764,32039
33884,4837,32026
33893,4809,31903
33864,4767,32020
33856,4810,32026
33852,4781,32097
33860,4815,32220
33824,4774,32134
33816,4760,32030
33840,4796,32161
33832,4844,32151
33856,4780,32132
33676,4815,32321
33618,4778,31894
33684,4800,32175
33716,4751,32253
33720,4799,32248
33700,4750,32148
33708,4837,32196
33708,4783,32233
33680,4767,32396
33616,4793,32212
33612,4772,32318
33604,4805,32209
33584,4828,32332
33572,4756,32192
33552,4779,32378
33552,4755,32519
33508,4780,32298
33476,4761,32351
33472,4816,32433
33484,4792,32453
33556,4818,32386
33652,4765,32608
33668,4799,32306
33620,4750,32506
33592,4770,32483
33548,4753,32564
33488,4781,32594
33480,4766,32485
33524,4788,32684
33512,4837,32519
33536,4768,32668
33513,4812,32679
33508,4791,32457
33516,4756,32717
33560,4789,32436
33576,4753,32711
33560,4782,32924
33540,4760,32871
33616,4792,32814
33664,4845,32988
33652,4774,33104
33572,4782,32954
33549,4785,33052
33556,4778,32962
33536,4756,33095
33588,4778,32965
33668,4813,33273
33704,4797,32862
33608,4909,33156
33568,4791,33337
33468,4771,32967
33486,4782,33218
33504,4825,33466
33508,4759,33396
33524,4809,33188
33460,4761,33381
33480,4815,33606
33532,4794,33159
33540,4767,33373
33557,4796,33534
33568,4774,33529
33544,4835,33585
33512,4799,33615
33516,4832,33726
33476,4754,33627
33460,4769,33334
33468,4760,33650
33500,4781,33841
33460,4803,33671
33488,4767,33399
33464,4786,33748
33384,4767,33782
33396,4837,33789
33376,4780,33917
33336,4749,33465
33344,4778,33655
33337,4756,33884
33377,4800,33692
33372,4837,33841
33444,4773,33926
33452,4794,33766
33392,4923,33856
33320,4786,33776
33302,4794,33901
33205,4757,33519
33164,4778,33792
33232,4790,33936
33309,4758,33796
33276,4779,33860
33260,4824,33943
33256,4767,33780
33248,4797,33844
33204,4766,33844
33212,4786,33874
33192,4815,33811
33180,4748,33807
33164,4777,33976
33133,4763,33695
33160,4785,33828
33166,4873,33956
33184,4788,33758
33245,4833,33826
33077,4791,33912
32980,4828,33668
33036,4774,33784
33052,4813,33927
33116,4758,33479
33200,4799,33757
33228,4765,33913
33232,4790,33697
33068,4766,33732
32952,4786,33884
32972,4811,33840
32992,4758,33684
32949,4753,33722
32944,4806,33637
32944,4770,33703
32956,4800,33721
33008,4767,33572
33036,4790,33826
33068,4874,33631
33104,4782,33700
33116,4813,33600
33080,4765,33734
33053,4787,33372
33029,4753,33656
33021,4791,33657
32944,4827,33580
32917,4773,33628
32953,4802,33477
32952,4771,33732
32996,4764,33566
32965,4788,33609
32976,4755,33574
33004,4772,33556
32968,4841,33542
32928,4770,33413
32904,4788,33676
32869,4770,33469
32984,4783,33481
33048,4945,33517
32988,4782,33516
33004,4843,33631
33037,4756,33421
33044,4771,33500
33008,4831,33364
32956,4762,33533
32956,4792,33463
33060,4760,33420
33120,4810,33380
33144,4771,33460
32992,4786,33557
32844,4761,33124
32884,4777,33295
32924,4750,33348
32908,4775,33441
32973,4834,33369
32984,4799,33559
32996,4816,33205
32976,4767,33414
32896,4811,33524
32856,4764,33396
32910,4823,33347
32932,4756,33464
32928,4815,33372
32897,4765,33220
32880,4845,33320
32921,4783,33375
32886,4822,33232
32836,4788,33297
32800,4769,33349
32748,4789,33183
32756,4759,33349
32836,4781,33303
32896,4750,33311
32892,4828,33220
32886,4772,33297
32896,4758,33389
32904,4783,33202
32896,4773,33264
32856,4794,33394
32848,4759,32910
32828,4810,33084
32764,4760,33303
32776,4803,33110
32808,4765,33233
32764,4924,33298
32708,4793,33080
32689,4764,33172
32696,4811,33316
32744,4767,33039
32816,4801,33117
32828,4764,33202
32821,4805,33140
32828,4761,33065
32896,4819,33063
32884,4794,33132
32924,4765,33231
32948,4800,33077
32985,4855,33100
33044,4790,33025
33068,4772,33149
33060,4803,32831
33084,4760,33052
33061,4783,33052
33044,4754,33060
33060,4827,33166
33104,4789,32935
33141,4846,33036
33144,4785,32892
33136,4854,32955
33173,4780,33025
33160,4786,32880
33176,4763,33060
33172,4749,32924
33070,4778,32999
32900,4754,32841
32840,4781,33036
32884,4766,32644
32990,4783,32864
33004,4773,33020
33052,4783,32614
33100,4757,32820
33092,4772,32983
33072,4883,32604
33069,4774,32929
33072,4812,32772
33104,4766,32966
33124,4813,32586
33136,4761,32896
33120,4796,33012
33136,4767,32875
33072,4783,32900
33096,4750,32897
33140,4773,32856
33072,4752,32846
33056,4786,32717
33052,4751,32868
33056,4821,32857
33048,4773,32900
33012,4842,32740
32992,4793,32676
33013,4761,32741
32892,4812,32774
32620,4785,32740
32360,4913,32784
31968,4772,32877
31536,4758,32739
30924,4824,32596
30210,4807,32687
29581,4774,32703
29472,4837,32679
30542,4779,32685
33016,4755,32788
36356,4852,32671
39952,4767,32805
43916,4750,32326
47948,4800,32647
51460,4764,32413
54308,4869,32574
56248,4789,32285
56128,4754,32605
53540,4832,32261
50864,4772,32694
48436,4742,32551
45992,4819,32607
44268,4762,32516
42633,4750,32585
40852,4795,32434
38728,4770,32473
36500,4835,32076
34564,4772,32225
32953,4824,32263
31796,4786,32193
31016,4843,32254
30520,4769,32270
30192,4757,32300
29896,4776,32196
29604,4767,32154
29452,4797,32132
29360,4767,32244
29276,4818,32063
29224,4777,32207
29180,4765,32069
29116,4859,32175
29008,4772,32000
28932,4761,31870
28896,4786,31933
28924,4763,32021
28916,4831,32072
28920,4785,32023
28888,4864,32119
28914,4795,32007
28992,4760,32135
29012,4816,31972
29004,4770,32101
29012,4774,31927
29060,4842,31775
29069,4791,31823
29069,4780,31844
29056,4825,31940
29072,4796,31823
29140,4762,31901
29180,4806,31447
29144,4773,31588
29216,4830,31595
29316,4759,31632
29376,4928,31653
29392,4794,31536
29460,4781,31525
29432,4774,31416
29478,4794,31428
29481,4765,31343
29469,4820,31389
29517,4785,31217
29533,4887,31014
29524,4769,31184
29572,4766,30756
29646,4780,30853
29596,4773,30881
29528,4800,30891
29545,4770,30948
29512,4815,30645
29532,4761,30733
29636,4802,30529
29742,4772,30566
29848,4899,30517
29952,4790,30516
29920,4777,30452
29728,4879,30468
29825,4791,30499
29890,4789,30468
29852,4766,30454
29954,4810,30445
29916,4770,30552
29884,4855,30112
29892,4774,30308
29860,4762,30363
29892,4812,30425
29964,4783,30553
29968,4862,30151
29976,4789,30332
29992,4767,30431
30012,4800,30487
30092,4766,30645
30121,4812,30453
30056,4788,30529
30024,4770,30658
30052,4774,30648
30100,4807,30745
30088,4794,30478
30084,4773,30640
30108,4797,30794
30144,4794,30831
30172,4758,30864
30112,4810,30925
30064,4793,30873
30109,4925,31092
30202,4791,30785
30240,4774,31084
30264,4780,31118
30352,4798,31188
30316,4774,31356
30284,4764,31250
30312,4804,31292
30352,4780,31044
30324,4783,31368
30320,4764,31161
30404,4838,31415
30436,4797,31319
30540,4780,31409
30572,4927,31500
30672,4814,31553
30632,4782,31596
30648,4759,31717
30696,4762,31720
30824,4802,31778
30904,4786,31855
30956,4772,31867
31006,4832,31983
31084,4805,31933
31144,4772,32060
31208,4829,32007
31359,4787,32184
31474,4772,31804
31624,4756,32000
31764,4762,32111
31748,4799,32205
31880,4785,32268
32004,4853,32192
32104,4805,32263
32288,4786,32280
32332,4800,32295
32440,4778,32165
32564,4761,32580
32648,4755,32492
32773,4820,32640
32880,4787,32556
33040,4796,32625
33204,4771,32600
33284,4770,32769
33428,4836,32677
33504,4783,32840
33556,4754,32700
33620,4816,32821
33512,4791,32605
33540,4754,32661
33661,4837,32757
33712,4785,32870
33781,4763,32943
33792,4944,32905
33712,4839,33065
33728,4802,32976
33728,4776,32956
33757,4765,33014
33728,4747,33094
33692,4883,33060
33706,4791,33213
33804,4804,33108
33856,4789,33088
33824,4771,33117
33812,4875,33112
33833,4804,33084
33812,4785,32980
33760,4759,33060
33756,4883,33149
33752,4775,33224
33765,4758,33345
33780,4874,33268
33800,4801,33414
33748,4772,33068
33804,4766,33369
33752,4827,33303
33744,4787,33463
33724,4753,33401
33700,4746,33525
33694,4776,33244
33676,4752,33423
33660,4844,33461
33684,4803,33452
33656,4779,33569
33640,4913,33500
33621,4793,33639
33620,4785,33505
33608,4754,33389
33580,4782,33512
33568,4758,33564
33560,4759,33566
33560,4796,33605
33600,4771,33732
33608,4835,33409
33648,4788,33529
33676,4760,33612
33742,4756,33556
33708,4789,33634
33572,4763,33671
33566,4753,33683
33594,4782,33744
33622,4762,33884
33592,4787,33696
33612,4765,33687
33708,4834,33684
33720,4794,33725
33700,4909,33792
33664,4773,33884
33634,4754,34017
33640,4781,33913
33688,4771,34028
33732,4931,33941
33728,4796,34021
33621,4768,33924
33604,4826,33980
33568,4793,34101
33596,4753,34032
33588,4851,33968
33564,4783,33897
33472,4758,34047
33564,4760,34167
33628,4799,34108
33648,4767,34032
33652,4835,34052
33628,4791,34161
33632,4765,34301
33588,4788,33840
33590,4747,34042
33568,4814,34108
33553,4786,34070
33548,4756,34140
33534,4803,34193
33596,4772,34284
33680,4813,34200
33684,4771,34157
33704,4841,34218
33656,4787,34208
33648,4814,34115
33608,4789,34159
33569,4752,34076
33560,4818,34156
33540,4795,34167
33520,4761,34159
33532,4860,34056
33508,4792,34023
33496,4775,34114
33552,4874,33991
33504,4772,34213
33513,4748,34080
33485,4774,34148
33497,4812,34108
33540,4791,34056
33541,4771,34092
33544,4805,34112
33472,4776,34069
33504,4938,34124
33508,4778,34075
33500,4750,34054
33480,4818,34016
33420,4767,34072
33404,4781,33968
33392,4761,34001
33424,4790,33956
33431,4766,34021
33457,4821,33905
33398,4775,33889
33385,4755,33841
33399,4813,33793
33416,4784,33805
33484,4752,33740
33493,4786,33713
33396,4801,33660
33325,4772,33840
33316,4771,33664
33332,4798,33784
33420,4789,33659
33408,4754,33671
33452,4775,33261
33412,4747,33437
33312,4815,33472
33254,4791,33404
33268,4766,33485
33276,4804,33505
33240,4768,33513
33221,4831,33125
33220,4775,33441
33224,4755,33061
33236,4773,33255
33236,4748,33287
33204,4814,33287
33180,4791,33262
33233,4760,33303
33293,4795,33420
33278,4768,33085
33240,4803,33141
33228,4778,33214
33220,4804,33210
33180,4749,33104
33133,4796,33234
33172,4759,33200
33212,4821,33282
33254,4797,33164
33260,4766,33221
33248,4828,33119
33252,4804,33140
33192,4765,32815
33128,4778,33041
33064,4749,33166
33100,4884,33056
33124,4784,33141
33100,4788,32708
33080,4757,33038
33080,4841,32660
33052,4806,33095
33056,4801,32947
33024,4761,33076
33014,4825,32606
32945,4778,32889
32890,4761,32673
32864,4749,32990
32941,4830,32876
33036,4794,32934
33080,4806,32807
33072,4768,32877
33015,4820,32798
32929,4772,32788
32928,4750,32789
32932,4784,32908
32892,4777,32804
32928,4751,32791
32920,4812,32743
32918,4797,32775
32976,4764,32724
33013,4806,32728
33028,4791,32708
32925,4835,32786
32892,4771,32711
32904,4749,32684
32932,4764,32597
32920,4748,32642
32732,4774,32799
32756,4759,32663
32868,4828,32735
32892,4797,32632
32945,4762,32711
32978,4847,32620
32928,4782,32606
32889,4754,32566
32764,4837,32559
32748,4766,32528
32784,4754,32481
32852,4822,32437
32825,4784,32229
32844,4770,32684
32840,4758,32468
32880,4760,32505
32876,4811,32621
32848,4777,32519
32840,4781,32542
32804,4825,32477
32788,4772,32571
32752,4767,32391
32668,4791,32433
32608,4804,32379
32648,4768,32335
32668,4824,32116
32644,4782,32565
32532,4751,32408
32485,4772,32463
32504,4749,32115
32552,4774,32356
32692,4761,32506
32736,4820,32252
32728,4776,32237
32716,4817,32405
32696,4772,32372
32676,4932,32348
32684,4775,32336
32692,4755,32285
32688,4818,32205
32632,4793,32235
32656,4763,32236
32742,4803,32204
32837,4774,32140
32876,4849,32207
32908,4786,32280
32900,4822,32369
32892,4788,31986
32834,4812,32213
32789,4759,32356
32842,4815,31908
32884,4788,32070
32974,4771,32236
33000,4791,32176
32856,4761,32056
32852,4818,32101
32856,4793,32092
32832,4820,32169
32840,4769,32072
32884,4751,32145
32924,4779,32222
32933,4764,31813
32974,4783,31973
32925,4765,31816
32884,4828,32207
32876,4793,31776
32924,4757,32197
32928,4783,32092
32952,4767,32135
32960,4815,31774
32956,4767,32050
32948,4830,32110
32968,4782,32060
32960,4766,32192
32904,4802,32031
32879,4766,32147
32908,4837,32039
32928,4774,32024
32908,4749,31972
32920,4751,31851
33016,4774,31869
33068,4767,31980
33028,4840,32000
32940,4800,31892
32712,4885,31974
32549,4773,32092
32341,4755,31938
32036,4797,31971
31626,4745,31845
31160,4775,31902
30552,4899,31904
29881,4780,31856
29480,4820,31812
29664,4775,31853
31152,4806,31940
33788,4760,31865
37040,4817,31940
40560,4773,31805
44388,4744,31765
47888,4771,31829
50744,4743,31908
52964,4783,31716
53952,4915,31760
52588,4804,31776
50148,4845,31720
48132,4784,31844
46036,4742,31569
44444,4809,31544
43128,4734,31660
41520,4785,31661
39720,4744,31648
37661,4777,31552
35593,4854,31592
33768,4770,31464
32429,4808,31441
31544,4759,31481
30912,4783,31444
30552,4774,31367
30288,4811,31407
30113,4850,31221
30036,4752,31359
29948,4790,31276
29880,4790,31142
29824,4837,31396
29752,4772,31054
29716,4817,31204
29630,4758,31348
29560,4774,31133
29525,4755,30916
29493,4786,31173
29485,4815,31247
29424,4762,31196
29432,4813,31198
29384,4774,31230
29364,4802,31133
29400,4776,31172
29528,4810,31072
29564,4749,31261
29568,4768,31168
29640,4802,30863
29724,4757,31076
29681,4790,30900
29668,4773,31097
29604,4807,30975
29672,4767,30823
29704,4792,30919
29705,4759,30883
29712,4778,30749
29752,4754,30928
29768,4775,30551
29800,4757,30581
29854,4800,30623
29880,4767,30644
29950,4814,30541
29914,4767,30568
29810,4803,30495
29810,4792,30546
29852,4757,30380
29956,4765,30177
30012,4785,30415
30108,4757,30146
29960,4800,30184
29912,4773,29975
29980,4786,30036
30024,4895,30039
30044,4799,29896
30080,4850,29866
30048,4755,29925
30049,4805,29774
30121,4769,29836
30164,4798,29831
30172,4763,29772
30140,4795,29924
30156,4825,29684
30154,4767,29772
30117,4792,29857
30116,4759,29470
30160,4772,29716
30193,4908,29844
30196,4791,29648
30200,4814,29743
30296,4766,29693
30288,4791,29894
30204,4860,29669
30208,4774,29769
30217,4810,29935
30232,4761,29719
30272,4779,29847
30268,4823,29828
30268,4761,29988
30248,4809,29789
30248,4765,29940
30316,4787,30105
30360,4772,29728
30385,4788,30020
30460,4890,29909
30492,4790,30101
30536,4833,29822
30404,4786,30060
30344,4818,30206
30412,4761,29940
30428,4786,30244
30464,4882,30101
30565,4774,30414
30584,4809,30279
30636,4827,30092
30648,4765,30383
30656,4769,30301
30661,4797,30376
30688,4760,30476
30800,4789,30567
30908,4770,30436
30956,4809,30535
30924,4831,30513
30956,4770,30743
30888,4773,30668
30888,4804,30652
31040,4754,30654
30952,4775,30823
30974,4821,30841
31012,4772,30672
31189,4813,30790
31296,4943,30831
31369,4781,30774
31372,4800,30932
31432,4856,30921
31526,4763,30824
31636,4794,30646
31732,4802,30977
31893,4857,30939
31868,4772,31021
31956,4804,31084
31960,4774,30961
32080,4774,31037
32284,4805,31104
32388,4820,30996
32468,4761,31160
32572,4771,31088
32564,4817,30879
32668,4753,31164
32860,4792,31302
32944,4771,31135
33052,4786,31244
33117,4821,31228
33116,4771,31278
33236,4779,31300
33400,4832,31153
33348,4749,31446
33373,4768,31261
33430,4783,31353
33428,4844,31212
33600,4779,31289
33592,4864,31397
33390,4766,31325
33436,4788,31548
33608,4765,31263
33649,4790,31274
33652,4840,31396
33584,4767,31461
33480,4751,31592
33567,4778,31461
33600,4839,31333
33576,4797,31417
33610,4828,31495
33632,4759,31589
33592,4803,31525
33564,4759,31623
33596,4786,31525
33596,4743,31552
33545,4786,31460
33572,4806,31561
33600,4759,31555
33681,4788,31572
33648,4770,31573
33580,4796,31485
33612,4790,31692
33600,4755,31582
33556,4772,31503
33524,4788,31709
33572,4825,31532
33552,4756,31607
33508,4796,31745
33516,4766,31460
33528,4791,31526
33584,4816,31585
33620,4759,31661
33552,4779,31741
33384,4781,31599
33589,4751,31703
33528,4770,31784
33416,4778,31716
33488,4807,31521
33496,4764,31761
33573,4769,31709
33548,4780,31901
33572,4789,31685
33424,4826,31788
33396,4750,31944
33428,4778,31623
33452,4747,31780
33408,4771,31966
33437,4833,31746
33528,4762,31878
33513,4777,31845
33432,4794,31748
33496,4797,31988
33524,4753,31711
33468,4785,31841
33500,4793,32056
33440,4815,31860
33580,4750,31967
33664,4789,32073
33628,4760,31988
33584,4789,32020
33636,4763,31812
33684,4798,32039
33612,4751,31718
33584,4804,31887
33460,4752,32049
33496,4755,31749
33448,4769,32037
33512,4824,32157
33640,4757,31991
33800,4785,32076
33756,4815,32044
33688,4755,31992
33548,4775,32063
33456,4749,32160
33501,4779,31772
33496,4826,31935
33522,4758,32073
33568,4782,32071
33568,4833,31928
33552,4768,32042
33660,4788,32095
33624,4841,32100
33620,4773,31868
33517,4782,32021
33538,4746,32133
33613,4780,31751
33596,4788,32032
33612,4760,32200
33600,4779,31991
33629,4815,32077
33625,4762,31935
33608,4788,32162
33576,4807,32058
33512,4748,31941
33472,4763,31985
33364,4812,32073
33352,4750,32063
33421,4778,31994
33645,4769,32056
33800,4789,32215
33782,4804,31940
33557,4836,32087
33340,4756,31943
33356,4778,32013
33396,4752,32084
33412,4761,32110
33404,4793,32010
33436,4754,32104
33432,4800,32173
33404,4816,32058
33344,4767,32120
33468,4791,31975
33373,4754,32092
33380,4760,32127
33438,4819,32289
33404,4742,32124
33352,4772,32190
33329,4881,32302
33384,4799,32052
33408,4834,32171
33341,4799,32161
33278,4837,32236
33256,4749,32284
33252,4773,32146
33276,4747,32176
33319,4776,32244
33420,4752,32359
33408,4774,32485
33257,4827,32364
33128,4761,32332
33100,4781,32475
33044,4932,32449
33049,4789,32485
33096,4816,32425
33100,4744,32542
33092,4782,32415
33108,4808,32559
33076,4756,32594
33100,4800,32481
33076,4790,32790
33060,4866,32602
33036,4775,32697
32968,4804,32769
32948,4750,32772
32972,4789,32809
32964,4867,32892
33044,4764,32519
33092,4791,32863
32944,4936,32957
32836,4772,32985
32804,4785,32737
32868,4839,32940
32896,4755,33180
32944,4775,32966
32948,4745,33088
32940,4772,33184
32924,4832,33148
32940,4756,33044
32900,4791,33356
32936,4790,33231
32945,4830,32991
32988,4760,33317
32952,4781,33236
32916,4775,33445
32944,4917,33245
32896,4750,33415
32893,4770,33536
32864,4816,33428
32864,4759,33512
32880,4804,33448
32838,4834,33580
32844,4759,33625
32820,4782,33580
32800,4752,33614
32873,4785,33709
32792,4831,33828
32868,4748,33732
32920,4794,33798
32892,4761,33773
32956,4796,33857
32953,4807,33795
32961,4762,33889
33000,4780,33881
32848,4802,33826
32856,4743,34072
32864,4782,33917
32856,4808,33991
32744,4757,33981
32716,4779,34148
32772,4824,34143
32829,4760,34015
32816,4780,34084
32773,4799,34092
32716,4750,34183
32648,4783,34135
32728,4811,33847
32872,4751,34212
32916,4772,34108
32920,4784,34368
32976,4833,34171
33004,4759,34257
33038,4780,34166
32972,4832,34327
32892,4748,34221
32864,4778,34334
32848,4777,34265
32840,4759,34277
32757,4787,34366
32728,4760,34404
32752,4785,34276
32789,4836,34396
32896,4763,34431
32800,4779,34463
32668,4879,34076
32640,4755,34409
32632,4794,34589
32661,4750,34151
32764,4796,34448
32776,4763,34625
32800,4783,34527
32873,4830,34386
32860,4753,34515
32793,4774,34529
32865,4842,34703
32725,4764,34229
32772,4782,34477
32748,4759,34567
32892,4780,34562
32968,4865,34686
33040,4769,34351
33068,4785,34632
32916,4763,34822
32921,4785,34626
32916,4822,34660
32954,4741,34816
33000,4785,34463
32920,4853,34628
32916,4758,34757
32896,4792,34765
32972,4768,34696
33008,4782,34752
32972,4861,34817
32908,4778,34960
32804,4793,34689
32825,4745,34852
32880,4768,34772
32944,4793,34921
32900,4753,34859
32902,4785,34756
32904,4905,34940
32892,4776,34900
32973,4808,34848
32992,4749,34892
33052,4779,34892
32996,4861,35108
32935,4767,34681
32952,4788,34985
32876,4757,35124
32908,4775,34942
33048,4823,35044
32912,4763,35033
33012,4804,35065
32928,4752,35076
32880,4787,35196
32898,4742,35021
32952,4763,35112
32976,4806,35049
32920,4753,35252
32904,4816,34823
32888,4767,35104
32921,4785,35262
32872,4918,35132
32660,4769,35194
32408,4749,35321
32096,4771,34853
31629,4791,35236
31100,4753,35334
30452,4779,35148
29804,4808,35268
29344,4775,35202
29525,4790,35216
30958,4764,35298
33456,4776,35340
36560,4752,35192
39872,4780,35272
43440,4739,35416
46900,4768,35244
49877,4751,35329
52324,4796,35356
53660,4808,35457
52532,4757,35184
50096,4791,35220
48116,4738,35295
45912,4771,35356
44096,4739,35195
42644,4757,35340
41120,4899,35335
39360,4748,35189
37340,4783,35357
35369,4760,35298
33685,4783,35154
32420,4936,35384
31508,4775,35271
30904,4747,35376
30550,4794,35208
30304,4746,35114
30104,4788,35208
30032,4789,35116
29990,4828,35052
29980,4800,35071
29916,4770,35061
29766,4779,35253
29612,4756,34836
29408,4773,35045
29324,4754,35220
29348,4778,35042
29348,4823,35112
29396,4777,34957
29406,4833,35060
29364,4778,35110
29376,4829,35062
29344,4783,35100
29345,4822,35103
29360,4776,35046
29450,4819,35053
29433,4777,35036
29510,4755,34992
29556,4781,34916
29592,4767,34976
29580,4794,35026
29592,4804,34964
29608,4756,34900
29592,4801,34852
29532,4768,34823
29604,4749,34872
29669,4772,34679
29736,4877,34741
29757,4795,34804
29732,4771,34695
29797,4791,34740
29832,4825,34516
29824,4773,34528
29860,4799,34646
29830,4750,34223
29788,4771,34447
29854,4773,34292
29998,4755,34376
30224,4795,34283
30380,4872,34253
30520,4780,34279
30528,4791,33991
30580,4878,34140
30575,4778,34244
30516,4792,33861
30472,4748,33996
30460,4783,34096
30444,4753,33844
30433,4775,33981
30428,4829,33833
30364,4772,34042
30308,4791,33848
30304,4765,33916
30320,4781,33935
30312,4753,33820
30296,4787,33885
30220,4814,33753
30268,4759,33993
30256,4791,33848
30248,4764,33852
30228,4789,33815
30184,4823,33988
30184,4766,33829
30205,4785,33916
30216,4754,33855
30204,4773,34016
30156,4785,33876
30172,4754,33919
30204,4797,33953
30229,4826,33853
30232,4765,34084
30248,4797,33700
30228,4766,33997
30228,4796,33912
30188,4814,34161
30180,4749,33895
30120,4772,34119
30184,4840,33989
30232,4795,34085
30173,4841,34172
30208,4781,34277
30216,4807,34088
30180,4768,34230
30212,4779,34108
30240,4850,34357
30302,4778,34188
30216,4806,33927
30276,4752,34277
30300,4799,34181
30325,4795,34185
30396,4774,34330
30452,4789,34004
30448,4819,34285
30428,4762,34434
30412,4786,34246
30456,4875,34362
30487,4767,34304
30532,4804,34326
30584,4761,34360
30652,4790,34273
30705,4774,34364
30724,4803,34374
30770,4775,34505
30864,4808,34127
30922,4750,34348
30968,4775,34376
31044,4756,34265
31088,4773,34372
31184,4851,34367
31320,4794,34287
31462,4869,34361
31614,4785,34324
31696,4836,34368
31788,4764,34239
31894,4802,34316
31980,4753,34455
32057,4815,34088
32180,4773,34169
32268,4854,34228
32372,4785,34248
32448,4934,34350
32528,4788,33888
32620,4768,34204
32704,4787,34311
32724,4807,34135
32780,4775,34145
32792,4833,34294
32868,4771,34055
32952,4828,34076
32965,4780,34185
32944,4766,34054
32960,4781,33896
32976,4850,34063
33012,4763,33786
33084,4786,33967
33084,4741,34101
33060,4767,33782
33140,4862,33919
33124,4787,33861
33181,4763,33689
33180,4784,33821
33128,4761,33926
33109,4784,33680
33086,4836,33752
33088,4748,33748
33082,4803,33824
33069,4762,33444
33068,4751,33633
33072,4776,33770
33116,4764,33385
33140,4782,33609
33128,4765,33500
33100,4775,33601
33088,4844,33196
33124,4785,33452
33172,4808,33484
33148,4748,33348
32997,4790,33399
32980,4838,33342
33036,4773,33471
33092,4816,33108
33092,4772,33149
33080,4833,33276
33076,4772,32911
33084,4898,33079
33057,4769,33301
33024,4808,33082
32960,4754,33121
32936,4812,33082
32917,4784,32997
32920,4857,33052
32908,4771,32884
32928,4832,32933
32768,4765,32981
32698,4792,32800
32780,4742,32935
32840,4772,32902
32872,4743,32789
32880,4808,32531
32916,4771,32737
32932,4835,32745
32972,4759,32807
32944,4796,32716
32997,4805,32846
33120,4749,32596
33229,4771,32741
33308,4776,32564
33316,4747,32688
33320,4788,32687
33272,4846,32668
33226,4770,32564
33212,4807,32608
33124,4758,32759
33096,4786,32398
33036,4740,32523
33008,4769,32679
32904,4748,32256
32800,4761,32502
32755,4853,32617
32712,4788,32544
32718,4766,32604
32704,4886,32484
32652,4778,32429
32660,4755,32436
32636,4773,32485
32617,4744,32553
32620,4765,32287
32616,4870,32424
32620,4783,32552
32664,4827,32328
32636,4798,32407
32580,4837,32431
32528,4796,32279
32557,4908,32215
32540,4766,32278
32480,4740,32300
32461,4770,32148
32508,4749,32261
32524,4800,32356
32572,4759,32311
32532,4850,32278
32516,4795,32246
32500,4779,32205
32493,4767,32197
32492,4750,32213
32501,4745,32116
32576,4778,32169
32528,4779,32202
32510,4812,32188
32416,4769,32084
32352,4838,32135
32424,4785,32077
32492,4753,32078
32452,4797,32148
32392,4754,32140
32368,4927,32076
32373,4766,32076
32436,4746,32183
32440,4772,32069
32417,4839,32004
32391,4795,32125
32340,4884,32040
32346,4795,32036
32320,4755,32010
32336,4818,32135
32340,4779,31698
32336,4844,31836
32388,4751,32018
32432,4771,31696
32432,4761,31817
32472,4780,31844
32477,4764,31799
32472,4809,31761
32424,4759,31912
32348,4914,31900
32344,4760,32016
32348,4746,31876
32332,4763,31977
32332,4751,31567
32388,4780,31831
32416,4844,31797
32393,4773,31860
32404,4790,31857
32372,4752,31797
32372,4772,31834
32348,4790,31810
32254,4745,31968
32178,4782,31764
32192,4798,31868
32304,4759,31735
32350,4795,31976
32416,4789,31816
32464,4835,31874
32456,4749,31875
32432,4747,31871
32401,4770,31860
32396,4785,31932
32392,4747,31812
32392,4776,31896
32398,4758,31910
32436,4816,31932
32457,4758,31805
32428,4777,31977
32392,4853,31950
32328,4768,31956
32308,4781,31878
32320,4742,31973
32328,4772,32108
32312,4930,31992
32276,4781,32056
32276,4820,31806
32336,4761,31975
32332,4794,31956
32324,4754,32057
32340,4784,32185
32340,4793,32002
32352,4739,32092
32384,4773,32244
32356,4757,32033
32409,4759,32111
32476,4804,32064
32466,4762,32230
32450,4782,31892
32464,4753,32188
32440,4786,32239
32416,4790,32189
32400,4762,32218
32412,4793,32350
32396,4751,32172
32360,4800,32248
32102,4759,32357
32020,4786,32269
32060,4765,32242
32164,4771,32421
32248,4857,32004
32300,4760,32340
32276,4798,32495
32284,4743,32072
32232,4794,32340
32229,4766,32416
32224,4839,32420
32288,4763,32517
32384,4791,32164
32417,4753,32311
32385,4772,32422
32384,4744,32495
32343,4766,32530
32352,4777,32433
32384,4853,32532
32372,4778,32493
32380,4789,32652
32392,4834,32495
32412,4768,32581
32428,4822,32737
32442,4748,32519
32428,4767,32629
32420,4827,32676
32473,4763,32309
32477,4867,32599
32501,4796,32702
32480,4832,32679
32404,4759,32582
32404,4797,32807
32460,4815,32388
32504,4754,32580
32512,4762,32853
32552,4781,32674
32580,4747,32756
32620,4787,32725
32589,4803,32767
32605,4762,32797
32652,4781,32792
32644,4761,32882
32680,4770,32839
32714,4751,32802
32704,4762,32775
32701,4803,32870
32704,4741,32889
32772,4772,32820
32788,4757,32887
32780,4777,33052
32716,4838,32740
32640,4756,32935
32671,4773,33068
32680,4745,32757
32644,4758,32961
32668,4782,32846
32672,4816,33106
32668,4749,32940
32640,4774,32773
32628,4779,33039
32676,4857,32896
32708,4755,33101
32685,4776,33104
32560,4785,32973
32388,4744,33038
32180,4769,33158
31888,4750,33132
31540,4772,33197
31092,4762,32957
30548,4781,33143
29844,4769,33270
29360,4790,33185
29301,4807,32933
30548,4751,33169
33149,4774,33189
36497,4829,33332
39952,4748,33268
43700,4775,32989
47136,4753,33233
49832,4791,33182
51838,4800,33316
52432,4752,33316
50608,4751,33203
48124,4792,33265
46120,4729,33265
44312,4765,33293
43196,4740,33336
42300,4750,33199
41064,4801,33287
39464,4750,33124
37572,4786,33364
35620,4748,33063
33896,4777,33236
32552,4745,33318
31604,4780,33162
30964,4739,33210
30538,4782,33191
30232,4745,33108
30040,4794,33156
29872,4759,33224
29800,4780,33036
29760,4762,33077
29728,4782,32932
29708,4751,33159
29656,4775,32725
29624,4824,32996
29584,4782,33134
29533,4817,32960
29532,4765,33047
29480,4822,32925
29432,4768,33093
29476,4799,32965
29488,4754,33069
29524,4767,33027
29534,4743,33159
29497,4794,33084
29524,4786,33044
29580,4751,32879
29616,4809,32991
29692,4769,33020
29716,4792,32708
29668,4764,32956
29700,4770,33088
29732,4822,32737
29736,4764,32809
29728,4742,32793
29784,4796,32801
29780,4768,32792
29820,4789,32845
29888,4763,32775
29973,4780,32677
30016,4837,32740
30020,4754,32546
30037,4773,32668
30004,4745,32606
30012,4781,32647
30060,4749,32193
30072,4803,32391
30088,4772,32108
30116,4902,32231
30138,4789,32232
30172,4759,32117
30181,4785,32213
30253,4897,32188
30232,4785,32045
30240,4812,32028
30224,4778,32070
30164,4847,32127
30176,4799,32020
30240,4768,31972
30308,4781,31831
30382,4893,31923
30396,4795,31984
30428,4840,31952
30440,4772,31937
30453,4750,31911
30460,4803,31996
30460,4784,31965
30469,4829,32097
30504,4773,31895
30557,4807,31968
30608,4799,31941
30616,4837,31992
30584,4769,32020
30560,4819,32079
30532,4780,32153
30476,4879,32215
30456,4773,32348
30536,4862,32200
30517,4787,32350
30580,4804,32316
30566,4761,32372
30577,4780,32508
30528,4863,32673
30536,4750,32532
30542,4786,32679
30604,4752,32727
30670,4773,32770
30816,4827,32818
30884,4768,32872
30872,4791,33060
30876,4859,33004
30844,4770,32866
30828,4784,33132
30780,4743,33038
30800,4775,33350
30852,4751,33220
30872,4774,33332
30972,4869,33383
31040,4781,33590
31056,4813,33436
31062,4766,33568
31044,4778,33486
31020,4831,33726
31088,4755,33372
31176,4784,33728
31221,4757,33965
31316,4779,33679
31456,4759,33872
31580,4811,33989
31652,4772,34028
31648,4789,34159
31680,4829,34052
31736,4753,34175
31788,4768,34157
31792,4751,34157
31840,4783,34284
31836,4827,34476
31946,4769,34337
32064,4807,34433
32168,4769,34541
32268,4764,34493
32336,4777,34582
32380,4812,34488
32461,4747,34639
32552,4790,34695
32672,4759,34759
32832,4829,34786
32904,4797,34845
32968,4858,34873
33068,4795,34932
33166,4826,34767
33188,4789,34908
33156,4752,34961
33156,4760,35020
33140,4741,35176
33132,4773,34856
33148,4752,35124
33260,4796,35268
33336,4847,35208
33409,4762,35108
33420,4777,35428
33453,4831,35263
33452,4750,35335
33412,4788,35506
33324,4740,35198
33302,4771,35300
33372,4850,35464
33468,4776,35504
33520,4866,35657
33604,4761,35511
33616,4780,35600
33652,4756,35741
33676,4765,35250
33648,4743,35541
33592,4765,35834
33552,4796,35653
33557,4749,35780
33560,4772,35720
33524,4756,35781
33560,4824,35823
33556,4789,35945
33428,4836,35943
33360,4783,36082
33364,4799,35597
33390,4734,35940
33404,4777,36126
33360,4749,36052
33320,4785,35960
33327,4756,36033
33304,4778,36099
33360,4756,36261
33368,4773,36103
33344,4748,36063
33352,4778,35964
33324,4804,36140
33312,4760,36286
33228,4803,35829
33241,4764,36129
33276,4774,36388
33344,4821,36272
33332,4777,36273
33332,4815,36208
33376,4745,36327
33373,4766,36325
33372,4833,36289
33344,4757,36500
33304,4771,36295
33300,4823,36388
33368,4767,36285
33328,4803,36468
33304,4753,36471
33309,4774,36357
33316,4795,36639
33296,4739,36374
33244,4768,36484
33168,4740,36596
33152,4765,36541
33213,4764,36629
33381,4776,36559
33508,4804,36625
33497,4756,36743
33432,4785,36244
33436,4742,36553
33428,4771,36676
33376,4743,36708
33416,4766,36732
33440,4750,36637
33476,4793,36681
33528,4835,36863
33512,4765,36592
33452,4830,36593
33364,4765,36733
33268,4809,36740
33232,4770,36831
33204,4817,36695
33192,4777,36743
33208,4750,36858
33288,4773,36716
33397,4888,36689
33532,4793,36732
33556,4816,36711
33580,4749,36570
33600,4761,36837
33576,4748,36665
33564,4757,36646
33532,4742,36364
33504,4777,36516
33508,4754,36568
33524,4811,36568
33501,4786,36614
33497,4835,36590
33453,4759,36653
33472,4813,36161
33472,4755,36390
33436,4781,36524
33348,4743,36484
33352,4780,36320
33372,4816,36461
33368,4765,36004
33344,4790,36365
33348,4836,36449
33366,4752,36316
33406,4791,36320
33388,4741,36288
33366,4779,36188
33359,4740,36210
33284,4767,36280
33272,4755,36180
33356,4796,36045
33416,4834,36103
33436,4756,36069
33384,4777,35950
33412,4746,36152
33468,4788,35641
33496,4740,35949
33456,4769,35896
33392,4747,35839
33332,4769,35842
33300,4812,35835
33220,4763,35689
33208,4765,35812
33230,4772,35821
33248,4747,35628
33288,4761,35685
33317,4812,35625
33326,4781,35728
33308,4802,35678
33273,4762,35568
33272,4807,35404
33305,4801,35463
33320,4834,35503
33372,4755,35316
33400,4796,35460
33364,4743,35193
33325,4757,35393
33284,4819,35228
33281,4754,35300
33324,4754,35432
33376,4790,35440
33388,4776,35357
33428,4821,35172
33440,4750,35200
33440,4765,35189
33452,4807,35028
33456,4742,35200
33420,4753,35206
33432,4779,34991
33436,4758,35060
33433,4773,34896
33408,4801,35149
33320,4762,34929
33356,4756,34945
33408,4803,34844
33428,4742,35023
33432,4790,34912
33448,4744,34868
33464,4799,34837
33493,4752,34475
33568,4805,34676
33608,4757,34779
33677,4799,34780
33736,4755,34748
33780,4767,34701
33756,4746,34700
33772,4767,34540
33748,4804,34738
33689,4746,34415
33620,4794,34492
33572,4764,34633
33564,4793,34293
33620,4759,34532
33608,4795,34390
33500,4843,34557
33436,4781,34117
33397,4835,34408
33302,4767,34437
33264,4792,34484
33254,4749,34220
33244,4793,34370
33285,4833,34193
33340,4785,34461
33284,4838,34239
33228,4759,33949
33208,4788,34269
33124,4744,34180
33012,4772,34277
32944,4797,33976
32944,4753,34196
32937,4794,34125
33016,4797,34135
33116,4756,34130
33157,4801,34100
33164,4752,33941
33156,4797,34123
33128,4744,33703
33113,4878,34000
33100,4783,33955
33056,4759,33972
32992,4791,33988
32881,4764,33977
32836,4778,33852
32869,4759,33882
32928,4767,34020
32916,4743,33871
32904,4773,33934
32892,4745,33636
32860,4777,33817
32908,4754,33949
32932,4805,33813
33004,4767,33695
33044,4823,33717
33080,4766,33756
33064,4803,33860
33032,4748,33599
32976,4804,33612
32926,4752,33676
32893,4805,33664
32904,4773,33748
32976,4864,33628
33004,4798,33465
33036,4752,33516
33056,4789,33500
33048,4859,33557
32990,4779,33558
33014,4814,33677
32996,4771,33521
32940,4832,33573
32925,4788,33490
32980,4826,33554
33004,4762,33304
32980,4807,33270
32912,4751,33319
32688,4789,33303
32397,4742,33285
32060,4769,33300
31652,4742,33337
31180,4787,33301
30672,4826,33192
30031,4773,33210
29620,4809,33247
29668,4772,33080
31232,4779,33195
34124,4805,33164
37556,4753,33199
41064,4802,32888
44640,4734,33080
47892,4780,33149
50392,4937,32772
52084,4772,32983
52110,4833,33052
49920,4785,32997
47705,4757,32929
45728,4773,32941
44136,4731,32876
43256,4763,32880
42336,4905,33014
41084,4761,32541
39420,4804,32791
37548,4751,32858
35692,4795,32549
34060,4821,32679
32796,4754,32636
31936,4801,32644
31328,4740,32719
30960,4771,32575
30736,4917,32641
30588,4767,32263
30440,4820,32327
30340,4799,32361
30225,4830,32365
30117,4767,32324
30052,4786,32204
30038,4753,32237
30038,4764,32333
30036,4783,31868
30012,4747,32094
30002,4784,32132
30032,4765,32073
30000,4780,32048
29964,4833,32074
29964,4761,32178
29942,4794,32007
30016,4750,32003
30045,4797,31636
30092,4743,31928
30085,4784,31893
30068,4805,31892
30112,4756,31828
30168,4789,31632
30216,4763,31836
30224,4786,31576
30224,4759,31560
30208,4788,31704
30236,4788,31417
30262,4739,31469
30285,4766,31525
30321,4848,31220
30372,4773,31285
30432,4823,31219
30460,4793,31077
30488,4895,31081
30528,4794,31172
30514,4823,30876
30528,4757,30918
30544,4782,30792
30540,4743,30920
30578,4769,30543
30624,4758,30660
30628,4796,30615
30628,4830,30583
30680,4771,30511
30684,4817,30481
30672,4785,30145
30672,4814,30255
30688,4752,30388
30724,4773,30061
30816,4756,30260
30884,4790,30403
30880,4801,30239
30846,4764,30212
30832,4782,30065
30816,4758,30187
30850,4791,29916
30836,4777,30194
30856,4912,30039
30904,4779,30256
30944,4801,30004
30992,4761,30204
31016,4801,30140
31024,4824,30320
31052,4761,30253
30988,4777,30276
30973,4762,30140
30968,4760,30437
30921,4767,30269
30914,4781,30373
30928,4846,30399
30960,4763,30525
30964,4812,30365
30972,4768,30520
30997,4789,30708
30984,4761,30332
30972,4771,30592
31032,4817,30784
31072,4747,30748
31117,4779,30564
31148,4785,30825
31181,4759,30996
31232,4784,30844
31264,4797,30663
31240,4841,30984
31252,4763,31160
31296,4770,30914
31341,4790,31126
31365,4752,31103
31380,4772,31332
31368,4755,30989
31349,4791,31273
31381,4797,31367
31452,4841,31276
31496,4780,31393
31572,4781,31321
31604,4844,31527
31616,4753,31397
31636,4770,31535
31662,4799,31422
31712,4759,31662
31772,4776,31524
31848,4790,31675
31940,4852,31712
31980,4764,31767
32024,4799,31820
32112,4801,31687
32229,4751,31836
32293,4780,32029
32398,4776,31887
32548,4869,31947
32672,4765,31911
32742,4792,32158
32828,4847,32029
32952,4761,31858
32984,4779,32103
32988,4813,31994
33008,4748,32313
33044,4774,31913
33065,4753,32231
33152,4769,32255
33216,4786,32335
33312,4870,32224
33428,4772,32358
33456,4801,32311
33486,4756,32450
33532,4777,32252
33584,4813,32454
33664,4748,32449
33724,4751,32344
33760,4768,32505
33814,4802,32636
33848,4760,32424
33873,4771,32224
33912,4786,32564
33881,4761,32534
33852,4751,32736
33864,4760,32602
33916,4786,32524
33892,4831,32645
33868,4745,32604
33804,4775,32800
33752,4865,32612
33752,4760,32695
33716,4792,32643
33684,4815,32862
33736,4754,32719
33764,4756,32437
33738,4792,32647
33702,4749,32784
33704,4781,32826
33798,4751,32687
33820,4773,32984
33860,4868,32770
33888,4771,32876
33880,4820,33023
33845,4747,32717
33820,4765,32910
33784,4921,32925
33749,4771,32897
33728,4814,32691
33740,4789,32900
33756,4871,33095
33736,4759,33000
33692,4792,32923
33684,4797,32673
33684,4750,32903
33647,4781,33108
33631,4770,32949
33600,4808,33040
33608,4751,33185
33620,4786,33042
33680,4762,32983
33712,4793,32951
33648,4804,32940
33604,4754,33020
33560,4782,33049
33508,4796,33232
33456,4744,33105
33436,4747,33159
33460,4778,32903
33564,4761,33015
33629,4773,33125
33640,4794,33206
33672,4761,33310
33652,4774,33242
33600,4856,33346
33612,4752,33257
33612,4801,33349
33616,4743,33303
33612,4770,33437
33620,4797,33228
33600,4860,33327
33604,4760,33492
33620,4772,33024
33590,4773,33225
33576,4807,33452
33552,4742,33415
33524,4771,33350
33540,4783,33355
33552,4841,33447
33528,4752,33384
33524,4779,33576
33520,4804,33468
33524,4762,33601
33520,4778,33471
33504,4807,33617
33484,4745,33495
33456,4759,33580
33476,4804,33510
33508,4748,33608
33536,4777,33509
33568,4843,33561
33588,4793,33511
33564,4815,33458
33456,4752,33351
33456,4795,33282
33440,4745,33470
33440,4786,33481
33420,4741,33550
33400,4784,33481
33436,4812,33578
33460,4756,33471
33449,4785,33439
33448,4826,33385
33444,4753,33415
33422,4785,33401
33397,4802,33405
33360,4748,33360
33336,4771,33372
33341,4879,33305
33408,4784,32989
33416,4756,33444
33406,4798,33309
33358,4879,33301
33357,4786,33162
33328,4846,32920
33332,4765,33287
33316,4742,33071
33320,4789,32861
33293,4771,33295
33344,4816,33181
33344,4790,33176
33352,4837,33080
33332,4790,33039
33336,4863,33126
33317,4748,32732
33308,4763,33060
33324,4781,32961
33365,4884,32999
33324,4752,33046
33289,4777,32994
33292,4763,33053
33228,4797,32951
33272,4821,33037
33292,4754,32911
33252,4778,32980
33268,4740,32875
33292,4761,32863
33258,4843,32791
33232,4778,32726
33236,4816,32733
33252,4762,32805
33252,4810,32719
33264,4759,32669
33252,4808,32549
33205,4749,32412
33194,4791,32730
33190,4740,32637
33173,4760,32636
33144,4751,32322
33156,4786,32654
33172,4759,32548
33184,4823,32506
33180,4757,32519
33148,4800,32598
33097,4784,32481
33054,4821,32574
33040,4755,32412
33033,4803,32552
33028,4745,32400
33061,4782,32457
33080,4767,32370
33116,4788,32338
33156,4756,32327
33172,4783,32287
33189,4772,32184
33140,4749,32037
33129,4767,32260
33120,4743,32257
33116,4785,32245
33082,4756,32210
33116,4804,32120
33153,4758,32101
33165,4790,32152
33124,4763,32255
33076,4780,32140
33064,4798,32283
33060,4742,32151
32992,4775,32164
32988,4747,32058
33048,4782,32013
33082,4761,31925
33072,4798,31892
33004,4766,32169
32944,4785,32060
32952,4752,32101
32964,4769,32031
32888,4817,32092
32828,4743,32016
32812,4783,31855
32892,4841,31930
32997,4799,31986
33068,4928,31903
33080,4787,31965
33054,4798,31917
33028,4751,31904
32994,4782,31791
32988,4821,31956
33060,4750,31761
33093,4930,31809
33112,4794,31796
33064,4820,31876
33016,4762,31751
33040,4793,31862
33084,4760,31505
33112,4775,31783
33148,4829,31917
33180,4770,31712
33120,4801,31788
33108,4747,31695
33116,4753,31695
33160,4795,31879
33200,4760,31617
33180,4781,31700
33132,4828,31556
33080,4763,31788
33040,4813,31374
33068,4780,31532
33068,4823,31609
33120,4786,31644
33196,4806,31568
33272,4765,31705
33297,4786,31532
33321,4927,31596
33324,4791,31460
33288,4820,31701
33288,4747,31632
33329,4769,31463
33348,4741,31533
33317,4764,31636
33357,4848,31436
33384,4760,31193
33392,4780,31503
33313,4830,31345
33288,4756,31473
33248,4785,31495
33240,4798,31246
33216,4741,31429
33200,4773,31305
33192,4751,31426
33228,4780,31396
33228,4760,31238
33272,4790,31428
33229,4938,31343
33085,4785,31185
32852,4757,31343
32576,4766,31303
32222,4750,31381
31776,4765,30968
31288,4823,31204
30648,4765,31327
30036,4813,31212
29772,4776,31277
30424,4832,30983
32500,4785,31032
35568,4857,31048
39036,4774,31112
42760,4740,30950
46604,4741,31160
49856,4812,31038
52516,4740,30983
54312,4774,31085
54256,4761,30991
51996,4791,31096
49596,4748,30902
47544,4767,30812
45520,4929,30924
44140,4776,30756
42788,4735,30754
41208,4760,30804
39372,4755,30696
37344,4790,30396
35424,4798,30664
33776,4763,30561
32536,4775,30680
31732,4758,30441
31232,4753,30476
30909,4767,30417
30680,4749,30540
30520,4780,30270
30356,4846,30304
30260,4771,30222
30166,4799,30256
30080,4763,30181
30008,4775,30141
29936,4813,30168
29868,4751,30101
29836,4783,30089
29804,4746,29965
29824,4777,29989
29829,4756,30052
29797,4789,30050
29814,4767,29834
29828,4786,29953
29768,4761,30100
29728,4774,29857
29748,4815,29919
29774,4748,29796
29792,4772,29981
29744,4775,29784
29764,4819,29480
29820,4761,29728
29868,4790,29615
29892,4783,29488
29946,4809,29615
30020,4758,29577
30016,4765,29214
30000,4798,29455
30060,4752,29365
30044,4749,29256
30066,4795,29424
30092,4821,29180
30140,4772,29177
30184,4793,29031
30164,4830,29200
30184,4752,28957
30189,4763,28856
30180,4772,28921
30218,4813,28717
30260,4753,28907
30312,4758,28792
30320,4783,28599
30352,4910,28657
30400,4767,28613
30409,4797,28346
30448,4758,28508
30484,4759,28460
30506,4771,28447
30468,4751,28213
30477,4772,28348
30348,4821,28295
30364,4764,28319
30420,4805,28147
30440,4867,28185
30472,4768,28281
30485,4792,28212
30536,4784,28302
30564,4754,28185
30588,4755,28260
30597,4780,28125
30568,4827,28383
30501,4772,28221
30488,4771,28132
30469,4794,28284
30516,4838,28151
30476,4761,28384
30508,4787,28226
30472,4775,28245
30416,4799,28166
30452,4884,28385
30476,4766,28381
30500,4783,28536
30516,4806,28617
30516,4774,28406
30516,4777,28277
30440,4782,28567
30444,4826,28586
30436,4751,28620
30476,4787,28511
30498,4806,28815
30524,4767,28783
30552,4769,28729
30584,4805,28752
30624,4809,28678
30656,4769,28868
30688,4800,28796
30653,4815,29040
30644,4759,28845
30656,4791,28964
30704,4799,29002
30744,4772,28986
30760,4778,29173
30764,4822,29004
30812,4773,29120
30876,4794,29159
30916,4843,29236
30936,4794,28966
30968,4823,29223
31020,4751,29127
31076,4795,29440
31132,4820,29244
31180,4771,29380
31260,4797,29244
31372,4775,29540
31464,4777,29352
31542,4784,29212
31624,4805,29524
31688,4754,29501
31748,4786,29441
31904,4800,29719
32064,4882,29753
32177,4771,29711
32270,4799,29532
32396,4772,29682
32484,4796,29660
32592,4820,29748
32748,4751,29681
32864,4767,29824
32917,4817,29797
33020,4752,29784
32972,4780,29911
33072,4767,29904
33144,4798,29869
33260,4767,29886
33316,4800,29967
33406,4764,29858
33492,4806,30001
33484,4748,30036
33525,4766,30070
33592,4928,29936
33644,4778,30098
33628,4761,29835
33640,4805,30017
33688,4770,30240
33668,4825,29910
33624,4772,30037
33628,4916,30332
33684,4745,30337
33684,4772,30144
33676,4814,30020
33728,4753,30295
33700,4790,30168
33720,4761,30391
33704,4782,30220
33700,4759,30317
33692,4773,30481
33697,4746,30204
33696,4773,30382
33684,4751,30496
33696,4766,30343
33693,4833,30452
33656,4759,30426
33652,4780,30406
33656,4826,30622
33589,4756,30567
33564,4792,30429
33516,4807,30252
33504,4749,30488
33524,4778,30693
33512,4751,30545
33518,4761,30521
33528,4790,30600
33492,4821,30626
33500,4761,30575
33509,4786,30760
33502,4821,30599
33480,4755,30594
33472,4762,30688
33460,4783,30692
33434,4746,30814
33416,4777,30814
33386,4820,30736
33388,4830,30689
33384,4765,30701
33416,4763,30734
33396,4749,30720
33468,4751,30724
33441,4785,30892
33481,4805,30752
33484,4751,30902
33500,4802,30925
33492,4759,30959
33472,4783,30896
33464,4771,30966
33432,4781,31124
33398,4780,30973
33388,4852,31084
33356,4751,31059
33364,4780,31252
33348,4752,30961
33365,4789,31127
33400,4758,31305
33454,4799,30999
33421,4800,31246
33405,4765,31271
33356,4774,31405
33320,4776,31247
33316,4749,31349
33361,4761,31328
33352,4819,31508
33381,4757,31189
33392,4807,31397
33372,4767,31500
33328,4800,31469
33244,4828,31192
33216,4766,31486
33252,4797,31644
33284,4753,31477
33288,4748,31554
33326,4788,31559
33348,4800,31520
33308,4892,31736
33256,4763,31573
33260,4786,31330
33196,4839,31636
33148,4774,31733
33124,4793,31578
33152,4750,31685
33156,4765,31686
33164,4821,31596
33198,4761,31700
33252,4797,31581
33232,4825,31804
33184,4768,31785
33181,4770,31623
33172,4777,31449
33161,4821,31705
33160,4749,31655
33144,4779,31791
33142,4753,31380
33164,4763,31692
33160,4795,31607
33189,4903,31772
33200,4771,31660
33152,4778,31396
33128,4840,31639
33132,4773,31652
33132,4784,31721
33092,4750,31521
33080,4759,31632
33064,4803,31541
33036,4763,31716
33064,4794,31536
33080,4850,31564
33112,4778,31509
33152,4806,31681
33116,4751,31390
33076,4771,31541
33100,4804,31476
33112,4748,31596
33157,4794,31200
33104,4824,31464
33100,4781,31623
33106,4791,31448
33068,4833,31459
33010,4765,31437
32960,4799,31357
32932,4746,31455
32936,4769,31565
32960,4847,31346
32954,4757,31428
32968,4792,31270
32972,4820,31516
32972,4769,31199
32980,4781,31376
32936,4820,31492
32980,4757,31225
32888,4789,31377
32825,4795,31233
32900,4754,31438
32932,4789,31132
32988,4831,31317
32980,4764,31314
32856,4780,31463
32840,4803,31281
32872,4763,31023
32857,4753,31316
32840,4773,31293
32836,4793,31150
32868,4795,31170
32948,4757,31413
32932,4799,31181
32892,4881,31250
32928,4793,31364
32924,4827,31116
32925,4762,31238
32880,4780,31292
32869,4749,31136
32852,4785,31225
32822,4794,31092
32816,4871,31265
32824,4798,31187
32812,4804,31180
32781,4770,31193
32800,4803,31215
32872,4816,31077
32912,4754,31188
32852,4786,31300
32836,4825,31092
32808,4752,31176
32752,4789,31045
32781,4768,31164
32817,4803,31160
32821,4835,31020
32836,4766,31213
32773,4788,30914
32720,4756,31111
32700,4771,31159
32757,4753,30959
32784,4787,31088
32800,4785,31119
32820,4866,31172
32796,4775,31109
32780,4807,30981
32777,4762,31245
32798,4795,31097
32792,4817,31125
32760,4761,31002
32764,4787,31226
32796,4757,31194
32764,4794,30849
32752,4827,30989
32790,4765,31188
32780,4818,30879
32752,4761,31108
32700,4791,31056
32688,4936,31153
32660,4767,31013
32608,4802,31087
32572,4751,31052
32576,4779,31221
32568,4837,31059
32632,4771,30997
32628,4795,31054
32612,4914,31081
32448,4775,30929
32404,4812,31092
32380,4752,30772
32364,4821,30945
32396,4770,31204
32434,4812,30832
32584,4763,31071
32648,4804,31166
32664,4769,31023
32652,4791,31057
32654,4761,30904
32612,4790,31184
32632,4827,30924
32630,4759,31045
32640,4836,30905
32668,4796,31044
32756,4848,30744
32800,4788,31035
32828,4855,31144
32740,4787,31043
32748,4764,30917
32708,4793,31084
32696,4802,30805
32684,4751,30988
32676,4783,31141
32708,4757,30784
32724,4784,31024
32728,4796,30948
32716,4771,31121
32704,4812,30823
32692,4759,31015
32720,4779,31042
32784,4750,30960
32796,4785,31004
32768,4767,31005
32765,4810,30914
32732,4758,31005
32740,4823,31140
32760,4764,30916
32816,4785,30996
32856,4863,30862
32876,4767,31018
32845,4789,30701
32840,4746,30850
32684,4777,30920
32649,4763,30964
32736,4781,30935
32749,4766,31114
32784,4788,30947
32789,4780,30702
32788,4902,30945
32784,4760,31076
32756,4772,30908
32728,4887,30967
32780,4786,30909
32840,4835,31070
32852,4800,30829
32785,4771,30965
32532,4784,30909
32208,4946,30922
31880,4787,30676
31488,4802,30905
30984,4753,31038
30304,4786,30616
29648,4754,30757
29319,4777,31012
29704,4804,30959
31376,4768,30776
34172,4809,30860
37516,4770,30958
41150,4812,30578
45060,4744,30828
48476,4805,30946
51428,4740,30836
53760,4821,30960
54816,4792,30532
53416,4840,30778
50720,4767,30941
48512,4833,30768
46164,4754,30628
44344,4786,30752
42892,4747,30720
41232,4776,30692
39332,4806,30752
37228,4764,30565
35200,4818,30506
33484,4787,30516
32224,4849,30573
31392,4781,30678
30828,4895,30502
30448,4791,30460
30180,4759,30317
29936,4776,30348
29756,4758,30393
29616,4755,30356
29518,4791,30215
29420,4828,30298
29368,4802,30292
29344,4820,30119
29264,4791,30272
29276,4810,29990
29276,4758,30237
29230,4797,30335
29208,4758,30180
29228,4819,30236
29204,4776,30087
29256,4857,30340
29312,4806,30116
29353,4841,30205
29344,4773,30134
29372,4791,30298
29292,4759,30050
29261,4777,30126
29345,4815,29991
29352,4774,30188
29408,4827,29856
29440,4797,29957
29464,4868,29900
29492,4804,29948
29540,4834,29944
29638,4766,29861
29689,4777,29676
29728,4809,29782
29726,4756,29711
29686,4771,29784
29656,4820,29700
29728,4771,29337
29828,4805,29401
29892,4771,29498
29976,4786,29447
29976,4870,29364
29888,4793,29292
29776,4855,29296
29808,4770,29212
29877,4807,29103
29884,4762,29132
29916,4796,29206
29948,4773,29028
29948,4807,28920
29972,4836,28978
29956,4763,28969
29945,4777,28852
29984,4815,28901
30048,4754,28866
30028,4778,28572
30028,4841,28830
30049,4766,28711
30128,4798,28748
30164,4803,28823
30180,4775,28772
30184,4774,28605
30161,4804,28752
30056,4761,28788
30080,4768,28841
30120,4783,28584
30144,4827,28807
30185,4768,28825
30208,4783,28821
30204,4801,28770
30172,4773,28928
30140,4804,28675
30092,4803,28924
30088,4757,28837
30112,4785,29004
30148,4816,28717
30172,4765,28943
30140,4809,29076
30116,4782,29095
30112,4817,29052
30122,4772,29207
30168,4798,29182
30280,4769,29063
30340,4797,29329
30392,4823,29012
30418,4792,29226
30384,4815,29409
30312,4772,29348
30372,4805,29295
30416,4780,29542
30476,4795,29228
30460,4772,29375
30476,4814,29543
30496,4761,29294
30496,4781,29575
30556,4763,29742
30581,4802,29523
30638,4847,29670
30680,4775,29716
30740,4811,29736
30790,4780,29564
30836,4791,29708
30872,4848,29942
30904,4789,29636
30904,4812,29863
30912,4760,30029
31056,4804,30023
31168,4836,29732
31256,4778,29911
31344,4827,30108
31444,4783,30117
31536,4806,30106
31584,4771,30169
31640,4777,30212
31733,4904,30275
31816,4791,30028
31948,4803,30277
32104,4769,30441
32284,4805,30084
32404,4775,30336
32504,4791,30452
32608,4775,30465
32744,4768,30340
32832,4789,30641
32928,4757,30357
32996,4780,30559
33056,4805,30744
33160,4867,30636
33240,4776,30373
33320,4789,30709
33384,4843,30766
33412,4785,30652
33424,4823,30797
33416,4756,30751
33432,4761,30849
33492,4795,30810
33524,4821,30808
33552,4761,30919
33580,4808,30803
33588,4814,31043
33596,4765,30790
33572,4791,31025
33564,4805,30981
33472,4750,31065
33516,4769,31100
33540,4812,31058
33604,4755,31282
33676,4795,31077
33678,4769,31217
33692,4791,31375
33684,4862,31208
33656,4796,31324
33628,4763,31324
33604,4772,31362
33592,4820,31112
33576,4754,31451
33485,4782,31319
33472,4765,31623
33472,4799,31479
33492,4820,31332
33444,4779,31604
33388,4836,31641
33358,4793,31585
33332,4788,31678
33308,4756,31605
33260,4769,31773
33232,4819,31492
33216,4760,31824
33216,4796,32000
33228,4773,31668
33221,4781,31933
33232,4792,31908
33278,4753,31933
33256,4807,32050
33181,4754,32142
32958,4774,32109
32950,4833,32143
32984,4761,32169
32952,4787,32390
32966,4831,32208
32985,4766,32326
33004,4786,32367
33017,4817,32538
32952,4749,32346
32968,4769,32493
33008,4921,32452
33068,4785,32615
33096,4807,32351
33105,4769,32623
33096,4790,32717
33034,4857,32756
32964,4772,32706
32960,4808,32756
32928,4753,32900
32901,4786,32836
32888,4838,32879
32869,4792,32963
32864,4933,33084
32892,4802,33097
32900,4844,32999
32960,4804,33127
33000,4836,33214
32960,4772,33390
32916,4819,32972
32852,4752,33333
32868,4772,33406
32896,4829,33352
32878,4782,33472
32896,4823,33362
32904,4771,33607
32892,4806,33567
32820,4766,33567
32712,4783,33720
32700,4790,33556
32724,4753,33720
32768,4765,33792
32784,4790,33725
32800,4768,33851
32812,4786,34013
32746,4771,33550
32804,4790,33831
32809,4761,33900
32808,4776,33999
32816,4758,34109
32796,4787,33696
32796,4752,34017
32864,4799,34213
32872,4932,33752
32880,4805,33993
32885,4837,34102
32808,4768,34167
32708,4783,34095
32720,4927,34265
32760,4793,33902
32752,4801,34245
32768,4750,34408
32764,4791,34201
32780,4812,34324
32792,4765,34341
32766,4806,34295
32713,4889,34204
32716,4800,34394
32672,4834,34492
32654,4761,34346
32621,4801,34429
32564,4749,34281
32549,4790,34459
32548,4877,34217
32556,4779,34477
32560,4799,34366
32540,4845,34556
32568,4774,34421
32568,4831,34478
32572,4784,34585
32576,4809,34492
32568,4762,34532
32592,4807,34508
32612,4769,34477
32620,4808,34535
32656,4767,34646
32700,4807,34483
32676,4823,34560
32592,4782,34661
32508,4841,34583
32368,4791,34637
32416,4756,34606
32528,4780,34560
32596,4762,34463
32705,4813,34614
32724,4771,34570
32704,4798,34564
32628,4817,34652
32608,4759,34572
32640,4785,34695
32664,4823,34608
32656,4775,34694
32636,4831,34785
32668,4799,34620
32660,4848,34677
32636,4779,34861
32604,4816,34551
32584,4764,34598
32505,4797,34687
32505,4752,34720
32464,4779,34863
32408,4830,34680
32444,4795,34778
32576,4887,34853
32608,4801,34738
32656,4835,34823
32692,4767,34788
32649,4791,34792
32553,4760,34812
32500,4769,34861
32496,4846,34830
32512,4760,34844
32520,4790,34861
32532,4769,34909
32520,4769,34839
32532,4805,35048
32572,4769,34858
32584,4798,34950
32594,4825,34909
32536,4757,35047
32529,4772,35018
32504,4825,34623
32489,4764,35009
32532,4821,35117
32544,4777,34958
32492,4836,35048
32484,4777,35065
32500,4793,35140
32496,4900,34956
32476,4761,35104
32420,4780,35060
32392,4758,35145
32412,4765,35202
32472,4787,35130
32513,4846,35137
32592,4771,35124
32616,4790,35319
32612,4768,35108
32620,4790,35220
32544,4823,35168
32544,4784,35378
32536,4800,35244
32520,4755,34910
32528,4818,35236
32524,4772,35377
32412,4803,35349
32344,4768,35301
32313,4794,35223
32320,4932,35487
32364,4764,35293
32404,4778,34992
32424,4817,35392
32405,4760,35277
32384,4804,35377
32360,4888,35414
32332,4778,35311
32320,4794,35543
32360,4909,35391
32388,4775,35444
32392,4789,35453
32300,4835,35455
32272,4750,35433
32345,4791,35637
32444,4768,35510
32536,4810,35192
32592,4839,35544
32602,4798,35700
32602,4819,35513
32572,4764,35591
32608,4782,35554
32536,4827,35615
32540,4754,35711
32520,4786,35516
32588,4766,35655
32682,4800,35676
32768,4775,35596
32846,4790,35629
32848,4841,35613
32732,4763,35744
32672,4777,35564
32644,4928,35719
32596,4779,35644
32568,4790,35837
32556,4763,35356
32624,4805,35591
32704,4773,35803
32733,4788,35365
32728,4843,35751
32708,4790,35903
32778,4835,35722
32804,4769,35771
32824,4807,35784
32688,4758,35766
32572,4797,35772
32576,4769,35818
32584,4809,35892
32612,4772,35601
32680,4800,35788
32764,4761,35990
32828,4815,35630
32872,4748,35892
32892,4773,35741
32860,4845,35972
32852,4792,35496
32832,4827,35845
32792,4788,35854
32708,4764,35900
32644,4785,35941
32588,4832,35975
32544,4775,35928
32484,4813,35880
32512,4767,36057
32566,4928,35972
32568,4785,36117
32526,4840,35860
32320,4786,35945
31960,4797,35886
31616,4858,36102
31168,4764,35943
30708,4783,35620
30116,4797,35954
29498,4766,36093
29152,4802,35906
29460,4832,35972
31200,4778,36135
34184,4821,35834
37640,4767,35974
41192,4803,36041
44968,4794,36036
48224,4752,35711
50928,4791,35898
52920,4829,36052
53300,4791,36024
51232,4863,36116
48672,4773,35960
46544,4793,35960
44512,4842,36129
43301,4768,35905
42216,4796,35940
40912,4748,36110
39256,4773,35890
37148,4817,35936
35148,4751,36048
33484,4785,35789
32216,4804,35911
31368,4766,35877
30805,4788,35789
30368,4841,35836
30074,4778,35828
29836,4809,35652
29644,4753,35719
29536,4796,35748
29424,4756,35700
29312,4781,35569
29300,4876,35692
29316,4777,35700
29300,4793,35676
29288,4839,35660
29188,4766,35644
29094,4808,35732
29080,4755,35704
29116,4796,35757
29132,4773,35695
29193,4810,35656
29153,4773,35751
29154,4774,35520
29120,4808,35730
29104,4805,35757
29124,4770,35681
29196,4767,35669
29220,4784,35670
29280,4781,35575
29372,4841,35649
29460,4783,35580
29588,4816,35536
29597,4780,35428
29552,4797,35591
29509,4863,35356
29388,4766,35047
29388,4770,35389
29424,4788,35197
29392,4818,35396
29408,4759,35055
29488,4775,35188
29688,4791,35033
29808,4828,35245
29852,4779,35020
29868,4794,34974
29878,4764,35097
29952,4773,34657
29969,4757,34709
29988,4796,34529
29916,4764,34700
29904,4833,34685
29920,4785,34687
29996,4838,34685
29968,4794,34616
29880,4775,34664
29866,4789,34557
29992,4758,34632
30084,4797,34528
30128,4758,34484
30164,4788,34407
30216,4769,34452
30236,4803,34567
30166,4777,34509
30160,4820,34610
30148,4804,34518
30088,4772,34653
30108,4795,34524
30088,4808,34417
30048,4758,34637
30096,4823,34634
30204,4789,34748
30296,4834,34703
30328,4777,34632
30364,4817,34718
30436,4772,34837
30448,4784,34969
30408,4761,34895
30368,4780,34832
30320,4816,35141
30316,4767,35023
30353,4788,35132
30408,4937,35294
30488,4803,35225
30548,4774,35399
30596,4793,35325
30537,4764,35476
30536,4794,35444
30480,4757,35529
30496,4774,35500
30496,4822,35605
30528,4773,35558
30628,4807,35711
30684,4781,35756
30844,4797,35892
30956,4861,35636
30980,4783,35868
30888,4761,36018
30664,4797,35984
30652,4834,36165
30752,4774,36103
30904,4813,36245
31040,4779,35960
31086,4807,36092
31060,4832,36300
31096,4774,36334
31160,4799,36273
31200,4804,36543
31186,4849,36351
31248,4765,36426
31292,4783,36591
31374,4812,36484
31428,4867,36219
31432,4777,36668
31434,4794,36660
31476,4848,36852
31540,4775,36752
31584,4810,36812
31704,4761,36766
31892,4761,36748
32012,4800,37036
32142,4825,36901
32265,4773,37015
32268,4809,36972
32345,4828,37076
32460,4771,37140
32528,4779,37110
32604,4799,37157
32664,4762,37078
32772,4750,37344
32840,4798,37202
32932,4796,36935
32992,4830,37293
33076,4775,37311
33104,4771,37295
33132,4790,37308
33176,4792,37262
33245,4834,37383
33272,4755,37580
33248,4762,37437
33252,4791,37231
33284,4805,37494
33364,4861,37403
33452,4782,37631
33444,4823,37190
33405,4764,37527
33380,4786,37720
33396,4926,37536
33456,4789,37552
33488,4825,37704
33464,4775,37617
33440,4833,37518
33344,4766,37812
33284,4797,37624
33300,4848,37701
33286,4800,37676
33264,4933,37700
33324,4791,37791
33424,4776,37735
33372,4757,37929
33296,4776,37781
33260,4828,37860
33264,4804,37927
33297,4840,37837
33240,4801,37893
33144,4764,37916
33100,4799,37895
33100,4750,38045
33096,4776,37960
33080,4754,37842
33160,4785,38005
33300,4756,38012
33334,4783,38004
33340,4773,37989
33316,4805,38021
33320,4770,38197
33232,4797,37956
33232,4837,37947
33202,4767,38048
33156,4747,37963
33169,4783,38067
33216,4765,38100
33244,4785,38172
33284,4772,38151
33300,4808,38121
33292,4838,38110
33324,4784,38116
33332,4829,38196
33304,4769,38217
33237,4799,38324
33266,4759,37886
33304,4819,38108
33276,4767,38324
33185,4801,38284
33204,4855,38234
33260,4765,38361
33265,4797,38284
33260,4755,38316
33245,4771,38396
33253,4830,38325
33232,4771,38361
33228,4828,38494
33316,4765,38369
33320,4787,38350
33180,4842,38372
33064,4780,38428
33032,4805,38580
33029,4759,38093
33168,4751,38448
33288,4782,38577
33412,4754,38289
33504,4801,38464
33468,4846,38624
33436,4784,38335
33389,4805,38370
33364,4840,38613
33336,4757,38433
33324,4770,38476
33316,4796,38361
33272,4755,38631
33294,4776,38224
33264,4837,38438
33285,4761,38392
33380,4789,38543
33484,4785,38278
33508,4833,38439
33456,4759,38407
33388,4773,38292
33354,4831,38473
33356,4756,38188
33320,4803,38377
33320,4758,38340
33380,4788,38393
33408,4828,38177
33412,4766,38312
33392,4795,38144
33314,4759,38373
33286,4787,37828
33316,4755,38181
33340,4784,38344
33332,4815,38058
33404,4758,38183
33454,4803,38036
33520,4839,38130
33536,4770,37932
33441,4786,38072
33340,4794,37988
33249,4853,38064
33232,4750,38055
33232,4768,37511
33232,4819,37917
33248,4759,37966
33248,4782,37835
33248,4828,37825
33352,4774,37779
33376,4794,37916
33344,4815,37364
33292,4795,37604
33232,4827,37754
33228,4762,37678
33200,4814,37780
33216,4761,37580
33288,4811,37600
33284,4764,37617
33328,4791,37406
33348,4945,37500
33225,4788,37460
33082,4818,37433
33060,4757,37417
33072,4808,37497
33121,4758,37381
33196,4819,37440
33200,4765,37119
33193,4807,37190
33196,4767,37397
33204,4801,37236
33188,4760,37093
33230,4783,37212
33229,4754,37159
33188,4785,37245
33132,4753,36927
33068,4819,37008
33044,4767,37117
33036,4800,36687
33048,4775,36980
33064,4768,36863
33108,4775,37038
33158,4819,36772
33145,4758,36836
33212,4874,36818
33280,4781,36676
33316,4765,36838
33326,4797,36745
33264,4822,36592
33220,4771,36758
33156,4789,36702
33121,4763,36805
33080,4773,36615
33056,4883,36609
32988,4746,36564
32912,4776,36572
32888,4912,36670
32881,4783,36161
32970,4815,36406
33004,4771,36529
33044,4778,36033
33072,4799,36391
33016,4756,36381
32968,4780,36349
33031,4823,36337
33056,4764,36413
33056,4806,36193
33096,4764,36200
33124,4806,36383
33088,4770,36180
33056,4815,36181
32980,4765,36092
32924,4822,36001
32884,4789,35872
32842,4837,36022
32848,4765,36161
32832,4819,36036
32860,4767,35940
32888,4823,36008
32816,4795,35959
32736,4837,36076
32768,4780,35930
32828,4816,35792
32804,4748,35976
32764,4767,35526
32676,4806,35852
32676,4759,35753
32680,4796,35743
32662,4772,35755
32636,4807,35817
32604,4762,35748
32656,4791,35659
32748,4756,35652
32806,4775,35652
32812,4828,35815
32788,4756,35590
32777,4780,35618
32796,4782,35599
32825,4820,35697
32857,4916,35533
32860,4767,35553
32896,4797,35388
32900,4753,35527
32924,4783,35484
32920,4758,35460
32876,4778,35484
32928,4805,35092
32946,4769,35359
32952,4796,35537
32950,4942,35316
32848,4793,35335
32828,4816,35460
32880,4764,35258
32976,4805,35305
33024,4753,35207
33024,4780,35332
32988,4923,34863
32976,4793,35192
32952,4811,35225
32925,4771,35246
32908,4783,35164
32961,4766,35060
32972,4790,35173
33020,4892,35095
33076,4788,35053
