ECG,EDA,RR
32064,42503,40288
32093,42476,40290
32168,42375,40293
32204,42424,40319
32284,42452,40226
32348,42487,40389
32356,42416,40387
32340,42503,40399
32248,42516,40293
32192,42516,40400
32216,42540,40327
32248,42541,40421
32334,42441,40320
32400,42503,40431
32508,42482,40285
32560,42401,40388
32576,42524,40270
32545,42561,40369
32504,42496,40292
32461,42566,40360
32480,42551,40353
32504,42583,40340
32540,42565,40326
32569,42519,40237
32636,42503,40247
32676,42455,40124
32670,42567,40188
32652,42523,40063
32596,42596,40143
32622,42580,40103
32633,42620,40012
32672,42612,40000
32740,42503,39956
32772,42589,39903
32840,42551,39820
32904,42535,39781
32849,42599,39740
32821,42543,39662
32780,42629,39536
32788,42623,39500
32800,42660,39376
32848,42647,39375
32892,42573,39212
32944,42602,39236
33050,42613,39087
33140,42540,39071
33136,42621,39000
33064,42631,38919
32968,42631,38855
32912,42708,38742
32872,42607,38688
32912,42669,38552
32960,42652,38535
32996,42665,38400
33065,42628,38407
33137,42644,38326
33160,42607,38215
33096,42711,38158
33040,42645,38036
33012,42716,37999
33020,42698,37863
33032,42725,37887
33064,42671,37792
33116,42628,37729
33188,42679,37653
33254,42673,37584
33200,42679,37463
33140,42663,37445
33113,42772,37373
33088,42724,37295
33089,42759,37221
33120,42751,37150
33180,42719,37076
33240,42758,36959
33312,42645,36943
33408,42724,36808
33430,42742,36789
33389,42757,36684
33344,42807,36666
33292,42823,36544
33292,42828,36504
33284,42796,36417
33264,42788,36380
33236,42759,36286
33248,42748,36239
33272,42756,36153
33248,42773,36100
33204,42794,36025
33173,42825,35953
33104,42759,35893
33088,42878,35820
33132,42847,35762
33256,42797,35684
33272,42812,35620
33380,42788,35556
33460,42836,35476
33408,42759,35429
33344,42855,35365
33248,42868,35308
33204,42881,35237
33180,42913,35182
33196,42853,35116
33232,42869,35063
33286,42853,35007
33365,42829,34936
33422,42868,34887
33388,42887,34818
33344,42902,34796
33300,42908,34719
33264,42941,34655
33324,42935,34596
33346,42900,34553
33426,42887,34502
33492,42928,34469
33568,42902,34388
33604,42879,34348
33556,42940,34278
33472,42959,34262
33388,42999,34183
33316,42956,34145
33269,42917,34090
33284,42975,34055
33285,42951,34023
33344,42960,33951
33452,42962,33941
33516,42961,33869
33460,42887,33864
33352,42983,33780
33296,42992,33785
33273,42996,33708
33280,43044,33724
33256,43015,33615
33318,42980,33602
33404,43015,33542
33482,42944,33493
33576,42974,33477
33609,43015,33435
33700,42991,33433
33680,43037,33367
33668,43086,33390
33645,43012,33319
33669,42997,33340
33692,43061,33254
33800,43031,33276
33909,42965,33190
33956,43007,33181
33984,43047,33153
33980,43054,33108
33927,43116,33109
33872,43135,33060
33844,43044,33119
33868,43092,33044
33876,43069,33055
33928,43102,32997
33972,43092,33038
34012,43100,32933
33984,43119,32921
33916,43041,32967
33824,43132,32919
33768,43143,32966
33695,43113,32871
33696,43167,32845
33744,43143,32903
33824,43125,32820
33912,43092,32823
33956,43135,32799
33949,43153,32796
33884,43087,32815
33812,43171,32766
33761,43184,32836
33750,43187,32761
33796,43160,32809
33829,43151,32718
33892,43143,32688
33920,43135,32759
33920,43132,32660
33888,43095,32670
33816,43212,32665
33780,43245,32608
33772,43244,32609
33744,43249,32653
33781,43228,32560
33797,43134,32544
33838,43205,32631
33864,43140,32547
33848,43204,32599
33664,43174,32504
33352,43233,32534
32960,43239,32436
32536,43270,32420
32296,43265,32500
32388,43255,32374
32676,43244,32391
33192,43236,32396
33850,43205,32415
34489,43229,32316
35204,43233,32284
36232,43253,32364
37596,43305,32292
39232,43271,32348
41150,43280,32244
43260,43299,32250
45472,43270,32183
47796,43265,32212
49908,43244,32178
51464,43253,32252
52400,43264,32160
52564,43308,32212
52068,43327,32100
50432,43360,32112
47792,43364,32172
44788,43360,32041
41728,43358,32066
38428,43340,32138
35944,43360,32017
34752,43373,32001
34256,43388,32100
33900,43407,31975
33580,43421,31981
33276,43444,32056
33062,43380,31943
32932,43383,31920
32708,43381,31980
32460,43373,31909
32252,43356,31871
32064,43367,31914
31904,43361,31855
31732,43362,31884
31540,43454,31973
31440,43405,31873
31400,43363,31872
31377,43421,31861
31412,43415,31914
31456,43362,31988
31484,43412,31909
31512,43311,31972
31478,43399,31932
31444,43388,31988
31413,43476,31905
31414,43465,31925
31456,43463,32007
31528,43364,31905
31553,43429,32005
31600,43460,31963
31720,43428,32037
31750,43399,31948
31754,43460,31949
31700,43391,31972
31628,43476,31973
31592,43482,32006
31632,43463,31980
31700,43509,32012
31808,43415,32015
31908,43452,32058
32036,43436,32044
32100,43433,32057
32132,43439,32146
32120,43509,32066
32100,43527,32030
32096,43445,32061
32096,43472,32033
32092,43510,32039
32160,43500,32143
32276,43486,32045
32368,43465,32015
32464,43463,32121
32452,43508,32046
32440,43523,32066
32412,43553,31992
32391,43527,31986
32384,43572,31999
32432,43564,31995
32484,43527,32041
32516,43487,31997
32576,43501,32069
32628,43517,31972
32660,43457,32071
32610,43488,31941
32553,43527,31943
32544,43564,32042
32532,43609,31950
32556,43493,31992
32656,43567,31943
32760,43541,32012
32885,43527,31900
32997,43447,31964
33080,43574,31843
33100,43597,31838
33120,43523,31933
33116,43527,31807
33144,43589,31784
33198,43602,31897
33280,43591,31788
33436,43572,31865
33548,43589,31741
33645,43487,31725
33684,43590,31672
33656,43595,31780
33644,43637,31653
33640,43644,31700
33677,43559,31597
33788,43622,31678
33861,43527,31555
33985,43639,31568
34092,43567,31490
34196,43596,31564
34244,43602,31426
34253,43653,31513
34192,43639,31388
34168,43685,31456
34204,43655,31324
34272,43687,31396
34368,43591,31278
34492,43647,31335
34604,43612,31207
34684,43580,31176
34661,43669,31239
34560,43615,31144
34448,43700,31101
34364,43696,31150
34328,43689,31059
34289,43703,31070
34240,43703,30965
34145,43599,30982
34100,43655,30910
34004,43644,30897
33856,43654,30964
33644,43655,30895
33440,43731,30951
33240,43735,30833
33064,43646,30864
32964,43701,30756
32844,43655,30844
32762,43705,30740
32708,43607,30813
32636,43671,30670
32528,43685,30670
32458,43695,30721
32400,43694,30682
32340,43753,30732
32292,43689,30656
32308,43655,30748
32292,43687,30629
32248,43708,30723
32212,43701,30565
32228,43596,30565
32184,43687,30530
32152,43710,30582
32103,43713,30637
32060,43701,30505
32041,43744,30559
32036,43665,30670
32096,43712,30553
32128,43663,30656
32176,43700,30530
32292,43613,30610
32317,43685,30508
32244,43740,30548
32178,43649,30463
32141,43745,30488
32154,43700,30453
32160,43751,30439
32192,43645,30452
32228,43712,30591
32288,43692,30390
32321,43665,30404
32340,43712,30419
32296,43755,30399
32269,43679,30541
32261,43745,30399
32272,43719,30509
32304,43757,30372
32348,43653,30455
32344,43732,30365
32396,43686,30463
32452,43719,30374
32456,43621,30499
32404,43730,30341
32405,43772,30473
32436,43753,30372
32444,43762,30478
32521,43735,30352
32536,43767,30460
32548,43655,30358
32584,43703,30455
32648,43695,30332
32672,43740,30369
32676,43676,30340
32664,43753,30528
32628,43801,30391
32612,43777,30400
32629,43737,30551
32708,43781,30445
32728,43687,30579
32824,43727,30464
32880,43701,30492
32828,43713,30501
32776,43783,30539
32746,43746,30536
32712,43727,30673
32712,43783,30561
32788,43753,30614
32880,43656,30564
32944,43764,30596
33008,43655,30616
33072,43655,30647
33052,43735,30781
32976,43748,30711
32893,43746,30719
32852,43700,30852
32829,43823,30801
32887,43708,30936
32929,43767,30883
32964,43740,31008
33012,43751,30914
33056,43751,30958
33044,43724,30932
32984,43703,30976
32908,43783,31124
32848,43799,31076
32848,43767,31220
32900,43811,31136
32972,43693,31223
33028,43759,31164
33064,43733,31303
33076,43677,31198
33032,43777,31322
32960,43749,31285
32924,43716,31407
32876,43783,31332
32873,43831,31445
32888,43783,31369
32888,43754,31465
32908,43780,31399
32989,43733,31516
33028,43726,31413
32984,43701,31396
32920,43764,31450
32884,43812,31432
32832,43792,31541
32764,43811,31493
32792,43777,31576
32870,43721,31505
32916,43783,31587
32972,43677,31513
33012,43756,31592
33004,43759,31472
32932,43757,31541
32828,43836,31461
32788,43728,31468
32789,43793,31603
32804,43783,31499
32820,43734,31580
32848,43696,31527
32892,43749,31495
32999,43739,31564
33014,43783,31445
33004,43711,31449
32933,43796,31558
32848,43839,31424
32836,43777,31462
32820,43743,31426
32868,43764,31442
32864,43679,31512
32912,43750,31438
32980,43750,31463
33040,43749,31394
33004,43716,31364
32948,43752,31412
32900,43829,31344
32892,43812,31361
32936,43783,31455
32984,43775,31332
33030,43803,31381
33052,43679,31286
33069,43744,31301
33048,43749,31422
32980,43783,31295
32900,43807,31375
32836,43801,31276
32852,43826,31300
32896,43789,31252
32940,43800,31215
32956,43732,31335
32975,43773,31237
33040,43759,31213
33040,43729,31197
32973,43797,31161
32901,43749,31188
32880,43815,31146
32900,43799,31212
32944,43783,31140
32972,43749,31189
33034,43796,31108
33096,43700,31122
33132,43743,31077
33128,43783,31158
33120,43749,31038
33056,43806,31158
32993,43828,31021
32964,43741,31030
32976,43796,30993
33044,43771,30957
33080,43719,30983
33148,43765,31101
33188,43735,30983
33144,43779,31048
33092,43767,30938
32980,43834,31047
32941,43840,30934
32913,43733,30975
32876,43783,30878
32876,43807,30937
32896,43799,30858
32944,43716,30905
32941,43748,30855
32888,43802,30852
32868,43796,30797
32864,43800,30752
32838,43836,30791
32856,43738,30748
32993,43783,30856
33148,43775,30725
33213,43773,30695
33264,43713,30745
33325,43781,30689
33320,43765,30784
33304,43773,30696
33272,43783,30799
33232,43805,30687
33232,43792,30788
33240,43813,30671
33260,43776,30764
33280,43794,30629
33316,43684,30625
33368,43748,30599
33344,43738,30674
33316,43790,30623
33276,43783,30714
33232,43804,30599
33184,43797,30668
33136,43777,30524
33120,43809,30564
33112,43783,30560
33141,43671,30648
33132,43685,30532
33049,43769,30668
32972,43780,30496
32905,43807,30492
32910,43807,30631
32900,43806,30464
32916,43783,30480
32945,43721,30612
32984,43805,30456
33064,43708,30471
33084,43759,30460
33088,43765,30468
33029,43753,30525
32996,43831,30463
32922,43841,30514
32888,43767,30402
32916,43799,30412
32980,43773,30492
33004,43793,30422
33092,43732,30449
33148,43751,30413
33113,43759,30463
33052,43821,30412
33000,43835,30564
32888,43759,30412
32732,43815,30471
32556,43793,30398
32224,43778,30463
31844,43766,30508
31576,43783,30416
31589,43744,30561
31756,43792,30445
32074,43726,30558
32616,43807,30456
33160,43793,30477
33753,43839,30439
34712,43809,30474
36080,43745,30457
37750,43781,30484
39688,43730,30480
41804,43782,30557
44048,43782,30498
46452,43791,30540
48672,43812,30528
50288,43813,30689
51432,43823,30558
52197,43805,30557
52271,43796,30723
51206,43799,30581
48852,43775,30629
45988,43783,30628
42988,43828,30613
39560,43876,30596
36429,43830,30628
34549,43873,30629
33616,43852,30655
33056,43863,30636
32756,43827,30646
32532,43748,30759
32356,43729,30700
32108,43783,30780
31732,43783,30667
31344,43820,30747
31052,43834,30692
30804,43820,30692
30656,43858,30849
30541,43852,30727
30480,43839,30817
30405,43748,30708
30398,43783,30805
30345,43743,30727
30296,43820,30759
30212,43813,30887
30168,43750,30752
30132,43834,30821
30092,43756,30764
30128,43753,30876
30198,43812,30796
30276,43783,30917
30357,43799,30798
30400,43783,30828
30416,43778,30774
30416,43844,30885
30444,43863,30773
30488,43775,30853
30520,43839,30756
30544,43797,30865
30593,43721,30734
30700,43828,30793
30764,43701,30709
30828,43777,30740
30840,43783,30719
30784,43829,30821
30760,43783,30738
30753,43856,30820
30756,43823,30723
30848,43841,30737
30936,43797,30653
31004,43717,30616
31092,43777,30649
31145,43767,30584
31148,43813,30689
31112,43783,30608
31096,43842,30597
31068,43833,30556
31068,43805,30511
31141,43852,30513
31220,43774,30481
31364,43716,30516
31444,43780,30500
31532,43781,30575
31528,43783,30485
31508,43805,30591
31481,43855,30459
31438,43885,30446
31428,43825,30407
31480,43757,30381
31568,43833,30436
31585,43805,30396
31652,43769,30518
31692,43797,30415
31736,43826,30516
31716,43761,30416
31712,43797,30465
31732,43852,30379
31772,43842,30369
31836,43728,30368
31888,43855,30372
31992,43751,30471
32100,43713,30340
32200,43743,30405
32212,43816,30294
32172,43824,30300
32136,43847,30277
32156,43885,30260
32216,43815,30359
32328,43783,30224
32390,43837,30215
32488,43812,30174
32600,43831,30121
32724,43741,30271
32824,43831,30101
32860,43783,30109
32876,43889,30212
32928,43911,30073
32984,43812,30057
33016,43844,30050
33056,43878,29999
33120,43843,29924
33236,43796,29986
33320,43847,29927
33336,43847,29917
33320,43856,29830
33292,43868,29774
33264,43911,29804
33311,43809,29783
33356,43871,29903
33404,43836,29748
33470,43839,29796
33492,43866,29684
33476,43788,29661
33397,43852,29765
33264,43863,29630
33104,43908,29640
32976,43858,29746
32852,43910,29626
32744,43863,29535
32664,43893,29637
32581,43868,29576
32468,43815,29496
32348,43857,29547
32204,43871,29479
32072,43796,29572
31932,43903,29517
31808,43892,29623
31713,43851,29487
31664,43908,29617
31636,43893,29464
31589,43844,29511
31600,43783,29399
31536,43815,29463
31468,43847,29392
31380,43879,29433
31293,43879,29509
31268,43881,29423
31272,43867,29573
31273,43855,29381
31332,43793,29433
31364,43854,29365
31396,43846,29426
31424,43863,29373
31380,43841,29496
31382,43783,29396
31348,43879,29575
31357,43889,29453
31400,43870,29543
31464,43796,29432
31521,43885,29447
31613,43748,29385
31660,43827,29337
31664,43823,29432
31648,43821,29343
31604,43847,29439
31584,43781,29401
31572,43910,29442
31552,43815,29361
31596,43862,29348
31630,43852,29432
31657,43808,29375
31713,43837,29488
31740,43840,29372
31744,43871,29487
31728,43825,29377
31682,43884,29493
31672,43865,29350
31660,43801,29434
31716,43775,29309
31744,43849,29412
31796,43823,29367
31856,43836,29447
31892,43852,29324
31848,43781,29270
31790,43855,29494
31740,43869,29336
31716,43823,29287
31708,43894,29332
31748,43881,29334
31840,43772,29498
31912,43780,29367
32016,43821,29428
32084,43804,29364
32108,43824,29479
32124,43837,29413
32068,43895,29541
32040,43894,29384
32056,43889,29468
32073,43879,29405
32104,43822,29487
32180,43869,29378
32233,43751,29457
32244,43823,29445
32236,43823,29605
32204,43783,29460
32208,43896,29437
32124,43815,29520
32148,43800,29466
32196,43820,29537
32232,43847,29628
32284,43823,29568
32364,43834,29557
32376,43844,29653
32356,43799,29614
32284,43860,29694
32285,43879,29681
32292,43885,29832
32276,43865,29743
32284,43846,29791
32284,43761,29920
32316,43870,29877
32357,43751,29853
32369,43748,29917
32381,43841,29924
32352,43865,29993
32284,43879,30145
32200,43877,30096
32192,43868,30180
32208,43843,30126
32276,43876,30186
32311,43862,30213
32408,43852,30260
32432,43853,30372
32408,43866,30261
32356,43892,30319
32308,43828,30304
32277,43830,30375
32280,43824,30359
32308,43860,30433
32368,43844,30405
32396,43868,30471
32460,43799,30471
32484,43741,30562
32420,43847,30539
32364,43857,30599
32300,43823,30551
32237,43919,30688
32218,43804,30607
32256,43879,30727
32332,43847,30630
32420,43865,30582
32496,43837,30733
32572,43799,30669
32580,43871,30788
32484,43815,30661
32404,43894,30680
32348,43888,30658
32332,43861,30660
32364,43901,30770
32432,43783,30677
32461,43860,30712
32549,43820,30703
32629,43861,30860
32592,43776,30752
32504,43877,30789
32360,43885,30770
32277,43884,30855
32213,43905,30751
32236,43861,30807
32244,43801,30756
32312,43852,30791
32452,43811,30784
32564,43847,30755
32612,43879,30804
32636,43901,30773
32616,43900,30804
32553,43903,30948
32444,43873,30796
32364,43823,30824
32333,43892,30983
32388,43869,30841
32480,43821,30892
32493,43769,30951
32460,43855,30938
32324,43865,30996
32296,43909,30932
32324,43929,30988
32424,43869,31042
32496,43821,31055
32488,43813,31164
32496,43847,31099
32564,43829,31193
32536,43821,31145
32508,43828,31207
32444,43847,31381
32376,43911,31329
32336,43919,31405
32332,43908,31413
32376,43814,31485
32488,43783,31681
32528,43859,31656
32540,43836,31839
32670,43832,31846
32692,43860,31937
32612,43876,31990
32536,43879,32105
32441,43877,32172
32404,43827,32329
32452,43908,32517
32496,43892,32589
32556,43847,32727
32674,43750,32806
32760,43832,32981
32812,43832,33077
32820,43895,33221
32780,43909,33394
32768,43847,33516
32776,43821,33720
32860,43877,33786
32928,43821,33983
33000,43878,34061
33100,43773,34244
33140,43830,34338
33093,43830,34500
33020,43849,34589
32877,43905,34733
32829,43908,34898
32872,43904,34997
32888,43799,35138
32921,43852,35237
32984,43829,35365
33057,43848,35472
33096,43757,35605
33032,43828,35699
32954,43838,35817
32885,43909,35904
32860,43833,36009
32858,43886,36103
32860,43848,36189
32864,43873,36293
32864,43869,36355
32900,43844,36464
32921,43842,36525
32916,43758,36615
32908,43783,36688
32881,43877,36743
32862,43879,36848
32844,43877,36901
32872,43848,36986
32872,43837,37058
32916,43828,37083
32965,43791,37170
32980,43710,37205
32981,43848,37287
32916,43767,37319
32880,43853,37400
32796,43858,37444
32792,43881,37505
32816,43863,37536
32840,43749,37606
32906,43813,37605
32960,43783,37697
32888,43824,37721
32732,43748,37781
32364,43840,37781
31896,43847,37860
31524,43840,37871
31476,43871,37937
31696,43864,37959
32156,43823,38001
32736,43757,38055
33405,43807,38028
34068,43783,38117
34952,43803,38089
36144,43764,38165
37576,43865,38183
39157,43851,38180
41080,43840,38220
43104,43860,38191
45176,43804,38257
47180,43817,38272
48816,43781,38288
49920,43783,38298
50384,43813,38308
50136,43843,38337
49000,43857,38286
46581,43877,38328
43660,43876,38334
40908,43871,38288
38104,43849,38336
35532,43813,38308
34176,43847,38337
33660,43748,38317
33328,43828,38331
33000,43816,38279
32680,43820,38348
32388,43815,38325
32152,43853,38300
31884,43821,38303
31640,43852,38285
31388,43834,38284
31204,43708,38241
31048,43783,38261
30840,43719,38212
30672,43844,38240
30552,43780,38198
30420,43845,38231
30325,43825,38212
30308,43847,38201
30309,43738,38182
30346,43793,38114
30432,43759,38124
30440,43799,38044
30414,43796,38071
30400,43809,37973
30368,43727,37980
30300,43759,37895
30320,43821,37908
30373,43830,37827
30444,43727,37856
30505,43783,37809
30596,43783,37769
30620,43687,37733
30572,43764,37678
30508,43828,37662
30496,43803,37645
30496,43829,37572
30476,43812,37571
30548,43812,37496
30616,43812,37509
30693,43732,37444
30776,43757,37441
30844,43740,37381
30852,43797,37373
30800,43788,37326
30752,43769,37318
30724,43783,37285
30768,43799,37225
30792,43811,37234
30840,43717,37212
30920,43765,37182
31028,43759,37151
31098,43756,37103
31144,43772,37100
31128,43760,37063
31072,43783,37063
31008,43809,37024
30992,43777,36989
31085,43815,36988
31204,43681,36942
31263,43744,36943
31341,43716,36908
31420,43754,36880
31404,43752,36857
31364,43759,36799
31309,43812,36807
31276,43835,36752
31296,43740,36732
31368,43736,36668
31404,43775,36648
31488,43733,36607
31588,43679,36559
31680,43751,36512
31724,43713,36476
31724,43753,36434
31688,43815,36381
31696,43812,36343
31728,43756,36273
31812,43744,36246
31878,43780,36180
31968,43653,36140
32064,43725,36076
32141,43740,36045
32188,43740,35983
32240,43681,35943
32216,43783,35876
32228,43719,35847
32240,43783,35778
32264,43772,35743
32344,43736,35683
32424,43636,35647
32524,43733,35587
32602,43636,35552
32664,43733,35492
32608,43751,35433
32580,43807,35402
32544,43735,35348
32538,43748,35319
32632,43757,35264
32712,43765,35236
32829,43669,35191
32908,43703,35168
32962,43687,35104
32952,43757,35103
32900,43670,35045
32808,43779,35037
32732,43780,34977
32665,43751,34958
32660,43783,34896
32616,43687,34844
32573,43719,34823
32572,43717,34800
32456,43728,34804
32264,43647,34753
32028,43743,34741
31820,43737,34692
31620,43772,34693
31437,43774,34617
31332,43655,34631
31240,43711,34588
31144,43692,34595
31096,43588,34505
31072,43711,34493
30948,43717,34500
30828,43740,34431
30692,43655,34420
30560,43741,34389
30492,43719,34372
30488,43749,34377
30504,43727,34357
30513,43607,34368
30560,43669,34319
30533,43560,34310
30488,43703,34264
30464,43607,34263
30418,43717,34240
30344,43708,34211
30333,43724,34213
30356,43700,34183
30364,43684,34205
30405,43662,34140
30485,43634,34159
30556,43607,34103
30532,43681,34104
30493,43594,34038
30458,43687,34015
30444,43687,34041
30493,43703,33966
30528,43693,33981
30576,43684,33912
30564,43677,33924
30656,43631,33848
30760,43620,33870
30749,43645,33772
30744,43639,33793
30749,43693,33709
30705,43701,33732
30652,43585,33628
30680,43670,33620
30728,43651,33549
30804,43620,33582
30852,43597,33477
30918,43628,33439
30938,43550,33493
30880,43644,33383
30868,43684,33351
30852,43668,33367
30906,43647,33283
31016,43559,33230
31044,43648,33220
31140,43527,33221
31204,43588,33157
31216,43580,33159
31192,43596,33117
31160,43613,33172
31116,43623,33063
31120,43585,33044
31117,43598,33031
31148,43639,33007
31188,43637,33004
31252,43527,32948
31332,43575,32912
31396,43560,32914
31389,43573,32882
31324,43637,32893
31262,43636,32884
31256,43607,32965
31268,43623,32890
31325,43500,32935
31392,43629,32877
31432,43592,32877
31508,43552,32841
31576,43591,32832
31553,43493,32927
31508,43604,32862
31416,43612,32932
31397,43652,32835
31388,43623,32844
31436,43597,32924
31509,43597,32848
31552,43551,32821
31596,43476,32862
31625,43564,32848
31618,43556,32887
31564,43578,32871
31517,43627,32943
31472,43639,32863
31460,43527,32889
31500,43588,32853
31568,43591,32869
31680,43496,32887
31804,43551,32844
31849,43527,32924
31805,43575,32860
31720,43561,32929
31684,43596,32855
31636,43585,32925
31628,43515,32852
31660,43607,32924
31688,43493,32813
31748,43551,32785
31832,43504,32797
31844,43567,32791
31810,43551,32879
31732,43559,32796
31668,43605,32832
31653,43621,32737
31676,43503,32735
31708,43518,32820
31736,43565,32719
31808,43527,32756
31908,43504,32688
31944,43555,32681
31968,43479,32679
31889,43567,32748
31816,43573,32655
31720,43596,32698
31718,43567,32647
31728,43485,32687
31816,43527,32636
31892,43548,32693
31980,43527,32591
32020,43502,32590
31968,43503,32596
31940,43580,32548
31908,43491,32604
31912,43558,32561
31921,43588,32584
31928,43559,32529
31960,43469,32580
31988,43524,32503
32056,43487,32561
32110,43460,32471
32104,43527,32505
32085,43515,32428
32024,43558,32482
31952,43544,32423
31944,43580,32388
31956,43452,32383
31970,43515,32340
32000,43484,32391
32104,43500,32327
32124,43413,32353
32128,43488,32277
32080,43557,32228
32056,43547,32279
32024,43527,32223
32000,43413,32272
32046,43552,32180
32096,43527,32135
32132,43423,32100
32160,43473,32159
32158,43457,32097
32168,43463,32092
32142,43501,32058
32116,43551,32034
32080,43455,32075
32048,43519,31961
32064,43493,32015
32080,43509,31908
32140,43393,31884
32156,43461,31916
32172,43437,31841
32128,43487,31865
32044,43481,31837
31992,43527,31855
31941,43511,31772
31900,43489,31841
31856,43501,31751
31874,43399,31707
32012,43447,31790
32157,43460,31713
32236,43431,31666
32292,43364,31734
32313,43460,31676
32312,43485,31751
32284,43394,31664
32285,43428,31713
32328,43453,31609
32400,43421,31611
32434,43453,31623
32554,43420,31601
32636,43364,31676
32629,43460,31589
32584,43463,31636
32496,43381,31609
32436,43472,31614
32420,43480,31564
32456,43460,31677
32480,43452,31575
32524,43372,31577
32612,43399,31629
32612,43386,31597
32544,43434,31701
32437,43404,31612
32325,43457,31712
32244,43444,31631
32228,43428,31696
32256,43450,31617
32292,43333,31709
32320,43421,31599
32388,43371,31628
32376,43364,31703
32320,43377,31649
32244,43384,31669
32216,43444,31692
32186,43439,31652
32217,43352,31751
32244,43423,31670
32276,43388,31696
32296,43412,31639
32340,43279,31684
32365,43372,31695
32398,43367,31679
32364,43385,31783
32321,43333,31671
32348,43437,31662
32349,43439,31689
32368,43332,31676
32417,43380,31740
32420,43367,31679
32376,43335,31676
32208,43300,31678
31864,43375,31791
31424,43391,31702
30912,43399,31790
30700,43361,31704
30820,43428,31795
31153,43319,31692
31736,43364,31727
32389,43271,31692
32996,43300,31776
33752,43343,31687
34884,43349,31721
36324,43367,31673
37976,43412,31764
39872,43413,31692
42076,43364,31758
44472,43360,31680
46872,43349,31741
48857,43335,31663
50236,43300,31679
51224,43316,31636
51572,43335,31628
51048,43372,31628
49220,43381,31733
46432,43404,31660
43512,43420,31657
40353,43352,31614
37028,43383,31656
34708,43359,31618
33604,43319,31626
33028,43263,31729
32604,43366,31623
32274,43391,31637
32016,43412,31645
31718,43332,31603
31340,43315,31653
30980,43356,31668
30740,43356,31631
30556,43332,31677
30441,43316,31792
30332,43292,31725
30212,43225,31765
30088,43347,31760
29945,43397,31792
29845,43397,31942
29824,43339,31878
29864,43256,31936
29936,43316,31940
30032,43332,32041
30106,43239,32026
30144,43207,32114
30133,43313,32101
30092,43312,32245
30049,43356,32215
30076,43335,32327
30100,43367,32291
30144,43239,32399
30244,43322,32380
30304,43271,32486
30390,43237,32480
30468,43225,32566
30478,43301,32551
30432,43335,32628
30408,43343,32637
30400,43346,32697
30420,43285,32799
30528,43300,32785
30612,43264,32854
30668,43302,32863
30764,43266,32941
30860,43191,32963
30897,43278,33069
30876,43287,33036
30856,43241,33124
30836,43340,33086
30864,43315,33149
30917,43265,33112
30961,43309,33132
31032,43244,33159
31148,43239,33208
31200,43225,33220
31220,43236,33303
31160,43247,33249
31120,43325,33308
31152,43327,33277
31210,43204,33332
31308,43285,33302
31393,43263,33348
31428,43220,33345
31489,43261,33428
31576,43159,33409
31572,43245,33477
31549,43255,33447
31536,43293,33452
31560,43297,33495
31588,43284,33500
31670,43247,33554
31765,43271,33530
31821,43159,33543
31896,43207,33628
31956,43204,33596
31992,43251,33653
31993,43287,33620
31956,43215,33689
31966,43217,33657
31992,43271,33713
32080,43238,33681
32192,43215,33737
32340,43252,33694
32448,43136,33728
32552,43214,33692
32560,43220,33757
32596,43271,33732
32560,43265,33776
32578,43261,33759
32661,43215,33741
32764,43260,33783
32831,43238,33737
32920,43239,33751
33034,43200,33799
33088,43135,33767
33096,43216,33797
33076,43230,33756
33052,43237,33823
33102,43279,33761
33153,43181,33764
33204,43233,33821
33252,43196,33797
33288,43232,33830
33397,43215,33772
33460,43143,33799
33424,43167,33776
33356,43225,33795
33324,43224,33781
33268,43180,33816
33229,43253,33791
33232,43143,33828
33220,43205,33797
33156,43175,33836
33116,43150,33788
33012,43196,33815
32864,43197,33769
32684,43204,33767
32448,43143,33748
32240,43226,33744
32104,43197,33738
32034,43183,33736
31940,43174,33773
31882,43101,33731
31860,43177,33752
31824,43070,33704
31716,43099,33700
31581,43180,33671
31460,43175,33708
31381,43072,33645
31345,43207,33697
31380,43103,33626
31424,43060,33616
31412,43079,33581
31496,43106,33613
31508,43077,33576
31468,43151,33621
31412,43095,33560
31308,43159,33582
31296,43162,33537
31292,43148,33588
31396,43169,33505
31464,43116,33529
31556,43113,33487
31628,43092,33417
31660,43074,33493
31648,43126,33479
31572,43041,33508
31542,43132,33444
31528,43148,33442
31540,43064,33495
31588,43100,33428
31621,43129,33429
31640,43079,33399
31724,43025,33431
31800,43004,33396
31788,43075,33439
31756,43061,33370
31676,43140,33353
31649,43066,33369
31644,43101,33360
31700,43015,33404
31744,43047,33324
31858,43060,33325
31964,42988,33345
32034,43056,33287
32016,43079,33311
31980,43036,33273
31926,43028,33300
31893,43095,33252
31865,43015,33240
31924,43092,33315
31992,42987,33231
32036,43044,33243
32140,43015,33204
32204,42993,33241
32220,43047,33186
32172,42979,33159
32096,43052,33185
32124,43047,33158
32100,43076,33157
32124,43061,33224
32188,43063,33175
32260,42998,33211
32368,42951,33132
32396,42918,33150
32407,43005,33127
32356,43000,33142
32328,43057,33204
32286,43056,33175
32312,42972,33220
32408,43034,33180
32496,42997,33215
32521,43015,33207
32604,42999,33217
32646,42959,33231
32624,42989,33276
32552,43004,33351
32456,43015,33321
32377,43047,33348
32344,42982,33352
32400,43007,33415
32538,42962,33474
32656,42991,33493
32725,42968,33600
32752,42988,33580
32733,42902,33671
32644,42993,33677
32584,43015,33764
32500,43025,33784
32456,42983,33860
32480,42986,33882
32546,42962,33965
32620,42943,33969
32685,42912,34051
32728,42959,34081
32694,42866,34171
32616,42975,34181
32576,42972,34249
32560,43012,34271
32556,42927,34328
32600,42956,34372
32648,42964,34439
32672,42959,34468
32720,42861,34528
32728,42909,34551
32696,42892,34614
32620,42924,34646
32540,42969,34702
32544,42945,34712
32572,42951,34757
32614,42940,34796
32654,42927,34837
32720,42859,34868
32760,42917,34897
32765,42855,34937
32728,42915,34965
32652,42887,35005
32628,42967,35020
32608,42909,35052
32644,42951,35079
32669,42925,35100
32754,42943,35137
32792,42841,35148
32817,42877,35166
32836,42823,35200
32852,42913,35219
32832,42849,35244
32780,42929,35259
32736,42839,35281
32718,42897,35292
32772,42911,35304
32849,42881,35340
32868,42845,35343
32900,42875,35359
32972,42864,35370
32960,42878,35372
32856,42852,35399
32816,42886,35400
32828,42892,35407
32817,42845,35428
32860,42887,35429
32878,42871,35436
32924,42842,35463
32984,42857,35463
32984,42840,35463
32960,42830,35482
32912,42899,35493
32824,42807,35492
32784,42887,35507
32816,42822,35520
32798,42806,35509
32780,42853,35504
32816,42831,35525
32908,42839,35493
32960,42752,35532
32936,42829,35543
32892,42867,35528
32836,42832,35567
32797,42879,35542
32785,42847,35567
32836,42883,35556
32852,42780,35552
32868,42812,35567
32916,42782,35559
32904,42769,35569
32830,42837,35564
32782,42759,35575
32744,42853,35556
32760,42844,35580
32804,42861,35578
32904,42759,35559
33024,42823,35558
33116,42791,35544
33176,42799,35559
33244,42725,35540
33224,42805,35543
33124,42797,35528
33016,42851,35520
32948,42777,35526
32992,42832,35508
33089,42819,35503
33144,42782,35476
33188,42797,35492
33277,42684,35484
33260,42753,35452
33242,42743,35455
33177,42825,35444
33128,42759,35449
33096,42826,35436
33044,42788,35429
33032,42810,35444
33052,42773,35429
33092,42685,35412
33120,42751,35422
33152,42747,35407
33140,42740,35417
33046,42791,35414
32896,42759,35408
32876,42803,35404
32884,42781,35412
32924,42759,35421
32958,42689,35417
32972,42759,35413
33040,42677,35420
33080,42721,35418
33034,42724,35428
33008,42724,35420
32944,42708,35427
32900,42774,35445
32856,42750,35437
32912,42751,35433
33008,42740,35457
33068,42701,35455
33140,42649,35453
33176,42725,35460
33100,42733,35463
33052,42665,35479
33005,42687,35468
32920,42734,35481
32788,42767,35469
32614,42728,35503
32385,42649,35512
32024,42721,35510
31690,42679,35502
31630,42669,35528
31748,42711,35538
31996,42630,35532
32472,42716,35556
33020,42757,35559
33568,42703,35566
34360,42696,35566
35552,42716,35591
37000,42647,35585
38732,42655,35599
40640,42652,35591
42688,42671,35604
44904,42704,35617
47076,42708,35584
48832,42712,35613
50024,42708,35620
50840,42692,35596
51016,42677,35621
50310,42656,35613
48356,42657,35623
45680,42668,35609
42808,42680,35629
39610,42692,35615
36464,42752,35628
34484,42679,35615
33636,42729,35629
33232,42617,35608
32936,42725,35623
32732,42680,35613
32516,42655,35612
32320,42628,35596
31912,42573,35608
31488,42712,35591
31185,42617,35604
30941,42700,35588
30780,42629,35608
30662,42631,35600
30592,42668,35604
30552,42631,35625
30528,42645,35620
30516,42551,35612
30428,42631,35645
30377,42625,35640
30372,42704,35652
30356,42596,35655
30380,42671,35660
30396,42671,35660
30450,42556,35649
30542,42615,35684
30644,42540,35676
30702,42620,35689
30688,42640,35684
30648,42654,35703
30649,42662,35700
30653,42641,35728
30692,42655,35741
30764,42623,35730
30844,42628,35772
30876,42596,35798
30969,42495,35782
30980,42519,35817
31000,42607,35844
31008,42585,35847
30988,42663,35884
30980,42598,35902
31008,42614,35905
31060,42631,35921
31156,42593,35914
31172,42527,35959
31216,42549,35965
31276,42580,35960
31316,42543,35975
31304,42604,35975
31292,42598,36013
31264,42556,35998
31297,42589,35962
31392,42617,36002
31436,42581,36008
31493,42541,36001
31572,42564,36004
31596,42486,35992
31616,42552,35974
31584,42487,35999
31532,42541,35988
31544,42584,35953
31548,42614,35973
31612,42516,35957
31700,42559,35925
31780,42527,35936
31872,42498,35896
31904,42551,35916
31892,42489,35872
31856,42551,35864
31826,42604,35890
31840,42581,35858
31866,42553,35836
31940,42577,35812
32021,42535,35768
32080,42533,35773
32216,42503,35724
32308,42484,35679
32352,42540,35679
32321,42479,35633
32293,42567,35588
32288,42541,35553
32324,42580,35516
32417,42576,35479
32496,42519,35417
32524,42461,35369
32628,42503,35305
32752,42497,35268
32780,42492,35205
32804,42560,35175
32788,42565,35065
32797,42571,35049
32857,42473,34989
32980,42532,34945
33057,42503,34876
33132,42535,34818
33176,42415,34747
33232,42483,34695
33252,42487,34617
33252,42448,34557
33224,42559,34501
33224,42479,34412
33265,42525,34361
33304,42494,34285
33332,42486,34234
33360,42464,34156
33408,42399,34109
33406,42481,34031
33360,42503,33957
33232,42436,33895
33024,42503,33807
32900,42503,33761
32816,42478,33697
32680,42527,33693
32608,42452,33584
32529,42411,33565
32500,42452,33484
32366,42432,33456
32196,42399,33388
32058,42503,33344
31933,42447,33272
31856,42488,33239
31821,42503,33221
31833,42468,33215
31860,42435,33132
31806,42415,33114
31700,42420,33073
31585,42388,33079
31444,42454,33039
31332,42459,33029
31276,42451,33014
31293,42359,32997
31280,42487,33029
31276,42448,33010
31344,42439,33013
31448,42356,33091
31552,42394,33055
31634,42361,33071
31660,42428,33167
31560,42436,33181
31400,42436,33260
31396,42420,33287
31444,42439,33347
31428,42420,33439
31412,42391,33492
31469,42361,33584
31648,42388,33653
31772,42328,33743
31804,42388,33879
31800,42404,33953
31797,42309,34084
31716,42387,34183
31648,42405,34293
31680,42420,34421
31684,42383,34575
31740,42345,34687
31820,42366,34818
31916,42343,34951
31956,42277,35103
31932,42343,35234
31936,42396,35364
31940,42389,35532
32028,42323,35664
32052,42405,35783
32053,42359,35946
32089,42320,36086
32092,42352,36188
32080,42339,36328
32076,42324,36501
32032,42324,36580
32096,42407,36780
32068,42311,36877
32074,42356,36956
32164,42375,37127
32208,42276,37229
32276,42317,37312
32364,42312,37428
32396,42247,37576
32354,42311,37661
32305,42357,37685
32260,42356,37863
32244,42317,37934
32300,42287,38040
32353,42336,38083
32384,42311,38177
32452,42316,38204
32496,42239,38329
32536,42300,38389
32504,42216,38407
32404,42337,38504
32364,42343,38592
32380,42332,38567
32440,42372,38743
32504,42255,38791
32566,42308,38831
32601,42283,38884
32700,42300,38857
32724,42215,39002
32679,42288,39067
32644,42332,39087
32604,42278,39138
32584,42342,39101
32624,42319,39273
32684,42327,39228
32735,42312,39334
32796,42303,39277
32896,42247,39444
32901,42265,39463
32870,42268,39510
32850,42333,39508
32820,42263,39468
32770,42327,39608
32757,42299,39597
32790,42324,39540
32794,42228,39658
32880,42260,39671
33004,42268,39675
33076,42228,39684
33044,42273,39596
32954,42277,39736
32860,42332,39709
32840,42327,39624
32805,42243,39734
32824,42295,39729
32828,42281,39641
32864,42242,39758
32940,42277,39713
32997,42202,39620
32952,42258,39740
32908,42300,39719
32870,42304,39717
32824,42294,39589
32808,42318,39687
32868,42212,39665
32924,42271,39548
32992,42237,39628
33048,42263,39556
33020,42247,39589
32958,42239,39635
32900,42309,39608
32808,42314,39583
32760,42233,39559
32764,42277,39584
32804,42287,39477
32848,42204,39556
32917,42223,39500
32988,42247,39424
32992,42213,39448
32884,42231,39438
32781,42286,39358
32740,42255,39324
32688,42281,39388
32768,42220,39381
32832,42262,39313
32872,42276,39230
32909,42247,39167
33005,42213,39250
33044,42261,39192
33006,42180,39047
32932,42273,39126
32858,42254,39103
32756,42311,38976
32653,42284,39028
32684,42289,38977
32704,42207,38847
32728,42229,38919
32776,42207,38828
32772,42247,38852
32736,42277,38852
32680,42209,38809
32676,42285,38771
32645,42278,38677
32679,42309,38753
32804,42277,38704
32896,42244,38701
32924,42176,38692
32940,42209,38564
32996,42175,38601
33008,42241,38654
32984,42298,38626
32966,42321,38573
32948,42237,38573
32952,42289,38524
32950,42247,38543
32950,42281,38565
32936,42247,38535
32993,42247,38487
33029,42217,38468
32988,42261,38525
32912,42271,38497
32808,42323,38433
32696,42311,38444
32664,42317,38492
32664,42221,38456
32644,42260,38367
32616,42205,38352
32640,42233,38424
32623,42178,38389
32620,42288,38304
32556,42297,38263
32522,42247,38338
32508,42246,38305
32520,42293,38236
32552,42313,38172
32592,42271,38220
32620,42247,38216
32669,42277,38189
32684,42199,38083
32608,42261,38113
32552,42331,38081
32458,42308,38054
32408,42253,37953
32394,42262,37948
32425,42276,37929
32500,42285,37932
32562,42281,37894
32632,42279,37784
32673,42213,37802
32622,42285,37766
32458,42294,37684
32224,42341,37684
31956,42349,37673
31638,42317,37593
31320,42340,37618
31149,42284,37548
31248,42292,37453
31628,42264,37500
32144,42244,37436
32689,42319,37328
33184,42327,37375
33832,42368,37318
34948,42367,37241
36364,42375,37169
37896,42351,37156
39680,42311,37136
41648,42300,37051
43632,42301,36999
45604,42320,37024
47292,42336,36964
48600,42353,36881
49320,42375,36826
49228,42389,36839
48384,42384,36769
46552,42388,36708
43984,42381,36664
41216,42391,36624
38244,42388,36544
35392,42384,36556
33477,42385,36500
32646,42460,36421
32312,42391,36420
32152,42436,36380
31988,42455,36311
31736,42444,36249
31608,42375,36220
31496,42375,36133
31424,42364,36127
31168,42404,36052
30862,42371,36047
30569,42441,35964
30376,42447,35965
30258,42439,35893
30120,42463,35888
30032,42457,35821
29972,42432,35816
29968,42391,35764
29996,42415,35756
30008,42425,35692
30024,42431,35695
29965,42440,35652
29934,42493,35585
29886,42399,35568
29924,42470,35514
29985,42397,35512
29991,42461,35447
30036,42436,35447
30092,42408,35408
30180,42440,35380
30204,42478,35349
30156,42437,35290
30160,42479,35284
30146,42521,35263
30137,42440,35248
30196,42459,35206
30252,42471,35201
30364,42375,35178
30436,42479,35161
30476,42380,35132
30438,42490,35119
30369,42503,35093
30324,42500,35073
30304,42565,35056
30365,42485,35028
30421,42527,35010
30520,42469,34982
30596,42534,34963
30652,42496,34934
30680,42484,34905
30676,42548,34901
30632,42463,34856
30648,42564,34823
30636,42559,34815
30668,42461,34769
30752,42569,34772
30808,42557,34724
30888,42556,34695
30966,42503,34679
31004,42541,34660
30968,42572,34617
30920,42556,34605
30868,42607,34557
30824,42601,34553
30880,42624,34503
30944,42598,34480
31004,42484,34439
31132,42591,34438
31260,42486,34388
31292,42580,34383
31256,42605,34327
31200,42610,34311
31220,42671,34272
31252,42617,34268
31290,42647,34207
31340,42631,34199
31376,42618,34142
31484,42592,34119
31597,42631,34072
31658,42625,34049
31636,42631,33961
31636,42693,33956
31644,42716,33900
31645,42695,33865
31676,42702,33839
31798,42682,33783
31900,42669,33748
32020,42692,33735
32128,42657,33647
32180,42653,33590
32193,42700,33560
32172,42660,33487
32153,42724,33477
32145,42660,33396
32200,42734,33382
32277,42732,33287
32368,42708,33260
32428,42743,33149
32524,42700,33086
32560,42693,33077
32568,42663,32974
32544,42789,32964
32468,42742,32859
32406,42783,32850
32396,42772,32725
32436,42801,32688
32464,42701,32577
32476,42733,32519
32452,42772,32532
32420,42686,32372
32252,42759,32309
32026,42727,32254
31848,42823,32167
31644,42831,32215
31476,42815,32070
31396,42834,32031
31301,42783,31925
31232,42772,31856
31201,42789,31889
31144,42786,31724
31040,42831,31657
30932,42773,31617
30820,42845,31540
30688,42871,31501
30580,42819,31399
30558,42821,31473
30518,42853,31295
30528,42815,31239
30600,42822,31293
30636,42755,31165
30604,42820,31169
30544,42887,31024
30440,42796,30957
30384,42877,30973
30400,42887,30880
30464,42850,30914
30508,42860,30792
30568,42861,30745
30628,42756,30662
30624,42823,30607
30560,42876,30665
30520,42887,30513
30504,42929,30453
30552,42847,30433
30596,42892,30349
30600,42855,30336
30695,42912,30421
30772,42819,30274
30852,42863,30319
30930,42784,30167
30916,42887,30224
30876,42884,30088
30860,42920,30116
30889,42952,29988
30912,42933,30068
30945,42927,29946
30984,42917,30004
31048,42925,29860
31110,42815,29836
31176,42906,29799
31192,42917,29870
31168,42971,29703
31124,42968,29652
31132,42941,29678
31164,42987,29604
31229,42885,29601
31321,42929,29574
31396,42839,29559
31480,42845,29502
31536,42916,29553
31524,42911,29526
31469,42961,29516
31420,43015,29468
31414,43005,29396
31458,42964,29460
31550,43000,29391
31592,42884,29404
31637,42936,29389
31708,42975,29498
31744,42949,29345
31712,42943,29289
31648,42932,29464
31660,43007,29278
31644,42981,29288
31620,43012,29329
31692,42961,29245
31740,42996,29221
31804,43005,29361
31896,42969,29201
31900,42943,29153
31860,43015,29173
31828,43037,29156
31788,43037,29191
31792,43013,29187
31824,43030,29136
31904,42983,29271
31968,43007,29160
32024,42980,29109
32076,43000,29056
32112,43037,29205
32096,43045,29088
32120,43085,29057
32100,43076,29167
32068,43105,29091
32072,43015,29076
32088,43065,29055
32144,43092,29015
32202,42962,29066
32276,43015,28996
32316,43069,29007
32268,43063,29121
32229,43120,29060
32220,43116,29017
32252,43090,29018
32289,43117,29141
32308,43106,29007
32348,43087,29000
32420,43103,28965
32500,43014,28975
32500,43029,28985
32444,43072,29076
32400,43118,28997
32320,43163,28974
32332,43157,28887
32364,43124,29019
32436,43149,28953
32520,43135,29084
32550,43088,28935
32628,43071,28951
32664,43105,28975
32669,43143,28993
32630,43079,28959
32580,43189,28893
32564,43175,29069
32564,43197,28943
32564,43175,28964
32584,43174,28885
32655,43172,29006
32748,43124,28967
32800,43121,28992
32769,43183,28964
32748,43186,28996
32732,43225,28984
32717,43212,29076
32728,43221,28969
32788,43168,28999
32856,43166,28977
32908,43140,28966
32972,43135,29151
33024,43143,29044
32988,43128,28988
32964,43182,29076
32896,43201,29087
32900,43223,29031
32912,43160,29157
32968,43172,29138
33000,43189,29104
33030,43115,29132
33120,43124,29124
33164,43164,29303
33072,43111,29203
33028,43175,29237
33000,43228,29211
33012,43126,29175
33038,43199,29297
33053,43156,29284
33028,43141,29281
33076,43157,29288
33152,43164,29251
33152,43142,29452
33124,43143,29343
33125,43199,29311
33118,43194,29479
33188,43205,29359
33288,43228,29519
33376,43124,29428
33492,43181,29537
33604,43143,29455
33697,43117,29487
33756,43148,29570
33736,43204,29508
33732,43207,29624
33764,43127,29510
33744,43151,29506
33788,43213,29629
33829,43180,29556
33869,43143,29661
33940,43191,29588
33992,43165,29516
34016,43199,29573
33960,43156,29588
33945,43189,29699
33872,43173,29596
33788,43226,29575
33804,43263,29729
33884,43237,29676
33944,43215,29729
33949,43215,29676
34012,43195,29635
34064,43205,29741
34052,43221,29750
34004,43260,29693
33965,43260,29844
33960,43244,29756
33964,43251,29796
34015,43271,29876
34080,43236,29956
34188,43236,29841
34272,43207,29887
34262,43219,29925
34252,43247,30005
34188,43286,29988
34092,43271,30028
34080,43303,30013
34118,43295,30065
34156,43215,30213
34228,43253,30098
34304,43271,30128
34356,43175,30317
34372,43231,30215
34344,43301,30308
34288,43311,30357
34176,43292,30383
33984,43343,30454
33748,43284,30439
33424,43310,30441
33072,43311,30647
32860,43305,30584
32920,43205,30713
33156,43279,30676
33584,43301,30826
34128,43359,30744
34641,43293,30789
35240,43355,30864
36209,43357,30889
37568,43360,31028
39188,43328,30936
41049,43297,30964
43140,43324,31116
45344,43300,31087
47656,43343,31212
49700,43356,31170
51148,43368,31278
52168,43380,31193
52704,43367,31261
52524,43375,31239
51244,43371,31397
48832,43375,31340
46064,43361,31383
43152,43397,31376
39900,43422,31394
37180,43428,31552
35744,43396,31484
35068,43431,31581
34624,43437,31556
34344,43463,31558
34140,43423,31559
33936,43393,31612
33716,43423,31624
33388,43409,31653
33038,43457,31726
32741,43421,31710
32484,43477,31802
32288,43458,31744
32208,43495,31782
32172,43453,31916
32176,43397,31884
32196,43356,31892
32224,43399,31913
32220,43455,32037
32172,43390,32000
32116,43468,31986
32082,43509,32107
32052,43439,32068
32057,43465,32073
32116,43466,32204
32129,43470,32128
32216,43489,32156
32312,43373,32228
32412,43455,32176
32421,43505,32196
32436,43430,32279
32352,43527,32212
32348,43525,32229
32376,43554,32365
32413,43519,32286
32512,43444,32324
32613,43484,32358
32732,43456,32327
32837,43520,32329
32841,43501,32424
32847,43550,32364
32848,43527,32336
32800,43596,32404
32801,43480,32386
32832,43527,32349
32888,43559,32426
32972,43551,32383
33088,43514,32390
33182,43517,32372
33206,43569,32371
33188,43508,32396
33196,43591,32322
33228,43501,32295
33300,43628,32337
33376,43500,32314
33439,43580,32341
33561,43556,32279
33636,43541,32307
33692,43487,32239
33655,43612,32319
33640,43620,32233
33610,43612,32205
33572,43660,32300
33616,43572,32231
33672,43615,32236
33705,43605,32183
33784,43631,32165
33885,43608,32170
33948,43527,32150
33912,43636,32214
33864,43644,32178
33820,43564,32256
33812,43696,32161
33900,43639,32197
34001,43677,32125
34069,43655,32192
34180,43628,32110
34292,43652,32089
34376,43623,32153
34368,43665,32108
34368,43681,32085
34336,43655,32093
34324,43743,32062
34324,43680,32067
34340,43711,32056
34404,43692,32174
34548,43614,32039
34704,43623,32024
34825,43692,32143
34836,43684,32038
34764,43727,32002
34752,43756,32067
34780,43751,32036
34856,43774,32028
34912,43687,32001
34980,43748,32033
35100,43709,32024
35234,43741,32019
35292,43716,32009
35300,43772,32052
35268,43713,32078
35245,43774,32028
35200,43823,32036
35208,43717,32172
35238,43777,32056
35262,43756,32091
35324,43783,32204
35368,43759,32100
35344,43744,32131
35220,43799,32262
35061,43827,32181
34936,43837,32169
34797,43833,32247
34684,43805,32245
34580,43825,32340
34492,43774,32297
34413,43791,32384
34420,43783,32340
34312,43777,32408
34132,43836,32349
33964,43838,32340
33831,43796,32412
33744,43860,32420
33640,43833,32509
33596,43871,32473
33640,43805,32564
33680,43809,32501
33752,43799,32542
33776,43839,32513
33756,43857,32519
33694,43868,32628
33609,43783,32596
33568,43853,32672
33560,43887,32601
33636,43848,32621
33660,43879,32653
33720,43768,32695
33774,43812,32736
33760,43815,32761
33740,43865,32764
33728,43877,32871
33685,43919,32813
33674,43824,32809
33696,43889,32855
33712,43822,32889
33736,43807,32957
33788,43869,32935
33882,43871,32972
33921,43895,33092
33868,43860,33044
33788,43916,33103
33806,43911,33108
33856,43957,33119
33806,43886,33220
33840,43908,33223
33880,43940,33270
33976,43919,33260
34028,43823,33327
34008,43903,33352
33960,43901,33466
33912,43973,33425
33852,43973,33484
33814,43956,33587
33836,43972,33585
33904,43869,33636
33980,43929,33667
34016,43941,33701
34096,43887,33788
34096,43911,33772
34068,43932,33823
34012,43974,33924
33972,43984,33897
34000,43988,33955
34032,44002,34055
34048,43930,34029
34061,43956,34076
34166,43975,34165
34272,43884,34149
34308,43943,34197
34256,43995,34207
34188,44007,34302
34106,44007,34309
34060,44039,34324
34100,44003,34386
34144,44009,34407
34256,43911,34433
34332,43925,34471
34405,43964,34521
34384,43935,34533
34312,44030,34572
34256,43962,34589
34232,44036,34610
34240,44077,34685
34272,44061,34669
34356,44020,34695
34436,44034,34714
34468,44004,34772
34485,44023,34756
34468,44017,34774
34412,44061,34778
34368,44071,34855
34340,44063,34823
34289,44110,34838
34272,44077,34904
34278,44021,34876
34324,43988,34885
34384,44023,34887
34448,44052,34953
34456,44039,34917
34436,44033,34934
34388,44085,34958
34284,44105,34969
34232,44111,34956
34252,44116,34988
34292,44021,35007
34316,44103,34989
34376,44053,35028
34445,44081,35007
34432,44015,34977
34364,44073,35037
34260,44148,35044
34128,44115,35063
34060,44093,35095
34140,44039,35059
34280,44091,35076
34332,44030,35079
34352,44077,35093
34384,44061,35111
34376,44076,35105
34356,44088,35148
34318,44129,35137
34280,44180,35124
34284,44125,35172
34312,44135,35156
34360,44116,35152
34356,44116,35195
34360,44079,35199
34446,44094,35188
34492,44039,35184
34476,44127,35212
34420,44092,35232
34380,44165,35211
34408,44151,35198
34328,44167,35241
34340,44199,35212
34336,44162,35221
34348,44151,35200
34397,44055,35252
34436,44135,35213
34396,44183,35205
34364,44180,35266
34300,44227,35218
34208,44211,35217
34224,44216,35205
34272,44183,35231
34280,44203,35248
34370,44166,35207
34402,44070,35209
34384,44085,35188
34336,44167,35248
34296,44140,35225
34236,44180,35206
34236,44199,35215
34220,44142,35197
34216,44164,35241
34216,44188,35221
34284,44212,35220
34392,44111,35232
34444,44167,35227
34442,44191,35225
34424,44231,35244
34428,44271,35244
34452,44167,35238
34460,44221,35224
34516,44197,35280
34580,44212,35255
34640,44185,35246
34713,44209,35236
34716,44235,35260
34673,44231,35278
34560,44285,35275
34436,44269,35245
34384,44311,35249
34352,44263,35244
34352,44272,35225
34316,44180,35258
34332,44223,35233
34338,44157,35237
34310,44260,35214
34296,44256,35212
34216,44295,35186
34116,44217,35225
34080,44293,35175
34088,44295,35188
34144,44295,35145
34197,44276,35119
34240,44222,35159
34321,44260,35112
34328,44250,35077
34296,44267,35089
34208,44321,35061
34144,44287,35100
34080,44311,35028
34060,44291,35005
34053,44263,35016
34060,44279,34988
34148,44278,34956
34228,44185,34996
34232,44247,34943
34158,44309,34959
34112,44338,34898
34048,44272,34901
33996,44333,34864
33976,44295,34854
34004,44343,34887
34056,44239,34845
34048,44265,34820
33993,44286,34805
33816,44199,34800
33412,44295,34847
32908,44341,34772
32508,44261,34788
32456,44324,34783
32700,44287,34783
33192,44319,34767
33852,44316,34789
34448,44228,34756
35076,44287,34740
35978,44252,34797
37112,44290,34737
38476,44333,34742
40148,44380,34788
42080,44367,34733
44224,44328,34748
46565,44348,34803
48688,44320,34756
50212,44324,34749
51252,44289,34799
51712,44313,34759
51512,44333,34774
50168,44374,34757
47724,44404,34820
45044,44381,34791
42252,44385,34820
39116,44401,34780
36520,44385,34783
35164,44295,34837
34533,44277,34797
34100,44272,34820
33756,44295,34807
33412,44375,34856
33096,44340,34807
32800,44383,34820
32472,44421,34847
32176,44383,34820
31940,44383,34844
31760,44356,34841
31617,44358,34899
31469,44287,34860
31333,44359,34887
31212,44413,34901
31132,44391,34924
31072,44420,34951
31048,44391,34971
31076,44391,34980
31052,44361,34972
31116,44361,35036
31156,44329,35005
31172,44288,35014
31182,44295,35079
31109,44376,35060
31084,44423,35037
31093,44303,35078
31148,44381,35079
31204,44389,35147
31277,44285,35108
31390,44319,35125
31484,44244,35189
31557,44332,35172
31544,44380,35188
31529,44395,35210
31516,44381,35220
31472,44313,35230
31440,44365,35273
31476,44404,35256
31568,44375,35254
31716,44319,35308
31864,44291,35293
31973,44348,35316
31980,44376,35312
31942,44383,35308
31916,44397,35357
31893,44391,35332
31989,44404,35335
32096,44289,35332
32156,44357,35327
32238,44367,35337
32224,44329,35375
32224,44319,35356
32184,44361,35357
32173,44317,35362
32196,44309,35388
32172,44395,35368
32144,44412,35335
32144,44387,35392
32200,44277,35380
32320,44276,35348
32425,44343,35372
32484,44364,35380
32488,44319,35399
32414,44375,35396
32340,44335,35381
32261,44359,35369
32220,44340,35416
32220,44355,35380
32276,44290,35372
32276,44332,35409
32360,44367,35380
32416,44285,35385
32488,44356,35364
32464,44423,35359
32397,44321,35389
32264,44397,35364
32276,44423,35360
32420,44325,35333
32528,44381,35335
32704,44340,35312
32800,44372,35268
32796,44367,35311
32712,44375,35323
32596,44388,35301
32464,44402,35330
32440,44439,35313
32520,44400,35335
32572,44396,35330
32636,44360,35335
32768,44391,35400
32925,44269,35399
32957,44348,35444
32968,44412,35465
33082,44343,35508
33196,44413,35589
33192,44397,35639
33148,44416,35719
33076,44313,35768
32952,44384,35847
32974,44348,35930
33080,44332,36021
33105,44380,36121
33088,44400,36222
33004,44404,36343
32912,44407,36437
32780,44405,36555
32728,44420,36671
32660,44397,36796
32560,44396,36910
32480,44333,37029
32476,44369,37169
32376,44367,37289
32196,44380,37435
32040,44389,37568
31864,44381,37673
31720,44401,37818
31724,44388,37965
31724,44391,38098
31696,44383,38190
31704,44335,38334
31692,44359,38407
31592,44309,38599
31444,44368,38671
31268,44355,38833
31140,44423,38940
31072,44313,38981
31112,44383,39144
31120,44343,39218
31096,44383,39366
31176,44247,39449
31244,44327,39505
31174,44319,39609
31084,44383,39628
31036,44277,39753
30996,44378,39840
30964,44364,39837
30964,44380,39988
30976,44268,40048
30974,44337,40028
31028,44341,40153
31062,44325,40135
31072,44327,40257
31028,44295,40268
31001,44289,40263
30964,44356,40248
30964,44391,40396
30985,44359,40394
31024,44325,40364
31108,44351,40479
31204,44225,40477
31272,44295,40404
31272,44285,40532
31228,44317,40468
31233,44351,40573
31228,44367,40551
31228,44259,40588
31212,44324,40540
31212,44295,40572
31183,44341,40516
31220,44221,40564
31277,44263,40613
31344,44209,40596
31364,44335,40521
31288,44332,40505
31304,44332,40581
31284,44358,40597
31268,44251,40468
31306,44294,40582
31376,44333,40542
31425,44279,40567
31480,44292,40449
31518,44236,40564
31434,44295,40445
31284,44295,40493
31208,44355,40516
31208,44247,40412
31272,44295,40485
31344,44327,40455
31416,44292,40351
31496,44245,40429
31532,44244,40417
31516,44266,40410
31524,44257,40292
31481,44281,40372
31460,44263,40351
31432,44309,40255
31452,44271,40311
31456,44303,40236
31472,44193,40244
31560,44221,40242
31684,44236,40132
31716,44212,40216
31689,44295,40176
31652,44244,40085
31608,44289,40148
31546,44316,40103
31508,44295,39988
31538,44283,40022
31610,44261,39908
31664,44263,39972
31728,44147,39884
31712,44224,39911
31632,44271,39862
31604,44197,39744
31504,44271,39815
31480,44311,39701
31456,44295,39744
31544,44167,39700
31623,44258,39655
31648,44208,39622
31660,44143,39552
31686,44255,39527
31600,44251,39430
31532,44241,39448
31472,44295,39407
31480,44222,39303
31504,44260,39324
31533,44228,39240
31544,44247,39244
31564,44164,39143
31612,44204,39175
31640,44193,39090
31606,44245,39077
31584,44167,39039
31519,44247,38945
31492,44228,38961
31497,44256,38852
31488,44141,38871
31516,44215,38787
31548,44199,38786
31604,44124,38696
31614,44215,38690
31588,44143,38641
31552,44223,38532
31480,44263,38567
31400,44157,38509
31404,44239,38452
31424,44213,38406
31508,44192,38358
31585,44161,38317
31644,44076,38227
31622,44212,38219
31532,44119,38158
31432,44228,38104
31372,44221,38041
31312,44213,37961
31316,44133,37940
31320,44228,37842
31316,44215,37812
31388,44142,37716
31444,44076,37697
31456,44167,37560
31444,44135,37564
31368,44136,37503
31294,44206,37410
31260,44204,37374
31204,44225,37291
31168,44103,37223
31164,44183,37144
31168,44141,37070
31200,44167,37000
31224,44085,36937
31220,44167,36855
31212,44180,36793
31220,44221,36714
31237,44113,36630
31280,44103,36569
31292,44167,36497
31368,44143,36423
31466,44065,36340
31576,44127,36269
31576,44164,36209
31520,44159,36121
31485,44167,36052
31400,44204,35983
31350,44116,35910
31388,44132,35839
31486,44164,35764
31604,44063,35687
31692,44116,35630
31798,44132,35540
31832,44036,35468
31744,44140,35406
31688,44177,35333
31660,44165,35271
31561,44151,35199
31521,44106,35127
31496,44139,35055
31484,44142,35024
31432,44119,34924
31393,44079,34875
31328,44114,34852
31256,44132,34735
31285,44153,34679
31272,44096,34638
31284,44135,34573
31312,44157,34510
31306,44124,34477
31288,44039,34396
31336,44054,34332
31424,44077,34295
31454,44078,34196
31449,44061,34148
31464,44143,34124
31500,44065,34044
31548,44129,34017
31578,44111,33920
31552,44072,33857
31508,44039,33821
31510,44092,33774
31544,43965,33710
31524,44055,33644
31464,44064,33663
31396,44060,33559
31272,44129,33522
31073,44115,33516
30825,44078,33410
30496,44084,33368
30176,44086,33287
30100,44039,33264
30304,44027,33215
30640,44063,33196
31156,44084,33120
31732,44091,33156
32328,44071,32997
33204,44089,32962
34508,44055,33020
36008,44060,32892
37744,44039,32921
39754,44022,32788
41872,44029,32716
43960,44028,32772
45932,44039,32647
47536,44052,32577
48636,44084,32538
49080,44087,32538
48780,44062,32459
47589,44065,32485
45372,44052,32342
42616,44048,32381
39764,44033,32260
36644,44052,32252
33941,44095,32144
32385,44012,32101
31824,44071,32084
31536,44078,32028
31360,44063,31952
31116,43979,31985
30916,44063,31865
30864,43919,31888
30742,44007,31766
30517,44001,31783
30200,43937,31644
29888,43959,31573
29668,44063,31553
29566,44039,31513
29440,44060,31561
29388,43948,31481
29348,44006,31397
29313,43935,31395
29372,43999,31340
29388,44007,31431
29412,43950,31341
29357,44007,31393
29344,44039,31239
29392,43935,31209
29448,44004,31238
29496,43956,31156
29508,44007,31199
29565,43876,31159
29624,43943,31171
29632,43980,31154
29597,43975,31125
29590,43959,31132
29632,43933,31156
29632,43971,31076
29632,43911,31023
29680,43951,31172
29793,43935,31046
29886,43925,31061
29968,43904,31019
30024,43959,31007
30025,43933,31030
29948,43901,31022
29884,43979,31098
29833,43972,31013
29824,43911,31108
29864,43975,30999
29934,43941,30980
30028,43909,30925
30190,43821,30984
30271,43943,30924
30261,43933,30864
30192,43973,30996
30176,43903,30866
30169,43948,30820
30188,43929,30842
30240,43900,30819
30308,43937,30772
30412,43909,30816
30528,43844,30726
30568,43821,30676
30536,43905,30690
30480,43897,30660
30468,43847,30777
30488,43937,30633
30564,43876,30613
30632,43865,30598
30749,43921,30704
30860,43887,30591
30968,43783,30604
30940,43865,30512
30884,43869,30572
30880,43935,30463
30884,43932,30418
30884,43901,30480
30948,43917,30402
30992,43892,30484
31080,43876,30413
31168,43838,30471
31312,43871,30309
31384,43815,30316
31406,43887,30289
31444,43911,30245
31508,43868,30367
31560,43911,30245
31628,43871,30214
31720,43892,30141
31824,43869,30124
31946,43843,30108
32002,43813,30076
31993,43860,30168
31920,43775,29996
31829,43868,29972
31737,43892,30076
31720,43860,29916
31788,43796,29968
31884,43775,29829
31992,43847,29929
32104,43812,29742
32281,43778,29655
32304,43839,29665
32276,43766,29574
32180,43860,29594
32088,43847,29512
32062,43864,29598
32100,43853,29444
32180,43824,29501
32208,43821,29444
32276,43772,29421
32304,43812,29341
32224,43704,29255
32079,43804,29306
31922,43823,29207
31758,43815,29255
31628,43853,29144
31552,43807,29179
31424,43807,29092
31308,43776,29131
31216,43711,29052
31136,43775,29113
31021,43751,29009
30868,43700,29103
30760,43763,28986
30638,43788,29083
30612,43815,29033
30580,43811,29100
30560,43727,29013
30525,43748,28943
30470,43703,29089
30456,43743,28986
30422,43743,29134
30336,43661,28967
30280,43759,28916
30208,43745,29000
30156,43633,28943
30184,43727,29132
30284,43728,28969
30392,43705,28957
30508,43572,29056
30606,43623,29042
30640,43684,28975
30604,43678,28903
30520,43733,29088
30478,43732,28992
30480,43717,28984
30484,43689,28959
30488,43685,28992
30484,43672,28905
30524,43642,29096
30584,43660,28948
30628,43559,28881
30664,43665,29085
30644,43655,28938
30632,43700,28878
30604,43598,29087
30564,43668,28944
30540,43652,28908
30568,43645,28933
30636,43645,28877
30764,43621,28948
30844,43527,28877
30872,43588,28949
30845,43648,28877
30824,43645,29014
30836,43668,28942
30844,43623,28935
30889,43527,28916
30970,43607,28872
31068,43575,28956
31171,43592,28926
31216,43615,29084
31200,43621,28933
31160,43645,29014
31085,43589,28897
31060,43524,28999
31112,43606,28949
31208,43569,28899
31304,43606,28934
31465,43508,28906
31568,43472,28845
31604,43527,28987
31652,43552,28916
31612,43599,29009
31585,43596,28878
31564,43600,28934
31624,43576,28871
31673,43527,28938
31728,43569,28871
31820,43527,28856
31879,43433,28856
31864,43516,28806
31728,43527,28868
31680,43554,28809
31600,43527,28908
31578,43575,28881
31592,43562,28959
31656,43452,28836
31725,43519,28901
31790,43474,28844
31876,43460,28788
31908,43410,28928
31860,43525,28889
31784,43494,28878
31693,43468,28878
31660,43527,28871
31704,43491,28957
31728,43519,28859
31792,43437,28829
31840,43484,28855
31884,43396,28967
31876,43455,28934
31820,43454,29012
31764,43507,28925
31752,43521,28876
31764,43413,29023
31744,43471,28991
31728,43413,29021
31740,43460,28972
31704,43438,28933
31712,43431,28996
31685,43417,28996
31685,43439,29049
31710,43444,29060
31660,43391,29053
31644,43421,29061
31660,43424,29231
31700,43383,29127
31756,43429,29217
31865,43357,29140
31972,43367,29088
32012,43364,29220
31973,43413,29186
31941,43436,29276
31896,43396,29191
31872,43429,29349
31832,43391,29191
31820,43380,29180
31900,43388,29270
32006,43367,29242
32140,43253,29343
32196,43271,29261
32156,43364,29327
32140,43375,29277
32064,43364,29434
31974,43399,29317
31988,43384,29271
32040,43297,29326
32100,43343,29290
32144,43325,29341
32148,43311,29350
32097,43316,29381
32008,43335,29439
31932,43343,29319
31917,43352,29393
31932,43353,29404
31968,43325,29309
32068,43302,29342
32160,43284,29383
32248,43264,29377
32316,43241,29417
32280,43289,29348
32172,43247,29344
32112,43315,29472
32080,43295,29383
32066,43204,29416
32128,43292,29367
32228,43276,29359
32256,43245,29481
32278,43218,29380
32344,43237,29460
32349,43247,29386
32320,43225,29512
32320,43247,29360
32253,43183,29317
32149,43298,29415
32108,43183,29380
32092,43236,29489
32100,43217,29420
32124,43186,29505
32164,43180,29440
32136,43199,29569
32124,43202,29454
32144,43215,29525
32177,43216,29476
32196,43161,29598
32244,43236,29474
32335,43225,29613
32376,43177,29502
32404,43172,29436
32417,43143,29553
32408,43180,29525
32373,43137,29530
32340,43201,29541
32380,43195,29542
32440,43174,29652
32452,43135,29541
32420,43205,29660
32424,43185,29520
32468,43111,29607
32528,43045,29531
32588,43143,29637
32542,43151,29534
32412,43148,29536
32321,43124,29492
32252,43185,29457
32212,43095,29524
32196,43115,29503
32216,43061,29521
32256,43095,29596
32284,43077,29479
32312,43077,29463
32276,43044,29481
32242,43151,29433
32216,43110,29508
32232,43113,29437
32218,43111,29528
32272,43076,29476
32320,43105,29493
32372,43085,29413
32388,43079,29444
32400,43078,29598
32369,43015,29459
32296,43106,29572
32242,43129,29476
32208,43135,29578
32220,43055,29437
32332,42997,29395
32392,43060,29463
32480,43037,29421
32568,43010,29588
32536,43015,29479
32421,43015,29584
32208,43092,29481
31968,43104,29586
31720,43047,29480
31352,42991,29565
31000,43012,29447
30961,42994,29605
31188,43013,29508
31542,42996,29459
32124,42999,29643
32696,43015,29540
33236,43039,29600
34040,43039,29540
35240,43039,29516
36716,43028,29564
38441,43015,29644
40404,42998,29606
42600,42980,29604
44968,42964,29753
47220,42973,29676
48864,43004,29703
49932,43035,29668
50605,43039,29648
50584,43045,29694
49680,43037,29668
47612,43015,29765
44884,43010,29759
42096,43015,29892
38989,43015,29778
36044,43015,29755
34276,43015,29924
33472,43073,29797
33024,42997,29805
32672,43044,29904
32420,43000,29879
32196,42975,30000
31963,43012,29865
31700,42975,29899
31400,42946,29956
31136,42991,29908
30856,42991,29967
30608,42988,30057
30472,43036,29989
30359,43005,30044
30304,42975,30068
30244,42925,30049
30268,42999,30078
30260,42852,30259
30212,42919,30156
30188,42971,30188
30129,42872,30326
30113,42988,30245
30168,42961,30211
30212,42933,30351
30276,42983,30313
30400,42945,30341
30560,42839,30316
30697,42940,30369
30788,42933,30402
30788,42941,30511
30766,42855,30418
30706,42961,30471
30636,42962,30549
30658,42849,30527
30695,42927,30599
30776,42917,30573
30840,42911,30585
30944,42887,30648
31073,42845,30652
31184,42820,30726
31160,42927,30734
31104,42852,30860
31068,42951,30813
31056,42934,30882
31152,42826,30821
31276,42940,30845
31420,42823,30997
31532,42864,30908
31584,42853,30932
31632,42847,30983
31620,42923,31007
31572,42861,31151
31584,42924,31085
31546,42916,31184
31536,42887,31105
31580,42916,31148
31680,42823,31238
31788,42863,31204
31928,42847,31285
31922,42832,31271
31900,42896,31367
31836,42929,31325
31760,42825,31423
31801,42901,31409
31837,42868,31428
31840,42902,31516
31936,42806,31452
32048,42844,31480
32184,42821,31569
32246,42860,31565
32204,42801,31558
32124,42884,31592
32064,42887,31597
32085,42918,31712
32132,42879,31655
32168,42870,31773
32224,42868,31674
32324,42836,31688
32432,42829,31800
32452,42791,31712
32468,42876,31729
32436,42879,31837
32428,42861,31763
32440,42911,31815
32528,42836,31764
32637,42852,31844
32725,42863,31778
32837,42744,31816
32948,42815,31768
33020,42735,31773
33005,42870,31792
32948,42804,31765
32884,42881,31773
32925,42856,31797
33044,42855,31792
33158,42870,31797
33264,42785,31760
33312,42821,31788
33380,42789,31764
33352,42804,31840
33312,42724,31780
33256,42880,31856
33225,42804,31776
33216,42852,31833
33220,42831,31748
33256,42865,31716
33316,42788,31724
33392,42757,31792
33392,42719,31727
33274,42799,31740
33084,42823,31697
32930,42840,31738
32824,42836,31701
32684,42861,31692
32566,42822,31740
32472,42820,31646
32417,42790,31639
32388,42811,31740
32324,42801,31645
32172,42708,31711
32008,42759,31623
31856,42820,31689
31724,42812,31601
31616,42850,31571
31588,42729,31660
31584,42796,31594
31589,42783,31656
31618,42789,31547
31688,42789,31617
31717,42791,31550
31712,42775,31605
31668,42749,31540
31621,42802,31548
31580,42823,31644
31558,42759,31544
31540,42781,31541
31572,42756,31525
31652,42759,31529
31732,42741,31608
31709,42727,31549
31668,42795,31532
31634,42708,31648
31592,42785,31552
31581,42695,31609
31585,42811,31551
31592,42685,31643
31652,42742,31561
31772,42725,31574
31894,42700,31524
31868,42676,31544
31800,42776,31543
31660,42735,31615
31576,42756,31564
31592,42759,31630
31684,42793,31557
31816,42669,31544
31885,42719,31661
32028,42732,31604
32104,42719,31596
32160,42714,31668
32112,42765,31618
32052,42775,31612
32004,42759,31649
31928,42759,31631
31936,42719,31700
32020,42769,31634
32050,42693,31721
32074,42644,31651
32096,42701,31696
32126,42685,31632
32084,42759,31617
32032,42773,31636
32016,42757,31651
32036,42748,31703
32032,42775,31670
32144,42685,31776
32252,42711,31666
32328,42668,31679
32392,42701,31762
32380,42695,31703
32324,42701,31725
32301,42775,31716
32264,42679,31780
32236,42759,31748
32252,42724,31845
32288,42745,31781
32289,42741,31847
32396,42631,31804
32493,42695,31880
32572,42687,31822
32564,42749,31896
32484,42679,31844
32412,42759,31959
32396,42741,31900
32436,42775,31990
32448,42727,31935
32469,42692,31953
32545,42716,31949
32648,42619,32021
32664,42704,31990
32568,42719,32069
32484,42756,32021
32424,42783,32101
32393,42727,32109
32473,42734,32108
32576,42717,32133
32594,42672,32156
32612,42727,32261
32629,42716,32211
32594,42645,32292
32520,42733,32251
32440,42741,32324
32372,42733,32293
32320,42775,32361
32400,42705,32308
32417,42720,32324
32436,42759,32415
32501,42664,32375
32557,42700,32421
32570,42669,32372
32544,42757,32467
32518,42780,32420
32492,42749,32469
32484,42748,32428
32508,42759,32507
32504,42740,32452
32577,42750,32472
32660,42741,32450
32700,42717,32454
32680,42711,32534
32581,42764,32495
32516,42695,32553
32504,42781,32493
32508,42764,32514
32548,42791,32484
32600,42745,32496
32633,42733,32522
32668,42743,32477
32700,42660,32484
32684,42720,32550
32632,42726,32493
32584,42799,32493
32520,42785,32533
32492,42767,32481
32484,42788,32543
32468,42766,32469
32512,42692,32487
32584,42730,32471
32661,42727,32487
32652,42743,32460
32520,42759,32461
32404,42773,32446
32360,42772,32445
32396,42818,32508
32465,42813,32429
32492,42805,32407
32556,42694,32431
32616,42672,32398
32664,42754,32453
32685,42744,32391
32648,42744,32434
32552,42772,32405
32448,42830,32424
32362,42825,32367
32408,42759,32391
32428,42749,32359
32420,42709,32358
32469,42767,32351
32486,42751,32340
32432,42759,32421
32324,42780,32328
32240,42797,32324
32216,42853,32381
32216,42815,32320
32276,42832,32383
32381,42800,32284
32520,42797,32276
32644,42814,32356
32684,42811,32258
32664,42836,32229
32621,42859,32287
32584,42883,32244
32576,42887,32259
32592,42887,32188
32624,42884,32182
32624,42828,32152
32656,42887,32184
32724,42894,32144
32692,42797,32204
32660,42879,32147
32592,42913,32201
32552,42911,32099
32524,42974,32090
32508,42876,32158
32512,42941,32111
32602,42919,32164
32664,42853,32089
32734,42884,32046
32760,42876,32149
32668,42931,32079
32532,42935,32148
32408,42958,32072
32380,43015,32153
32384,43005,32069
32428,42913,32166
32516,42973,32095
32608,42918,32167
32644,42972,32100
32628,42903,32144
32529,42957,32079
32460,42962,32154
32388,42961,32126
32352,43047,32185
32364,42957,32114
32416,43005,32127
32452,42996,32215
32544,42980,32180
32668,42913,32263
32740,43007,32196
32712,42919,32281
32636,43012,32233
32532,43003,32327
32430,43079,32271
32360,42985,32359
32244,43045,32284
32137,43047,32309
31848,42988,32409
31508,43012,32383
31236,42999,32396
31152,43033,32414
31344,43075,32404
31770,43015,32437
32352,43088,32505
32972,43078,32486
33608,43089,32528
34565,43103,32564
35856,43009,32588
37304,43037,32698
39016,43029,32689
40837,43050,32748
42692,43074,32868
44764,43109,32856
46796,43125,32948
48344,43112,32961
49408,43108,33071
50056,43106,33124
49956,43100,33269
48748,43095,33300
46396,43100,33422
43616,43126,33492
40732,43156,33618
37624,43172,33737
35088,43143,33897
33780,43212,33999
33268,43108,34176
32988,43171,34278
32725,43152,34433
32412,43143,34604
32176,43163,34756
31892,43129,34956
31508,43143,35108
31169,43132,35305
30865,43220,35487
30648,43196,35682
30549,43199,35866
30488,43164,36068
30424,43196,36279
30385,43152,36473
30429,43007,36631
30386,43191,36880
30360,43103,37041
30356,43193,37276
30316,43239,37467
30308,43233,37652
30368,43120,37845
30456,43204,38030
30472,43183,38148
30552,43092,38384
30636,43199,38500
30620,43109,38715
30536,43212,38876
30496,43221,39001
30464,43201,39181
30456,43271,39295
30512,43146,39460
30576,43231,39570
30668,43204,39724
30784,43092,39830
30884,43213,39964
30952,43183,40031
30928,43223,40167
30881,43236,40268
30853,43293,40368
30884,43220,40364
30976,43183,40530
31036,43165,40583
31108,43239,40668
31212,43213,40648
31325,43200,40807
31348,43213,40888
31313,43164,40793
31316,43302,40929
31343,43317,40957
31324,43319,41029
31353,43231,41020
31436,43214,40945
31508,43271,41080
31644,43238,41092
31712,43260,41127
31720,43188,41029
31704,43283,41126
31668,43301,41144
31676,43300,41172
31704,43318,41161
31808,43305,41111
31926,43295,41181
32000,43293,41185
32080,43260,41094
32156,43269,41191
32172,43280,41207
32151,43307,41113
32100,43352,41092
32128,43367,41146
32160,43351,41151
32178,43342,41055
32264,43269,41191
32352,43247,41179
32484,43231,41175
32508,43246,41056
32516,43311,41192
32532,43372,41164
32489,43393,41223
32488,43407,41135
32528,43399,41084
32600,43387,41189
32660,43375,41214
32720,43341,41181
32804,43311,41108
32892,43350,41181
32960,43367,41216
32973,43397,41087
32976,43414,41178
32980,43437,41204
32996,43431,41047
33056,43423,41148
33144,43415,41172
33220,43407,41069
33248,43336,41031
33294,43338,41095
33264,43372,41108
33196,43368,40916
33148,43447,40998
33132,43412,41004
33148,43399,40895
33156,43446,40912
33200,43373,40847
33208,43384,40855
33204,43388,40703
33176,43396,40637
33068,43399,40640
32958,43423,40552
32796,43438,40549
32681,43463,40477
32564,43399,40341
32484,43476,40357
32412,43471,40304
32312,43463,40129
32262,43375,40165
32188,43384,40076
32068,43391,40030
31845,43471,39974
31628,43452,39904
31488,43436,39734
31356,43449,39681
31265,43504,39685
31232,43485,39636
31217,43469,39543
31190,43453,39431
31180,43454,39423
31125,43455,39391
31056,43490,39233
30972,43461,39239
30904,43479,39140
30888,43432,39116
30909,43491,39061
30896,43455,38919
30920,43428,38912
30956,43462,38816
31008,43447,38784
30965,43383,38736
30920,43436,38583
30860,43501,38572
30824,43492,38458
30805,43527,38437
30888,43527,38378
30896,43437,38253
30924,43399,38216
30988,43381,38151
31020,43364,38023
31005,43399,38013
30980,43463,37925
30996,43439,37853
30999,43479,37712
30992,43433,37684
31008,43492,37620
31062,43431,37504
31104,43479,37461
31185,43455,37376
31280,43496,37308
31288,43508,37196
31256,43527,37140
31160,43559,37061
31084,43567,36984
31072,43557,36885
31158,43564,36822
31209,43524,36748
31256,43525,36650
31288,43419,36577
31372,43495,36487
31397,43508,36399
31376,43527,36334
31392,43557,36256
31392,43556,36173
31410,43567,36103
31390,43557,36035
31412,43543,35952
31448,43527,35880
31520,43508,35800
31564,43487,35734
31612,43516,35686
31574,43527,35604
31480,43481,35540
31424,43607,35500
31382,43543,35415
31412,43597,35365
31484,43583,35309
31556,43578,35277
31622,43561,35200
31656,43565,35157
31672,43509,35124
31636,43510,35068
31605,43616,35036
31572,43599,34983
31584,43565,34977
31600,43599,34917
31649,43572,34909
31708,43567,34832
31836,43516,34823
31893,43565,34777
31860,43591,34768
31794,43599,34743
31740,43524,34725
31692,43625,34697
31682,43620,34668
31724,43592,34679
31796,43585,34637
31888,43559,34645
31898,43597,34597
31926,43488,34598
31934,43574,34551
31896,43604,34577
31824,43623,34513
31792,43620,34501
31761,43623,34495
31812,43614,34468
31852,43597,34484
31892,43623,34425
31924,43613,34457
31972,43604,34392
31932,43586,34382
31852,43628,34375
31716,43647,34348
31640,43655,34374
31597,43649,34303
31692,43572,34316
31848,43652,34292
31908,43655,34265
31956,43639,34292
32076,43631,34233
32072,43642,34229
31992,43569,34208
31936,43597,34191
31920,43671,34196
31892,43684,34120
31929,43679,34116
31980,43655,34140
32045,43636,34071
32124,43606,34103
32164,43564,34021
32184,43665,34021
32128,43693,33950
32052,43687,33927
31984,43629,33897
31952,43703,33861
31956,43655,33857
32028,43711,33789
32100,43649,33805
32204,43614,33713
32237,43589,33684
32194,43583,33680
32136,43604,33601
32078,43705,33546
32072,43719,33572
32078,43669,33472
32140,43639,33432
32188,43621,33452
32240,43615,33380
32284,43679,33372
32336,43665,33305
32288,43676,33271
32177,43704,33229
32069,43713,33149
32012,43725,33143
32004,43725,33188
32058,43700,33070
32101,43728,33079
32064,43720,32978
32112,43685,32959
32180,43693,32940
32248,43727,32908
32212,43751,32861
32280,43733,32823
32340,43757,32879
32380,43769,32808
32432,43759,32745
32456,43751,32703
32544,43732,32759
32664,43716,32645
32725,43705,32620
32745,43705,32611
32724,43711,32587
32688,43743,32580
32640,43760,32551
32584,43764,32501
32564,43749,32445
32592,43783,32496
32606,43676,32407
32640,43733,32467
32657,43729,32351
32604,43730,32324
32564,43759,32312
32516,43748,32249
32424,43835,32249
32372,43783,32204
32393,43719,32276
32444,43710,32183
32512,43775,32233
32602,43753,32135
32653,43735,32176
32612,43735,32068
32540,43727,32077
32484,43820,32017
32484,43839,31984
32468,43831,32092
32536,43708,31952
32560,43796,31924
32592,43751,32032
32724,43759,31884
32762,43751,31855
32725,43767,31957
32696,43714,31884
32596,43741,31829
32592,43775,31775
32572,43839,31878
32621,43798,31726
32672,43748,31707
32720,43737,31817
32785,43721,31684
32824,43703,31680
32736,43774,31757
32520,43799,31593
32192,43783,31597
31772,43815,31682
31366,43815,31584
31229,43783,31569
31364,43741,31556
31720,43695,31532
32308,43724,31503
32992,43725,31460
33600,43768,31582
34372,43793,31424
35517,43791,31407
36912,43813,31520
38600,43799,31359
40568,43855,31377
42709,43844,31381
44992,43828,31345
47284,43791,31325
49260,43773,31284
50476,43804,31384
51124,43820,31244
51124,43855,31223
50288,43869,31297
48232,43855,31197
45476,43876,31239
42584,43868,31140
39428,43869,31112
36376,43860,31068
34460,43768,31133
33636,43775,31015
33215,43878,30990
32812,43886,31101
32484,43820,30914
32296,43815,30908
32164,43885,30920
31992,43796,30965
31752,43860,30903
31519,43847,30798
31287,43840,30844
31068,43845,30869
30932,43872,30759
30776,43900,30762
30620,43908,30909
30564,43797,30804
30592,43783,30833
30682,43756,30793
30745,43857,30805
30760,43772,30809
30824,43826,30888
30796,43774,30797
30790,43764,30834
30724,43826,30878
30676,43815,30821
30660,43890,30797
30732,43871,30928
30784,43847,30855
30832,43832,30943
30876,43813,30806
31008,43813,30884
31134,43821,30853
31160,43855,30996
31141,43852,30884
31136,43804,30889
31128,43905,30989
31184,43892,30921
31244,43887,30949
31284,43869,30885
31424,43845,30983
31566,43842,31057
31588,43861,30953
31589,43813,31053
31588,43878,30959
31592,43881,30991
31580,43876,30957
31648,43900,30974
31748,43887,31076
31844,43783,31007
31960,43828,31109
32040,43834,30977
32072,43836,30960
32064,43871,31103
31993,43892,30956
31940,43882,30995
31921,43807,30932
31912,43847,30980
31973,43856,31009
32056,43824,30991
32180,43861,30968
32276,43803,31068
32288,43804,30957
32296,43879,30936
32312,43900,31065
32316,43906,30927
32324,43901,30928
32440,43887,31015
32600,43872,30980
32685,43868,30927
32782,43844,30951
32872,43855,31065
32892,43841,30940
32896,43879,30910
32828,43887,31052
32777,43900,30906
32806,43892,30913
32884,43921,30855
32976,43893,30894
33072,43807,30832
33225,43783,30821
33327,43860,30883
33372,43863,30836
33400,43884,30908
33425,43931,30758
33432,43957,30761
33482,43919,30724
33524,43850,30813
33630,43900,30712
33708,43878,30795
33788,43897,30637
33896,43837,30564
33932,43801,30559
33924,43900,30551
33948,43911,30505
33996,43918,30452
34048,43903,30436
34120,43948,30496
34196,43939,30431
34200,43927,30513
34268,43847,30364
34364,43824,30437
34384,43880,30324
34360,43895,30389
34292,43911,30207
34222,43863,30224
34180,43951,30196
34141,43953,30171
34096,43943,30305
34036,43896,30145
34004,43813,30145
33958,43841,30248
33785,43815,30044
33616,43871,30108
33424,43852,30072
33274,43876,30052
33136,43952,30080
33068,43932,30173
33008,43887,30000
32916,43932,30029
32888,43911,30098
32844,43847,30063
32796,43855,30146
32672,43922,30001
32532,43937,30071
32432,43951,30047
32400,43940,30172
32381,43927,30067
32420,43911,30054
32448,43900,30018
32494,43842,30100
32553,43890,30100
32580,43827,30071
32600,43911,30047
32540,43932,30095
32456,43935,30190
32464,43933,30116
32512,43847,30095
32561,43823,30095
32592,43831,30264
32644,43813,30110
32676,43783,30116
32692,43884,30127
32664,43901,30128
32684,43903,30243
32668,43903,30084
32656,43949,30188
32692,43881,30095
32776,43831,30126
32820,43836,30021
32852,43879,30054
32860,43860,30071
32892,43858,30031
32908,43812,29996
32864,43875,30045
32800,43949,30160
32796,43951,30039
32788,43941,30012
32828,43828,29965
32868,43873,29970
32936,43781,30082
33012,43844,29997
33009,43815,29945
32960,43818,29980
32929,43911,29970
32924,43919,30036
32948,43935,29884
33088,43903,29921
33192,43887,30075
33269,43893,29876
33320,43871,29925
33368,43855,29922
33368,43853,29956
33332,43879,29981
33304,43879,29866
33276,43962,29896
33256,43893,30013
33216,43900,29932
33252,43902,29956
33292,43899,29892
33396,43877,29924
33532,43866,29911
33576,43877,29878
33556,43902,29917
33536,43911,29941
33440,43932,29836
33421,43927,29912
33476,43903,29975
33592,43903,29908
33632,43884,29912
33684,43869,29887
33724,43863,29940
33732,43871,29901
33704,43877,30010
33676,43940,29868
33608,43957,29961
33580,43856,29842
33597,43868,29908
33624,43830,29932
33677,43820,29900
33736,43879,29862
33748,43871,30039
33761,43876,29864
33752,43895,29871
33701,43916,30004
33672,43932,29908
33656,43935,29866
33684,43927,30016
33664,43902,29868
33700,43893,29888
33736,43868,29811
33768,43863,29885
33768,43863,29981
33704,43884,29815
33632,43917,29860
33622,43925,29989
33580,43924,29865
33622,43911,29881
33696,43821,29849
33736,43877,29829
33832,43887,29813
33880,43889,29868
33920,43902,29812
33864,43925,29838
33828,43911,29755
33785,43910,29774
33778,43847,29807
33808,43865,29765
33872,43815,29853
33860,43813,29728
33866,43815,29749
33852,43799,29692
33880,43804,29724
33840,43901,29756
33780,43908,29713
33736,43917,29887
33708,43926,29712
33716,43897,29780
33748,43879,29676
33760,43873,29733
33812,43852,29799
33852,43876,29710
33864,43892,29679
33892,43900,29769
33888,43880,29688
33804,43853,29796
33760,43911,29757
33724,43900,29835
33728,43878,29737
33725,43876,29773
33790,43847,29696
33856,43822,29751
33864,43812,29669
33777,43900,29717
33753,43911,29687
33708,43919,29840
33676,43911,29726
33712,43892,29853
33760,43867,29684
33817,43871,29672
33884,43847,29844
33952,43826,29710
33984,43845,29769
33904,43871,29628
33828,43918,29775
33764,43933,29650
33704,43935,29677
33652,43927,29620
33664,43905,29644
33700,43879,29618
33764,43837,29752
33801,43839,29594
33786,43836,29605
33768,43863,29536
33744,43911,29580
33668,43911,29497
33632,43863,29577
33632,43911,29693
33676,43903,29558
33692,43894,29612
33720,43865,29540
33781,43796,29643
33772,43801,29497
33684,43799,29550
33565,43813,29446
33508,43911,29503
33516,43903,29438
33584,43885,29472
33708,43860,29628
33824,43861,29501
33909,43830,29604
33968,43815,29504
33948,43796,29615
33914,43892,29497
33864,43889,29556
33812,43873,29505
33813,43831,29626
33888,43889,29488
33992,43869,29484
34048,43837,29496
34052,43873,29460
34100,43823,29636
34116,43823,29525
34052,43790,29660
33964,43887,29551
33922,43903,29588
33868,43903,29511
33912,43877,29671
33901,43831,29534
33846,43879,29505
33888,43815,29636
33912,43775,29534
33928,43839,29644
33880,43860,29571
33828,43873,29738
33776,43862,29644
33754,43909,29628
33768,43887,29646
33792,43815,29597
33808,43772,29720
33840,43835,29641
33900,43819,29785
33892,43828,29686
33852,43845,29849
33785,43860,29703
33693,43855,29791
33645,43908,29660
33608,43836,29732
33561,43789,29684
33604,43852,29746
33704,43813,29689
33792,43813,29736
33793,43819,29879
33788,43846,29792
33740,43845,29913
33636,43897,29785
33557,43845,29837
33456,43780,29821
33308,43766,29885
33028,43762,29762
32668,43773,29848
32309,43783,29871
32246,43840,29788
32384,43863,29860
32646,43837,30001
33144,43807,29894
33764,43845,29938
34362,43780,29846
35254,43767,29900
36536,43840,29860
38092,43801,29920
39900,43807,29892
41862,43807,29946
43880,43824,30082
46092,43845,30000
48217,43855,29996
49916,43856,30152
51040,43846,29975
51680,43832,30015
51640,43824,30176
50656,43820,30021
48496,43813,30027
45716,43828,30212
42792,43852,30076
39520,43861,30172
36640,43919,30056
34980,43860,30080
34256,43893,30183
33816,43887,30148
33504,43829,30136
33260,43812,30244
32996,43799,30148
32788,43813,30183
32498,43830,30113
32176,43845,30159
31884,43863,30308
31672,43887,30220
31512,43885,30285
31390,43870,30234
31354,43809,30276
31348,43718,30365
31356,43761,30345
31308,43796,30421
31224,43828,30341
31132,43847,30416
31032,43847,30389
31004,43876,30436
31058,43869,30521
31116,43813,30471
31172,43823,30555
31221,43780,30554
31324,43772,30700
31364,43783,30551
31328,43798,30594
31288,43821,30768
31272,43804,30626
31280,43861,30670
31324,43853,30847
31412,43821,30714
31476,43777,30761
31596,43750,30910
31716,43737,30791
31740,43724,30839
31708,43751,30940
31620,43801,30898
31580,43847,31013
31596,43819,30940
31646,43829,31029
31688,43804,31009
31712,43799,30988
31800,43764,31129
31896,43745,31007
31904,43759,31036
31866,43775,31124
31828,43743,31085
31804,43831,31228
31812,43835,31141
31846,43820,31142
31888,43807,31223
31960,43702,31172
32032,43671,31244
32128,43730,31146
32166,43658,31200
32124,43689,31180
32084,43783,31156
32052,43783,31215
32020,43776,31300
32056,43772,31273
32136,43652,31324
32233,43757,31284
32292,43735,31415
32372,43711,31321
32384,43690,31452
32316,43765,31352
32236,43783,31461
32280,43743,31356
32340,43773,31465
32416,43735,31393
32509,43761,31388
32558,43759,31415
32616,43692,31421
32737,43711,31500
32740,43700,31366
32726,43684,31381
32732,43764,31513
32737,43783,31364
32768,43708,31389
32832,43702,31441
32876,43671,31351
32913,43716,31352
32992,43697,31487
33056,43685,31320
33116,43662,31320
33124,43740,31429
33148,43663,31319
33140,43743,31404
33100,43767,31293
33044,43716,31335
33056,43655,31297
33088,43700,31391
33212,43679,31239
33352,43648,31276
33416,43700,31181
33412,43719,31228
33384,43745,31185
33384,43735,31205
33372,43678,31149
33368,43724,31253
33376,43694,31129
33460,43685,31140
33516,43679,31081
33508,43584,31097
33460,43649,31076
33292,43652,31052
33140,43729,31141
32984,43641,31042
32816,43712,31101
32724,43679,31035
32652,43695,31074
32613,43604,31058
32576,43644,31116
32480,43631,31044
32332,43655,31132
32156,43687,31010
32034,43645,31104
31912,43679,31034
31818,43708,31136
31760,43692,31033
31708,43628,31128
31676,43628,31037
31613,43649,31104
31600,43554,31020
31529,43623,31076
31428,43620,31021
31316,43669,31040
31272,43676,31100
31228,43687,31061
31258,43668,31173
31262,43549,31064
31300,43623,31071
31404,43591,31044
31476,43575,31087
31468,43590,31212
31364,43597,31068
31308,43558,31084
31233,43655,31173
31216,43653,31078
31228,43559,31087
31288,43588,31236
31344,43543,31116
31445,43484,31216
31556,43554,31092
31584,43543,31091
31528,43477,31079
31461,43625,31089
31428,43565,31228
31412,43609,31121
31440,43585,31150
31520,43519,31095
31580,43597,31108
31620,43455,31167
31672,43471,31136
31672,43527,31232
31596,43540,31167
31537,43517,31261
31503,43607,31140
31516,43606,31164
31600,43510,31305
31630,43526,31177
31624,43548,31196
31700,43502,31293
31804,43477,31263
31853,43527,31358
31797,43527,31272
31749,43564,31326
31708,43551,31284
31700,43543,31308
31748,43559,31460
31796,43548,31360
31888,43527,31372
31948,43415,31513
32044,43487,31407
32040,43485,31468
31969,43423,31505
31932,43459,31574
31930,43564,31543
31917,43559,31532
31932,43525,31647
31964,43495,31557
32032,43460,31593
32156,43392,31644
32202,43418,31661
32200,43460,31649
32136,43484,31677
32048,43399,31652
31980,43527,31709
31948,43477,31771
31956,43415,31785
32024,43476,31740
32105,43479,31812
32192,43439,31740
32280,43398,31797
32280,43471,31866
32256,43450,31805
32212,43399,31921
32108,43437,31809
32068,43503,31833
32152,43485,31930
32264,43453,31837
32348,43432,31893
32396,43421,31909
32420,43397,31900
32412,43385,31917
32372,43460,31945
32328,43399,31940
32220,43487,31933
32193,43486,31961
32254,43373,31932
32349,43393,31927
32392,43343,31919
32382,43399,32045
32336,43398,31930
32276,43399,31982
32256,43423,31964
32324,43436,32063
32344,43436,32009
32332,43433,32029
32436,43412,32056
32376,43399,32041
32360,43380,32061
32396,43367,32185
32365,43353,32097
32354,43343,32140
32228,43399,32225
32192,43431,32213
32258,43409,32248
32356,43348,32399
32492,43429,32398
32600,43413,32412
32654,43391,32475
32648,43301,32644
32576,43343,32644
32480,43343,32708
32296,43357,32889
32104,43397,32913
32072,43381,33080
32148,43384,33129
32288,43364,33244
32341,43380,33369
32365,43375,33541
32448,43337,33692
32568,43309,33840
32566,43245,33981
32484,43349,34133
32501,43355,34335
32540,43348,34487
32476,43342,34661
32508,43364,34857
32512,43270,35030
32376,43333,35216
32420,43287,35391
32460,43271,35604
32374,43317,35780
32334,43333,35984
32316,43337,36196
32292,43346,36352
32260,43317,36572
32320,43304,36780
32416,43339,36949
32484,43271,37159
32544,43199,37333
32604,43238,37556
32624,43254,37735
32529,43263,37913
32444,43333,38040
32416,43341,38284
32404,43245,38462
32380,43271,38548
32377,43215,38751
32380,43271,38948
32432,43247,39133
32488,43236,39166
32528,43247,39415
32492,43263,39549
32436,43268,39663
32417,43232,39841
32392,43319,39965
32340,43212,39975
32356,43195,40206
32408,43231,40297
32485,43216,40431
32496,43212,40448
32440,43200,40629
32356,43214,40749
32304,43199,40782
32296,43297,40808
32324,43292,40967
32389,43276,41108
32520,43218,41087
32620,43215,41143
32636,43182,41315
32676,43225,41255
32660,43233,41452
32628,43247,41544
32613,43268,41496
32584,43282,41636
32600,43231,41703
32680,43228,41699
32776,43231,41785
32828,43207,41804
32924,43177,41884
32966,43172,41815
32924,43183,41960
32864,43202,41991
32776,43207,41879
32672,43217,42048
32600,43214,42116
32616,43189,42052
32676,43119,42145
32716,43181,42141
32756,43156,42176
32740,43141,42201
32689,43148,42199
32648,43175,42276
32636,43188,42109
32592,43198,42279
32576,43201,42256
32592,43177,42276
32617,43156,42311
32654,43143,42292
32718,43116,42276
32776,43152,42337
32792,43165,42306
32754,43177,42313
32644,43207,42212
32590,43209,42330
32532,43202,42372
32500,43116,42356
32518,43109,42233
32516,43124,42341
32561,43111,42375
32606,43087,42359
32600,43063,42365
32532,43108,42247
32432,43136,42343
32300,43156,42324
32104,43153,42192
31824,43152,42300
31480,43087,42239
31200,43063,42272
31272,43045,42111
31572,43108,42053
32000,43089,42020
32493,43109,42133
32996,43133,42053
33616,43133,41964
34584,43132,41991
35864,43125,41925
37320,43119,41856
38968,43105,41722
40896,43088,41792
42816,43080,41735
44676,43061,41639
46352,43097,41527
47680,43124,41530
48508,43125,41501
48484,43140,41372
47840,43116,41365
46252,43127,41303
43672,43094,41145
40898,43109,41160
38132,43111,41120
35388,43108,40894
33372,43125,40960
32488,43143,40910
32252,43141,40711
32160,43137,40764
32106,43113,40680
31908,43109,40616
31752,43093,40468
31600,43079,40471
31436,43060,40386
31200,43060,40288
30900,43094,40293
30641,43117,40276
30428,43125,40094
30253,43108,40130
30140,43087,40096
30088,42983,39943
30044,43098,39977
30032,43071,39941
30017,43064,39788
30044,43069,39824
30012,43092,39763
29972,43109,39646
29904,43117,39660
29868,43079,39622
29921,43055,39441
29968,43044,39479
30020,42959,39414
30129,42941,39298
30197,43037,39228
30216,43047,39204
30144,43086,39095
30092,43095,39092
30100,43110,39040
30140,43093,38880
30172,43101,38885
30208,43063,38852
30228,43005,38679
30278,43001,38681
30364,42956,38612
30389,42949,38495
30373,43050,38468
30344,43055,38396
30344,43014,38279
30340,42991,38253
30404,42975,38095
30492,43047,38086
30578,43015,37961
30660,42996,37945
30748,43007,37876
30816,42968,37738
30748,43015,37687
30668,43044,37655
30620,42980,37585
30608,43015,37477
30620,43067,37447
30708,43053,37369
30792,42919,37325
30904,42969,37199
31056,42975,37134
31076,42973,37116
31016,43012,37070
30992,43036,36972
30992,43044,36956
30988,43052,36884
31032,42953,36800
31096,43003,36788
31200,43015,36765
31262,43013,36661
31332,42940,36661
31421,42977,36612
31425,43006,36580
31456,42980,36510
31430,43060,36452
31461,42967,36460
31500,42964,36400
31534,43029,36389
31580,42935,36343
31632,42952,36293
31750,42982,36295
31828,43005,36231
31800,43037,36228
31740,42999,36204
31736,43031,36172
31728,43045,36127
31808,43037,36125
31928,42957,36100
32060,42935,36049
32172,43013,36040
32224,42903,36015
32225,42924,35969
32236,42959,35956
32192,43053,35940
32152,43056,35900
32144,43015,35872
32204,43015,35839
32292,43032,35808
32364,43036,35773
32476,42940,35724
32596,42967,35692
32628,42984,35663
32560,42928,35589
32516,42996,35561
32493,42983,35520
32448,42969,35461
32421,42958,35429
32405,42949,35382
32365,43015,35341
32320,42976,35287
32340,42969,35245
32280,42977,35197
32108,43000,35146
31916,43022,35113
31708,43028,35039
31573,43037,34989
31468,43015,34951
31368,43032,34889
31301,42935,34844
31252,42989,34813
31204,42980,34751
31120,42983,34716
31014,43007,34644
30868,43015,34601
30724,43047,34583
30613,42957,34500
30496,43047,34459
30428,43047,34442
30412,42919,34357
30432,42993,34308
30469,42983,34287
30448,42865,34206
30376,42983,34173
30306,43007,34156
30208,43032,34108
30182,43032,34055
30204,42935,34007
30285,42951,33954
30320,42937,33909
30372,42928,33903
30388,42926,33833
30376,42887,33828
30341,42909,33740
30392,42935,33712
30408,43037,33689
30420,42967,33625
30448,42943,33567
30524,42908,33574
30564,42981,33496
30604,42948,33480
30644,42938,33396
30648,42948,33376
30644,42965,33354
30648,42997,33337
30612,43007,33281
30604,43001,33285
30644,42989,33198
30702,42948,33191
30728,42975,33212
30717,42925,33135
30792,42969,33149
30832,42991,33070
30816,42999,33044
30780,43028,33021
30744,43039,32991
30765,42988,32973
30792,42990,32992
30845,42980,32911
30880,42972,32884
30944,42964,32912
30964,42959,32879
31036,42877,32829
31088,42932,32812
31092,43028,32862
31041,43029,32817
31072,43000,32722
31116,43013,32726
31136,43001,32697
31133,42990,32717
31181,42940,32692
31236,42870,32639
31270,42900,32613
31248,42973,32668
31244,43045,32557
31232,43061,32572
31240,43056,32576
31308,43037,32581
31396,42976,32543
31412,42985,32513
31416,42983,32541
31488,42975,32548
31508,42973,32469
31492,43015,32485
31456,43045,32487
31436,43037,32457
31424,43032,32567
31448,42951,32519
31444,42943,32462
31516,42991,32465
31572,42991,32519
31680,42985,32472
31704,42965,32462
31688,43009,32550
31621,43015,32453
31528,43036,32493
31472,43015,32533
31457,43061,32499
31468,42997,32501
31548,43012,32478
31624,42997,32574
31694,43012,32514
31712,43013,32519
31684,43015,32565
31612,43058,32542
31540,42991,32500
31518,43076,32506
31528,43084,32529
31616,43076,32557
31709,43014,32505
31761,43012,32501
31820,43003,32512
31865,43004,32519
31868,43054,32497
31876,43092,32529
31816,43100,32445
31792,43116,32464
31808,43101,32469
31828,43047,32462
31860,43044,32439
31924,42988,32480
31973,43058,32412
31988,43073,32435
31948,43101,32408
31882,43111,32369
31820,43116,32355
31833,43080,32386
31868,43117,32332
31904,43118,32336
31948,43106,32260
32008,43085,32258
32064,43015,32324
32126,43090,32222
32128,43119,32229
32122,43143,32250
32085,43148,32151
32020,43159,32177
31996,43143,32159
32000,43143,32183
32084,43135,32095
32104,43119,32079
32165,43104,32140
32196,43124,32012
32128,43140,32040
32048,43175,31988
32064,43183,32080
32092,43189,31996
32108,43173,31919
32176,43169,31934
32284,43116,31879
32352,43108,31972
32396,43103,31824
32400,43124,31820
32321,43143,31829
32256,43129,31801
32212,43191,31742
32170,43194,31765
32256,43183,31744
32316,43177,31795
32349,43169,31717
32404,43151,31670
32461,43143,31631
32478,43143,31660
32388,43162,31670
32340,43207,31686
32284,43204,31597
32220,43221,31601
32196,43208,31622
32222,43191,31534
32264,43191,31536
32308,43174,31608
32413,43165,31561
32452,43168,31505
32440,43175,31505
32372,43245,31495
32252,43212,31460
32168,43249,31583
32184,43221,31442
32269,43204,31468
32348,43153,31424
32397,43148,31525
32452,43173,31463
32529,43188,31421
32540,43201,31423
32532,43221,31463
32516,43213,31468
32554,43268,31423
32536,43191,31388
32564,43252,31479
32616,43255,31398
32694,43231,31384
32812,43223,31519
32856,43221,31375
32848,43190,31422
32764,43249,31383
32700,43239,31455
32668,43255,31367
32660,43218,31399
32672,43205,31429
32680,43245,31495
32744,43271,31365
32828,43271,31365
32836,43271,31470
32798,43300,31341
32693,43324,31389
32636,43343,31373
32597,43300,31439
32576,43254,31367
32564,43330,31365
32572,43268,31310
32640,43293,31433
32740,43159,31297
32772,43205,31330
32688,43312,31312
32644,43336,31407
32588,43353,31310
32525,43333,31246
32525,43326,31239
32612,43328,31239
32641,43322,31271
32672,43301,31221
32696,43297,31216
32688,43304,31280
32692,43312,31223
32656,43343,31169
32592,43348,31204
32557,43359,31191
32590,43341,31273
32636,43316,31237
32657,43316,31157
32704,43305,31167
32740,43280,31229
32710,43347,31141
32492,43364,31166
32204,43383,31145
31868,43406,31284
31473,43399,31156
31176,43322,31142
31168,43317,31159
31360,43284,31141
31784,43334,31264
32392,43342,31119
32961,43357,31129
33572,43380,31165
34456,43396,31133
35744,43398,31220
37348,43433,31153
39248,43433,31239
41352,43420,31188
43648,43404,31134
46096,43373,31125
48321,43344,31176
49940,43359,31253
51028,43397,31233
51588,43423,31103
51392,43444,31092
50108,43455,31227
47656,43453,31097
44812,43447,31074
41892,43452,31149
38588,43423,31092
35773,43450,31092
34220,43475,31138
33500,43423,31021
32944,43424,31063
32608,43501,31065
32360,43501,31104
32132,43493,30983
31892,43481,31016
31584,43466,30961
31288,43445,31028
31103,43425,31000
30896,43439,30996
30664,43456,30967
30412,43479,31056
30232,43485,30996
30128,43519,30983
30128,43515,31062
30228,43493,31032
30252,43503,31064
30304,43479,31064
30352,43469,31033
30325,43441,31036
30280,43383,31121
30260,43490,31167
30256,43508,31027
30276,43507,31080
30308,43417,31079
30376,43398,31175
30485,43391,31047
30584,43496,31087
30700,43495,31127
30764,43429,31113
30740,43456,31109
30728,43517,31097
30722,43560,31142
30770,43566,31252
30776,43551,31164
30840,43549,31150
30900,43527,31128
31000,43476,31253
31102,43437,31235
31148,43492,31167
31104,43454,31197
31056,43452,31175
31036,43487,31286
31032,43505,31166
31065,43550,31201
31192,43527,31168
31304,43493,31309
31380,43447,31220
31436,43501,31204
31456,43511,31171
31464,43527,31213
31435,43556,31230
31440,43558,31168
31440,43569,31159
31492,43591,31244
31578,43582,31284
31636,43495,31181
31681,43537,31164
31760,43545,31156
31805,43544,31285
31840,43556,31154
31826,43572,31196
31840,43581,31125
31870,43563,31140
31924,43620,31198
32012,43583,31178
32072,43489,31268
32120,43548,31174
32236,43527,31167
32360,43565,31102
32409,43495,31109
32424,43558,31212
32428,43604,31141
32489,43597,31117
32536,43598,31204
32576,43575,31060
32640,43549,31049
32684,43580,31168
32697,43583,30999
32752,43587,30983
32812,43599,31094
32840,43582,30978
32884,43559,30956
32920,43572,30973
33004,43621,30846
33134,43598,30847
33280,43596,30840
33413,43575,30928
33528,43556,30789
33652,43600,30852
33656,43623,30672
33568,43655,30705
33524,43601,30641
33544,43559,30765
33664,43649,30560
33836,43649,30602
33908,43651,30623
34020,43615,30519
34109,43551,30528
34168,43526,30447
34152,43551,30494
34108,43604,30535
34044,43580,30463
33924,43676,30444
33896,43654,30455
33856,43568,30460
33840,43575,30367
33804,43546,30366
33768,43571,30458
33687,43608,30327
33508,43644,30396
33297,43655,30367
33116,43653,30511
32948,43679,30422
32832,43664,30365
32714,43655,30356
32600,43631,30525
32528,43615,30369
32516,43599,30404
32412,43607,30469
32316,43624,30365
32200,43655,30419
32088,43663,30405
32032,43677,30429
32044,43655,30465
32009,43647,30476
32024,43647,30476
32032,43616,30486
32080,43605,30568
32096,43604,30453
32064,43620,30453
32024,43629,30612
31952,43655,30435
31928,43652,30508
31932,43644,30511
31956,43629,30611
31980,43624,30447
31988,43614,30505
32008,43606,30500
32096,43630,30469
32096,43593,30537
32044,43628,30624
31958,43642,30448
31932,43655,30478
31936,43643,30453
31992,43616,30605
32068,43647,30468
32096,43628,30516
32168,43614,30479
32200,43604,30463
32193,43601,30463
32120,43636,30444
32029,43653,30510
32032,43599,30429
32072,43591,30421
32152,43644,30493
32216,43556,30436
32252,43559,30417
32300,43622,30430
32289,43613,30532
32284,43592,30425
32240,43623,30439
32202,43649,30447
32152,43655,30493
32172,43655,30444
32228,43621,30513
32312,43613,30367
32416,43588,30391
32500,43575,30540
32501,43585,30399
32436,43638,30422
32364,43663,30359
32320,43673,30404
32308,43684,30538
32300,43656,30392
32337,43602,30404
32364,43601,30488
32404,43527,30422
32453,43525,30470
32421,43607,30373
32453,43613,30383
32432,43641,30445
32408,43641,30400
32372,43677,30548
32393,43668,30416
32487,43629,30397
32556,43540,30428
32604,43589,30416
32685,43600,30535
32706,43581,30433
32680,43647,30530
32656,43580,30447
32576,43663,30541
32558,43647,30463
32540,43671,30581
32584,43632,30436
32624,43621,30496
32684,43564,30495
32776,43623,30588
32832,43584,30493
32804,43573,30540
32752,43652,30517
32684,43655,30527
32660,43655,30519
32680,43667,30544
32724,43660,30632
32776,43649,30599
32801,43566,30591
32865,43607,30652
32900,43591,30604
32876,43639,30692
32820,43602,30646
32716,43660,30790
32660,43652,30689
32705,43622,30757
32785,43668,30694
32806,43621,30802
32832,43605,30704
32876,43623,30716
32861,43625,30846
32836,43559,30779
32844,43654,30891
32841,43647,30789
32768,43685,30894
32829,43673,30808
32837,43576,30915
32908,43558,30767
32980,43597,30800
33012,43595,30766
32992,43590,30831
32944,43655,30770
32829,43629,30821
32800,43639,30759
32788,43649,30764
32772,43661,30856
32788,43668,30812
32808,43603,30855
32872,43527,30748
32949,43607,30783
32992,43607,30865
32936,43623,30734
32874,43635,30751
32798,43646,30887
32700,43645,30745
32664,43574,30764
32668,43650,30788
32692,43649,30746
32774,43525,30865
32872,43591,30772
32897,43537,30768
32871,43632,30763
32801,43669,30861
32768,43599,30758
32769,43655,30861
32800,43645,30727
32836,43639,30764
32877,43615,30705
32940,43589,30720
32972,43605,30704
32956,43600,30712
32944,43642,30752
32877,43567,30748
32832,43655,30866
32760,43639,30766
32744,43631,30813
32805,43605,30734
32888,43639,30760
32960,43609,30765
32984,43607,30741
33024,43566,30778
32948,43552,30781
32876,43567,30872
32860,43667,30737
32852,43584,30756
32862,43655,30876
32932,43636,30784
32981,43621,30753
33010,43607,30876
33004,43599,30746
33024,43525,30782
32960,43527,30756
32920,43660,30789
32832,43679,30892
32732,43677,30769
32690,43588,30799
32676,43564,30736
32660,43566,30785
32688,43547,30903
32749,43510,30766
32816,43607,30766
32844,43629,30876
32908,43639,30743
32968,43655,30745
32992,43649,30828
33012,43631,30796
33084,43623,30862
33209,43609,30751
33200,43588,30803
33224,43605,30877
33236,43620,30821
33260,43541,30876
33248,43641,30829
33192,43655,30940
33148,43655,30814
33128,43655,30846
33112,43629,30898
33150,43600,30887
33145,43607,30953
33188,43583,30884
33156,43601,30945
33084,43559,30989
33020,43561,30958
32912,43585,31143
32870,43585,31007
32804,43665,31079
32836,43655,31085
32852,43639,31183
32876,43623,31148
32953,43614,31252
32960,43615,31165
32967,43628,31197
32960,43653,31335
32894,43585,31239
32808,43655,31283
32804,43655,31268
32852,43637,31322
32940,43633,31403
32968,43605,31391
32974,43580,31509
32940,43524,31397
32844,43527,31467
32752,43549,31549
32760,43644,31461
32784,43655,31484
32740,43637,31631
32720,43615,31540
32784,43596,31578
32896,43572,31692
32934,43556,31620
32832,43559,31668
32664,43550,31647
32324,43636,31700
31854,43655,31781
31460,43655,31748
31320,43632,31749
31489,43527,31872
31808,43605,31836
32344,43573,31893
32968,43551,31855
33500,43591,31914
34125,43615,31918
35202,43625,31965
36581,43647,31980
38248,43653,32126
40232,43631,32039
42424,43623,32052
44844,43596,32197
47256,43576,32104
49276,43567,32136
50600,43561,32252
51416,43565,32226
51604,43602,32226
51068,43623,32218
49188,43647,32372
46328,43637,32285
43244,43637,32309
40084,43628,32433
36912,43620,32437
34728,43598,32444
33764,43607,32464
33276,43620,32624
32908,43631,32601
32588,43647,32654
32233,43654,32711
31945,43655,32864
31596,43647,32871
31145,43561,32944
30812,43553,33077
30634,43599,33160
30452,43605,33261
30301,43613,33479
30156,43638,33532
30092,43655,33671
29968,43655,33868
29910,43637,33965
29982,43572,34111
30066,43503,34273
30204,43527,34414
30336,43572,34581
30388,43540,34732
30372,43527,34872
30304,43598,35055
30241,43633,35172
30281,43596,35327
30340,43524,35485
30424,43552,35629
30488,43495,35784
30549,43479,35919
30628,43457,36073
30705,43546,36231
30720,43581,36340
30664,43574,36501
30589,43604,36636
30576,43607,36760
30640,43598,36879
30740,43591,36973
30836,43580,37100
30904,43511,37204
30984,43527,37254
30990,43543,37383
30980,43567,37476
30968,43591,37500
30960,43596,37615
30964,43589,37694
31018,43584,37703
31036,43568,37791
31100,43556,37831
31172,43537,37837
31292,43527,37904
31381,43461,37962
31385,43495,37917
31348,43503,38007
31292,43601,37996
31300,43589,38061
31336,43573,38079
31364,43527,38124
31436,43527,38128
31544,43487,38092
31640,43558,38172
31669,43565,38161
31680,43591,38221
31668,43599,38237
31696,43512,38185
31756,43611,38285
31781,43591,38293
31816,43572,38298
31916,43545,38303
32036,43564,38361
32140,43549,38319
32188,43565,38397
32164,43484,38424
32153,43588,38386
32160,43573,38477
32180,43559,38485
32292,43597,38514
32460,43509,38464
32560,43567,38558
32652,43513,38604
32745,43527,38543
32856,43527,38631
32897,43524,38670
32908,43558,38616
32896,43551,38663
32892,43569,38722
32956,43581,38730
33092,43557,38765
33232,43559,38696
33364,43541,38790
33464,43521,38791
33528,43527,38775
33572,43549,38829
33540,43600,38810
33488,43618,38773
33460,43527,38823
33500,43591,38828
33612,43575,38784
33664,43559,38805
33724,43527,38777
33816,43549,38799
33852,43545,38763
33836,43489,38759
33776,43593,38757
33700,43600,38681
33600,43598,38700
33524,43598,38649
33448,43572,38588
33344,43559,38599
33288,43572,38570
33212,43524,38484
33096,43517,38500
32894,43513,38392
32700,43527,38421
32522,43594,38372
32332,43593,38276
32210,43578,38292
32112,43565,38247
32020,43582,38221
31902,43543,38177
31873,43444,38133
31821,43457,38096
31728,43471,37985
31572,43503,38001
31448,43502,37932
31380,43515,37926
31340,43512,37895
31336,43561,37843
31316,43527,37765
31332,43468,37752
31356,43559,37684
31364,43446,37668
31329,43513,37604
31268,43564,37580
31189,43572,37543
31164,43580,37468
31200,43559,37460
31296,43559,37428
31392,43543,37340
31412,43527,37335
31428,43447,37277
31445,43487,37251
31482,43527,37143
31462,43472,37135
31408,43494,37080
31356,43584,37032
31400,43548,36986
31454,43540,36931
31521,43513,36823
31592,43471,36796
31664,43527,36732
31680,43517,36652
31660,43557,36608
31596,43517,36520
31588,43485,36463
31544,43494,36412
31582,43565,36332
31624,43549,36256
31644,43524,36194
31694,43495,36095
31757,43399,36041
31740,43511,35981
31676,43535,35901
31616,43565,35830
31568,43587,35767
31568,43524,35687
31604,43469,35612
31704,43527,35537
31780,43517,35472
31868,43488,35401
31968,43468,35335
32008,43483,35260
31937,43495,35204
31864,43501,35129
31784,43477,35069
31800,43580,34983
31840,43559,34932
31916,43559,34900
31984,43540,34817
31996,43511,34740
32072,43493,34679
32096,43519,34645
32096,43519,34577
32112,43469,34541
32108,43559,34464
32142,43556,34436
32192,43527,34420
32292,43521,34321
32410,43517,34281
32504,43485,34262
32564,43463,34212
32584,43457,34182
32588,43439,34128
32549,43549,34108
32512,43572,34133
32445,43583,34022
32448,43575,34028
32504,43525,33991
32564,43445,33968
32660,43511,33948
32768,43479,33949
32796,43471,33909
32812,43421,33893
32840,43444,33921
32820,43557,33848
32773,43572,33847
32772,43558,33894
32768,43519,33815
32840,43452,33819
32888,43428,33865
32956,43492,33815
33005,43487,33799
32996,43509,33844
32944,43543,33773
32932,43559,33784
32936,43575,33756
32936,43551,33792
32936,43527,33752
32980,43447,33751
33054,43439,33748
33104,43431,33774
33092,43468,33710
33084,43549,33725
33028,43451,33700
33018,43527,33676
33036,43537,33753
33072,43482,33663
33180,43556,33671
33236,43544,33693
33284,43520,33695
33332,43505,33608
33322,43461,33626
33324,43510,33605
33249,43542,33594
33193,43559,33629
33253,43476,33612
33296,43479,33546
33340,43476,33527
33368,43461,33567
33432,43431,33501
33508,43431,33489
33536,43438,33463
33492,43463,33453
33360,43519,33453
33220,43589,33461
33124,43589,33389
33152,43589,33364
33248,43565,33408
33296,43523,33305
33364,43468,33287
33486,43472,33304
33536,43493,33207
33484,43541,33207
33420,43524,33180
33344,43543,33136
33352,43592,33193
33384,43589,33064
33420,43575,33068
33484,43556,33028
33480,43548,32967
33508,43527,32950
33560,43527,33013
33588,43556,32871
33566,43583,32860
33512,43589,32889
33464,43612,32775
33449,43596,32773
33472,43581,32804
33500,43567,32673
33568,43527,32652
33569,43457,32719
33576,43477,32592
33504,43465,32562
33508,43503,32613
33508,43501,32477
33508,43527,32486
33552,43567,32427
33588,43579,32508
33596,43476,32367
33600,43542,32335
33672,43527,32400
33720,43524,32278
33692,43562,32236
33592,43516,32276
33552,43527,32210
33553,43525,32187
33576,43554,32130
33576,43598,32215
33580,43591,32065
33652,43569,32037
33712,43547,32129
33732,43564,32015
33736,43523,31964
33716,43588,31997
33701,43608,31941
33708,43607,31925
33737,43607,31920
33832,43581,31855
33920,43519,31917
33982,43576,31804
34080,43563,31840
34117,43481,31748
34100,43567,31764
34052,43590,31667
33997,43594,31658
33944,43645,31746
33960,43527,31623
33976,43589,31705
34017,43568,31572
34064,43590,31562
34088,43534,31495
34048,43511,31568
34012,43503,31461
33912,43614,31474
33808,43612,31409
33756,43619,31472
33733,43623,31414
33704,43620,31370
33736,43567,31464
33738,43509,31308
33780,43580,31278
33804,43591,31400
33832,43503,31268
33870,43612,31276
33764,43629,31191
33684,43620,31223
33652,43604,31315
33704,43622,31200
33750,43585,31276
33792,43588,31152
33836,43572,31239
33856,43559,31124
33849,43569,31164
33796,43569,31049
33742,43654,31046
33720,43665,31088
33780,43591,31022
33816,43545,31110
33876,43617,30991
33980,43584,30964
34080,43559,31091
34012,43596,30950
33760,43622,30919
33368,43637,31056
32856,43655,30869
32334,43663,30909
32204,43653,30909
32349,43588,30962
32705,43558,30881
33320,43524,30830
34008,43511,30916
34568,43588,30825
35340,43604,30930
36456,43593,30787
37868,43672,30766
39552,43677,30860
41560,43661,30776
43716,43641,30764
46040,43620,30801
48329,43592,30752
50272,43599,30805
51532,43597,30669
52300,43616,30710
52316,43645,30724
51480,43671,30632
49408,43684,30660
46632,43680,30622
43784,43686,30762
40672,43685,30572
37560,43647,30628
35628,43655,30569
34772,43653,30693
34264,43655,30564
33812,43679,30530
33408,43695,30652
33092,43700,30468
32904,43687,30521
32624,43676,30480
32340,43671,30617
32117,43641,30467
31984,43629,30518
31872,43661,30487
31656,43581,30573
31412,43677,30458
31300,43676,30415
31222,43655,30442
31153,43724,30415
31101,43676,30466
31052,43582,30427
31072,43655,30512
31156,43629,30446
31244,43655,30586
31268,43700,30458
31176,43596,30586
31128,43692,30457
31124,43717,30485
31164,43716,30462
31302,43621,30458
31392,43655,30599
31484,43612,30482
31584,43673,30559
31637,43654,30496
31645,43679,30497
31636,43676,30559
31646,43725,30522
31640,43634,30536
31640,43711,30484
31636,43689,30537
31692,43668,30513
31772,43553,30590
31848,43677,30556
31896,43655,30580
31884,43655,30524
31804,43735,30502
31760,43679,30572
31748,43644,30509
31792,43708,30566
31812,43685,30509
31912,43716,30652
31972,43679,30549
32036,43652,30576
32104,43597,30504
32140,43711,30546
32156,43668,30500
32188,43724,30526
32164,43717,30505
32164,43693,30463
32200,43627,30535
32236,43693,30504
32260,43666,30543
32357,43633,30449
32405,43689,30511
32384,43613,30470
32288,43708,30546
32273,43693,30485
32300,43751,30604
32336,43751,30493
32421,43741,30534
32446,43735,30482
32560,43604,30557
32660,43681,30481
32693,43687,30484
32680,43709,30592
32656,43708,30512
32638,43725,30604
32588,43727,30468
32604,43716,30485
32616,43748,30470
32732,43724,30528
32856,43681,30500
33012,43711,30520
33124,43616,30428
33108,43709,30472
33108,43717,30400
33153,43756,30463
33212,43767,30406
33288,43725,30524
33452,43721,30417
33601,43735,30476
33696,43727,30372
33788,43703,30454
33824,43628,30317
33760,43641,30281
33721,43749,30287
33704,43751,30247
33716,43749,30356
33806,43733,30232
33852,43655,30312
33944,43751,30172
33989,43724,30222
34050,43628,30092
34100,43708,30103
34100,43725,30222
34044,43737,30066
33980,43700,30175
33925,43783,30036
33888,43768,30089
33818,43749,30017
33769,43724,30116
33748,43695,29985
33668,43725,30085
33524,43692,29944
33348,43740,30036
33129,43736,29908
32900,43743,29954
32672,43783,29866
32513,43772,29938
32428,43693,29825
32380,43639,29812
32293,43663,29859
32224,43692,29852
32109,43695,29951
31968,43700,29831
31848,43765,29940
31817,43696,29815
31760,43756,29924
31721,43757,29799
31696,43724,29805
31692,43647,29752
31672,43701,29703
31700,43668,29789
31664,43647,29701
31636,43725,29839
31608,43692,29735
31596,43745,29854
31576,43737,29735
31600,43751,29716
31618,43639,29703
31684,43719,29646
31732,43687,29684
31785,43593,29641
31832,43703,29741
31812,43692,29625
31774,43641,29744
31744,43719,29675
31744,43685,29767
31777,43747,29660
31813,43713,29628
31812,43692,29600
31848,43623,29551
31936,43679,29606
31964,43604,29620
31918,43631,29580
31793,43709,29681
31728,43717,29567
31704,43716,29671
31708,43693,29587
31781,43647,29711
31832,43716,29584
31868,43639,29696
31944,43585,29573
32000,43655,29687
31980,43667,29574
31932,43605,29610
31881,43724,29585
31876,43647,29665
31864,43701,29556
31920,43677,29630
31940,43697,29586
32048,43581,29615
32136,43653,29541
32184,43637,29512
32208,43684,29646
32132,43705,29575
32050,43711,29578
32024,43689,29548
32068,43675,29510
32176,43591,29588
32224,43698,29657
32244,43675,29503
32284,43655,29575
32302,43652,29657
32348,43583,29512
32352,43684,29541
32292,43679,29659
32280,43710,29564
32260,43705,29681
32320,43645,29520
32436,43583,29580
32532,43583,29485
32616,43527,29532
32673,43552,29688
32668,43649,29516
32592,43655,29565
32512,43679,29510
32466,43631,29556
32504,43701,29565
32532,43685,29606
32564,43652,29681
32556,43596,29553
32560,43615,29595
32564,43611,29778
32553,43629,29623
32504,43628,29639
32440,43703,29700
32416,43709,29696
32456,43609,29785
32492,43591,29636
32548,43604,29709
32601,43636,29871
32704,43617,29724
32772,43609,29772
32728,43623,29737
32668,43654,29790
32600,43654,29806
32568,43591,29736
32576,43676,29789
32580,43668,29901
32584,43615,29849
32584,43527,29957
32632,43604,29796
32604,43623,29868
32512,43629,29844
32424,43653,29982
32396,43655,29815
32348,43665,29869
32320,43655,29955
32349,43631,29834
32400,43615,29860
32476,43629,30012
32576,43612,29885
32596,43607,29967
32516,43622,29845
32448,43636,29887
32428,43638,29972
32412,43647,29937
32485,43669,30020
32513,43645,29878
32556,43645,29916
32576,43631,29952
32608,43592,29901
32596,43510,29943
32525,43559,29953
32448,43628,29872
32365,43629,29906
32332,43661,30077
32328,43655,29952
32316,43645,29983
32336,43559,29857
32368,43599,29906
32452,43497,29936
32500,43509,30076
32448,43548,29909
32344,43623,29937
32313,43628,30004
32276,43624,29980
32288,43615,29980
32316,43623,29908
32324,43621,29958
32368,43524,30052
32428,43567,29984
32416,43553,30132
32368,43566,29980
32292,43631,30066
32260,43527,29969
32249,43608,30008
32303,43597,30124
32358,43612,30060
32376,43589,30187
32392,43472,30055
32429,43551,30182
32444,43524,30087
32420,43599,30138
32377,43521,30066
32348,43591,30121
32333,43631,30103
32392,43540,30132
32396,43582,30105
32392,43549,30177
32461,43569,30132
32493,43543,30189
32525,43476,30289
32472,43543,30191
32352,43599,30181
32244,43506,30231
32194,43587,30191
32148,43509,30244
32208,43593,30214
32261,43503,30239
32272,43460,30389
32300,43527,30244
32330,43524,30253
32292,43527,30332
32260,43580,30286
32288,43597,30397
32224,43527,30239
32177,43513,30277
32140,43564,30364
32132,43543,30233
32176,43527,30305
32332,43495,30305
32400,43485,30236
32433,43556,30262
32468,43553,30406
32466,43573,30299
32504,43551,30412
32534,43566,30313
32516,43463,30415
32472,43527,30308
32456,43472,30415
32556,43503,30295
32696,43415,30414
32710,43505,30335
32700,43517,30439
32678,43527,30324
32612,43561,30388
32520,43556,30311
32477,43464,30340
32520,43503,30326
32600,43461,30356
32672,43497,30436
32673,43437,30388
32600,43493,30389
32532,43503,30426
32496,43475,30592
32512,43545,30496
32552,43513,30609
32588,43497,30492
32592,43481,30581
32520,43459,30660
32580,43417,30572
32629,43478,30660
32612,43436,30683
32500,43447,30738
32444,43513,30757
32464,43503,30905
32487,43469,30816
32445,43505,30909
32412,43399,30878
32384,43463,30933
32420,43437,31080
32440,43423,31060
32432,43471,31141
32437,43437,31174
32480,43501,31265
32460,43482,31284
32444,43428,31380
32492,43460,31441
32528,43380,31532
32516,43431,31604
32500,43399,31703
32308,43452,31788
32032,43423,31896
31608,43463,32049
31148,43461,32104
30812,43497,32196
30857,43404,32335
31200,43433,32437
31736,43461,32629
32440,43361,32692
33060,43411,32834
33660,43399,32909
34476,43404,33046
35609,43472,33196
37100,43405,33308
38860,43468,33437
40824,43479,33612
42900,43444,33700
45120,43408,33864
47224,43414,33976
48908,43389,34102
49984,43391,34239
50356,43406,34384
50088,43433,34514
48842,43465,34663
46408,43456,34781
43512,43462,34921
40708,43453,35033
37628,43481,35180
34976,43392,35296
33668,43412,35438
33156,43399,35556
32828,43445,35689
32488,43436,35812
32249,43404,35936
32049,43468,36056
31882,43433,36184
31688,43457,36308
31428,43359,36433
31220,43399,36567
31072,43358,36692
30965,43390,36825
30796,43411,36925
30692,43398,37062
30648,43463,37151
30512,43412,37296
30396,43355,37414
30416,43335,37492
30568,43397,37647
30664,43367,37705
30744,43375,37848
30784,43388,37863
30720,43373,38033
30624,43383,38080
30564,43437,38213
30564,43452,38220
30628,43416,38370
30720,43347,38414
30744,43366,38521
30868,43348,38581
30976,43349,38688
30996,43343,38736
31024,43367,38836
31064,43367,38888
31105,43413,38985
31128,43303,39000
31184,43383,39116
31268,43360,39180
31293,43334,39211
31284,43316,39311
31321,43244,39377
31364,43253,39354
31397,43360,39468
31384,43386,39440
31393,43295,39576
31415,43386,39644
31464,43359,39684
31528,43373,39728
31620,43341,39748
31704,43308,39810
31821,43279,39744
31849,43333,39836
31804,43271,39772
31800,43343,39926
31788,43375,39943
31800,43372,39860
31840,43348,39972
31908,43324,39943
31960,43341,40012
32044,43332,39925
32112,43228,40033
32112,43286,39970
32080,43289,40092
32076,43353,39989
32072,43309,40065
32084,43345,40059
32124,43317,39980
32192,43271,40101
32258,43327,40069
32308,43255,40071
32400,43270,40055
32476,43262,39948
32504,43271,40020
32470,43330,39933
32449,43316,40029
32496,43248,40004
32540,43326,40001
32568,43301,39870
32645,43301,39913
32792,43203,39924
32910,43183,39807
32968,43196,39839
32956,43211,39725
32996,43219,39796
33024,43313,39783
33024,43308,39636
33052,43299,39668
33128,43271,39613
33224,43295,39591
33328,43287,39556
33452,43167,39505
33512,43247,39460
33508,43271,39324
33484,43281,39336
33444,43293,39250
33412,43289,39239
33428,43303,39174
33448,43207,39112
33550,43262,39047
33632,43245,38916
33709,43212,38914
33722,43208,38763
33668,43205,38751
33592,43280,38669
33496,43308,38633
33436,43309,38556
33400,43191,38405
33356,43188,38400
33287,43247,38276
33184,43219,38264
33068,43150,38199
32952,43220,38143
32732,43173,38048
32510,43246,38004
32276,43225,37893
32068,43167,37876
31952,43259,37823
31916,43207,37697
31896,43126,37682
31820,43199,37612
31748,43165,37564
31652,43199,37479
31509,43117,37455
31276,43200,37364
31161,43206,37345
31029,43188,37319
31004,43239,37216
31032,43174,37209
31080,43092,37109
31148,43072,37085
31192,43099,37051
31182,43140,36998
31104,43143,36944
30998,43159,36905
30924,43201,36868
30884,43212,36807
30928,43184,36772
30932,43076,36673
30932,43143,36655
30952,43111,36561
30984,43088,36541
31020,43121,36473
30988,43136,36437
30921,43167,36388
30928,43181,36300
30908,43168,36261
30972,43165,36199
31016,43100,36136
31052,43087,36076
31044,43085,36013
31076,43057,35940
31106,42981,35872
31052,43125,35808
30960,43063,35748
30900,43122,35680
30873,43114,35621
30864,43061,35553
30864,43078,35488
30918,43085,35417
30992,43044,35360
31156,43015,35284
31204,43060,35229
31156,43087,35173
31092,43088,35095
30997,43093,35041
30888,43113,34967
30828,42997,34893
30868,43077,34823
30894,43047,34797
31012,43034,34724
31164,43004,34676
31172,42999,34597
31137,42980,34564
31077,43079,34484
31038,43024,34457
31028,43013,34369
31092,43052,34370
31224,43015,34295
31304,42951,34284
31357,43029,34196
31444,42925,34164
31505,42929,34136
31448,42945,34108
31412,43028,34112
31380,43049,34022
31352,43000,34030
31292,43057,33972
31296,42956,33956
31320,42960,33900
31360,42989,33880
31424,42957,33879
31472,42959,33854
31440,42975,33838
31433,43007,33828
31448,43013,33812
31456,43015,33820
31521,42990,33773
31564,42980,33780
31576,42957,33823
31581,42943,33764
31640,42921,33782
31640,42965,33744
31588,42973,33752
31524,43000,33781
31444,42941,33757
31408,42919,33793
31374,42912,33741
31381,42965,33756
31404,42951,33735
31464,42925,33742
31560,42887,33748
31592,42916,33755
31592,42948,33733
31572,42942,33775
31513,42983,33756
31464,42991,33791
31492,42935,33748
31536,42943,33796
31588,42912,33754
31620,42876,33799
31624,42919,33732
31576,42903,33769
31541,42917,33741
31476,42944,33750
31432,42935,33704
31468,42938,33696
31520,42917,33692
31560,42911,33671
31584,42866,33708
31588,42903,33656
31605,42846,33633
31644,42852,33618
31636,42805,33575
31568,42897,33584
31472,42852,33535
31468,42917,33527
31506,42900,33468
31596,42887,33481
31664,42857,33508
31704,42880,33432
31741,42868,33440
31740,42845,33392
31664,42790,33397
31584,42881,33348
31550,42911,33327
31548,42917,33303
31560,42887,33244
31648,42789,33264
31704,42847,33206
31760,42863,33188
31824,42745,33175
31832,42817,33132
31780,42759,33161
31705,42877,33076
31676,42817,33111
31668,42871,33008
31661,42855,33014
31640,42860,32964
31653,42837,32974
31689,42744,32917
31753,42783,32870
31846,42720,32873
31840,42783,32847
31744,42836,32893
31692,42870,32797
31636,42844,32770
31630,42836,32796
31680,42841,32725
31745,42844,32708
31796,42710,32692
31812,42775,32663
31852,42793,32620
31864,42791,32617
31816,42745,32580
31744,42838,32580
31673,42828,32627
31692,42800,32541
31845,42820,32584
31972,42813,32495
32032,42688,32492
32176,42753,32415
32212,42751,32401
32160,42757,32453
32116,42806,32376
32092,42835,32351
32056,42759,32293
32104,42719,32297
32192,42780,32359
32241,42759,32247
32280,42734,32220
32329,42719,32281
32342,42751,32192
