ECG,EDA,RR
32901,39589,16286
32877,39624,16270
32832,39657,16295
32808,39687,16171
32828,39698,16373
32812,39679,16311
32856,39647,16260
32894,39604,16321
32900,39573,16222
32840,39555,16440
32776,39589,16343
32704,39604,16284
32680,39653,16440
32646,39651,16419
32628,39645,16410
32628,39660,16431
32716,39630,16474
33184,39586,16484
33420,39562,16439
33276,39559,16551
32976,39572,16471
32512,39593,16711
32381,39640,16672
32268,39661,16671
32356,39676,16739
32393,39654,16751
32556,39623,16924
32736,39580,16877
32716,39556,16847
32720,39537,17020
32872,39524,17046
33056,39575,17193
33308,39615,17162
33684,39646,17188
34308,39655,17284
34948,39625,17235
35188,39604,17431
35080,39559,17377
34656,39534,17549
33772,39521,17521
32180,39536,17727
30002,39535,17653
27473,39630,17908
24620,39668,17785
21396,39600,17973
18264,39657,17944
15450,39645,18122
12974,39597,18181
12046,39591,18284
12040,39471,18490
12212,39575,18412
13173,39508,18564
15089,39636,18574
18284,39564,18578
22297,39652,18717
26008,39652,18805
28753,39597,18888
30692,39564,18985
32124,39521,19041
33108,39516,19197
33832,39487,19076
34296,39551,19288
34560,39588,19283
34721,39575,19392
34884,39623,19548
35064,39613,19559
35176,39580,19776
35224,39524,19636
35248,39490,19847
35284,39489,19805
35264,39471,20020
35204,39533,20004
35182,39548,20235
35192,39599,20176
35196,39606,20457
35200,39588,20376
35236,39545,20572
35328,39503,20674
35224,39485,20786
35216,39472,20924
35092,39465,20855
35086,39516,21074
35036,39559,21067
34993,39582,21256
34976,39589,21308
34981,39569,21492
35000,39543,21492
34988,39500,21702
34976,39477,21740
34946,39468,21893
34948,39491,21908
34875,39512,22142
34825,39557,22128
34798,39536,22338
34828,39572,22343
34832,39527,22549
34840,39531,22615
34832,39477,22865
34808,39460,22734
34782,39468,22900
34760,39471,23041
34709,39495,23125
34648,39548,23348
34601,39551,23285
34580,39573,23516
34576,39544,23436
34604,39524,23456
34612,39483,23618
34580,39452,23620
34568,39404,23780
34504,39447,23782
34444,39484,23924
34388,39519,23978
34360,39504,24178
34360,39544,24124
34340,39503,24267
34388,39487,24315
34464,39428,24442
34460,39431,24449
34413,39429,24477
34344,39455,24606
34248,39487,24572
34180,39503,24756
34104,39505,24684
34100,39541,24855
34112,39524,24854
34116,39489,25063
34137,39467,24996
34124,39431,25172
34074,39406,25045
33992,39440,25165
33884,39465,25152
33845,39500,25354
33796,39526,25258
33760,39535,25430
33728,39524,25288
33692,39480,25348
33696,39457,25441
33700,39420,25428
33641,39420,25543
33488,39396,25492
33440,39460,25631
33664,39452,25537
33688,39521,25657
33456,39528,25492
33181,39469,25593
32988,39479,25742
32952,39451,25610
33023,39415,25659
32940,39412,25607
32908,39381,25660
32904,39453,25644
32918,39489,25717
33088,39512,25777
33068,39512,25775
32900,39503,25919
32792,39468,25808
32756,39431,25869
32722,39376,25796
32788,39399,25835
32728,39402,25897
32688,39431,25919
32796,39492,26032
32840,39508,25888
32876,39504,25929
32848,39489,25952
32880,39453,25956
32996,39417,26109
32996,39399,26040
33021,39389,26138
33060,39401,26004
33056,39431,26045
33012,39463,25991
32976,39453,26046
32970,39492,25998
33032,39479,26037
33016,39460,26134
33036,39372,25985
33057,39401,26043
33036,39373,25964
33012,39399,25969
32980,39428,26116
32925,39460,25980
32896,39489,26076
32928,39488,25928
33052,39476,25944
33100,39442,25783
33109,39396,25832
33108,39380,25825
33102,39368,25688
33072,39372,25729
33054,39405,25723
32984,39455,25653
32954,39469,25560
32964,39476,25601
32974,39472,25614
33016,39431,25454
33088,39399,25488
33104,39325,25531
33176,39353,25351
33148,39376,25392
33104,39409,25408
33080,39440,25258
33068,39455,25324
33108,39464,25316
33128,39468,25198
33159,39424,25249
33185,39378,25326
33220,39365,25206
33228,39334,25284
33216,39321,25092
33248,39390,25113
33196,39440,25093
33212,39407,25100
33228,39452,25138
33257,39412,24998
33288,39412,25004
33312,39383,24932
33340,39346,24965
33316,39344,24875
33244,39356,24900
33236,39390,24836
33660,39420,24852
33756,39452,24837
33476,39454,24812
33197,39446,24797
33016,39400,24807
32940,39363,24915
32940,39333,24716
32992,39337,24756
33028,39340,24786
32988,39388,24628
32940,39393,24658
32936,39431,24762
32960,39449,24609
32960,39431,24624
32992,39399,24452
32988,39352,24516
33000,39332,24580
33000,39306,24359
32941,39311,24374
32908,39375,24420
32870,39388,24317
32824,39413,24300
32800,39441,24400
32774,39421,24192
32804,39383,24260
32800,39324,24308
32860,39325,24121
32858,39324,24150
32844,39280,24329
32788,39352,24171
32800,39403,24266
32808,39413,24132
32804,39410,24279
32792,39377,24142
32808,39375,24224
32812,39343,24044
32848,39318,24129
32884,39303,24143
32908,39298,24091
32908,39349,24180
32862,39389,24049
32807,39414,24121
32776,39405,24198
32764,39399,24162
32836,39373,24143
32892,39318,24334
32864,39312,24144
32788,39295,24260
32696,39318,24144
32608,39345,24275
32556,39380,24172
32488,39406,24252
32416,39407,24249
32416,39360,24289
32420,39356,24381
32464,39328,24356
32436,39276,24413
32416,39288,24550
32300,39293,24404
32212,39327,24524
32145,39369,24436
32084,39407,24413
32053,39396,24533
32144,39388,24476
32192,39308,24617
32238,39313,24703
32288,39292,24572
32292,39284,24702
32296,39279,24591
32284,39295,24654
32228,39351,24709
32176,39385,24733
32116,39385,24884
32120,39375,24826
32183,39339,24977
32184,39308,24887
32128,39270,25060
32053,39237,24921
32024,39276,25042
31937,39311,24999
31880,39347,25080
31888,39376,25081
31936,39344,25170
31948,39352,25173
31980,39321,25228
32045,39245,25296
32068,39265,25384
32060,39254,25424
32069,39278,25422
32064,39249,25484
32044,39340,25633
32076,39375,25636
32140,39359,25792
32232,39359,25740
32440,39316,25881
32636,39271,25836
32876,39251,25876
33286,39229,25899
33916,39253,25994
34480,39277,26154
34628,39317,26133
34493,39337,26265
34154,39354,26188
33392,39349,26266
32032,39311,26296
30048,39290,26417
27518,39212,26452
24400,39256,26501
20904,39281,26618
17509,39324,26584
14425,39373,26628
11888,39389,26703
11033,39415,26744
10929,39391,26840
11474,39295,26900
12899,39314,27050
15276,39223,27017
19102,39264,27181
23224,39261,27226
26496,39303,27173
28660,39324,27348
30189,39292,27295
31381,39344,27400
32396,39332,27383
33173,39295,27536
33688,39253,27497
34036,39200,27618
34276,39222,27565
34465,39222,27652
34549,39215,27799
34576,39295,27784
34592,39303,27924
34609,39327,27917
34672,39312,28073
34744,39264,28068
34776,39234,28216
34892,39212,28182
34928,39165,28302
34868,39213,28269
34804,39248,28333
34720,39268,28380
34672,39303,28462
34660,39300,28593
34632,39270,28574
34668,39257,28642
34660,39220,28653
34629,39197,28704
34640,39175,28869
34596,39204,28842
34468,39239,28948
34364,39261,28913
34304,39298,29005
34300,39303,28993
34338,39274,29079
34382,39248,29111
34412,39201,29190
34364,39141,29177
34332,39161,29282
34268,39180,29253
34156,39222,29300
34072,39261,29301
34008,39276,29318
33952,39289,29372
33919,39228,29367
33940,39228,29415
33964,39194,29527
33972,39139,29476
33952,39160,29500
33936,39185,29559
33880,39204,29576
33836,39247,29612
33804,39259,29601
33724,39268,29664
33676,39260,29761
33684,39229,29725
33645,39193,29775
33640,39149,29787
33616,39161,29836
33488,39167,29925
33389,39205,29908
33340,39223,29940
33280,39258,30032
33224,39269,30033
33189,39252,30117
33216,39209,30082
33257,39130,30143
33270,39149,30154
33284,39145,30208
33260,39158,30215
33233,39192,30289
33228,39229,30290
33200,39262,30333
33288,39261,30332
33312,39236,30373
33208,39219,30420
33108,39163,30439
33060,39138,30453
33052,39126,30488
33016,39148,30497
32980,39175,30505
32900,39216,30548
32852,39245,30565
32836,39253,30612
32820,39237,30596
32748,39207,30609
32712,39153,30686
32661,39112,30663
32576,39128,30662
32472,39148,30724
32432,39173,30727
32421,39168,30786
32396,39233,30765
32374,39240,30837
32380,39229,30814
32412,39197,30842
32422,39164,30900
32456,39137,30892
32440,39124,30970
32406,39092,30945
32366,39157,31007
32320,39164,31007
32300,39212,31012
32300,39244,31061
32320,39220,31090
32316,39153,31129
32344,39141,31157
32360,39130,31196
32356,39124,31204
32396,39136,31220
32368,39163,31256
32368,39215,31277
32388,39229,31325
32432,39236,31346
32528,39175,31373
32652,39175,31374
32785,39156,31427
32840,39119,31444
32822,39118,31477
32773,39132,31503
32732,39169,31533
32680,39203,31560
32700,39212,31600
32792,39187,31614
32828,39209,31644
32796,39175,31678
32808,39155,31702
32764,39103,31728
32652,39103,31776
32596,39097,31784
32576,39108,31825
32582,39176,31844
32640,39176,31892
32660,39212,31901
32722,39205,31944
32841,39158,31971
32864,39116,32007
32848,39066,32028
32804,39096,32057
32728,39116,32081
32648,39151,32112
32628,39191,32134
32676,39207,32169
32736,39229,32204
32752,39199,32231
32744,39149,32272
32796,39079,32297
32868,39069,32340
32928,39094,32364
32921,39108,32380
32864,39085,32428
32768,39175,32440
32684,39197,32484
32680,39194,32502
32700,39175,32519
32772,39153,32566
32860,39111,32594
32880,39073,32602
32864,39079,32647
32832,39093,32671
32764,39117,32701
32749,39108,32733
32744,39175,32747
32752,39188,32788
32804,39165,32828
32862,39136,32836
32868,39065,32879
32880,39064,32870
32917,39029,32942
32920,39076,32968
32864,39111,32989
32788,39136,33002
32752,39171,33051
32760,39165,33082
32812,39152,33109
32872,39117,33124
32920,39090,33153
32970,39016,33168
32945,39041,33210
32885,39079,33237
32814,39092,33253
32781,39136,33255
32688,39161,33287
32660,39152,33276
32692,39111,33335
32754,39100,33329
32748,39081,33375
32720,39047,33349
32748,39029,33402
32744,39060,33393
32692,39078,33437
32712,39131,33420
32772,39140,33479
32816,39159,33464
32848,39131,33508
32880,39103,33495
32920,39060,33556
32908,39041,33533
32920,39029,33592
32968,39044,33599
32984,39060,33652
32972,39104,33637
32984,39137,33711
33016,39142,33695
33021,39118,33757
32984,39095,33804
33004,39036,33791
32956,39022,33856
32906,39020,33845
32848,39028,33916
32720,39064,33902
32656,39104,33981
32624,39127,34025
32648,39124,34012
32616,39072,34096
32576,39074,34097
32569,39029,34169
32612,39008,34197
32636,39010,34234
32616,39021,34269
32604,39047,34277
32556,39095,34319
32476,39110,34311
32476,39113,34390
32488,39080,34365
32472,39071,34460
32452,39036,34447
32458,39004,34535
32432,38992,34527
32404,39013,34607
32368,39044,34604
32356,39035,34692
32304,39088,34663
32312,39061,34764
32368,39088,34796
32473,38998,34838
32545,39017,34869
32564,38982,34860
32548,38948,34943
32484,38988,34923
32445,39021,35045
32409,39071,35012
32360,39047,35116
32356,39084,35111
32436,39078,35212
32452,39042,35196
32456,38991,35316
32464,38944,35297
32420,38960,35426
32392,38973,35487
32456,38981,35557
32588,39044,35604
32732,39067,35556
32976,39077,35717
33324,39038,35768
33856,39021,35741
34620,38976,35900
35220,38951,35854
35436,38919,36000
35289,38956,36044
34872,39001,36132
34020,39047,36121
32600,39060,36279
30656,39080,36305
28244,39064,36441
25016,39022,36495
21510,39010,36480
18158,38908,36614
14957,38984,36676
12258,39037,36764
11291,39052,36777
11157,39100,36884
11808,39122,36865
13332,39136,37017
15753,39111,36980
19809,39077,37140
24084,39012,37121
27224,38984,37263
29252,38964,37312
30548,38978,37365
31568,39015,37413
32528,39031,37394
33248,39048,37511
33728,39055,37468
34085,39045,37620
34321,39002,37564
34580,38958,37699
34792,38929,37654
34942,38919,37788
35008,38919,37767
35040,38967,37916
35060,39008,37964
35118,39024,38017
35152,39037,38074
35224,39004,38112
35232,38943,38102
35209,38932,38196
35232,38911,38220
35260,38896,38165
35176,38933,38304
35112,38951,38212
35069,38973,38293
35048,38992,38276
34980,39012,38352
34992,38967,38324
35012,38965,38376
35024,38919,38316
35025,38900,38416
35048,38895,38476
34996,38893,38453
34932,38919,38485
34884,38962,38380
34862,38984,38464
34804,39004,38404
34784,38991,38533
34818,38928,38509
34888,38897,38420
34872,38887,38457
34844,38864,38397
34800,38896,38437
34724,38913,38325
34684,38949,38433
34628,38983,38310
34536,38979,38423
34524,38971,38384
34502,38940,38341
34452,38901,38340
34408,38875,38213
34369,38868,38284
34368,38844,38266
34348,38919,38292
34304,38951,38170
34233,38983,38220
34216,38975,38228
34189,38959,38108
34177,38930,38124
34180,38881,38145
34204,38860,38028
34173,38852,38136
34128,38876,37995
34052,38897,38072
33988,38948,38023
33980,38949,37941
33974,38959,37965
33980,38944,37937
33937,38904,37894
33924,38878,37855
33956,38837,37801
33956,38833,37749
33920,38820,37703
33880,38887,37536
33836,38919,37572
33749,38948,37436
33708,38951,37492
33668,38932,37448
33600,38883,37340
33588,38852,37308
33588,38791,37162
33556,38813,37213
33484,38838,37076
33384,38887,37088
33268,38912,37061
33188,38933,36893
33152,38956,36928
33152,38919,36893
33158,38896,36817
33156,38845,36756
33072,38833,36597
33012,38821,36615
32942,38845,36493
32896,38875,36492
32828,38911,36463
32764,38914,36332
32788,38887,36332
32816,38901,36199
32840,38877,36228
32796,38836,36137
32808,38823,36132
32848,38805,36013
32809,38780,36024
32756,38845,35897
32748,38892,35964
32744,38919,35911
32776,38903,35847
32812,38898,35808
32872,38855,35677
32940,38828,35684
33036,38792,35578
33084,38757,35585
33100,38812,35462
33124,38844,35495
33140,38880,35365
33181,38872,35423
33252,38902,35335
33336,38884,35320
33456,38856,35173
33540,38804,35196
33652,38756,35161
33676,38773,35004
33696,38799,35056
33724,38825,35000
33712,38863,34844
33716,38900,34881
33756,38895,34757
33780,38842,34766
33792,38823,34653
33840,38772,34677
33897,38772,34581
33908,38769,34526
33880,38786,34521
33864,38821,34397
33912,38850,34413
33992,38885,34324
34042,38872,34311
34088,38866,34215
34132,38812,34213
34181,38782,34137
34212,38759,34121
34240,38756,34096
34268,38782,34054
34320,38766,33976
34360,38835,33956
34352,38875,33869
34332,38874,33881
34332,38845,33791
34348,38789,33799
34297,38779,33704
34264,38719,33728
34248,38745,33637
34180,38751,33655
34108,38804,33614
34108,38791,33546
34129,38853,33531
34156,38826,33452
34184,38847,33448
34193,38757,33433
34260,38769,33356
34304,38743,33371
34310,38719,33316
34272,38748,33305
34196,38788,33212
34149,38833,33236
34080,38836,33198
34044,38852,33150
34080,38791,33144
34104,38805,33108
34156,38756,33050
34172,38736,33060
34152,38719,33028
34104,38743,32980
34056,38745,32948
34016,38823,32925
34010,38836,32856
34041,38799,32860
34080,38828,32815
34148,38781,32766
34192,38750,32743
34208,38724,32708
34176,38724,32642
34132,38742,32617
34076,38758,32608
34072,38800,32572
34044,38825,32519
34052,38828,32488
34092,38817,32470
34101,38772,32414
34152,38737,32400
34172,38713,32362
34200,38710,32321
34177,38726,32293
34160,38749,32263
34128,38798,32232
34076,38808,32186
34096,38817,32175
34144,38805,32142
34172,38765,32109
34216,38692,32087
34256,38693,32063
34276,38701,32021
34276,38708,32016
34284,38713,31981
34272,38781,31966
34212,38789,31941
34164,38797,31933
34112,38789,31901
34112,38759,31900
34080,38726,31874
34044,38695,31871
33984,38693,31835
33965,38701,31841
33932,38757,31812
33890,38773,31816
33832,38807,31796
33820,38805,31790
33828,38743,31780
33820,38751,31771
33780,38727,31768
33796,38695,31756
33748,38692,31751
33684,38704,31751
33668,38732,31742
33620,38772,31747
33632,38802,31730
33673,38791,31741
33708,38765,31735
33760,38732,31748
33768,38663,31734
33756,38681,31751
33734,38669,31744
33684,38694,31751
33648,38727,31746
33592,38753,31769
33584,38756,31768
33644,38787,31778
33636,38768,31783
33604,38720,31799
33649,38688,31805
33652,38663,31833
33660,38663,31832
33672,38679,31860
33652,38721,31837
33612,38706,31891
33572,38767,31905
33532,38783,31928
33513,38752,31956
33560,38720,31986
33552,38647,32015
33592,38649,32029
33556,38660,32059
33592,38660,32101
33625,38702,32116
33740,38732,32152
33940,38757,32164
34208,38720,32207
34636,38732,32237
35380,38677,32276
36080,38657,32316
36444,38636,32341
36393,38624,32380
35988,38657,32388
35152,38693,32441
33824,38740,32460
31773,38762,32517
29412,38780,32562
26486,38692,32560
23124,38732,32628
19696,38728,32637
16596,38708,32700
13645,38684,32740
11856,38663,32741
11444,38742,32821
11617,38716,32843
12485,38816,32895
14340,38753,32937
17468,38791,32933
21828,38741,33018
25889,38694,33052
28884,38663,33087
30788,38607,33073
32188,38652,33157
33312,38693,33156
34184,38728,33236
34784,38749,33271
35180,38747,33308
35476,38700,33303
35744,38687,33380
35984,38647,33368
36120,38615,33453
36184,38582,33493
36188,38625,33511
36164,38662,33598
36124,38705,33655
36104,38715,33671
36069,38706,33752
36116,38697,33751
36132,38648,33829
36204,38628,33833
36224,38600,33932
36196,38609,33903
36092,38622,34012
35981,38663,34009
35908,38700,34100
35832,38708,34140
35808,38720,34164
35796,38663,34224
35816,38649,34261
35836,38622,34289
35908,38597,34275
35856,38573,34372
35768,38612,34348
35693,38636,34465
35620,38652,34503
35528,38695,34469
35476,38710,34533
35484,38689,34489
35496,38650,34588
35468,38600,34543
35473,38562,34629
35480,38587,34580
35432,38596,34660
35316,38644,34596
35236,38676,34661
35156,38692,34614
35136,38663,34681
35164,38673,34661
35156,38639,34715
35176,38594,34684
35160,38567,34736
35112,38573,34768
35040,38597,34716
34932,38625,34793
34840,38671,34740
34776,38692,34834
34752,38693,34830
34749,38672,34818
34760,38597,34889
34756,38596,34814
34732,38583,34900
34648,38552,34937
34560,38587,34886
34457,38621,34934
34424,38663,34903
34388,38672,34973
34356,38689,34988
34328,38657,34941
34312,38623,34983
34288,38586,34916
34346,38556,34999
34336,38565,35010
34300,38567,35028
34229,38617,35016
34172,38652,35044
34096,38676,35044
34028,38676,35065
34055,38616,35047
34068,38619,34990
34021,38564,35052
33944,38564,34964
33876,38558,35047
33784,38575,34981
33688,38565,35057
33596,38644,34973
33517,38649,35049
33413,38671,35021
33380,38623,35055
33388,38608,35009
33404,38591,35065
33340,38559,35046
33278,38551,35028
33185,38574,35080
33100,38601,34999
33008,38609,35076
32948,38663,35036
32916,38676,35110
32893,38645,35093
32941,38608,35060
32956,38535,35116
32924,38545,35041
32888,38535,35136
32840,38569,35141
32812,38612,35173
32780,38645,35189
32736,38651,35133
32756,38631,35192
32780,38633,35115
32840,38612,35197
32896,38572,35207
32944,38544,35248
32988,38535,35249
32976,38556,35169
32997,38591,35254
32992,38636,35238
33040,38655,35316
33120,38642,35316
33123,38620,35320
33140,38590,35281
33164,38556,35368
33184,38532,35392
33208,38516,35412
33176,38557,35383
33175,38581,35441
33136,38629,35468
33104,38647,35373
33124,38655,35468
33165,38624,35496
33192,38580,35469
33232,38516,35553
33240,38521,35468
33204,38532,35560
33152,38548,35540
33108,38574,35636
33052,38612,35632
33056,38636,35551
33056,38644,35680
33096,38616,35636
33140,38564,35725
33172,38532,35748
33212,38523,35665
33220,38525,35764
33188,38500,35812
33188,38565,35730
33168,38617,35812
33164,38596,35860
33204,38629,35820
33220,38613,35889
33269,38548,35904
33368,38533,35895
33421,38525,35975
33432,38517,35916
33420,38534,36032
33376,38565,36097
33360,38582,36135
33344,38621,36061
33368,38631,36167
33384,38607,36111
33424,38573,36241
33464,38535,36183
33508,38508,36295
33528,38502,36249
33484,38535,36356
33414,38564,36316
33336,38605,36456
33356,38614,36417
33412,38612,36545
33440,38597,36480
33468,38518,36591
33492,38521,36519
33488,38500,36644
33472,38501,36641
33440,38523,36748
33428,38513,36767
33396,38583,36709
33408,38615,36848
33413,38605,36892
33432,38604,36933
33452,38549,36876
33484,38508,36968
33476,38490,37039
33440,38497,37068
33420,38510,37113
33368,38529,37149
33301,38544,37177
33276,38596,37084
33296,38591,37204
33304,38581,37167
33336,38554,37271
33365,38489,37221
33337,38493,37371
33324,38495,37383
33308,38508,37454
33308,38548,37490
33338,38575,37525
33396,38590,37548
33410,38592,37454
33452,38572,37623
33556,38548,37661
33577,38503,37705
33560,38489,37752
33516,38448,37636
33496,38503,37780
33396,38543,37820
33381,38576,37872
33436,38598,37930
33454,38599,37952
33504,38575,37965
33516,38543,38018
33492,38516,37925
33456,38476,38091
33352,38478,38134
33260,38500,38136
33136,38529,38089
33020,38566,38228
32960,38597,38260
32932,38588,38244
32984,38572,38276
33052,38526,38209
33109,38484,38357
33044,38470,38265
32957,38473,38428
32872,38489,38420
32816,38533,38421
32756,38546,38440
32712,38581,38333
32692,38535,38421
32724,38548,38365
32756,38532,38445
32820,38455,38365
32800,38460,38463
32756,38468,38381
32729,38477,38496
32764,38511,38509
32736,38544,38457
32706,38575,38404
32704,38545,38532
32728,38548,38510
32756,38513,38503
32824,38480,38373
32876,38460,38436
32842,38420,38464
32728,38476,38375
32644,38519,38433
32584,38548,38349
32572,38563,38454
32584,38524,38429
32644,38534,38463
32664,38503,38455
32660,38487,38338
32660,38407,38441
32696,38449,38400
32672,38460,38420
32672,38468,38428
32704,38521,38420
32805,38540,38313
32996,38554,38380
33236,38528,38364
33576,38508,38406
34104,38469,38413
34912,38434,38255
35476,38434,38366
35548,38423,38356
35244,38492,38255
34596,38517,38324
33500,38554,38308
31620,38556,38359
29292,38554,38380
26574,38532,38224
23460,38420,38348
20004,38472,38368
16680,38503,38212
13680,38516,38352
10965,38560,38334
9842,38597,38348
9530,38624,38216
9838,38615,38356
11244,38532,38336
13565,38556,38308
17302,38532,38184
21900,38396,38288
25884,38468,38245
28668,38436,38287
30600,38501,38200
32044,38493,38272
33164,38548,38206
34030,38564,38287
34628,38506,38302
35020,38489,38278
35264,38457,38285
35441,38433,38160
35572,38421,38243
35652,38453,38220
35648,38476,38288
35640,38505,38305
35588,38512,38325
35628,38533,38289
35692,38500,38340
35740,38475,38292
35768,38447,38369
35764,38420,38384
35720,38404,38237
35696,38407,38332
35630,38468,38237
35600,38500,38325
35588,38524,38241
35580,38524,38334
35552,38495,38241
35620,38441,38380
35624,38427,38253
35624,38405,38332
35588,38407,38252
35500,38431,38405
35396,38457,38399
35296,38503,38414
35280,38500,38393
35244,38516,38404
35268,38497,38252
35228,38471,38332
35220,38420,38228
35208,38372,38286
35188,38391,38183
35109,38407,38255
35036,38452,38164
34984,38488,38238
34952,38508,38205
34924,38501,38080
34908,38468,38151
34892,38444,38044
34849,38415,38148
34832,38401,37988
34764,38396,38093
34708,38421,37957
34677,38445,38023
34640,38492,37977
34592,38509,38000
34556,38494,37955
34520,38489,37991
34508,38453,37939
34520,38407,37943
34480,38399,37928
34444,38388,37935
34380,38405,37781
34312,38397,37831
34284,38468,37861
34268,38485,37724
34264,38465,37796
34284,38484,37809
34312,38439,37664
34272,38398,37716
34262,38385,37667
34204,38389,37717
34132,38396,37723
34094,38420,37580
34088,38453,37624
34028,38490,37604
33993,38496,37639
33984,38447,37605
33968,38434,37471
33952,38407,37558
33960,38384,37561
33868,38381,37540
33764,38367,37469
33636,38432,37420
33504,38480,37364
33424,38455,37410
33392,38484,37321
33332,38474,37380
33344,38443,37255
33328,38399,37356
33284,38389,37341
33196,38372,37202
33096,38389,37305
32992,38445,37255
32892,38477,37201
32841,38493,37257
32792,38489,37204
32768,38465,37167
32772,38437,37148
32760,38400,37184
32740,38383,37100
32698,38372,37149
32628,38404,37100
32600,38431,37164
32572,38461,37172
32552,38472,37031
32568,38488,37150
32620,38453,37108
32700,38396,37029
32708,38400,37109
32700,38372,37008
32652,38382,37104
32604,38383,37031
32620,38432,37143
32628,38469,37172
32656,38500,37088
32702,38493,37169
32792,38468,37062
32844,38429,37151
32884,38395,37052
32916,38330,37191
32880,38364,37220
32801,38397,37117
32780,38423,37238
32748,38461,37122
32737,38481,37212
32753,38479,37135
32780,38456,37233
32820,38422,37153
32852,38388,37281
32864,38368,37326
32822,38359,37333
32756,38388,37353
32720,38423,37256
32718,38461,37351
32608,38476,37278
32572,38481,37370
32628,38440,37308
32720,38372,37423
32812,38389,37356
32852,38356,37476
32852,38345,37407
32840,38369,37527
32792,38375,37440
32736,38447,37541
32732,38452,37452
32772,38471,37560
32848,38440,37511
32924,38418,37639
32996,38379,37545
33037,38316,37672
32976,38343,37703
32965,38367,37609
32980,38407,37724
32992,38439,37672
33024,38468,37783
33004,38463,37733
33096,38445,37892
33172,38407,37894
33240,38351,37807
33316,38350,37927
33324,38345,37840
33324,38373,38001
33318,38401,38004
33304,38444,37952
33292,38457,37991
33288,38468,37917
33348,38447,38012
33392,38388,37940
33440,38349,38052
33492,38344,37985
33468,38355,38073
33476,38365,38022
33408,38364,38139
33340,38437,38158
33300,38461,38138
33284,38459,38172
33300,38442,38208
33340,38399,38196
33352,38371,38191
33364,38343,38208
33320,38339,38247
33312,38329,38102
33254,38390,38179
33228,38431,38077
33268,38452,38191
33272,38452,38140
33324,38439,38188
33382,38405,38108
33440,38351,38240
33468,38309,38206
33380,38343,38132
33252,38372,38189
33168,38401,38132
33145,38423,38172
33144,38407,38079
33160,38455,38215
33200,38428,38074
33288,38404,38205
33356,38357,38181
33373,38342,38184
33368,38341,38056
33300,38365,38124
33222,38397,38042
33216,38425,38142
33207,38444,38038
33216,38448,38100
33228,38422,38030
33293,38344,38109
33340,38359,38010
33384,38303,38124
33388,38332,38004
33336,38353,38081
33260,38391,37975
33185,38439,38101
33124,38449,38113
33060,38430,37953
33032,38429,38032
33024,38380,37997
33024,38338,38023
32996,38333,37998
32956,38302,38015
32936,38357,37994
32896,38401,37997
32840,38421,37965
32784,38407,37967
32733,38445,37970
32704,38405,37816
32732,38376,37887
32820,38357,37767
32832,38313,37888
32808,38327,37902
32776,38348,37740
32772,38373,37841
32744,38420,37871
32696,38452,37748
32673,38444,37791
32688,38420,37764
32736,38391,37708
32780,38351,37764
32759,38328,37701
32704,38329,37780
32688,38340,37796
32624,38349,37652
32552,38407,37751
32548,38449,37784
32576,38441,37653
32608,38424,37728
32660,38380,37644
32700,38348,37728
32704,38322,37676
32652,38316,37736
32604,38336,37772
32584,38372,37615
32549,38401,37725
32502,38436,37605
32512,38439,37716
32568,38404,37636
32672,38381,37597
32778,38334,37694
32884,38305,37592
33076,38309,37668
33244,38337,37588
33480,38365,37668
33872,38394,37568
34592,38417,37652
35280,38383,37568
35584,38388,37676
35492,38357,37543
35109,38329,37653
34196,38317,37519
32616,38313,37568
30408,38348,37537
27784,38372,37556
24736,38436,37448
21338,38404,37508
17968,38460,37410
14914,38404,37468
12022,38421,37410
10505,38404,37447
10050,38281,37454
10221,38372,37320
11306,38342,37413
13358,38446,37367
16746,38453,37244
21200,38472,37353
25284,38473,37316
28312,38426,37188
30336,38373,37256
31860,38349,37183
33036,38317,37265
33888,38300,37239
34456,38328,37223
34776,38364,37087
35024,38392,37138
35184,38386,37038
35352,38404,37140
35526,38398,37149
35644,38366,37085
35716,38321,37119
35753,38297,37121
35776,38261,37113
35760,38322,37095
35744,38356,37076
35696,38390,36956
35645,38404,37028
35640,38407,36929
35624,38375,36994
35632,38344,37016
35680,38313,36860
35693,38284,36930
35636,38289,36828
35616,38300,36904
35536,38344,36789
35456,38373,36884
35416,38397,36765
35416,38401,36836
35452,38368,36750
35448,38340,36846
35428,38300,36863
35452,38279,36728
35408,38276,36801
35376,38303,36724
35332,38332,36831
35312,38372,36837
35264,38383,36693
35264,38400,36790
35264,38366,36792
35305,38335,36668
35292,38293,36775
35276,38269,36785
35236,38276,36756
35180,38302,36732
35076,38333,36740
35024,38365,36719
34984,38388,36726
34968,38389,36732
34972,38358,36724
34972,38292,36716
34952,38292,36711
34936,38271,36676
34896,38268,36708
34804,38301,36688
34719,38333,36620
34610,38364,36711
34566,38388,36711
34620,38380,36705
34638,38346,36709
34624,38317,36716
34600,38249,36615
34560,38266,36740
34520,38260,36627
34484,38292,36725
34420,38313,36669
34348,38357,36767
34316,38373,36782
34292,38372,36806
34264,38365,36808
34272,38304,36743
34264,38285,36813
34240,38261,36796
34236,38247,36855
34188,38280,36793
34136,38335,36881
34088,38353,36798
34016,38383,36923
33976,38369,36836
33964,38351,36951
33956,38313,36900
33924,38279,37028
33860,38252,37039
33764,38268,36941
33652,38272,37085
33544,38324,36981
33460,38351,37051
33396,38379,37095
33376,38375,37004
33364,38317,37096
33344,38294,37089
33344,38285,37028
33308,38265,37106
33228,38257,37094
33156,38282,37100
33108,38308,37012
33064,38322,37064
33012,38361,37021
33009,38320,37077
33044,38333,36952
33056,38311,37020
33060,38277,36904
33056,38236,37021
33052,38255,37005
33024,38279,36871
32974,38301,36937
32972,38351,36956
33002,38353,36813
33032,38364,36846
33088,38343,36767
33156,38301,36836
33228,38273,36767
33296,38241,36722
33308,38214,36716
33294,38269,36592
33272,38268,36636
33252,38335,36548
33244,38362,36607
33284,38319,36533
33324,38332,36414
33336,38300,36484
33376,38221,36442
33384,38240,36301
33372,38255,36325
33328,38236,36288
33280,38301,36271
33240,38337,36228
33216,38335,36062
33208,38321,36056
33253,38329,36060
33300,38287,36012
33304,38260,35981
33324,38230,35961
33288,38212,35786
33256,38252,35829
33220,38294,35767
33208,38311,35668
33196,38344,35676
33220,38353,35557
33260,38328,35597
33336,38286,35552
33388,38244,35425
33436,38233,35449
33410,38221,35418
33356,38252,35262
33340,38284,35304
33312,38316,35244
33300,38351,35196
33334,38337,35055
33384,38311,35116
33444,38271,35055
33504,38255,34972
33532,38220,34901
33548,38223,34948
33552,38245,34875
33528,38295,34729
33504,38308,34783
33484,38327,34727
33536,38332,34582
33592,38303,34596
33640,38278,34460
33684,38239,34485
33720,38212,34393
33720,38183,34364
33708,38247,34276
33648,38285,34215
33628,38309,34193
33632,38343,34076
33676,38323,34063
33696,38304,33948
33720,38271,33901
33764,38236,33880
33776,38221,33781
33772,38215,33758
33740,38228,33610
33704,38279,33620
33652,38268,33552
33636,38322,33476
33640,38316,33372
33676,38267,33350
33696,38255,33252
33732,38236,33236
33736,38196,33156
33728,38215,33064
33695,38237,33002
33645,38228,32957
33612,38296,32893
33612,38309,32799
33644,38308,32770
33712,38299,32695
33745,38252,32623
33800,38223,32541
33824,38199,32504
33836,38201,32405
33828,38212,32369
33768,38258,32308
33781,38293,32212
33800,38298,32172
33844,38287,32104
33878,38293,32050
33920,38255,31988
33928,38222,31909
33964,38184,31855
33880,38199,31813
33804,38188,31733
33708,38262,31687
33620,38295,31607
33544,38316,31569
33488,38273,31516
33500,38285,31436
33524,38244,31388
33504,38224,31351
33516,38192,31274
33492,38205,31221
33468,38228,31172
33380,38260,31120
33280,38273,31050
33192,38311,31004
33180,38313,30948
33192,38279,30888
33253,38247,30836
33328,38212,30801
33356,38196,30719
33324,38180,30673
33264,38202,30628
33224,38249,30560
33165,38285,30510
33141,38301,30471
33132,38308,30375
33180,38228,30364
33268,38233,30308
33260,38189,30292
33261,38176,30202
33237,38181,30165
33216,38183,30116
33160,38228,30070
33132,38241,30016
33116,38279,29973
33100,38293,29933
33080,38268,29868
33117,38228,29838
33156,38196,29777
33180,38160,29728
33164,38132,29729
33128,38181,29617
33104,38239,29600
33032,38268,29519
33038,38286,29469
33064,38287,29438
33152,38260,29372
33265,38233,29317
33432,38184,29262
33624,38169,29246
33776,38151,29164
34020,38181,29140
34504,38231,29076
35204,38247,29079
35720,38257,28969
35844,38260,28964
35672,38223,28866
35116,38201,28829
34024,38167,28767
32152,38176,28729
29933,38174,28672
27176,38193,28636
23868,38228,28598
20224,38300,28636
16898,38329,28516
13956,38324,28496
11506,38296,28412
10801,38265,28399
10812,38184,28340
11320,38220,28291
12773,38237,28311
15228,38228,28233
19224,38191,28205
23602,38282,28128
27232,38253,28081
29760,38292,28094
31872,38261,27989
33308,38217,27968
34176,38164,28007
34712,38142,27847
34976,38150,27894
35180,38175,27736
35340,38200,27714
35504,38217,27749
35624,38255,27596
35764,38241,27628
35852,38219,27504
35948,38164,27559
35992,38149,27428
35960,38132,27482
35944,38129,27340
35908,38151,27367
35864,38191,27220
35812,38237,27140
35808,38213,27119
35756,38247,27068
35764,38221,27104
35804,38188,26940
35824,38151,26977
35808,38127,26780
35749,38128,26717
35696,38135,26772
35624,38181,26628
35588,38212,26673
35556,38228,26504
35548,38232,26464
35568,38207,26343
35576,38140,26308
35552,38140,26257
35560,38110,26248
35616,38119,26113
35720,38138,26164
35565,38173,25956
35408,38208,25928
35208,38226,25807
35144,38229,25816
35105,38192,25645
35140,38165,25713
35132,38125,25455
35140,38117,25396
35060,38105,25289
35004,38124,25236
34944,38175,25180
34884,38199,25042
34804,38212,25100
34800,38225,24933
34824,38188,24968
34828,38150,24745
34840,38121,24700
34848,38097,24514
34800,38096,24552
34705,38116,24397
34616,38151,24428
34545,38199,24224
34480,38208,24302
34468,38207,24084
34488,38177,24116
34529,38144,23850
34508,38104,23820
34484,38076,23712
34436,38093,23682
34393,38111,23559
34312,38125,23593
34238,38181,23405
34208,38188,23348
34132,38189,23457
34072,38151,23220
34108,38144,23286
34116,38098,23086
34102,38076,23014
34017,38085,22918
33928,38108,22969
33832,38124,22678
33757,38176,22712
33701,38151,22573
33664,38202,22636
33630,38167,22379
33597,38135,22214
33536,38103,22235
33448,38065,22069
33360,38076,22141
33280,38104,21972
33304,38139,21833
33228,38164,21882
33008,38180,21735
33000,38188,21787
33188,38166,21565
33184,38100,21554
33061,38081,21391
32872,38071,21358
32800,38079,21205
33088,38081,21073
33180,38135,21157
33000,38157,20936
32797,38189,20997
32524,38169,20840
32532,38129,20834
32664,38104,20860
32808,38049,20623
32808,38055,20699
32681,38060,20645
32560,38087,20549
32480,38119,20460
32468,38150,20450
32526,38142,20333
32676,38181,20341
32872,38143,20284
33072,38111,20292
33032,38069,20382
32905,38032,20138
32880,38040,20187
32828,38069,19996
32761,38114,20145
32792,38132,20015
32837,38157,19991
32876,38164,19903
32916,38134,19916
33045,38096,19754
33068,38052,19853
33052,38037,19703
33062,38020,19777
32988,38068,19617
32932,38096,19711
32912,38101,19556
32993,38140,19646
33144,38148,19471
32988,38124,19449
32974,38084,19263
33025,38057,19348
33064,38033,19366
33072,38037,19174
33112,38010,19139
33468,38093,19225
33608,38103,19037
33324,38140,19053
32984,38141,19176
32884,38121,18978
32952,38079,18994
33056,38041,18820
33116,38023,18900
33192,38029,18996
33236,38041,18765
33372,38080,18860
33316,38114,18659
33240,38135,18751
33188,38135,18814
33196,38108,18651
33188,38072,18712
33280,38030,18527
33332,37999,18684
33328,38017,18498
33336,38044,18638
33302,38076,18480
33288,38101,18637
33280,38137,18404
33304,38129,18526
33336,38093,18359
33389,38060,18443
33420,38017,18356
33453,37975,18398
33416,38016,18460
33384,38031,18404
33612,38079,18492
33797,38105,18320
33660,38089,18455
33488,38113,18246
33300,38074,18332
33233,38049,18439
33228,38023,18341
33280,38003,18468
33308,38004,18249
33276,37996,18352
33336,38060,18199
33360,38103,18264
33352,38114,18414
33552,38118,18167
33476,38092,18255
33313,38040,18337
33384,38013,18228
33384,37983,18325
33396,37991,18151
33340,38023,18297
33248,38052,18124
33272,38095,18212
33248,38087,18102
33336,38111,18229
33420,38071,18091
33612,38013,18188
34020,38012,18124
34080,37991,18193
33880,37994,18241
33601,38007,18103
33388,38020,18210
33210,38087,18070
33284,38092,18201
33344,38056,18049
33420,38082,18156
33472,38031,18044
33504,37967,18132
33480,37991,18151
33533,37985,18172
33548,38014,18244
33432,38053,18044
33236,38085,18143
33112,38094,18305
33056,38101,18150
33132,38069,18214
33125,38031,18056
33172,37991,18137
33128,37981,18285
33098,37975,18034
33038,37999,18126
33233,38045,18216
33380,38068,18038
33184,38101,18132
32844,38088,18169
32722,38037,18166
32788,38023,18182
32865,37968,18138
32944,37961,18166
32944,37943,18220
32910,37988,18037
32884,37999,18142
32756,38070,18116
32780,38076,18156
32832,38085,18130
32888,38052,18129
32976,38019,18151
32862,37989,18188
32840,37956,18014
32832,37927,18109
32924,37989,18039
32796,38016,18117
32660,38063,18031
32668,38036,18095
32708,38080,18015
32768,38039,18104
32796,38008,18008
32772,37973,18087
32797,37959,18243
32736,37960,18011
32672,37976,18103
32688,38023,18078
32608,38060,18122
32584,38069,18196
32628,38036,17984
32696,38028,18097
32886,37977,18253
33076,37964,18050
33300,37955,18184
33620,37953,18025
34084,37964,18117
34732,38015,18244
35137,38024,18104
35168,38049,18204
34933,38052,18143
34516,38028,18196
33712,37999,18202
31900,37980,18243
29593,37967,18272
26884,37956,18420
23806,37936,18175
20438,38055,18372
17352,38088,18235
14608,38008,18342
12472,38100,18513
11976,38095,18399
12160,37973,18592
12881,38039,18521
14424,38010,18542
16908,37996,18540
20621,38016,18506
24512,38044,18613
27550,38062,18681
29708,38086,18712
31561,38068,18801
32820,38011,18676
33620,38004,18900
34126,37959,18837
34364,37932,19010
34544,37948,18852
34673,37965,19015
34784,37975,18876
34876,38033,19087
34960,38044,18948
35016,38015,19156
35060,38023,19050
35100,37983,19188
35148,37919,19232
35192,37933,19357
35156,37924,19525
35100,37949,19424
35044,37980,19606
35000,38023,19599
34976,38008,19767
34957,38044,19689
34972,38007,19780
34989,37963,19709
34973,37940,19879
34936,37921,19852
34905,37929,19988
34901,37949,20239
34873,37987,20167
34868,37986,20340
34791,38045,20328
34752,38037,20491
34745,38005,20466
34772,37977,20656
34808,37940,20524
34804,37925,20724
34790,37918,20822
34716,37945,20769
34624,37980,20964
34604,37996,21045
34592,38036,21009
34629,38022,21225
34684,38013,21250
34772,37960,21368
34776,37895,21592
34788,37919,21550
34720,37913,21737
34636,37940,21676
34596,37967,21827
34548,38006,21806
34508,38036,22005
34468,38023,22218
34448,37997,22113
34416,37964,22284
34404,37927,22385
34390,37908,22497
34346,37919,22772
34280,37935,22700
34236,37983,22854
34157,38015,22857
34120,38015,23075
34080,38023,23156
34069,37962,23428
34088,37958,23404
34140,37932,23634
34104,37904,23604
34020,37921,23752
33940,37933,23779
33872,37972,23951
33812,37998,24231
33740,38031,24143
33700,38021,24284
33636,38007,24559
33616,37967,24528
33612,37895,24759
33568,37909,24719
33520,37917,24849
33452,37949,25046
33344,37972,25068
33248,38009,25333
33158,38023,25270
33172,37983,25435
33192,37989,25572
33220,37924,25671
33206,37925,25852
33168,37911,25844
33072,37912,25951
32932,37941,26105
32816,37981,26178
32768,38014,26412
32727,38036,26382
32928,38023,26495
33416,37985,26604
33360,37971,26744
32993,37941,26872
32592,37919,26981
32304,37919,27060
32180,37935,27241
32212,37951,27237
32282,38020,27339
32296,38036,27428
32340,37997,27527
32392,37984,27655
32456,37966,27840
32452,37926,27831
32492,37876,27932
32576,37911,28103
32608,37917,28130
32592,37961,28288
32572,38020,28285
32536,38020,28368
32528,37987,28538
32592,38007,28545
32597,37961,28678
32616,37933,28682
32652,37916,28766
32645,37917,28837
32608,37920,28913
32568,37983,29024
32512,38007,29042
32469,38028,29156
32494,38029,29172
32554,37996,29291
32592,37956,29284
32624,37933,29348
32646,37908,29415
32632,37909,29474
32606,37927,29572
32585,37975,29575
32568,38015,29679
32508,38028,29672
32532,38020,29732
32588,37996,29780
32620,37966,29843
32664,37916,29938
32661,37881,29945
32664,37917,29997
32602,37941,30016
32576,37981,30070
32540,38004,30143
32548,38014,30143
32553,38015,30188
32628,37965,30224
32712,37957,30279
32750,37895,30313
32744,37894,30331
32736,37903,30382
32688,37930,30402
32656,37969,30436
32630,38010,30446
32624,38033,30489
32612,37984,30537
32624,37983,30535
32676,37916,30561
32740,37919,30592
32768,37895,30604
32728,37895,30631
32661,37912,30632
32640,37958,30667
32632,37975,30697
32592,38020,30706
32628,38021,30732
32652,37996,30729
32697,37956,30749
32752,37928,30779
32781,37915,30794
32745,37894,30799
32685,37924,30823
32636,37929,30825
32620,37991,30855
32568,38014,30881
32580,38013,30884
32600,37953,30906
32624,37956,30917
32668,37925,30936
32694,37900,30953
32672,37911,30966
32590,37932,31003
32541,37952,31001
32488,37988,31021
32454,38012,31030
32480,38017,31048
32496,37991,31071
32476,37948,31052
32504,37927,31096
32520,37863,31092
32480,37895,31119
32445,37929,31137
32380,37967,31137
32340,38001,31152
32396,38017,31180
32404,38015,31173
32440,37988,31189
32528,37908,31193
32584,37923,31220
32620,37895,31213
32629,37900,31239
32596,37927,31233
32548,37958,31260
32512,37996,31265
32488,38017,31287
32520,38008,31301
32560,37997,31312
32600,37964,31328
32640,37913,31361
32656,37895,31366
32620,37901,31396
32568,37932,31399
32488,37964,31429
32372,37996,31444
32296,38007,31461
32268,38016,31488
32268,37990,31521
32284,37964,31524
32292,37917,31561
32300,37903,31572
32276,37895,31606
32224,37889,31596
32204,37964,31660
32176,37997,31673
32136,38016,31708
32112,38023,31719
32184,37991,31764
32212,37964,31788
32212,37928,31820
32186,37895,31817
32168,37895,31876
32168,37927,31882
32132,37975,31940
32132,37996,31948
32122,38020,32005
32129,38022,32037
32156,37983,32044
32132,37935,32116
32128,37908,32144
32148,37895,32194
32104,37895,32237
32028,37927,32248
31980,37967,32314
31976,38000,32372
31986,38008,32374
31948,37964,32468
31872,37981,32508
31896,37949,32526
31996,37895,32604
31989,37884,32665
31954,37895,32713
31888,37932,32783
31852,37952,32816
31849,37983,32896
31897,38004,32926
31956,37996,33031
32040,37973,33038
32148,37931,33148
32332,37895,33172
32545,37860,33282
32736,37895,33341
33080,37892,33412
33656,37940,33420
34368,37988,33510
34848,37989,33537
34896,37983,33634
34728,37969,33709
34184,37929,33716
33068,37895,33799
31216,37889,33824
28988,37927,33956
26180,37952,34005
22872,37988,33988
19416,37951,34108
16241,38022,34128
13304,37980,34215
11441,37973,34204
10956,37958,34328
11073,37939,34347
11962,37895,34449
13664,37965,34488
16632,37977,34492
20716,37972,34601
24520,37998,34608
27392,38037,34708
29344,38036,34758
30800,37998,34733
31893,37951,34866
32796,37917,34857
33429,37892,34951
33813,37895,35008
34040,37923,35052
34265,37965,35033
34484,37989,35168
34668,37988,35140
34780,37999,35260
34940,37969,35253
35044,37943,35300
35052,37902,35449
35048,37887,35505
34988,37895,35525
34872,37909,35580
34804,37956,35549
34772,37981,35686
34800,38001,35639
34832,37999,35768
34856,37980,35742
34860,37937,35900
34896,37873,35933
34860,37878,35940
34784,37848,35884
34764,37895,36021
34676,37948,35965
34600,37983,36092
34553,37999,36139
34536,37988,36060
34620,37972,36181
34632,37931,36223
34672,37888,36162
34668,37877,36236
34617,37879,36161
34484,37920,36276
34368,37945,36201
34309,37981,36304
34240,38002,36325
34198,37994,36232
34177,37935,36353
34196,37920,36366
34184,37861,36268
34160,37879,36332
34132,37846,36263
34076,37917,36348
33984,37949,36337
33920,37983,36288
33896,37998,36386
33876,37989,36268
33876,37968,36381
33856,37939,36420
33848,37895,36289
33865,37876,36420
33861,37879,36446
33812,37916,36329
33812,37916,36423
33770,37965,36340
33656,37997,36445
33597,37993,36482
33592,37964,36501
33668,37935,36500
33716,37894,36509
33700,37868,36516
33653,37873,36535
33521,37925,36439
33424,37949,36486
33392,37981,36437
33368,37994,36518
33408,37996,36535
33472,37962,36525
33536,37933,36519
33524,37886,36517
33480,37838,36462
33445,37876,36485
33376,37916,36432
33268,37943,36453
33141,37973,36377
33053,37960,36449
32996,37987,36325
33076,37924,36407
33112,37937,36324
33132,37895,36412
33189,37884,36295
33172,37878,36326
33088,37913,36248
32980,37942,36313
32880,37986,36215
32868,37996,36263
32884,38001,36190
32922,37964,36239
32940,37940,36125
32985,37888,36204
32940,37884,36176
32804,37857,36197
32720,37906,36191
32656,37948,36152
32608,37987,36049
32576,37999,36116
32586,37988,36031
32720,37969,36096
32740,37895,35995
32728,37893,36080
32752,37871,35989
32808,37885,36063
32804,37911,35956
32780,37941,36037
32788,37972,35956
32776,37988,36030
32758,37998,35980
32796,37935,36034
32832,37926,35972
32900,37895,36036
32956,37883,36008
32940,37885,36017
32928,37923,35918
32964,37951,36005
32928,37991,35969
32936,37999,36053
32952,37993,35964
32972,37970,36045
32996,37941,36040
33040,37905,35974
33076,37880,36056
33068,37895,36073
33032,37918,35985
32960,37964,36068
32972,37993,35991
32972,38016,36109
32957,38004,36149
32957,37989,36164
32985,37941,36165
32960,37916,36099
32920,37895,36217
32904,37905,36188
32848,37929,36257
32792,37972,36232
32764,37999,36328
32756,38020,36324
32812,38017,36260
32860,37984,36385
32880,37951,36340
32928,37913,36424
32916,37895,36392
32932,37895,36486
32897,37895,36473
32838,37965,36545
32768,37991,36526
32768,38012,36633
32860,38020,36544
32928,37997,36676
32968,37957,36604
32982,37922,36772
32980,37895,36716
32924,37912,36831
32840,37930,36776
32788,37970,36871
32764,37992,36863
32716,38023,36992
32704,38008,36883
32758,37952,37020
32804,37948,36984
32801,37924,37127
32750,37895,37157
32748,37916,37094
32736,37940,37193
32724,37977,37143
32736,38001,37293
32712,38025,37255
32696,38015,37344
32704,37996,37285
32744,37959,37444
32740,37929,37484
32793,37895,37532
32796,37919,37552
32772,37941,37600
32717,37980,37659
32684,38011,37548
32672,38034,37688
32720,38017,37620
32773,37993,37796
32840,37943,37684
32821,37887,37865
32804,37895,37885
32808,37902,37878
32808,37916,37924
32816,37969,37919
32804,38000,38022
32832,38028,38084
32848,38014,38100
32924,37958,38158
33016,37927,38183
33093,37908,38111
33140,37860,38237
33144,37895,38240
33124,37894,38335
33112,37973,38372
33084,37986,38400
33032,38023,38344
33032,38023,38516
33030,37989,38600
33000,37956,38501
32968,37921,38624
32912,37893,38556
32868,37895,38694
32804,37924,38663
32788,37963,38784
32744,38009,38748
32744,38020,38956
32756,38015,38829
32802,37988,38978
32828,37953,39073
32796,37927,38945
32760,37889,39151
32724,37909,39012
32672,37925,39222
32604,37934,39234
32616,38001,39141
32612,38018,39241
32648,38016,39193
32744,37985,39397
32728,37924,39388
32686,37908,39397
32684,37895,39421
32668,37901,39348
32649,37926,39553
32608,37967,39559
32584,38004,39594
32569,38015,39611
32520,38016,39673
32540,37951,39520
32545,37934,39724
32584,37877,39564
32657,37891,39783
32637,37892,39783
32600,37929,39801
32556,37956,39844
32516,38004,39836
32496,38004,39825
32512,38012,39789
32560,37980,39916
32584,37942,39916
32644,37860,39844
32704,37885,39968
32709,37895,39895
32768,37927,40036
32800,37943,40133
32892,37958,40132
33060,37999,40185
33278,38000,40188
33556,37953,40253
34040,37935,40241
34765,37895,40148
35384,37871,40256
35592,37884,40193
35460,37904,40322
35028,37927,40390
34180,37980,40385
32842,37965,40296
30948,38004,40412
28584,37996,40352
25420,37975,40461
21973,37948,40381
18629,37871,40599
15520,37925,40597
12716,37989,40488
11674,38023,40621
11567,38052,40669
12140,37967,40708
13681,38055,40676
16065,38044,40569
19948,37982,40728
24092,37908,40772
27292,37921,40783
29388,37930,40812
30764,37947,40640
31836,37980,40804
32768,38004,40676
33472,38021,40805
33951,38004,40732
34352,37972,40821
34692,37929,40708
34932,37895,40796
35128,37887,40692
35280,37895,40936
35344,37911,40740
35380,37949,40857
35388,37961,40790
35424,38002,40920
35424,37989,40813
35472,37951,40943
35504,37925,40888
35504,37885,41030
35476,37879,41092
35416,37878,41052
35364,37903,41095
35332,37937,41065
35292,37981,40974
35236,37969,41024
35228,37991,40925
35196,37948,41015
35220,37923,40912
35208,37895,41127
35220,37876,41103
35168,37838,41148
35128,37893,40923
35072,37934,41143
35032,37970,41093
35008,37991,40936
34948,37987,41063
34933,37959,41052
34909,37912,41077
34880,37865,41048
34884,37860,40842
34896,37870,40935
34850,37890,40839
34796,37937,40932
34748,37970,40910
34692,37986,40711
34640,37980,40777
34616,37926,40701
34640,37920,40762
34604,37861,40711
34556,37860,40725
34478,37878,40672
34388,37857,40455
34332,37927,40614
34248,37970,40568
34261,37991,40540
34253,37983,40485
34228,37949,40444
34212,37914,40216
34190,37878,40279
34181,37865,40169
34120,37871,40237
34016,37894,40239
33968,37933,39989
33908,37972,40063
33870,37985,39888
33856,37973,39973
33852,37935,39941
33828,37904,39716
33804,37876,39733
33780,37869,39721
33736,37836,39509
33692,37894,39588
33616,37927,39418
33561,37968,39444
33556,37966,39413
33548,37944,39339
33572,37957,39272
33576,37877,39036
33557,37871,39055
33476,37870,38999
33420,37828,38956
33312,37889,38900
33208,37937,38669
33144,37961,38730
33096,37962,38636
33104,37966,38575
33100,37940,38468
33092,37887,38384
33076,37844,38279
33081,37845,38116
33039,37859,38081
32944,37885,37908
32884,37895,37909
32856,37952,37756
32848,37960,37759
32872,37966,37580
32877,37940,37590
32868,37895,37421
32921,37872,37436
32936,37819,37252
32904,37857,37271
32796,37885,37148
32718,37925,37148
32696,37963,37068
32684,37966,36989
32676,37969,36860
32744,37937,36797
32765,37895,36684
32828,37863,36653
32876,37855,36502
32888,37814,36494
32924,37879,36367
32956,37911,36316
32984,37941,36156
33028,37964,36165
33088,37960,36092
33152,37935,35964
33221,37895,35956
33288,37855,35884
33316,37853,35790
33336,37857,35724
33348,37879,35632
33317,37880,35500
33340,37948,35484
33372,37958,35340
33480,37956,35354
33548,37927,35271
33596,37881,35206
33632,37861,35024
33612,37840,35020
33596,37845,34887
33556,37835,34887
33568,37915,34752
33573,37922,34732
33556,37950,34588
33612,37962,34596
33656,37928,34479
33744,37880,34476
33813,37853,34340
33824,37842,34311
33808,37831,34164
33808,37837,34191
33788,37900,34062
33776,37940,34060
33772,37956,33941
33772,37953,33959
33824,37892,33889
33901,37876,33756
33948,37862,33763
33977,37806,33726
33988,37836,33602
33952,37868,33585
33896,37894,33455
33864,37937,33469
33860,37940,33428
33888,37945,33316
33888,37912,33295
33916,37884,33232
33948,37852,33212
33936,37793,33157
33916,37833,33047
33876,37829,33060
33873,37890,32968
33812,37895,32971
33768,37953,32869
33772,37916,32863
33836,37919,32789
33876,37884,32775
33888,37840,32720
33924,37828,32660
33924,37822,32584
33864,37820,32567
33772,37892,32495
33752,37924,32485
33764,37942,32441
33792,37895,32353
33856,37905,32343
33910,37837,32263
33933,37825,32236
33912,37777,32163
33876,37823,32156
33868,37857,32121
33844,37885,32034
33844,37920,32031
33836,37935,31960
33824,37937,31941
33892,37895,31860
33957,37868,31849
34032,37820,31796
34046,37814,31781
34013,37820,31751
33972,37844,31694
33956,37868,31680
34004,37919,31630
34056,37932,31622
34108,37927,31576
34168,37900,31573
34200,37855,31528
34256,37815,31497
34264,37814,31479
34249,37805,31461
34216,37844,31439
34192,37868,31420
34180,37923,31384
34172,37937,31380
34152,37927,31364
34128,37861,31332
34104,37861,31328
34080,37822,31300
34028,37809,31295
33972,37814,31274
33908,37847,31278
33828,37885,31244
33756,37905,31256
33756,37927,31232
33784,37890,31206
33800,37895,31237
33804,37855,31200
33812,37815,31185
33728,37817,31186
33684,37816,31156
33652,37844,31169
33588,37871,31144
33600,37909,31165
33597,37924,31164
33645,37918,31151
33664,37893,31151
33692,37852,31134
33704,37796,31136
33708,37804,31084
33682,37805,31151
33664,37831,31131
33616,37868,31136
33565,37905,31142
33548,37908,31156
33536,37908,31140
33556,37887,31156
33592,37845,31141
33612,37773,31170
33585,37785,31172
33544,37799,31194
33509,37839,31198
33436,37863,31201
33432,37860,31234
33400,37916,31233
33385,37910,31270
33444,37881,31263
33496,37841,31294
33472,37812,31324
33480,37788,31303
33452,37809,31369
33456,37828,31368
33456,37860,31417
33522,37895,31440
33708,37895,31472
33928,37884,31495
34212,37871,31532
34624,37823,31559
35280,37772,31588
36013,37765,31614
36360,37778,31645
36252,37787,31682
35904,37844,31687
35012,37876,31741
33592,37892,31756
31421,37907,31809
28972,37871,31824
26025,37838,31872
22612,37838,31912
19076,37740,31916
15944,37852,31970
13100,37860,31980
11236,37804,32049
10932,37941,32068
11185,37972,32123
12032,37960,32142
13879,37924,32173
16864,37796,32212
21212,37836,32217
25396,37823,32268
28572,37823,32300
30772,37837,32335
32378,37866,32336
33524,37871,32390
34416,37895,32375
35052,37895,32445
35484,37861,32452
35768,37833,32529
35973,37788,32549
36128,37778,32597
36228,37774,32597
36276,37795,32677
36312,37838,32708
36308,37871,32799
36304,37860,32840
36320,37876,32893
36368,37848,32951
36392,37812,32993
36372,37777,33044
36348,37735,33105
36352,37767,33101
36314,37792,33199
36212,37830,33200
36170,37869,33209
36108,37878,33340
36084,37871,33377
36104,37844,33356
36128,37807,33488
36164,37767,33524
36146,37728,33524
36106,37767,33615
36052,37774,33663
36050,37823,33636
35988,37847,33716
35956,37875,33695
35936,37861,33825
35948,37823,33840
35956,37789,33844
35953,37765,33888
36036,37757,33856
36452,37751,33901
36445,37784,33849
36092,37824,33910
35724,37849,33844
35444,37871,33916
35360,37856,33873
35320,37833,33924
35384,37780,33908
35432,37765,33904
35416,37751,33903
35352,37749,33876
35272,37780,33796
35180,37828,33851
35104,37853,33784
35092,37871,33829
35084,37852,33777
35064,37837,33808
35084,37787,33789
35076,37747,33712
35016,37732,33732
34948,37749,33728
34884,37775,33676
34808,37817,33692
34784,37844,33623
34752,37861,33649
34704,37851,33564
34704,37815,33612
34724,37752,33543
34708,37736,33581
34705,37741,33504
34670,37746,33533
34592,37767,33460
34506,37804,33509
34444,37840,33490
34372,37844,33457
34384,37846,33428
34360,37810,33362
34349,37772,33382
34316,37748,33335
34248,37741,33303
34144,37748,33266
34052,37767,33165
33965,37805,33183
33892,37845,33093
33828,37845,33116
33786,37855,33008
33776,37812,33041
33724,37761,32949
33700,37752,32901
33680,37727,32910
33640,37740,32868
33604,37756,32805
33572,37801,32768
33441,37836,32720
33324,37857,32647
33240,37848,32637
33249,37820,32564
33242,37776,32542
33472,37750,32447
33902,37722,32432
33800,37732,32368
33544,37764,32356
33276,37812,32319
32948,37834,32220
32740,37814,32224
32704,37850,32169
32832,37807,32109
32921,37764,32066
33012,37746,31984
33062,37719,31972
33104,37732,31897
33120,37752,31879
33112,37764,31803
33100,37829,31780
33152,37830,31719
33228,37837,31685
33340,37796,31637
33412,37767,31597
33464,37728,31552
33454,37684,31481
33392,37727,31460
33342,37753,31399
33329,37791,31364
33276,37825,31305
33300,37832,31285
33316,37808,31232
33344,37799,31172
33405,37725,31157
33400,37735,31093
33424,37715,31045
33396,37698,31011
33360,37743,30956
33368,37781,30941
33356,37812,30887
33348,37831,30848
33409,37812,30806
33441,37785,30760
33480,37749,30727
33532,37703,30689
33530,37705,30650
33537,37694,30598
33516,37751,30573
33461,37767,30518
33456,37811,30489
33488,37813,30449
33527,37813,30401
33584,37741,30369
33652,37748,30345
33689,37709,30309
33716,37697,30265
33720,37703,30256
33693,37727,30205
33676,37743,30192
33644,37795,30148
33628,37764,30149
33672,37806,30090
33734,37772,30068
33796,37735,30029
33812,37701,30028
33816,37691,29972
33816,37703,29953
33756,37724,29917
33720,37749,29879
33696,37769,29856
33704,37807,29815
33752,37760,29795
33792,37764,29761
33821,37727,29768
33844,37690,29708
33836,37663,29682
33820,37685,29640
33752,37695,29640
33988,37759,29582
34072,37784,29542
33932,37803,29542
33720,37786,29516
33565,37760,29492
33552,37706,29464
33584,37698,29428
33608,37671,29429
33593,37681,29370
33568,37716,29353
33552,37737,29376
33503,37749,29308
33472,37796,29264
33536,37779,29276
33612,37756,29232
33631,37712,29248
33624,37652,29177
33628,37660,29144
33608,37673,29140
33570,37704,29093
33532,37737,29090
33520,37766,29049
33540,37780,29079
33532,37749,29016
33564,37749,29024
33644,37705,28972
33728,37684,28992
33888,37652,28924
34152,37668,28956
34172,37702,28871
33996,37716,28841
33644,37720,28821
33384,37783,28791
33356,37767,28788
33576,37732,28751
33940,37702,28805
33924,37668,28728
33724,37647,28679
33486,37620,28726
33304,37701,28644
33205,37727,28645
33156,37757,28613
33144,37765,28566
33152,37765,28580
33212,37732,28508
33244,37694,28474
33260,37663,28501
33228,37617,28417
33160,37660,28440
33120,37687,28356
33024,37700,28376
32964,37759,28311
32964,37757,28343
32984,37752,28244
33028,37720,28204
33060,37694,28247
33068,37660,28167
33096,37647,28221
33060,37644,28129
33053,37676,28161
32980,37731,28105
32997,37735,28116
33020,37753,28044
33036,37744,28044
33085,37713,28029
33120,37673,27993
33158,37639,28045
33104,37636,27980
33048,37639,27972
32972,37682,27921
32928,37713,27910
32872,37737,27989
32842,37743,27887
32816,37707,27948
32844,37712,27871
32864,37671,27911
32884,37639,27833
32840,37617,27836
32760,37639,27910
32700,37665,27836
32624,37705,27873
32608,37733,27823
32644,37753,27804
32698,37725,27889
32836,37673,27792
33036,37671,27796
33281,37631,27828
33536,37620,27812
33872,37597,27788
34520,37653,27837
35488,37684,27796
35824,37708,27801
35520,37721,27774
34996,37719,27876
34064,37703,27784
32669,37668,27764
30508,37639,27802
28008,37636,27796
25172,37588,27752
21933,37668,27825
18488,37740,27777
15452,37680,27765
12697,37745,27732
10898,37796,27780
10732,37693,27724
11038,37645,27708
11801,37588,27696
13666,37661,27685
16513,37588,27685
20648,37684,27666
24824,37728,27669
28036,37754,27644
30237,37745,27724
31900,37735,27597
33236,37670,27583
34084,37661,27628
34632,37625,27541
34928,37614,27521
35184,37620,27583
35500,37639,27516
35700,37673,27500
35716,37702,27532
35564,37716,27489
35514,37703,27552
35528,37663,27445
35588,37655,27458
35596,37617,27428
35572,37602,27440
35510,37606,27488
35437,37639,27460
35408,37671,27526
35360,37709,27448
35392,37708,27469
35428,37711,27431
35484,37681,27393
35480,37639,27469
35472,37605,27423
35428,37599,27451
35390,37599,27380
35340,37639,27385
35308,37674,27375
35256,37703,27425
35214,37713,27390
35316,37684,27429
35408,37671,27519
35436,37605,27430
35348,37612,27527
35456,37595,27441
35660,37606,27508
35521,37630,27428
35244,37639,27485
34924,37703,27392
34788,37712,27434
34992,37692,27399
34980,37668,27428
34744,37600,27357
34776,37612,27394
34752,37590,27311
34704,37597,27364
34708,37627,27260
34664,37677,27254
34596,37696,27215
34600,37708,27262
34612,37705,27204
34612,37672,27258
34612,37621,27140
34592,37601,27095
34562,37593,27109
34520,37594,27080
34460,37607,27093
34432,37661,26998
34360,37676,27028
34280,37701,26948
34272,37690,26925
34268,37668,26908
34248,37632,26931
34244,37607,26894
34268,37597,26952
34204,37615,26838
34172,37630,26863
34144,37664,26765
34080,37701,26834
34037,37700,26763
34032,37698,26824
34028,37679,26696
34080,37635,26648
34244,37605,26628
34341,37591,26625
34380,37602,26706
34257,37636,26550
34040,37676,26535
33710,37699,26485
33488,37720,26454
33248,37709,26425
33184,37639,26539
33196,37639,26403
33336,37604,26350
33372,37565,26442
33321,37600,26333
33180,37633,26333
32988,37672,26272
32872,37711,26220
32828,37715,26297
32788,37699,26205
32808,37681,26223
33032,37624,26139
33248,37606,26157
33152,37559,26057
32932,37612,26060
32709,37636,26127
32538,37676,26004
32504,37697,25971
32604,37719,25980
32644,37703,25956
32616,37668,25998
32668,37639,25905
32660,37596,25972
32688,37556,25871
32668,37589,25839
32748,37638,25911
33032,37669,25784
33082,37683,25804
32880,37716,25732
32652,37703,25757
32824,37665,25748
33192,37624,25838
33309,37607,25709
33060,37576,25646
32829,37600,25716
32720,37631,25670
32632,37636,25693
32768,37698,25602
32936,37697,25601
32884,37707,25732
32832,37661,25629
32753,37634,25649
32716,37600,25577
32684,37596,25573
32728,37607,25716
32728,37617,25591
32716,37669,25549
32799,37700,25559
32912,37702,25581
32972,37663,25713
32932,37668,25557
32858,37629,25548
32844,37589,25712
32836,37591,25605
32836,37577,25557
32782,37612,25633
32808,37653,25584
32804,37705,25719
32836,37700,25642
32850,37669,25684
33197,37663,25621
33420,37623,25624
33306,37561,25645
33100,37586,25643
33076,37588,25716
33112,37624,25679
32942,37667,25814
32870,37698,25765
32884,37703,25885
32972,37703,25776
33048,37655,25766
33108,37585,25855
33188,37581,25838
33332,37576,25893
33280,37601,25812
33180,37576,25939
33172,37660,25888
33128,37685,25991
33144,37665,25868
33212,37684,25940
33289,37661,25886
33312,37624,25898
33334,37599,25892
33326,37551,25921
33324,37582,26052
33288,37615,25952
33226,37655,26004
33206,37686,25938
33201,37703,25928
33236,37685,25974
33285,37625,25953
33364,37613,26052
33404,37575,25940
33439,37564,26068
33544,37590,25989
33520,37620,26090
33504,37648,25982
33368,37689,26036
33312,37687,25956
33324,37692,25922
33384,37652,25932
33340,37622,25918
33193,37584,25981
33036,37579,25934
33052,37591,26032
33117,37620,25937
33132,37645,25912
33080,37670,25924
33052,37698,25917
33088,37680,25909
33116,37647,26065
33172,37605,25950
33252,37581,26025
33400,37570,25936
33416,37549,25943
33340,37613,25986
33225,37655,25949
33132,37676,25986
33144,37692,25971
33153,37639,25985
33200,37639,25984
33308,37609,26038
33352,37574,26004
33361,37569,26033
33345,37573,26027
33314,37581,26052
33296,37639,26041
33316,37681,26056
33344,37689,26215
33346,37674,26072
33344,37639,26076
33376,37613,26163
33511,37582,26163
33424,37573,26189
33376,37576,26121
33276,37607,26162
33056,37647,26141
32745,37639,26196
32640,37684,26309
32684,37684,26216
32764,37648,26317
32970,37604,26225
33417,37570,26332
33376,37560,26269
33108,37549,26370
32748,37607,26281
32576,37628,26377
32564,37672,26284
32620,37691,26288
32694,37668,26409
32700,37639,26312
32716,37604,26388
32728,37568,26328
32717,37567,26452
32748,37569,26382
32752,37599,26396
32712,37637,26372
32692,37639,26360
32684,37669,26452
32724,37663,26396
32780,37631,26443
32804,37604,26399
32900,37569,26409
33088,37549,26420
32984,37543,26436
32840,37594,26450
33076,37613,26458
33072,37661,26561
32812,37679,26524
32576,37671,26498
32496,37639,26544
32576,37605,26529
32676,37569,26571
32721,37543,26565
32732,37556,26677
32704,37603,26626
32773,37634,26740
32892,37665,26651
33108,37676,26734
33340,37663,26683
33620,37628,26680
34172,37585,26708
35052,37559,26716
35588,37532,26746
35552,37555,26820
35220,37575,26804
34528,37623,26911
33470,37644,26867
31808,37671,26972
29736,37693,26908
27101,37665,27028
24137,37628,26948
21053,37529,27054
18168,37592,26996
15286,37535,27121
12732,37639,27073
11878,37597,27152
11920,37739,27097
12580,37733,27126
14134,37727,27252
16656,37684,27187
20421,37655,27290
24420,37596,27231
27616,37560,27272
29812,37581,27268
31356,37602,27364
32473,37639,27300
33320,37656,27385
34020,37673,27328
34565,37648,27396
35100,37621,27317
35384,37567,27398
35212,37556,27348
35196,37541,27375
35340,37553,27395
35692,37581,27488
35696,37622,27454
35526,37622,27482
35336,37644,27495
35232,37613,27602
35232,37616,27570
35268,37580,27669
35292,37551,27596
35320,37532,27692
35288,37551,27668
35284,37569,27700
35205,37596,27663
35125,37634,27718
35140,37648,27712
35145,37639,27797
35176,37609,27767
35184,37573,27781
35212,37545,27865
35168,37529,27847
35148,37549,27892
35133,37567,27896
35013,37607,27936
34948,37636,27945
34972,37657,28009
35005,37636,27993
35028,37605,28019
35060,37567,28038
35132,37537,28069
35188,37533,28074
35156,37543,28084
35048,37563,28140
34828,37613,28126
34688,37637,28136
34564,37639,28173
34568,37636,28152
34732,37603,28173
35148,37566,28128
35276,37536,28167
35072,37519,28208
34792,37537,28182
34484,37556,28248
34108,37607,28174
34007,37637,28222
34028,37639,28167
34068,37603,28167
34138,37605,28224
34244,37574,28179
34256,37534,28240
34221,37528,28164
34136,37503,28149
34108,37567,28166
34052,37607,28176
33957,37636,28249
33966,37639,28196
34021,37629,28246
34028,37607,28196
34020,37567,28261
33958,37541,28206
33881,37521,28246
33925,37533,28189
33932,37543,28192
33860,37596,28233
33784,37633,28199
33712,37638,28204
33873,37636,28221
33904,37604,28199
33700,37551,28202
33488,37506,28253
33272,37530,28220
33140,37533,28240
33092,37565,28228
33108,37600,28270
33137,37619,28224
33112,37639,28261
33192,37638,28234
33226,37604,28271
33088,37564,28193
32892,37543,28228
32780,37519,28200
32716,37536,28206
32704,37566,28249
32685,37599,28236
32628,37630,28307
32620,37639,28244
32653,37633,28229
32728,37607,28224
32716,37530,28254
32652,37529,28248
32636,37502,28303
32604,37524,28279
32760,37567,28287
32832,37593,28340
32712,37600,28332
32620,37633,28421
32524,37636,28362
32504,37580,28384
32568,37552,28401
32652,37535,28410
32692,37521,28510
32708,37540,28460
32760,37564,28477
32748,37606,28483
32760,37606,28537
32801,37628,28617
32840,37605,28574
32884,37590,28591
32929,37573,28672
33000,37494,28638
32957,37521,28689
32912,37540,28743
32868,37559,28734
32848,37607,28775
32948,37622,28848
33116,37634,28837
32977,37635,28869
32860,37574,28940
32856,37549,28943
32876,37539,28989
32884,37524,29068
32892,37518,29079
32868,37549,29166
32852,37603,29149
32844,37623,29198
32873,37624,29264
32892,37625,29295
32924,37575,29384
33188,37556,29389
33552,37532,29437
33556,37511,29492
33344,37524,29557
33072,37562,29620
33080,37599,29660
33148,37609,29737
33152,37636,29831
33220,37615,29860
33236,37594,29925
33112,37551,29993
32993,37524,30063
32936,37477,30148
32928,37519,30192
32948,37533,30273
32984,37596,30332
33053,37623,30401
33044,37625,30471
33064,37623,30524
33152,37580,30596
33232,37558,30655
33260,37499,30716
33276,37503,30784
33264,37517,30832
33252,37556,30903
33328,37583,30952
33413,37624,31016
33328,37586,31073
33409,37613,31121
33568,37593,31191
33532,37540,31229
33412,37521,31296
33292,37476,31357
33312,37511,31386
33652,37543,31448
33672,37585,31492
33284,37620,31558
33004,37584,31612
32885,37607,31623
32972,37582,31703
33125,37500,31751
33196,37510,31790
33232,37503,31824
33248,37477,31886
33196,37546,31929
33189,37536,31991
33204,37605,32037
33164,37629,32030
33176,37615,32106
33228,37581,32118
33292,37508,32193
33294,37508,32208
33270,37510,32245
33248,37485,32320
33228,37540,32374
33176,37573,32356
33148,37608,32463
33148,37615,32479
33172,37607,32530
33312,37569,32510
33404,37543,32601
33340,37509,32647
33276,37495,32666
33308,37497,32673
33468,37543,32767
33864,37545,32803
33652,37598,32836
33388,37609,32832
33152,37576,32884
33008,37572,32943
32884,37535,32985
32980,37511,32953
33096,37486,33047
33080,37500,33089
33049,37533,33060
32988,37573,33143
32968,37590,33160
32980,37627,33162
33062,37564,33220
33098,37566,33248
33044,37535,33213
32984,37511,33301
32956,37495,33332
32944,37496,33300
32860,37543,33371
32824,37561,33376
32808,37594,33404
32772,37609,33360
32764,37577,33452
32884,37566,33473
33024,37525,33396
33105,37500,33500
32940,37500,33529
32781,37479,33499
32632,37529,33519
32624,37570,33572
32644,37607,33549
32648,37612,33530
32644,37600,33621
32876,37565,33614
33200,37524,33592
33060,37472,33661
32760,37493,33653
32524,37493,33692
32404,37532,33601
32624,37524,33692
33124,37593,33687
33406,37607,33661
33024,37555,33668
32480,37556,33711
32176,37533,33661
32128,37501,33737
32248,37492,33743
32344,37492,33708
32460,37521,33684
32556,37553,33753
32702,37590,33778
32912,37600,33697
32832,37590,33767
32584,37527,33728
32373,37516,33799
32260,37497,33799
32244,37487,33741
32284,37493,33824
32348,37524,33764
32420,37567,33849
32530,37585,33884
32689,37607,33848
32960,37583,33917
33272,37563,33839
33684,37484,33945
34360,37476,33961
35044,37471,33924
35436,37477,33988
35360,37503,34021
34888,37556,33985
33904,37588,34044
32480,37607,33997
30460,37556,34098
28149,37568,34108
25372,37511,34076
22157,37525,34175
18956,37504,34106
16026,37537,34180
13417,37572,34165
12399,37540,34244
12425,37640,34253
12976,37669,34284
14264,37644,34266
16388,37617,34333
19652,37564,34357
23540,37524,34311
26814,37473,34391
29276,37508,34348
31036,37520,34431
32140,37564,34448
32884,37589,34453
33512,37581,34361
33996,37586,34452
34332,37548,34428
34720,37505,34488
35012,37472,34516
35220,37468,34461
35484,37447,34512
35436,37500,34451
35192,37540,34560
35030,37575,34509
34852,37589,34610
34796,37566,34660
34856,37524,34567
34912,37501,34702
34960,37479,34732
34968,37457,34653
34992,37479,34732
35040,37506,34705
35000,37529,34725
34960,37564,34791
34904,37573,34727
34861,37572,34823
34876,37543,34741
34908,37493,34854
34884,37471,34788
34900,37452,34900
34856,37471,34836
34814,37501,34940
34733,37541,34860
34692,37564,34975
34688,37575,34885
34736,37561,34988
34756,37534,34959
34725,37501,35021
34727,37429,35001
34717,37449,35028
34944,37468,35014
35048,37496,35003
34848,37533,34980
34584,37565,34872
34428,37577,34941
34432,37532,34909
34472,37528,34856
34580,37495,34872
34553,37463,34837
34416,37456,34823
34184,37464,34768
34036,37481,34780
33924,37535,34749
33892,37552,34645
33888,37583,34695
33952,37556,34668
34000,37532,34628
34016,37492,34497
34030,37432,34532
34016,37440,34492
33984,37476,34426
33872,37502,34429
33858,37541,34316
33893,37556,34381
33872,37575,34311
33788,37560,34311
33636,37524,34189
33592,37484,34236
33572,37465,34189
33573,37449,34095
33562,37463,34156
33532,37498,34108
33460,37525,34008
33380,37564,34052
33373,37558,34023
33380,37557,33891
33376,37525,33949
33344,37487,33921
33344,37454,33824
33276,37455,33816
33204,37461,33725
33121,37501,33684
33032,37521,33705
32977,37549,33610
32952,37556,33647
32924,37524,33607
32968,37525,33508
32968,37484,33529
32957,37457,33418
32900,37447,33453
32812,37455,33336
32728,37502,33359
32704,37532,33329
32608,37543,33265
32628,37572,33280
32664,37558,33193
32640,37527,33198
32621,37495,33108
32908,37444,33129
33396,37444,33100
33232,37469,33037
32813,37484,33041
32394,37511,32954
32176,37522,32988
32120,37558,32908
32228,37568,32927
32412,37531,32852
32512,37480,32884
32610,37426,32829
32604,37439,32852
32577,37438,32807
32589,37477,32798
32581,37532,32775
32612,37559,32766
32636,37552,32757
32700,37516,32697
32748,37511,32698
32852,37449,32641
33012,37449,32668
32972,37446,32629
32937,37445,32644
32896,37476,32617
32804,37519,32567
32816,37540,32580
32828,37551,32519
32828,37543,32551
32892,37511,32528
32948,37477,32495
32996,37445,32516
33014,37442,32519
33062,37446,32476
33168,37495,32496
33209,37510,32453
33084,37553,32484
32968,37567,32433
32952,37533,32475
33020,37511,32470
33100,37473,32471
33144,37447,32421
33148,37407,32473
33144,37444,32480
33124,37480,32430
33113,37509,32493
33104,37544,32492
33156,37524,32452
33184,37535,32516
33220,37516,32525
33352,37479,32485
33428,37445,32526
33429,37436,32495
33376,37448,32551
33257,37477,32566
33197,37509,32551
33158,37526,32604
33173,37549,32572
33232,37551,32630
33288,37511,32653
33372,37465,32612
33400,37445,32657
33360,37431,32646
33336,37445,32703
33320,37456,32709
33302,37513,32716
33281,37543,32689
33308,37546,32748
33372,37511,32759
33472,37492,32771
33504,37434,32773
33500,37431,32732
33520,37383,32786
33484,37452,32805
33464,37477,32775
33424,37500,32815
33422,37508,32775
33388,37543,32820
33424,37534,32772
33493,37502,32844
33492,37462,32828
33524,37444,32868
33480,37412,32834
33432,37439,32884
33428,37467,32900
33406,37500,32885
33408,37525,32891
33404,37542,32853
33452,37517,32932
33512,37484,32895
33500,37461,32950
33505,37439,32943
33520,37425,32925
33532,37440,32961
33492,37453,32919
33660,37509,32974
33654,37522,32937
33544,37540,33009
33452,37532,32956
33396,37492,33031
33408,37423,32988
33468,37423,33033
33512,37398,32989
33509,37421,33056
33492,37456,33024
33484,37495,33077
33469,37525,33022
33460,37535,33103
33472,37524,33048
33544,37495,33119
33610,37452,33125
33648,37431,33100
33604,37421,33137
33588,37431,33096
33504,37466,33126
33500,37493,33071
33868,37525,33129
34208,37532,33127
34036,37524,33148
33716,37500,33152
33416,37455,33159
33173,37425,33177
32937,37410,33168
32916,37423,33168
32888,37448,33127
32904,37493,33164
32964,37495,33108
32960,37539,33144
32992,37495,33086
32984,37485,33143
32956,37436,33078
32920,37418,33133
32896,37420,33101
32876,37425,33135
32868,37460,33136
32864,37501,33125
32900,37521,33116
32908,37543,33044
33044,37519,33085
33136,37463,33016
33016,37436,33070
32908,37423,33010
32972,37412,33056
33168,37421,33025
33088,37448,33045
32864,37487,33010
32658,37521,33038
32592,37541,32980
32576,37520,33022
32716,37487,32964
32788,37436,33012
32768,37380,32950
32756,37407,32976
32728,37383,32908
32708,37441,32968
32672,37495,32909
32668,37508,32970
32688,37524,32948
32699,37511,32955
32736,37487,32955
32780,37441,32893
32820,37377,32935
32808,37391,32871
32840,37397,32916
32960,37430,32900
33076,37446,32914
33153,37503,32913
33289,37518,32857
33512,37494,32894
33902,37477,32879
34608,37439,32844
35196,37396,32868
35340,37382,32855
35248,37401,32827
34896,37444,32863
34068,37445,32866
32624,37508,32845
30697,37535,32800
28400,37510,32834
25618,37488,32823
22496,37412,32832
19472,37445,32833
16640,37454,32807
14304,37465,32844
13636,37508,32849
13758,37537,32813
14418,37572,32858
15836,37581,32812
18080,37548,32853
21422,37464,32865
25074,37461,32852
27964,37436,32898
29968,37408,32856
31396,37412,32916
32476,37447,32908
33253,37485,32936
33836,37494,32903
34184,37523,32961
34454,37500,32964
34677,37470,32953
34890,37424,32956
35076,37392,32997
35188,37383,32980
35222,37383,33052
35396,37424,33050
35388,37460,33095
35237,37486,33047
35108,37505,33144
34981,37487,33173
34998,37460,33121
35124,37409,33164
35144,37393,33208
35108,37365,33213
35096,37399,33245
35032,37425,33188
34932,37468,33257
34869,37489,33299
34836,37499,33225
34852,37493,33283
34900,37460,33327
34944,37415,33346
34948,37383,33378
34924,37346,33371
34864,37383,33357
34814,37423,33453
34756,37463,33487
34716,37489,33461
34712,37489,33489
34792,37483,33540
35161,37452,33589
35304,37411,33537
35128,37383,33622
34748,37375,33660
34488,37396,33622
34328,37422,33684
34288,37463,33716
34552,37485,33661
34772,37500,33758
34748,37437,33761
34564,37445,33775
34332,37412,33753
34244,37380,33816
34156,37361,33848
34136,37366,33764
34056,37415,33869
34008,37454,33892
34022,37492,33808
34148,37477,33908
34116,37479,33893
33992,37452,33874
34028,37416,33927
34272,37383,33924
34385,37380,33839
34196,37351,33905
33900,37421,33903
33824,37454,33854
33780,37458,33915
33797,37484,33921
33656,37488,33823
33520,37451,33903
33700,37412,33903
33964,37380,33836
33896,37375,33864
33664,37383,33769
33452,37408,33859
33292,37461,33766
33284,37477,33852
33300,37469,33829
33312,37479,33742
33340,37455,33804
33381,37407,33780
33412,37346,33756
33336,37364,33692
33268,37383,33732
33212,37415,33744
33100,37421,33655
33008,37484,33687
33000,37495,33692
33040,37476,33605
33008,37445,33664
33044,37384,33633
33040,37345,33620
33028,37371,33644
32964,37383,33597
32888,37414,33608
32872,37460,33649
32856,37479,33660
32852,37489,33586
32812,37476,33642
32869,37442,33568
32872,37415,33645
32900,37383,33663
32873,37365,33605
32824,37383,33640
32736,37412,33593
32728,37456,33657
32672,37492,33649
32665,37489,33628
32708,37487,33668
32796,37442,33611
32868,37413,33693
32901,37377,33701
32900,37381,33668
32909,37380,33712
32916,37397,33741
32941,37413,33653
32948,37477,33757
32961,37487,33781
33032,37479,33695
33124,37444,33787
33168,37412,33817
33176,37367,33738
33180,37359,33841
33172,37368,33853
33144,37391,33773
33188,37452,33877
33216,37477,33821
33220,37492,33914
33232,37476,33859
33236,37444,33895
33269,37416,34005
33296,37378,34013
33373,37356,34051
33496,37344,34112
33800,37397,34116
33856,37414,34140
33688,37476,34128
33848,37453,34210
33892,37462,34244
33820,37445,34250
33584,37399,34324
33373,37367,34389
33232,37356,34351
33212,37382,34429
33204,37407,34490
33175,37444,34479
32980,37471,34597
33000,37485,34633
33080,37476,34617
33134,37432,34737
33200,37415,34788
33308,37376,34709
33324,37364,34867
33272,37383,34923
33268,37377,34877
33324,37436,35046
33352,37477,35093
33321,37489,35068
33392,37476,35191
33436,37452,35236
33552,37396,35263
33520,37374,35362
33512,37356,35335
33496,37336,35488
33600,37414,35476
33652,37443,35623
33604,37472,35668
33456,37479,35671
33404,37456,35837
33436,37440,35889
33468,37391,35927
33508,37375,35993
33592,37365,35933
33548,37373,36100
33496,37409,36146
33444,37447,36282
33460,37471,36348
33528,37480,36305
33540,37476,36476
33552,37437,36432
33532,37373,36637
33540,37375,36540
33532,37324,36717
33456,37375,36690
33413,37382,36895
33404,37433,36981
33384,37437,36917
33384,37479,37084
33424,37461,37056
33464,37441,37225
33492,37383,37209
33552,37367,37349
33520,37357,37360
33476,37370,37569
33456,37401,37644
33420,37428,37588
33404,37464,37743
33380,37469,37719
33420,37471,37940
33492,37432,37983
33900,37394,37933
34192,37332,38133
34020,37348,38244
33736,37332,38151
33464,37383,38372
33345,37437,38292
33284,37473,38495
33564,37479,38392
33760,37465,38544
33780,37434,38502
33696,37401,38688
33609,37360,38781
33520,37361,38669
33470,37368,38791
33396,37413,38769
33340,37438,38932
33296,37460,38943
33216,37478,38892
33232,37471,39017
33336,37439,38977
33358,37396,39156
33388,37365,39239
33400,37357,39084
33336,37367,39239
33240,37383,39250
33168,37431,39339
33124,37461,39384
33135,37428,39431
33166,37461,39416
33324,37415,39354
33300,37396,39501
33176,37368,39440
33224,37354,39559
33156,37377,39636
33108,37361,39506
33072,37429,39680
33036,37455,39629
33068,37452,39757
33069,37447,39597
33097,37428,39744
33124,37383,39829
33144,37327,39828
33140,37326,39878
33089,37325,39697
33032,37383,39828
32980,37424,39908
32976,37453,39746
32976,37460,39852
33165,37444,39948
33428,37420,39957
33340,37375,39993
33064,37349,39840
32953,37348,39972
32868,37356,40015
32804,37383,39841
32780,37423,39963
32777,37448,39942
32816,37460,40023
32879,37453,39940
32992,37408,40023
33152,37374,39878
33356,37351,40004
33565,37336,40029
34068,37351,39861
34728,37379,39988
35433,37405,40036
36228,37430,40026
36300,37444,39932
35788,37441,40028
34853,37413,39824
33536,37380,39911
31618,37364,39855
29516,37349,39894
26956,37392,39868
23984,37420,39960
20918,37452,39900
18012,37440,39960
15336,37504,39924
13745,37500,39937
13544,37393,39768
13976,37440,39783
14989,37394,39713
16748,37383,39776
19492,37397,39845
23090,37424,39676
26408,37397,39798
28750,37463,39680
30400,37434,39653
31696,37440,39711
32672,37415,39700
33540,37383,39506
34096,37348,39576
34452,37328,39559
34620,37346,39580
34732,37378,39465
34904,37415,39407
34968,37444,39471
34908,37447,39431
34956,37439,39431
34988,37401,39364
35080,37367,39428
35120,37343,39208
35068,37324,39324
34985,37319,39329
34956,37374,39169
35016,37393,39218
35052,37433,39200
35108,37447,39236
35172,37429,39167
35684,37393,39037
35800,37356,39140
35396,37331,39165
35020,37316,38959
34804,37332,39072
34580,37333,39069
34500,37396,38880
34488,37436,38976
34524,37436,38982
34856,37423,38804
35184,37389,38890
35144,37363,38919
34908,37324,38719
34588,37320,38757
34652,37336,38688
35068,37359,38604
35188,37383,38677
34952,37423,38645
34496,37447,38481
34084,37405,38422
33844,37383,38509
33824,37357,38447
33940,37327,38428
34108,37328,38289
34230,37301,38175
34164,37341,38260
33912,37400,38230
33860,37443,38020
33854,37439,38068
33880,37423,38010
33856,37383,37844
33880,37348,37912
33840,37327,37860
33828,37316,37688
33796,37332,37612
33745,37364,37644
33692,37407,37582
33640,37434,37398
33640,37446,37422
33708,37430,37257
33697,37393,37204
33696,37367,37178
33668,37325,37125
33612,37321,36964
33540,37334,36975
33436,37366,36929
33368,37383,36743
33349,37431,36743
33340,37425,36575
33332,37383,36629
33352,37380,36543
33428,37357,36476
33345,37301,36260
33202,37309,36229
33168,37324,36212
33028,37359,36137
33128,37367,36000
33236,37420,35972
33124,37428,35830
32984,37409,35750
33172,37391,35745
33577,37309,35657
33836,37319,35492
33342,37311,35508
33004,37321,35461
32493,37316,35283
32236,37397,35270
32524,37428,35212
33304,37428,35061
33296,37415,35028
32692,37376,34863
32180,37359,34893
31845,37327,34823
31866,37282,34636
31934,37316,34641
31916,37351,34562
31976,37397,34531
32048,37425,34448
32120,37429,34322
32145,37423,34301
32196,37399,34157
32328,37349,34174
32304,37316,34006
32316,37313,34028
32360,37324,33953
32340,37365,33836
32324,37397,33870
32349,37396,33787
32332,37428,33744
32440,37423,33601
32528,37383,33625
32592,37359,33563
32653,37314,33455
32668,37279,33449
32752,37323,33308
32924,37327,33321
32928,37391,33227
32880,37413,33221
32792,37426,33169
32812,37405,33056
32724,37367,33051
32800,37340,32925
32816,37293,32951
32824,37300,32903
32860,37324,32813
32864,37345,32817
32837,37376,32761
32828,37416,32676
32852,37421,32652
32816,37415,32568
32848,37364,32553
32936,37344,32464
32956,37315,32461
33040,37293,32431
32985,37313,32327
32980,37343,32329
32933,37383,32280
32912,37413,32231
32944,37417,32221
32952,37377,32142
33032,37376,32145
33104,37328,32068
33180,37311,32052
33181,37303,31973
33140,37308,31969
33088,37349,31909
33068,37383,31884
33248,37399,31822
33324,37383,31800
33308,37418,31738
33196,37375,31717
33044,37303,31644
33060,37300,31628
33072,37293,31557
33068,37310,31548
33052,37338,31509
33012,37372,31465
33050,37412,31432
33052,37415,31375
33056,37404,31315
33140,37368,31295
33216,37339,31250
33200,37309,31186
33208,37303,31157
33228,37311,31119
33180,37333,31055
33116,37368,31033
33080,37393,30988
33148,37413,30947
33249,37384,30911
33308,37324,30852
33448,37314,30810
33516,37305,30746
33325,37282,30713
33256,37269,30664
33240,37335,30628
33212,37367,30572
33216,37396,30549
33273,37383,30490
33313,37383,30454
33353,37361,30420
33409,37312,30378
33404,37255,30343
33428,37287,30292
33436,37271,30269
33460,37332,30227
33416,37367,30197
33460,37399,30156
33480,37413,30128
33568,37389,30089
33480,37360,30064
33536,37316,30028
33616,37295,30012
33616,37249,29972
33532,37303,29958
33496,37332,29927
33508,37369,29916
33520,37399,29884
33492,37404,29892
33484,37396,29835
33464,37364,29824
33468,37308,29798
33432,37300,29790
33376,37295,29759
33348,37298,29756
33528,37324,29756
33708,37359,29732
33540,37398,29703
33316,37401,29714
33196,37399,29663
33168,37359,29666
33048,37325,29639
33040,37294,29626
33084,37286,29634
33060,37293,29595
33012,37327,29588
32992,37369,29597
33000,37394,29559
33088,37402,29563
33100,37383,29527
33144,37348,29532
33192,37324,29532
33192,37292,29495
33173,37280,29490
33116,37287,29504
33060,37327,29471
33061,37369,29464
33220,37383,29440
33216,37396,29460
33124,37383,29437
33020,37357,29457
32964,37307,29421
32944,37287,29439
32964,37287,29410
32940,37280,29413
32880,37318,29396
32808,37353,29425
32840,37388,29464
32820,37393,29412
32840,37374,29440
32870,37332,29444
32936,37308,29473
32992,37284,29464
33000,37271,29480
33024,37295,29487
33056,37316,29496
33092,37364,29513
33260,37383,29540
33444,37396,29548
33830,37364,29583
34468,37341,29588
35124,37300,29617
35420,37269,29625
35349,37263,29673
35052,37278,29676
34332,37320,29716
33112,37365,29725
31252,37396,29766
29065,37417,29801
26464,37406,29830
23400,37320,29873
20330,37333,29901
17560,37333,29956
15088,37335,29976
14108,37342,30028
14064,37384,30077
14536,37420,30116
15728,37452,30167
17798,37444,30220
21028,37428,30260
24640,37381,30324
27646,37328,30359
29728,37289,30452
31136,37269,30500
32236,37289,30574
33076,37324,30637
33728,37365,30697
34148,37372,30761
34424,37383,30818
34636,37367,30904
34844,37343,30973
35240,37300,31048
35560,37271,31129
35472,37263,31211
35272,37277,31293
35024,37295,31352
34920,37340,31485
34888,37374,31557
34933,37381,31676
34968,37364,31751
35036,37334,31877
35056,37285,31960
35096,37268,32000
35100,37256,32142
35084,37264,32205
35048,37311,32300
35084,37340,32409
35108,37358,32485
35132,37372,32572
35180,37352,32592
35152,37311,32733
35172,37289,32765
35312,37263,32916
35308,37255,33004
35136,37255,33042
34964,37304,33156
34892,37345,33168
34852,37370,33292
34813,37374,33336
34941,37364,33453
35008,37327,33509
35000,37289,33568
34920,37263,33516
34820,37245,33636
34728,37265,33619
34624,37305,33724
34540,37351,33718
34512,37373,33817
34528,37382,33841
34524,37371,33772
34558,37327,33876
34580,37292,33912
34548,37268,33862
34508,37249,33911
34437,37266,33836
34396,37288,33935
34305,37315,33864
34190,37372,33941
34196,37372,33942
34221,37328,33898
34220,37328,33916
34208,37285,33804
34204,37276,33869
34172,37255,33799
34077,37236,33849
34016,37317,33744
33972,37343,33783
33936,37357,33676
33920,37375,33731
33888,37335,33617
33854,37332,33676
33856,37287,33595
33864,37261,33639
33816,37249,33540
33728,37273,33564
33636,37313,33517
33565,37344,33393
33544,37367,33438
33564,37353,33400
33568,37370,33346
33532,37325,33316
33492,37284,33212
33470,37276,33212
33392,37261,33108
33324,37279,33127
33244,37304,33031
33160,37335,33047
33116,37341,32945
33104,37367,32970
33108,37364,32873
33110,37335,32916
33368,37287,32873
33556,37270,32775
33397,37260,32798
33124,37269,32724
32840,37311,32725
32664,37343,32640
32592,37379,32664
32636,37376,32636
32712,37359,32604
32760,37332,32580
32708,37295,32477
32716,37263,32493
32712,37255,32421
32688,37281,32437
32620,37316,32392
32596,37340,32381
32624,37354,32356
32664,37375,32256
32721,37364,32263
32788,37321,32228
32812,37289,32161
32864,37268,32142
32840,37247,32081
32804,37260,32061
32736,37287,32002
32700,37341,31980
32660,37340,31943
32656,37375,31870
32716,37366,31845
32804,37329,31749
32860,37303,31757
32884,37268,31726
32872,37252,31641
32836,37270,31628
32781,37281,31560
32752,37345,31549
32748,37373,31525
32745,37380,31481
32792,37366,31448
32804,37324,31384
32832,37292,31373
32872,37252,31348
32868,37255,31277
32872,37274,31265
32824,37300,31231
32824,37329,31177
32836,37356,31156
32852,37373,31120
32892,37357,31067
32948,37328,31047
32961,37281,31016
32968,37260,30956
32972,37247,30928
32948,37273,30904
32888,37304,30842
32804,37345,30812
32789,37367,30764
32772,37383,30726
32808,37348,30684
32836,37321,30620
32892,37295,30592
32928,37268,30532
32904,37251,30462
32849,37255,30428
32849,37293,30376
32852,37355,30304
32832,37367,30271
32824,37382,30215
32828,37357,30149
32844,37332,30110
32857,37288,30037
32897,37260,30017
32868,37252,29938
32801,37271,29876
32700,37303,29838
32696,37343,29777
32696,37373,29750
32742,37373,29685
32800,37365,29658
32872,37311,29572
32970,37279,29540
33240,37255,29484
33168,37245,29433
32956,37252,29393
32764,37300,29348
32604,37349,29322
32570,37365,29240
32604,37364,29212
32692,37353,29145
32785,37312,29101
32848,37280,29038
32896,37263,29012
32908,37255,28953
32868,37256,28919
32832,37301,28880
32836,37332,28823
32884,37368,28804
32884,37376,28717
32858,37338,28679
32909,37320,28634
32968,37281,28611
33060,37262,28538
33104,37240,28540
33036,37265,28432
32940,37279,28388
32856,37330,28375
32812,37349,28283
32768,37373,28247
32729,37321,28181
32724,37319,28162
32724,37278,28149
32700,37261,28039
32692,37265,28000
32636,37268,28010
32564,37282,27928
32492,37345,27940
32436,37375,27823
32412,37383,27812
32436,37363,27712
32481,37333,27684
32508,37292,27605
32504,37252,27590
32504,37255,27572
32488,37284,27463
32496,37303,27436
32444,37351,27420
32368,37367,27367
32356,37380,27397
32356,37367,27276
32408,37333,27305
32476,37279,27167
32514,37267,27164
32528,37267,27092
32464,37260,27113
32390,37316,27047
32324,37351,27077
32269,37366,26965
32220,37372,26985
32236,37369,26896
32276,37327,26896
32384,37295,26797
32448,37264,26756
32424,37256,26792
32360,37264,26718
32324,37313,26692
32276,37340,26624
32237,37367,26583
32240,37369,26548
32280,37366,26506
32392,37328,26487
32480,37297,26518
32538,37255,26440
32620,37265,26495
32736,37245,26372
32884,37293,26436
33148,37312,26292
33608,37367,26220
34260,37337,26188
34908,37348,26154
35236,37296,26138
35172,37283,26095
34884,37231,26124
34097,37255,26024
32709,37263,26049
30756,37312,25930
28332,37314,25912
25264,37392,26007
21896,37344,25879
18632,37420,25937
15625,37390,25817
13217,37362,25876
12388,37335,25744
12344,37340,25804
13036,37348,25655
14542,37381,25724
16956,37412,25568
20692,37436,25616
24439,37424,25497
27360,37375,25583
29248,37351,25408
30577,37288,25501
31616,37277,25360
32525,37277,25412
33216,37287,25262
33742,37317,25327
34140,37345,25151
34412,37359,25243
34612,37364,25063
34732,37364,25049
34809,37301,25057
34884,37284,24949
34941,37265,24914
34960,37240,25032
34900,37264,24895
34841,37287,24997
34800,37348,24805
34862,37359,24790
34884,37371,24758
34920,37359,24876
34968,37335,24713
34992,37284,24793
35004,37261,24621
35008,37236,24583
34934,37262,24573
34884,37303,24582
34852,37346,24600
34808,37371,24492
34800,37380,24479
34760,37364,24412
34740,37319,24446
34712,37281,24376
34720,37266,24463
34680,37255,24284
34610,37273,24381
34552,37309,24211
34465,37351,24198
34376,37369,24084
34372,37373,24028
34400,37351,23974
34404,37324,24084
34464,37291,23917
34504,37268,23868
34486,37255,23832
34384,37255,23735
34248,37303,23765
34180,37340,23616
34212,37360,23742
34173,37340,23569
34120,37357,23606
34085,37292,23468
34098,37292,23372
34076,37260,23349
34073,37255,23385
34008,37239,23312
33924,37300,23348
33824,37319,23154
33756,37380,23138
33712,37383,23268
33709,37359,23065
33740,37312,23145
33745,37287,23013
33752,37263,22994
33696,37247,22901
33688,37284,22879
33637,37276,23012
33528,37339,22772
33396,37372,22749
33464,37381,22840
33588,37365,22676
33670,37327,22708
33708,37295,22626
33668,37244,22705
33612,37255,22450
33504,37279,22446
33413,37308,22357
33350,37349,22388
33310,37365,22284
33312,37381,22269
33276,37373,22184
33300,37287,22224
33360,37294,22180
33404,37263,22218
33404,37263,22066
33360,37276,22176
33300,37318,22015
33228,37345,22057
33124,37380,21935
33104,37383,22018
33156,37356,21808
33188,37317,21852
33192,37295,21676
33177,37277,21704
33136,37255,21698
33072,37277,21620
32978,37311,21620
32908,37353,21573
32865,37380,21580
32880,37380,21534
32868,37350,21481
32888,37301,21553
32896,37285,21388
32960,37236,21531
33004,37252,21373
32952,37271,21412
32924,37309,21221
32944,37351,21284
32868,37374,21167
32784,37383,21200
32740,37364,21100
32824,37319,21172
32904,37289,21045
33016,37268,21080
33104,37255,20992
33120,37279,21033
33161,37305,20964
33160,37335,20982
33120,37367,21031
33132,37359,20969
33172,37357,21100
33224,37314,20967
33309,37294,21017
33285,37268,20891
33292,37255,20925
33236,37258,20895
33166,37313,20989
33182,37333,20911
33152,37365,20992
33216,37359,20907
33328,37365,20932
33396,37337,20796
33448,37289,20871
33500,37271,20793
33512,37254,20888
33516,37269,20903
33460,37316,21045
33432,37341,20868
33368,37380,20880
33340,37380,21041
33316,37351,20881
33332,37325,20945
33356,37285,20861
33404,37273,20926
33448,37255,20937
33489,37279,20979
33383,37293,20981
33292,37349,20972
33180,37380,20977
33180,37383,20967
33240,37371,21157
33292,37320,20935
33372,37264,21017
33384,37264,21009
33364,37257,21044
33268,37273,21032
33156,37304,21201
33056,37345,21222
33000,37332,21038
33016,37375,21124
33100,37359,21042
33184,37335,21131
33228,37284,21321
33192,37270,21201
33186,37260,21272
33068,37276,21140
33032,37287,21204
33012,37338,21350
33060,37361,21308
33152,37368,21465
33116,37348,21334
33164,37324,21366
33248,37296,21289
33308,37257,21391
33304,37254,21354
33304,37269,21540
33340,37303,21500
33380,37315,21489
33380,37357,21669
33430,37376,21477
33472,37353,21589
33428,37335,21516
33364,37255,21596
33308,37268,21807
33384,37261,21694
33476,37265,21765
33508,37301,21658
33512,37348,21732
33472,37372,21927
33393,37372,21820
33356,37359,21892
33400,37324,21809
33332,37286,21935
33273,37253,21895
33200,37255,21972
33189,37255,22144
33196,37313,22031
33252,37349,22084
33217,37337,22212
33188,37370,22178
33208,37335,22259
33228,37332,22216
33292,37255,22325
33278,37258,22518
33248,37266,22373
33232,37281,22500
33119,37303,22532
33144,37348,22557
33208,37359,22757
33260,37383,22595
33224,37365,22738
33208,37317,22792
33156,37295,22959
33189,37268,22937
33196,37247,22952
33268,37273,22916
33196,37309,23014
33076,37340,23053
33010,37368,23257
32980,37381,23152
33064,37336,23287
33145,37321,23383
33132,37290,23326
33133,37255,23431
33076,37255,23440
33018,37270,23517
33008,37300,23760
33000,37312,23625
32953,37364,23756
32950,37365,23860
32948,37341,23896
32957,37324,23889
33056,37284,23979
33148,37269,24196
33196,37255,24122
33232,37266,24281
33316,37309,24196
33424,37335,24284
33632,37351,24456
34116,37355,24485
34741,37318,24645
35532,37311,24606
35981,37249,24729
36084,37252,24713
35780,37245,24804
35316,37266,24884
34212,37304,24948
32668,37339,25192
30656,37340,25133
27876,37400,25245
24452,37404,25253
21060,37369,25385
17921,37324,25440
14917,37327,25572
13250,37249,25588
12908,37338,25684
13256,37359,25879
14557,37425,25895
16545,37459,25980
19664,37377,26079
23756,37413,26198
27064,37380,26212
29084,37332,26404
30224,37296,26377
31132,37284,26464
32116,37285,26609
32976,37317,26629
33520,37367,26682
33984,37375,26887
34358,37355,26871
34636,37350,26990
34760,37298,27007
34872,37293,27102
34940,37236,27287
35044,37255,27307
35092,37275,27383
35136,37306,27585
35072,37344,27568
35032,37370,27680
35100,37372,27836
35168,37359,27888
35168,37316,27992
35096,37287,28047
35056,37255,28150
35024,37220,28287
34964,37268,28308
34940,37309,28392
34872,37346,28524
34844,37373,28550
34812,37375,28643
34804,37349,28752
34852,37319,28772
34820,37284,28863
34880,37253,28964
34852,37246,29024
34809,37255,29064
34676,37300,29141
34512,37327,29229
34456,37349,29277
34484,37364,29345
34580,37344,29388
34661,37297,29447
34669,37269,29549
34656,37255,29572
34580,37245,29637
34420,37255,29710
34300,37285,29764
34228,37332,29844
34112,37367,29884
34041,37366,29970
34100,37341,30040
34148,37295,30092
34064,37273,30176
34036,37223,30241
34072,37245,30317
34004,37264,30392
33972,37296,30464
33844,37344,30538
33816,37335,30599
33784,37357,30678
33740,37311,30733
33716,37308,30807
33821,37249,30855
33860,37248,30934
33892,37245,30972
33806,37269,31054
33728,37306,31098
33728,37331,31164
33605,37351,31229
33588,37360,31248
33560,37350,31332
33596,37319,31361
33577,37276,31440
33512,37239,31503
33527,37242,31513
33564,37271,31599
33624,37303,31620
33592,37312,31709
33460,37353,31738
33468,37353,31831
33516,37351,31900
33508,37285,31895
33448,37269,31988
33348,37231,32032
33337,37255,32113
33380,37255,32180
33340,37305,32204
33201,37336,32292
33045,37363,32365
32972,37368,32399
32924,37352,32449
32984,37319,32570
33036,37245,32657
32936,37248,32647
32860,37249,32780
32788,37262,32852
32754,37269,32932
32664,37346,32984
32512,37370,33095
32334,37361,33181
32264,37357,33159
32324,37311,33327
32368,37291,33413
32372,37244,33429
32389,37255,33577
32356,37253,33676
32172,37300,33700
32048,37309,33829
31960,37373,33840
32092,37372,34017
32264,37345,34120
32373,37312,34132
32466,37276,34308
32516,37252,34337
32544,37251,34486
32548,37244,34473
32518,37295,34692
32420,37334,34783
32432,37361,34789
32464,37375,34944
32528,37348,35040
32584,37317,35167
32677,37273,35284
32704,37244,35287
32708,37240,35452
32612,37263,35500
32680,37292,35673
32868,37306,35703
32805,37356,35852
32869,37359,35895
32988,37351,36084
32936,37314,36113
32949,37268,36324
32816,37255,36423
32789,37245,36524
32828,37271,36592
32760,37293,36615
32680,37303,36840
32760,37359,36916
32760,37369,36926
32848,37349,37072
32844,37317,37101
32768,37287,37328
32728,37252,37409
32688,37255,37526
32620,37271,37476
32632,37297,37694
32584,37335,37636
32556,37359,37861
32656,37335,37884
32648,37350,38020
32716,37318,38093
32716,37287,38206
32628,37255,38204
32504,37229,38441
32404,37265,38535
32456,37300,38637
32576,37335,38729
32532,37357,38696
32424,37368,38911
32432,37352,38901
32488,37303,39100
32628,37271,39258
32680,37267,39336
32628,37246,39388
32484,37268,39570
32368,37292,39648
32392,37342,39748
32238,37370,39812
32188,37374,39964
32160,37350,40046
32188,37305,40188
32248,37264,40319
32264,37255,40356
32320,37247,40324
32384,37262,40484
32476,37293,40496
32480,37332,40735
32440,37359,40848
32461,37361,40788
32485,37342,41023
32540,37317,41114
32580,37268,41143
32576,37253,41249
32520,37239,41242
32464,37264,41409
32496,37296,41381
32460,37310,41568
32377,37361,41526
32272,37367,41708
32292,37339,41748
32344,37309,41901
32374,37255,42045
32341,37263,42164
32388,37237,42182
32312,37268,42075
32260,37271,42397
32200,37348,42410
32148,37364,42316
32104,37373,42553
32108,37356,42460
32160,37324,42725
32173,37287,42596
32216,37254,42908
32344,37220,42749
32357,37255,43074
32312,37304,43143
32232,37345,43050
32124,37375,43285
32008,37360,43375
31904,37350,43270
31924,37312,43546
32012,37268,43543
32164,37253,43449
32310,37251,43756
32244,37244,43834
32052,37308,43757
32004,37332,43967
32064,37357,43977
32124,37352,43879
32112,37348,44104
32192,37309,44077
32228,37268,44268
32264,37255,44167
32240,37242,44436
32152,37267,44333
32088,37300,44585
32041,37341,44616
32116,37328,44724
32128,37356,44745
32220,37305,44876
32192,37321,44916
32116,37273,45012
32220,37255,44949
32340,37241,45100
32500,37260,45224
32624,37281,45232
32728,37327,45328
33156,37356,45319
34008,37349,45445
34796,37334,45356
35184,37296,45629
35156,37273,45636
34717,37237,45564
34088,37239,45839
32892,37268,45904
31106,37316,45959
28840,37324,45813
25689,37390,46048
21892,37382,45980
18204,37406,46165
14845,37320,46240
11685,37340,46304
10209,37236,46292
9921,37341,46392
10325,37239,46492
11901,37380,46564
14472,37332,46626
18764,37448,46640
23626,37428,46609
27237,37400,46725
29196,37364,46572
30103,37312,46831
31060,37284,46880
32104,37269,46885
32976,37255,46949
33514,37324,46940
33932,37340,46976
34240,37351,46980
34486,37372,47077
34684,37356,47076
34888,37310,46972
35088,37279,47156
35084,37255,47009
35160,37255,47272
35220,37269,47318
35196,37298,47328
35176,37337,47364
35152,37337,47194
35185,37364,47420
35196,37337,47464
35172,37305,47437
35236,37277,47513
35256,37249,47520
35268,37215,47556
35208,37266,47481
35160,37287,47568
35116,37327,47399
35100,37327,47660
35080,37351,47652
35068,37343,47669
35084,37304,47441
35120,37263,47692
35128,37245,47668
35237,37217,47663
35140,37260,47657
34977,37276,47510
34836,37321,47688
34800,37321,47663
34857,37358,47596
34972,37320,47600
34944,37299,47556
34840,37253,47623
34756,37236,47608
34716,37232,47584
34636,37243,47572
34557,37255,47564
34533,37320,47564
34580,37351,47312
34520,37352,47552
34564,37324,47524
34592,37292,47476
34544,37236,47495
34528,37236,47344
34968,37221,47463
34988,37228,47205
34516,37276,47372
34289,37308,47200
34180,37349,47293
34020,37348,47197
34056,37337,47218
34112,37284,47020
34224,37263,47222
34364,37233,47175
34676,37231,47124
34596,37247,47088
34220,37268,47044
33872,37314,46767
33744,37348,46956
33696,37359,46900
34368,37331,46846
34949,37294,46789
34768,37247,46688
34400,37247,46673
34052,37236,46511
33839,37247,46552
33736,37289,46377
33500,37317,46484
33400,37312,46464
33428,37356,46405
33528,37302,46332
33572,37289,46180
33536,37242,46300
33572,37229,46267
33516,37231,46215
33428,37260,46189
33306,37300,45932
33197,37334,46097
33088,37344,45870
32992,37319,46044
32994,37337,46025
33012,37292,45992
33004,37263,45940
32996,37249,45952
32900,37237,45927
32892,37238,45896
32864,37293,45830
32756,37324,45654
32664,37358,45791
32608,37345,45613
32528,37337,45799
32560,37297,45570
32661,37268,45748
32648,37247,45540
32532,37245,45652
32402,37261,45508
32261,37300,45613
32196,37332,45508
32176,37359,45604
32164,37349,45560
32229,37301,45562
32364,37308,45399
32500,37255,45472
32512,37244,45319
32540,37232,45447
32504,37231,45476
32492,37302,45433
32484,37330,45423
32512,37338,45356
32696,37357,45175
32772,37299,45306
32825,37297,45189
32783,37264,45286
32792,37249,45255
32808,37245,45228
32816,37252,45191
32800,37288,45131
32760,37329,44928
32736,37342,45116
32768,37356,45092
32808,37330,45048
32852,37298,45036
32928,37263,44989
32952,37245,44975
32960,37236,44952
32916,37252,44932
32889,37292,44901
32876,37327,44868
32916,37337,44807
33004,37355,44813
33093,37332,44796
33116,37285,44551
33166,37220,44685
33200,37236,44484
33168,37236,44606
33156,37244,44551
33128,37272,44636
33024,37325,44605
32948,37319,44568
32992,37343,44560
33096,37333,44324
33124,37309,44449
33176,37260,44321
33216,37247,44424
33188,37229,44204
33128,37255,44308
33112,37292,44201
33124,37324,44269
33072,37353,44189
33092,37365,44228
33228,37332,44228
33312,37279,44208
33300,37260,44103
33280,37247,43964
33256,37248,44103
33232,37260,44084
33220,37309,44052
33256,37344,43984
33265,37356,43996
33352,37367,43812
33328,37339,43900
33384,37280,43700
33432,37271,43816
33408,37216,43728
33389,37245,43492
33360,37273,43639
33364,37308,43623
33424,37346,43321
33433,37364,43494
33508,37356,43420
33540,37348,43156
33516,37308,43303
33516,37281,43252
33544,37245,43174
33529,37255,43089
33480,37279,43015
33400,37310,42975
33296,37343,42676
33256,37367,42817
33264,37376,42532
33280,37349,42605
33280,37313,42412
33354,37282,42468
33328,37255,42380
33248,37268,42196
33184,37278,42319
33072,37313,42215
32980,37357,42220
32892,37368,42152
32897,37376,42124
32984,37346,42047
33094,37318,41805
33212,37276,41964
33292,37227,41917
33328,37252,41743
33277,37255,41604
33244,37317,41719
33208,37325,41721
33176,37373,41660
33189,37335,41568
33172,37349,41455
33156,37285,41500
33128,37276,41372
33144,37245,41312
33156,37253,41369
33116,37236,41356
33036,37303,41079
33044,37340,41220
33112,37356,41173
33133,37333,41148
33144,37344,41132
33124,37313,40853
33037,37279,40965
33044,37260,40973
33054,37255,40716
33048,37279,40831
33006,37309,40849
32936,37346,40573
32905,37372,40655
32988,37366,40613
33200,37348,40608
33484,37303,40481
33688,37255,40401
33956,37245,40420
34404,37247,40389
35060,37269,40328
35740,37292,40308
35948,37336,40037
35804,37358,40116
35436,37343,39964
34928,37340,40049
33905,37304,39992
32204,37282,39796
29968,37277,39844
26902,37280,39724
23312,37321,39796
19709,37284,39696
16396,37392,39616
13198,37372,39476
11572,37440,39552
11208,37333,39397
11553,37383,39489
13031,37375,39460
15474,37318,39324
19384,37336,39341
24016,37348,39292
27556,37367,39080
29616,37404,39153
30532,37409,39084
31516,37370,39060
32616,37377,38967
33573,37309,38816
34228,37288,38853
34660,37271,38727
34904,37277,38781
35128,37284,38740
35360,37309,38596
35576,37359,38645
35676,37365,38617
35728,37373,38424
35812,37351,38476
35872,37308,38468
35892,37255,38460
35892,37258,38444
35866,37245,38365
35844,37277,38311
35860,37319,38273
35784,37351,38164
35716,37370,38103
35716,37372,37965
35756,37357,37988
35828,37311,37972
35864,37276,37805
35876,37255,37851
35868,37249,37826
35768,37279,37636
35712,37299,37693
35680,37343,37600
35662,37370,37607
35640,37361,37383
35582,37348,37428
35520,37303,37412
35516,37268,37185
35580,37245,37221
35536,37253,37190
35484,37263,36991
35436,37277,36906
35380,37333,36917
35336,37340,36879
35348,37360,36660
35356,37338,36704
35408,37301,36583
35368,37256,36440
35316,37245,36468
35292,37248,36425
35249,37268,36210
35204,37300,36239
35112,37343,36145
35004,37356,36137
34960,37354,36044
34924,37328,35887
34896,37287,35924
34918,37263,35823
34928,37236,35784
34936,37239,35617
34908,37241,35634
34788,37296,35578
34725,37329,35390
34669,37357,35429
34628,37335,35350
34616,37344,35184
34616,37276,35196
34580,37271,35089
34464,37255,34927
34444,37255,34944
34464,37277,34869
34441,37307,34710
34412,37343,34695
34364,37364,34644
34332,37365,34469
34404,37345,34460
34429,37308,34340
34396,37285,34249
34432,37253,34238
34388,37253,34055
34248,37273,34020
34164,37312,33989
34084,37351,33880
33968,37361,33838
33856,37337,33652
33768,37346,33653
33773,37281,33558
33764,37281,33428
33716,37247,33348
33669,37255,33311
33565,37284,33217
33432,37285,33124
33316,37350,33056
33228,37364,32965
33156,37367,32812
33136,37349,32759
33120,37324,32704
33136,37284,32612
33088,37253,32546
32996,37263,32424
32952,37273,32364
32876,37290,32301
32792,37346,32192
32804,37380,32089
32796,37369,32062
32792,37349,31982
32848,37287,31919
32916,37276,31788
32952,37221,31758
32986,37255,31685
33004,37277,31568
32992,37320,31551
32960,37350,31457
32988,37368,31410
33001,37365,31352
33076,37351,31260
33132,37309,31207
33224,37287,31137
33300,37255,31097
33324,37231,31029
33280,37285,30961
33216,37318,30924
33124,37351,30857
33164,37372,30816
33177,37372,30775
33236,37359,30701
33320,37316,30661
33409,37279,30599
33456,37255,30556
33425,37255,30516
33344,37268,30458
33264,37317,30398
33212,37349,30360
33164,37382,30296
33140,37361,30256
33156,37348,30206
33188,37311,30149
33232,37244,30112
33288,37252,30060
33300,37221,30016
33256,37272,29955
33260,37319,29916
33248,37348,29862
33269,37367,29824
33332,37353,29788
33368,37349,29721
33464,37306,29680
33556,37237,29621
33636,37255,29605
33604,37245,29540
33520,37247,29518
33508,37305,29443
33489,37302,29403
33444,37367,29365
33480,37364,29324
33526,37336,29300
33536,37301,29221
33568,37265,29191
33632,37216,29190
33652,37239,29101
33660,37263,29068
33612,37309,29017
33576,37348,28984
33544,37362,28921
33536,37364,28892
33564,37336,28889
33616,37300,28788
33616,37268,28741
33584,37255,28728
33556,37245,28664
33544,37276,28633
33528,37311,28576
33508,37337,28529
33500,37332,28526
33568,37369,28436
33616,37351,28369
33688,37311,28392
33728,37277,28281
33764,37253,28284
33760,37255,28197
33760,37266,28199
33728,37319,28064
33764,37351,28021
33796,37375,28022
33772,37367,27948
33724,37321,27953
33688,37300,27836
33700,37270,27814
33661,37255,27710
33616,37253,27663
33516,37255,27604
33436,37316,27549
33380,37349,27586
33372,37375,27456
33377,37370,27384
33364,37358,27421
33344,37315,27305
33337,37270,27276
33320,37252,27251
33308,37255,27143
33264,37279,27068
33204,37318,27130
33121,37351,26969
33096,37381,26913
33068,37375,26948
33132,37356,26817
33212,37308,26764
33312,37287,26815
33308,37223,26669
33324,37253,26659
33285,37279,26584
33221,37313,26644
33148,37348,26470
33135,37367,26454
33152,37372,26512
33204,37351,26347
33224,37324,26305
33216,37277,26369
33252,37260,26235
33224,37245,26164
33200,37276,26212
33160,37279,26163
33134,37348,26045
33100,37367,26005
33080,37369,26091
33096,37349,25932
33148,37285,25940
33192,37271,25887
33236,37255,25959
33221,37246,25809
33200,37277,25750
33127,37303,25847
33084,37357,25685
33084,37365,25676
33136,37359,25676
33260,37351,25604
33432,37312,25709
33624,37279,25536
33980,37241,25533
34524,37244,25496
35312,37265,25559
35912,37302,25506
36048,37337,25401
35784,37340,25422
35240,37360,25338
34256,37359,25454
32540,37314,25281
30328,37304,25286
27580,37284,25377
24348,37252,25238
20740,37326,25196
17242,37277,25290
14092,37412,25152
11457,37344,25138
10580,37449,25282
10576,37326,25086
11390,37392,25130
13308,37264,25115
16224,37348,25120
20452,37332,25040
24796,37348,25012
28024,37372,25125
29869,37396,24960
31064,37409,24936
32280,37410,25066
33424,37365,24872
34336,37332,24901
34912,37301,24836
35276,37271,24879
35500,37268,24785
35688,37295,24932
35808,37320,24737
35884,37345,24778
35944,37381,24772
35976,37374,24875
36028,37359,24772
36084,37305,24778
36092,37285,24716
36128,37269,24734
36100,37260,24733
36016,37287,24785
35936,37319,24679
35860,37356,24672
35856,37373,24748
35872,37383,24677
35908,37361,24736
35948,37324,24580
35960,37303,24602
35972,37271,24668
35980,37271,24552
35916,37288,24594
35844,37320,24635
35808,37340,24518
35776,37380,24515
35776,37383,24640
35784,37367,24530
35788,37324,24583
35777,37300,24428
35740,37268,24468
35668,37269,24461
35600,37287,24356
35500,37308,24341
35429,37356,24473
35408,37383,24308
35392,37381,24232
35392,37345,24328
35440,37327,24120
35452,37288,24161
35444,37279,24068
35436,37271,24189
35352,37299,24024
35284,37313,23988
35208,37372,24070
35140,37400,23868
35108,37393,23829
35108,37356,23965
35128,37343,23734
35133,37312,23765
35104,37284,23676
35068,37290,23803
34993,37288,23559
34876,37343,23537
34816,37358,23663
34790,37399,23439
34788,37409,23426
34780,37383,23503
34852,37349,23324
34860,37312,23359
34916,37301,23417
34880,37287,23213
34796,37321,23244
34740,37332,23252
34720,37383,23213
34693,37416,23063
34672,37415,23060
34672,37401,23167
34668,37356,22965
34644,37332,23002
34592,37307,23022
34536,37308,22852
34448,37333,22844
34328,37375,22934
34216,37420,22732
34132,37421,22788
34064,37433,22693
34032,37409,22764
33972,37381,22637
33916,37336,22625
33836,37321,22596
33740,37325,22612
33624,37343,22514
33444,37380,22460
33304,37423,22605
33196,37450,22378
33120,37447,22359
33116,37422,22419
33060,37351,22252
33012,37349,22265
32960,37332,22278
32876,37344,22234
32764,37319,22190
32712,37390,22309
32656,37417,22045
32652,37452,22068
32645,37425,22220
32733,37433,21954
32776,37383,21981
32848,37359,22016
32882,37351,21961
32868,37351,21936
32877,37332,21966
32908,37401,21798
32925,37447,21817
32956,37468,21850
32984,37471,21775
33080,37438,21732
33180,37421,21696
33265,37374,21692
33288,37359,21681
33312,37367,21692
33268,37381,21543
33244,37431,21593
33196,37454,21660
33216,37481,21460
33236,37476,21451
33276,37465,21490
33304,37421,21504
33340,37402,21340
33324,37373,21424
33268,37372,21364
33236,37396,21503
33136,37423,21257
33097,37469,21310
33076,37487,21182
33076,37492,21264
33148,37477,21276
33192,37445,21098
33204,37405,21142
33208,37383,21256
33185,37382,21045
33168,37406,21100
33148,37409,21141
33156,37485,21035
33172,37509,20954
33200,37511,21017
33281,37476,21050
33328,37415,20948
33408,37407,20984
33460,37378,20961
33452,37383,21076
33456,37423,20836
33456,37445,20904
33440,37479,20812
33504,37511,20855
33592,37511,20871
33692,37501,20869
33744,37455,20981
33784,37388,20883
33804,37408,21006
33832,37401,20799
33848,37439,20826
33816,37471,20738
33764,37505,20787
33768,37529,20776
33756,37503,20765
33824,37503,20876
33880,37479,20790
33908,37433,20670
33908,37424,20712
33884,37421,20749
33820,37449,20654
33780,37482,20700
33720,37532,20553
33732,37552,20628
33708,37548,20657
33736,37530,20561
33765,37488,20596
33740,37469,20724
33726,37437,20562
33688,37444,20561
33644,37468,20581
33580,37500,20560
33516,37540,20578
33512,37569,20430
33533,37560,20478
33588,37541,20630
33633,37508,20412
33636,37478,20487
33608,37459,20549
33604,37457,20397
33593,37454,20463
33592,37519,20580
33584,37561,20377
33568,37581,20468
33568,37588,20549
33592,37556,20449
33648,37532,20468
33680,37495,20611
33716,37470,20389
33692,37447,20481
33645,37511,20404
33612,37535,20525
33600,37553,20470
33564,37595,20535
33541,37588,20454
33520,37587,20548
33494,37551,20484
33448,37511,20553
33410,37493,20754
33364,37493,20508
33292,37516,20639
33216,37540,20683
33172,37593,20605
33152,37629,20665
33160,37618,20679
33180,37610,20561
33172,37573,20640
33158,37537,20589
33116,37511,20684
33084,37503,20604
33060,37531,20659
33000,37548,20700
32976,37615,20708
32976,37607,20692
32972,37639,20718
32990,37617,20704
33024,37577,20711
33040,37543,20726
33092,37534,20879
33080,37511,20756
33028,37565,20874
32976,37597,20677
32928,37633,20875
32912,37654,20674
32916,37663,20770
32928,37636,20700
32980,37584,20777
32992,37572,20916
32992,37523,20834
32952,37557,20931
32876,37585,20860
32824,37615,20941
32784,37645,20800
32770,37684,20898
32760,37677,21080
32804,37669,20860
32853,37613,21052
32868,37567,20920
32908,37570,21009
32928,37542,21021
32956,37596,21087
33016,37639,21145
33168,37671,21063
33340,37689,21164
33612,37696,21170
34056,37677,21246
34792,37620,21401
35546,37591,21210
35880,37564,21320
35716,37578,21286
35236,37615,21380
34300,37661,21532
32726,37694,21457
30388,37696,21516
27624,37732,21554
24516,37688,21625
21088,37676,21521
17526,37621,21636
14261,37653,21716
11230,37673,21737
8918,37718,21765
8158,37742,21810
8104,37672,21844
8804,37801,21898
10689,37827,21808
13715,37793,21906
18288,37716,21998
23245,37681,21956
27088,37672,22132
29560,37655,21941
31424,37682,22081
32833,37716,21994
33856,37743,22057
34616,37761,22225
35112,37761,22164
35456,37700,22247
35708,37709,22106
35952,37637,22192
36084,37639,22326
36154,37655,22294
36172,37671,22369
36156,37680,22372
36180,37749,22488
36157,37740,22349
36156,37765,22449
36180,37732,22637
36204,37719,22521
36256,37678,22650
36260,37661,22596
36212,37663,22710
36156,37681,22549
36056,37724,22609
35972,37767,22720
35956,37783,22707
35948,37780,22843
35952,37759,22672
35972,37718,22746
35957,37698,22708
35952,37663,22783
35972,37679,22867
35933,37708,22928
35880,37740,22904
35816,37776,22906
35744,37799,23002
35732,37797,22999
35752,37772,23157
35772,37745,23023
35760,37716,23039
35740,37693,23000
35716,37703,23057
35604,37716,23266
35516,37759,23117
35432,37797,23192
35392,37828,23140
35344,37815,23316
35348,37785,23153
35372,37759,23200
35384,37728,23386
35384,37710,23265
35316,37684,23431
35228,37748,23315
35146,37781,23354
35044,37806,23344
35008,37842,23368
34988,37847,23438
34976,37818,23324
34972,37791,23398
34976,37748,23557
34972,37734,23397
34948,37735,23485
34856,37765,23454
34808,37796,23512
34764,37828,23585
34692,37869,23584
34640,37862,23765
34636,37835,23593
34644,37811,23679
34632,37767,23742
34616,37753,23897
34568,37767,23733
34500,37780,23793
34426,37828,23983
34368,37814,23872
34289,37877,24000
34240,37879,23890
34220,37852,24007
34152,37809,24124
34089,37793,24058
34036,37767,24126
33952,37752,24076
33824,37805,24185
33688,37846,24187
33548,37852,24371
33456,37895,24208
33381,37904,24320
33348,37885,24374
33280,37834,24316
33212,37817,24446
33112,37806,24398
33020,37799,24473
32900,37831,24588
32764,37863,24578
32637,37895,24701
32568,37924,24580
32504,37910,24663
32454,37863,24837
32472,37860,24725
32460,37841,24765
32407,37820,24955
32356,37815,24804
32320,37845,24916
32280,37871,24916
32248,37917,25092
32260,37942,25020
32292,37929,25075
32348,37913,25045
32412,37889,25109
32506,37845,25292
32596,37823,25252
32664,37837,25292
32684,37863,25269
32682,37893,25314
32696,37933,25439
32720,37951,25407
32728,37958,25502
32784,37933,25548
32840,37895,25695
32888,37853,25590
32929,37844,25622
32968,37853,25832
32956,37876,25713
32932,37911,25775
32928,37916,25944
32920,37967,25911
32916,37968,26071
32954,37941,25968
33024,37908,26053
33044,37887,26134
33036,37861,26115
33025,37863,26172
32952,37884,26361
32908,37931,26318
32884,37956,26473
32880,37980,26413
32904,37979,26490
32960,37964,26559
33004,37925,26572
33072,37892,26692
33108,37871,26653
33108,37885,26732
33088,37895,26824
33072,37937,26876
33084,37967,26934
33132,37993,27046
33184,38004,27065
33249,37982,27196
33304,37917,27148
33388,37877,27220
33436,37884,27273
33436,37893,27374
33439,37909,27532
33408,37948,27508
33416,37985,27585
33438,38014,27605
33476,38014,27704
33544,37988,27806
33632,37951,27820
33676,37924,27885
33696,37904,28004
33692,37910,28055
33660,37924,28188
33612,37971,28172
33616,37997,28297
33580,38028,28286
33568,38023,28357
33584,37983,28464
33632,37961,28533
33632,37949,28652
33644,37895,28636
33608,37919,28733
33584,37941,28789
33540,37964,28913
33500,38023,28901
33492,38033,28980
33476,38023,29077
33512,38007,29126
33492,37984,29240
33472,37948,29242
33480,37924,29318
33428,37935,29437
33368,37958,29461
33336,37993,29553
33285,37991,29634
33245,38046,29654
33264,38045,29735
33288,37988,29836
33304,37988,29872
33316,37956,29935
33284,37949,30015
33232,37954,30100
33206,37964,30155
33140,38015,30215
33080,38039,30301
33069,38056,30392
33068,38044,30445
33092,38020,30529
33120,37996,30599
33124,37975,30668
33109,37952,30747
33092,37949,30830
33052,37972,30918
33020,38013,30983
32960,38029,31065
32940,38064,31144
32952,38079,31223
32952,38052,31294
32984,38012,31381
32988,37984,31436
32968,37948,31532
32968,37927,31589
32932,37989,31685
32864,38023,31769
32806,38016,31824
32776,38073,31919
32796,38079,31980
32832,38067,32073
32845,38031,32165
32869,37954,32211
32864,37964,32312
32849,37972,32404
32828,37956,32455
32732,38034,32551
32708,38069,32633
32672,38097,32698
32676,38088,32801
32720,38036,32849
32764,38025,32965
32792,38000,33053
32792,37983,33094
32773,37986,33220
32728,38012,33276
32688,38055,33396
32652,38086,33468
32624,38111,33576
32664,38087,33663
32781,38076,33703
32876,38050,33832
32900,38017,33861
32910,37956,34020
32896,37991,34124
32896,38023,34119
32844,38052,34295
32824,38106,34358
32832,38111,34492
32844,38119,34533
32884,38087,34685
32940,38053,34693
32944,38020,34884
32896,38013,34993
32864,38007,35093
32780,38037,35205
32692,38068,35300
32596,38077,35352
32560,38124,35518
32593,38119,35596
32656,38111,35711
32668,38060,35828
32709,37997,35887
32704,38012,36028
32676,38020,36142
32588,38036,36231
32484,38068,36308
32485,38112,36420
32512,38109,36488
32709,38132,36548
32752,38118,36748
32684,38081,36768
32632,38041,36967
32608,38012,37032
32556,38023,37045
32720,38054,37166
32760,38065,37348
32596,38119,37456
32444,38151,37505
32432,38147,37665
32452,38119,37757
32528,38079,37736
32600,38052,37940
32624,38034,38063
32644,38037,38172
32668,38054,38268
32984,38053,38356
33025,38119,38452
32848,38113,38420
32664,38141,38604
32516,38132,38639
32489,38092,38807
32508,38060,38917
32584,38036,38868
32596,38037,39056
32576,38052,39075
32577,38059,39272
32600,38127,39381
32672,38151,39463
32804,38151,39524
33000,38129,39625
33244,38099,39738
33540,38023,39648
33940,38028,39854
34586,38035,39884
35304,38053,40028
35612,38092,40128
35385,38125,40004
34912,38144,40172
33888,38127,40170
32348,38135,40352
30132,38124,40441
27500,38085,40341
24508,38084,40484
21172,38093,40442
17600,38092,40630
14361,38144,40564
11460,38206,40800
9076,38212,40814
8468,38230,40892
8561,38223,40744
9112,38133,40949
10708,38121,40980
13357,38012,40869
17600,38085,41032
22377,38047,41110
26358,38143,40924
29272,38125,41101
31437,38177,40987
32932,38181,41136
33972,38146,41180
34804,38116,41192
35404,38073,41258
35724,38054,41037
35992,38052,41151
36156,38070,41167
36204,38116,41221
36252,38140,41265
36252,38169,41254
36326,38170,41185
36445,38143,41177
36472,38103,41070
36428,38077,41247
36424,38049,41282
36332,38051,41053
36228,38080,41175
36196,38112,41205
36164,38148,41004
36156,38167,41156
36128,38165,41089
36152,38139,41045
36172,38097,41086
36148,38063,40999
36144,38053,41068
36144,38057,40888
36048,38071,40967
35996,38117,40935
35944,38137,40772
35940,38151,40884
35944,38166,40797
35976,38127,40832
36088,38111,40661
36048,38069,40552
35912,38052,40644
35888,38037,40632
35836,38077,40597
36092,38100,40446
36128,38119,40284
35920,38158,40364
35736,38168,40268
35572,38143,40252
35696,38098,40016
35734,38068,40089
35596,38045,40052
35580,38055,39766
35532,38076,39865
35344,38110,39733
35168,38148,39532
35100,38167,39444
35092,38164,39423
35132,38129,39257
35204,38108,39303
35236,38069,39223
35237,38049,39104
35172,38056,38912
35108,38083,38904
35064,38101,38880
34996,38121,38640
34980,38167,38680
34924,38169,38546
34927,38109,38380
34988,38104,38438
34988,38076,38359
35004,38052,38129
34972,38055,38165
34862,38076,37951
34784,38112,37970
34708,38143,37812
34664,38150,37816
34732,38165,37621
34660,38101,37669
34628,38103,37590
34572,38048,37509
34506,38044,37424
34464,38030,37214
34429,38086,37191
34228,38119,37028
34080,38151,37056
33998,38160,36863
34025,38175,36791
33937,38140,36717
33740,38092,36549
33712,38079,36556
33652,38056,36389
33548,38056,36343
33400,38080,36160
33256,38124,36148
33108,38151,35988
33062,38164,35956
32996,38140,35793
32956,38135,35759
32920,38116,35612
32904,38076,35584
32852,38047,35488
32784,38021,35290
32672,38088,35284
32572,38116,35100
32588,38119,35092
32612,38165,34916
32588,38171,34888
32548,38147,34725
32624,38103,34724
32738,38042,34575
32748,38045,34525
32776,38023,34452
32768,38082,34337
32744,38110,34269
32744,38129,34114
32940,38172,34070
33328,38151,33993
33684,38137,33917
33736,38108,33753
33365,38068,33748
32996,38045,33605
32848,38014,33557
32885,38071,33428
32968,38111,33373
33056,38140,33339
33141,38172,33212
33168,38144,33196
33224,38103,33076
33256,38102,33031
33318,38063,32925
33540,38052,32904
33544,38045,32809
33428,38076,32775
33260,38108,32704
33212,38135,32643
33372,38151,32578
33360,38161,32489
33348,38119,32435
33400,38089,32348
33212,38055,32317
33204,38045,32229
33240,38043,32186
33216,38023,32118
33240,38110,32078
33204,38137,32021
33316,38133,31964
33428,38164,31914
33472,38124,31845
33428,38092,31809
33480,38060,31751
33508,38023,31700
33576,38005,31646
33588,38061,31588
33624,38070,31542
33596,38133,31494
33624,38151,31450
33705,38150,31406
33784,38085,31349
33892,38090,31308
33968,38054,31252
33960,38023,31215
34029,37993,31162
34080,38057,31109
33964,38092,31052
33896,38127,31020
33840,38133,30973
33852,38148,30920
33924,38116,30873
33985,38081,30841
34004,38047,30808
33972,38038,30752
33980,38033,30718
34008,38060,30652
33936,38087,30623
33924,38103,30561
33920,38148,30536
33896,38148,30476
33904,38121,30439
33960,38087,30404
33905,38047,30353
33892,38037,30327
33822,38031,30258
33728,38059,30231
33692,38055,30233
33676,38123,30164
33645,38119,30141
33648,38143,30076
33664,38108,30040
33676,38076,30040
33628,38015,29972
33568,38032,29957
33572,38021,29876
33600,38055,29855
33624,38084,29834
33645,38124,29786
33456,38141,29772
33420,38125,29698
33464,38103,29695
33532,38071,29654
