ECG,EDA,RR
33344,27110,50992
33300,27121,50786
32965,27127,50889
32788,27124,50788
32760,27125,50572
32512,27110,50524
32208,27106,50516
32284,27096,50397
32680,27105,50237
33188,27102,50247
33505,27117,50042
33436,27131,49959
33224,27126,49951
32976,27125,49812
32916,27124,49725
32628,27113,49671
32285,27101,49388
32364,27101,49440
32744,27102,49313
33134,27107,49236
33372,27118,49083
33321,27133,48672
33152,27133,48932
32952,27124,48815
32870,27121,48544
32760,27116,48604
32552,27106,48504
32557,27104,48255
32824,27101,48246
33304,27111,48164
33388,27119,47900
33212,27132,47932
33020,27133,47832
32856,27127,47532
32768,27139,47500
32588,27113,47494
32393,27101,47352
32488,27097,47207
32872,27109,46871
33184,27104,46970
33416,27122,46933
33528,27135,46623
33404,27135,46693
33140,27132,46595
32948,27124,46441
32592,27112,46335
32300,27108,46215
32429,27107,46063
32677,27114,45885
33060,27109,45781
33340,27127,45767
33376,27129,45607
33204,27135,45447
32980,27137,45164
32956,27135,45280
32628,27119,45204
32280,27105,45077
32356,27108,44999
32653,27111,44741
33109,27115,44701
33497,27129,44452
33524,27143,44431
33241,27140,44140
32970,27142,44234
32825,27139,44181
32512,27125,44052
32180,27119,43960
32288,27110,43719
32680,27119,43560
33120,27121,43588
33304,27137,43487
33293,27142,43230
33165,27142,42969
33004,27143,43121
32880,27140,42949
32640,27125,42604
32370,27117,42756
32428,27116,42631
32766,27116,42185
33316,27116,42300
33506,27131,42365
33356,27143,42161
33154,27143,41853
32968,27143,41941
32896,27140,41705
32728,27129,41621
32569,27125,41606
32678,27123,41406
32992,27127,41341
33324,27125,41184
33516,27140,41020
33509,27143,41015
33376,27157,40828
33256,27143,40827
33240,27143,40733
33053,27127,40556
32796,27119,40525
32816,27123,40416
32940,27117,40351
33293,27128,40220
33576,27143,40164
33548,27156,39916
33252,27153,39647
33024,27148,39906
33084,27143,39735
32904,27138,39588
32628,27124,39613
32684,27127,39418
32964,27131,39084
33268,27127,39325
33381,27143,39097
33364,27147,38871
33172,27148,39021
32965,27154,38823
32860,27153,38780
32676,27143,38608
32441,27133,38566
32512,27132,38533
32788,27134,38463
33293,27132,38336
33600,27143,38171
33604,27158,38103
33352,27159,37919
33028,27156,37997
32721,27155,37698
32200,27142,37956
31637,27131,37787
31552,27135,37780
31790,27140,37383
32236,27135,37628
32350,27157,37438
32214,27157,37281
31972,27167,37262
31904,27171,37050
32476,27164,37222
33164,27161,37072
33820,27143,36981
34900,27149,36852
35932,27156,36717
36068,27156,36735
35796,27165,36583
35616,27174,36559
35640,27177,36355
35520,27169,36356
35124,27171,36169
34596,27153,36133
34500,27143,36093
34560,27143,36036
34636,27143,35701
34584,27154,35847
34392,27163,35620
34028,27175,35395
33760,27175,35384
33568,27175,35183
33512,27173,35328
33025,27159,35017
32397,27143,35092
32216,27156,34892
32444,27150,34927
32824,27156,34733
33128,27165,34836
33108,27174,34757
32725,27181,34616
32160,27177,34567
31876,27174,34381
31756,27161,34417
31612,27151,34414
31752,27152,34271
32113,27143,34212
32556,27156,34085
32824,27173,34248
32788,27182,34145
32576,27185,33922
32297,27181,34011
32137,27180,33765
31968,27166,33780
31769,27153,33623
31844,27157,33637
32208,27160,33443
32738,27152,33444
32936,27173,33415
32836,27180,33318
32562,27183,33198
32282,27180,33088
32104,27183,32955
31848,27181,32748
31644,27161,32689
31797,27165,32521
32132,27165,32617
32528,27158,32492
32797,27177,32253
32752,27191,32275
32412,27188,32237
32132,27190,32019
32036,27189,32039
31852,27169,31892
31604,27164,31875
31676,27167,31748
31921,27167,31613
32244,27169,31690
32512,27181,31456
32472,27190,31465
32270,27199,31333
32112,27177,31396
32148,27193,31293
31832,27186,31077
31504,27165,31087
31597,27173,31111
31924,27169,30887
32280,27175,30917
32540,27191,30937
32512,27198,30782
32302,27206,30784
32044,27204,30588
31985,27199,30615
31805,27189,30551
31492,27175,30596
31424,27180,30563
31574,27180,30425
32004,27182,30437
32364,27197,30311
32416,27214,30324
32276,27206,30183
32088,27214,30273
32040,27215,30198
31972,27199,30076
31896,27184,30055
31964,27183,29935
32192,27183,30004
32664,27189,29936
32852,27204,29951
32792,27213,29790
32665,27215,29848
32457,27209,29804
32356,27204,29669
32166,27200,29680
31942,27188,29569
32064,27191,29620
32416,27191,29452
32826,27196,29484
33208,27209,29466
33260,27214,29397
33036,27214,29321
32700,27214,29154
32535,27208,29245
32352,27199,29150
32129,27184,29049
32249,27191,29031
32596,27191,28911
32966,27189,28940
33272,27206,28885
33292,27213,28679
33120,27220,28740
32830,27209,28593
32852,27215,28589
32528,27200,28599
32192,27192,28386
32214,27197,28445
32582,27193,28253
33084,27196,28307
33316,27215,28186
33248,27225,28125
32956,27224,28132
32570,27216,27955
32472,27217,28007
32340,27203,27878
32200,27197,27836
32312,27195,27748
32640,27197,27685
33000,27197,27662
33312,27211,27508
33308,27225,27521
33120,27223,27448
32876,27220,27344
32756,27222,27300
32608,27206,27142
32420,27194,27135
32548,27195,27103
32886,27194,26925
33462,27197,26955
33529,27212,26845
33432,27223,26800
33308,27225,26749
33084,27221,26647
32976,27214,26567
32752,27206,26545
32497,27199,26420
32584,27193,26340
32893,27199,26295
33230,27204,26156
33476,27215,26164
33509,27229,26088
33252,27231,26007
32956,27223,25882
32865,27226,25857
32604,27219,25726
32348,27207,25731
32488,27202,25664
32816,27201,25598
33204,27211,25526
33436,27225,25468
33432,27229,25400
33233,27234,25317
33054,27235,25274
33148,27228,25180
32824,27222,25175
32436,27208,25056
32422,27208,25056
32845,27207,24964
33313,27209,24951
33544,27220,24884
33520,27239,24871
33268,27241,24804
33088,27231,24695
32968,27237,24698
32785,27222,24626
32548,27212,24592
32576,27215,24533
32880,27212,24486
33268,27216,24390
33436,27231,24361
33433,27237,24281
33217,27238,24266
32976,27232,24198
32887,27236,24138
32696,27228,24078
32544,27213,24004
32636,27209,23961
32888,27215,23909
33324,27214,23809
33412,27234,23783
33432,27237,23721
33208,27246,23642
32873,27239,23602
32676,27245,23509
32416,27231,23480
32220,27220,23414
32384,27219,23357
32740,27217,23300
33120,27227,23237
33340,27233,23180
33352,27245,23120
33180,27238,23047
32928,27247,22989
32768,27249,22920
32540,27236,22873
32404,27229,22804
32562,27223,22756
32900,27222,22682
33300,27223,22636
33524,27237,22575
33532,27245,22518
33344,27249,22455
33124,27252,22400
33156,27252,22341
32764,27237,22289
32400,27233,22220
32496,27228,22176
32877,27231,22104
33336,27231,22046
33576,27245,21985
33568,27253,21933
33333,27257,21890
33081,27255,21819
32900,27246,21805
32664,27244,21732
32409,27237,21665
32520,27229,21644
32964,27237,21564
33404,27237,21521
33556,27247,21439
33476,27257,21389
33188,27263,21330
32884,27258,21281
32804,27261,21256
32680,27245,21191
32540,27239,21188
32652,27236,21087
32960,27234,21077
33440,27239,20983
33300,27253,20956
33136,27260,20896
32848,27270,20839
32832,27268,20801
32860,27261,20761
32662,27253,20750
32392,27244,20690
32480,27242,20645
32788,27245,20589
33172,27250,20550
33441,27263,20532
33477,27271,20479
33269,27271,20502
33020,27277,20396
32872,27271,20369
32745,27263,20313
32537,27244,20268
32616,27252,20265
32968,27251,20196
33376,27255,20207
33628,27263,20135
33577,27272,20152
33308,27277,20036
33104,27270,20006
33146,27274,20031
32817,27258,19909
32588,27248,19856
32709,27250,19824
32976,27247,19800
33294,27257,19743
33512,27268,19787
33573,27279,19690
33405,27276,19712
33200,27271,19598
32972,27276,19588
32724,27271,19486
32500,27258,19512
32553,27259,19404
32840,27252,19392
33296,27260,19412
33645,27271,19355
33669,27285,19346
33436,27284,19274
33166,27284,19268
33088,27281,19172
32954,27267,19172
32784,27265,19157
32833,27263,19129
33040,27262,19085
33432,27263,19024
33588,27271,19013
33632,27284,18998
33504,27287,18953
33172,27290,19025
32941,27285,18923
32717,27269,18977
32478,27259,18821
32568,27261,18831
32857,27255,18813
33189,27269,18836
33328,27271,18744
33116,27293,18783
32648,27294,18617
32200,27298,18619
31976,27295,18604
31728,27270,18656
31444,27268,18535
31508,27271,18582
31804,27271,18431
32508,27271,18436
33462,27292,18471
34360,27300,18353
35216,27317,18386
36296,27310,18266
37505,27317,18315
37244,27303,18192
36565,27292,18276
36536,27284,18129
36944,27298,18050
37272,27284,18059
36868,27300,17977
36252,27308,18047
35964,27311,17902
35620,27295,17869
35097,27302,17939
34386,27289,17745
33636,27285,17760
33280,27273,17624
33381,27285,17614
33636,27284,17513
33693,27295,17501
33480,27311,17579
32996,27311,17445
32544,27305,17506
32180,27309,17419
31852,27293,17462
31623,27284,17318
31674,27281,17346
31856,27284,17381
32386,27285,17367
32549,27300,17440
32528,27319,17328
32244,27315,17420
31960,27312,17265
31788,27305,17276
31520,27297,17247
31362,27291,17270
31396,27285,17210
31633,27291,17205
31906,27293,17240
32208,27303,17177
32244,27323,17265
32104,27321,17188
31897,27317,17136
31808,27317,17101
31658,27303,17060
31384,27289,17164
31448,27291,17030
31808,27288,17117
32244,27293,16943
32484,27303,16903
32500,27325,16887
32308,27321,16998
32076,27317,16855
32132,27319,16982
31694,27308,16820
31324,27295,16810
31361,27298,16876
31676,27297,16829
31980,27298,16960
32159,27311,16780
32132,27324,16811
31916,27327,16868
31684,27327,16818
31524,27313,16949
31282,27311,16887
31020,27292,16980
31048,27295,16902
31280,27300,16968
31604,27302,16872
31876,27316,16971
31924,27325,16871
31733,27333,16941
31472,27325,16905
31308,27325,16896
31096,27313,17004
30860,27303,16997
30901,27300,17081
31220,27309,16983
31841,27306,17144
31924,27318,17060
31894,27332,17137
31680,27333,17031
31481,27335,17041
31400,27329,17058
31220,27317,17061
31028,27317,17175
31172,27315,17097
31484,27319,17126
31864,27315,17146
32201,27329,17141
32204,27345,17301
31990,27337,17218
31688,27343,17299
31597,27338,17239
31484,27324,17338
31349,27316,17256
31512,27306,17343
31928,27317,17268
32340,27310,17340
32564,27324,17216
32532,27335,17303
32368,27342,17223
32184,27339,17237
32360,27337,17228
32132,27324,17248
31996,27311,17391
32144,27316,17231
32500,27316,17271
32816,27319,17236
33052,27332,17294
33028,27343,17321
32732,27341,17308
32396,27341,17253
32392,27335,17400
32247,27331,17302
32045,27312,17383
31968,27304,17224
32304,27306,17245
32788,27313,17374
33080,27327,17254
32988,27339,17244
32776,27344,17222
32637,27338,17285
32540,27335,17191
32396,27325,17200
32200,27316,17332
32308,27311,17242
32633,27313,17282
33212,27319,17173
33316,27327,17220
33277,27334,17188
33032,27335,17294
32748,27339,17133
32624,27337,17140
32388,27323,17279
32197,27313,17102
32292,27305,17119
32568,27319,17241
32968,27311,17082
33362,27327,17100
33436,27342,17140
33248,27343,17120
32988,27337,17093
32804,27332,17112
32494,27321,17199
32276,27313,17033
32352,27311,17038
32684,27310,17178
33033,27313,17070
33293,27328,17109
33340,27340,16996
33208,27343,17012
32924,27335,17073
32980,27339,17057
32652,27325,17145
32452,27309,16969
32488,27307,17012
32765,27309,17031
33001,27305,16990
33284,27321,17092
33328,27336,16919
33068,27340,16948
32884,27325,16966
32636,27334,16960
32304,27325,16975
32141,27306,16969
32308,27311,16933
32672,27309,16933
32989,27311,17028
33264,27330,16937
33368,27337,16930
33112,27337,16985
32817,27340,16937
32793,27332,17080
32616,27329,16929
32372,27301,16956
32376,27313,16908
32628,27317,16928
33244,27308,16998
33312,27324,16957
33224,27333,17052
33028,27337,16940
32753,27337,16963
32700,27333,16948
32540,27323,17064
32311,27309,16912
32328,27307,16919
32664,27308,17044
33084,27311,16963
33278,27325,17023
33317,27339,16945
33110,27335,16917
32900,27335,17046
32868,27335,16958
32737,27319,17048
32485,27310,16910
32528,27311,17051
32788,27308,16878
33124,27305,16954
33316,27325,16905
33308,27335,17033
33125,27332,16865
32928,27333,16884
33032,27331,17039
32638,27312,16916
32399,27313,16996
32520,27303,16887
32920,27308,16932
33328,27313,16920
33542,27328,17040
33248,27341,16940
33012,27340,17045
32916,27333,16870
32852,27335,16890
32714,27328,17039
32516,27309,16885
32592,27311,17044
32896,27309,16979
33276,27315,16902
33453,27322,16892
33408,27335,17044
33208,27334,16888
33000,27335,16899
32900,27341,17039
32664,27333,16943
32356,27317,17044
32286,27315,16895
32680,27315,16933
33316,27316,16980
33348,27327,16944
33321,27343,16870
33116,27341,16897
32856,27337,17008
32737,27335,16896
32524,27320,16920
32220,27319,16930
32356,27316,16948
32724,27315,16894
33088,27324,17051
33324,27327,16929
33288,27340,17055
33044,27340,16889
32797,27335,16950
32660,27347,16895
32526,27327,16975
32328,27317,16991
32388,27317,16948
32644,27317,17081
33057,27316,16977
33317,27329,17014
33330,27347,17045
33121,27348,17068
32864,27343,17052
32920,27343,17181
32493,27333,17079
32272,27324,17242
32360,27319,17089
32737,27327,17132
33196,27332,17249
33471,27341,17184
33354,27355,17336
33076,27351,17189
32908,27347,17271
32901,27348,17244
32696,27335,17279
32472,27327,17373
32565,27325,17324
32872,27325,17449
33272,27332,17393
33556,27343,17395
33604,27347,17564
33358,27356,17501
33092,27351,17593
32970,27351,17519
32780,27338,17607
32629,27327,17706
32728,27327,17689
33055,27334,17815
33580,27335,17755
33550,27346,17847
33480,27364,17761
33308,27361,17840
33076,27353,17889
32916,27357,17908
32652,27349,18069
32484,27335,17998
32584,27333,18117
32840,27337,18053
33212,27344,18114
33504,27356,18297
33600,27367,18210
33373,27372,18308
33124,27373,18410
32986,27365,18349
32750,27351,18462
32508,27345,18465
32552,27340,18612
32909,27345,18596
33276,27351,18731
33472,27363,18680
33485,27372,18786
33268,27381,18929
33054,27369,18869
33029,27375,18965
32608,27374,18988
32316,27356,19049
32321,27357,19195
32486,27358,19149
32624,27357,19229
32606,27376,19373
32440,27393,19319
32092,27386,19397
31716,27385,19549
31656,27383,19532
31457,27385,19620
31335,27375,19605
31876,27375,19670
33141,27380,19772
34584,27375,19815
36108,27390,19888
37600,27405,19933
38164,27413,19975
37696,27419,20039
37260,27420,20152
37057,27399,20114
36974,27392,20172
36708,27382,20297
36248,27388,20300
36204,27399,20372
36076,27407,20367
35742,27415,20400
35128,27420,20429
34396,27415,20473
33844,27415,20499
33414,27407,20571
33128,27392,20568
33101,27393,20612
33112,27399,20668
33188,27405,20697
33188,27420,20743
32972,27433,20812
32572,27435,20853
32216,27437,20938
31952,27437,21007
31725,27430,21085
31516,27421,21172
31540,27418,21220
31865,27421,21292
32352,27422,21394
32544,27431,21428
32520,27444,21526
32285,27448,21573
32068,27447,21607
32132,27455,21700
31732,27439,21737
31508,27438,21810
31608,27428,21893
32036,27433,21943
32448,27442,22020
32672,27453,22053
32656,27463,22112
32413,27463,22144
32168,27465,22184
31980,27468,22253
31708,27460,22277
31494,27449,22316
31552,27444,22367
31884,27449,22410
32316,27451,22446
32512,27464,22491
32448,27484,22540
32236,27489,22586
31984,27485,22652
31828,27485,22695
31568,27479,22750
31269,27471,22806
31352,27465,22880
31620,27471,22937
32160,27474,22992
32186,27488,23074
32112,27509,23118
31904,27508,23209
31672,27509,23273
31532,27508,23338
31245,27497,23418
30996,27487,23493
31052,27490,23572
31365,27492,23622
31784,27494,23726
32056,27506,23780
32036,27524,23890
31848,27521,23948
31588,27531,24065
31432,27533,24111
31224,27519,24255
31080,27510,24342
31260,27509,24436
31576,27510,24520
31937,27511,24567
32200,27527,24701
32160,27540,24746
32028,27543,24887
31848,27550,24964
31952,27549,25084
31618,27535,25170
31384,27532,25269
31556,27541,25310
31888,27541,25439
32264,27543,25510
32580,27551,25607
32664,27567,25735
32556,27568,25745
32404,27567,25927
32288,27567,26012
32009,27556,26008
31624,27551,26188
31752,27556,26240
32096,27555,26393
32596,27558,26499
32952,27573,26520
32992,27589,26660
32824,27591,26775
32653,27588,26864
32565,27594,26970
32288,27581,26930
31980,27573,27140
32008,27575,27250
32360,27574,27232
32972,27578,27433
33068,27596,27519
33016,27607,27476
32840,27607,27679
32663,27604,27807
32560,27612,27769
32412,27602,27933
32210,27591,28005
32249,27597,28133
32586,27590,28242
33040,27599,28324
33280,27621,28409
33288,27623,28495
33064,27629,28495
32815,27632,28647
32620,27631,28711
32360,27620,28677
32160,27615,28844
32292,27611,28916
32654,27620,28903
33096,27623,28964
33400,27636,29124
33464,27643,29220
33273,27655,29161
33008,27650,29316
33048,27655,29319
32640,27645,29473
32388,27636,29543
32420,27630,29457
32784,27631,29613
33225,27641,29625
33420,27655,29732
33372,27670,29729
33120,27671,29892
32916,27674,29967
32868,27673,29929
32812,27663,30039
32616,27653,30021
32672,27652,30174
32984,27655,30212
33255,27662,30136
33440,27675,30313
33216,27690,30239
33004,27700,30375
32936,27690,30404
32872,27699,30556
32628,27678,30598
32400,27681,30607
32404,27677,30562
32654,27678,30708
33232,27693,30710
33340,27703,30671
33296,27719,30780
33124,27719,30769
32936,27717,30964
32808,27719,30988
32631,27709,30903
32432,27702,31114
32532,27700,31148
32876,27707,31049
33231,27708,31165
33336,27732,31148
33212,27733,31293
33012,27743,31271
32877,27741,31471
32856,27742,31477
32653,27735,31390
32448,27725,31517
32472,27732,31643
32728,27733,31639
33148,27742,31650
33336,27749,31781
33388,27764,31680
33210,27772,31812
32980,27764,31896
33102,27764,31810
32693,27757,32006
32397,27743,32040
32540,27744,32001
32872,27746,32069
33264,27757,32167
33437,27766,32061
33364,27784,32274
33212,27794,32276
33008,27789,32172
32889,27788,32325
32736,27781,32404
32510,27776,32300
32524,27779,32413
32821,27776,32437
33328,27775,32420
33728,27805,32622
33736,27807,32540
33460,27821,32713
33128,27817,32732
32888,27815,32734
32732,27800,32719
32544,27794,32720
32632,27797,32845
32884,27799,32826
33444,27799,32805
33444,27823,32903
33388,27828,32895
33232,27833,33015
33080,27828,33124
33000,27829,32999
32733,27827,33108
32436,27813,33128
32476,27815,33296
32876,27819,33312
33292,27825,33196
33544,27839,33308
33548,27852,33303
33280,27862,33324
33056,27857,33479
32949,27863,33553
32748,27847,33581
32529,27831,33589
32712,27845,33505
32957,27847,33708
33407,27845,33741
33620,27861,33639
33568,27885,33736
33314,27872,33877
33084,27877,33856
33160,27882,33888
32794,27869,33816
32533,27853,34040
32620,27861,34060
32952,27869,34114
33268,27875,34130
33452,27885,34005
33492,27897,34208
33300,27899,34250
33085,27900,34262
32928,27898,34231
32712,27891,34188
32489,27882,34431
32548,27884,34410
32922,27893,34333
33282,27900,34561
33452,27905,34525
33405,27924,34466
33174,27925,34607
32908,27924,34712
32774,27922,34752
32608,27911,34649
32542,27893,34871
32672,27902,34861
32936,27905,34772
33432,27910,34993
33392,27933,35060
33264,27939,34973
33098,27947,35206
32956,27943,35202
32852,27940,35095
32748,27933,35239
32572,27924,35308
32652,27926,35284
32892,27928,35543
33204,27937,35516
33404,27945,35417
33317,27959,35718
33004,27960,35636
33076,27963,35605
32976,27959,35772
32832,27956,35912
32664,27949,35988
32716,27948,35908
33076,27951,36060
33460,27958,36085
33518,27970,36248
33400,27991,36180
33173,27989,36264
32936,27980,36435
32960,27984,36285
32489,27979,36484
32244,27971,36589
32404,27964,36524
32812,27970,36719
33248,27971,36863
33540,27985,36894
33593,27997,37012
33356,28005,36852
33080,28004,37031
32976,28003,37140
32721,27984,37330
32396,27989,37273
32436,27982,37541
32768,27989,37503
33133,27993,37413
33504,28004,37797
33504,28024,37789
33364,28028,37913
32949,28017,38031
32812,28025,37999
32614,28015,38177
32428,28011,38039
32572,28005,38303
33012,28006,38347
33524,28012,38273
33276,28021,38596
32776,28028,38685
32233,28037,38773
31908,28037,38887
31724,28041,38852
31416,28031,39111
31220,28029,39119
31416,28029,39196
31796,28028,39197
32328,28035,39265
33096,28055,39460
33844,28061,39516
34636,28065,39634
35677,28060,39743
36484,28067,39822
36170,28053,39853
35576,28052,40014
35676,28053,40079
36296,28048,39895
36652,28047,40174
36320,28065,40464
35761,28071,40543
35432,28068,40636
35080,28069,40592
34788,28073,40704
33900,28075,40780
33181,28061,40775
32932,28055,41047
33212,28061,40924
33656,28063,41073
33624,28079,41223
33345,28099,41292
32896,28095,41317
32412,28096,41620
32120,28086,41656
31797,28080,41557
31512,28075,42020
31588,28079,41952
32000,28078,42215
32432,28075,42025
32604,28096,42340
32464,28095,42613
32284,28111,42791
32144,28101,42874
32076,28108,42736
31844,28092,43045
31644,28088,43317
31688,28091,43448
31972,28099,43510
32385,28098,43428
32276,28100,43812
32456,28123,43935
32302,28125,44048
32132,28125,44245
32104,28119,44063
31832,28109,44423
31568,28108,44527
31532,28100,44597
31769,28105,44773
32208,28103,44626
32544,28114,44948
32614,28133,44988
32464,28137,45146
32180,28139,45029
31968,28139,45313
31588,28129,45391
31352,28117,45565
31389,28117,45461
31536,28121,45741
31852,28125,45860
32072,28135,45788
32197,28153,46085
32089,28143,46101
31916,28145,46239
31956,28148,46420
31476,28140,46557
31208,28133,46420
31372,28134,46661
31705,28127,46919
32084,28140,46957
32346,28140,47159
32352,28157,47111
32096,28161,47367
31900,28158,47544
31792,28158,47687
31478,28148,47717
31160,28148,47942
31148,28142,48096
31484,28149,47943
31947,28154,48301
32188,28161,48519
32280,28167,48671
32108,28181,48751
31812,28167,48954
31620,28180,49005
31388,28167,49219
31288,28157,49377
31440,28159,49476
31808,28157,49629
32384,28159,49806
32441,28167,49877
32356,28193,49982
32168,28187,50220
31981,28190,50252
31996,28196,50388
31909,28178,50567
31896,28183,50743
32052,28167,50879
32365,28166,50756
32668,28167,51117
32712,28185,51154
32633,28196,51007
32480,28199,51512
32341,28204,51599
32140,28202,51567
31840,28188,51823
31756,28174,51964
32033,28180,52126
32461,28180,52245
32800,28180,52317
32932,28207,52399
32896,28211,52359
32708,28210,52656
32472,28207,52732
32365,28207,52892
31868,28196,53052
31676,28189,53148
32116,28189,53112
32456,28189,53428
32848,28192,53511
33024,28204,53300
32908,28210,53767
32584,28212,53804
32680,28213,53940
32444,28215,54012
32380,28199,54201
32220,28199,54258
32300,28203,54117
32637,28201,54533
33032,28199,54572
33144,28210,54613
33076,28217,54732
33006,28216,54919
32876,28218,54985
32772,28220,55093
32570,28209,55096
32317,28199,55208
32453,28198,55004
32816,28197,55480
33244,28202,55535
33172,28221,55569
33064,28228,55744
32832,28226,55815
32608,28231,55808
32574,28232,55913
32408,28219,56045
32180,28208,56145
32408,28215,56165
32624,28210,56151
33016,28213,56316
33248,28233,56327
33268,28237,56407
33244,28239,56172
33192,28236,56644
33124,28232,56652
32660,28221,56752
32008,28212,56348
32004,28217,56884
32388,28211,56919
32860,28217,56887
33124,28230,56919
33166,28247,56718
32980,28246,57072
32728,28247,57063
32689,28234,57149
32173,28236,57249
31849,28228,57236
31960,28225,57263
32365,28221,57372
32828,28231,57432
33097,28236,57425
32952,28238,57463
32744,28253,57139
32484,28247,57607
32316,28247,57644
32008,28238,57680
32036,28232,57730
32296,28239,57672
32744,28230,57732
33133,28236,57607
33296,28253,57893
33220,28261,57899
32944,28263,57959
32748,28258,58005
32704,28261,57965
32396,28245,58060
32164,28233,58076
32296,28233,58191
32633,28236,58221
33220,28242,58237
33172,28255,58280
33241,28269,58165
32996,28262,58423
32764,28263,58461
32664,28260,58447
32588,28248,58517
32542,28247,58444
32736,28240,58671
32970,28242,58727
33168,28255,58732
33420,28268,58789
33625,28277,58799
33496,28267,58916
33112,28274,58989
32788,28272,59055
32309,28256,59047
32189,28254,59104
32464,28246,58800
32877,28251,59143
33316,28247,58921
33528,28273,59324
33368,28282,59303
33016,28279,59385
32804,28271,59101
32824,28276,59508
32456,28271,59488
32212,28258,59580
32360,28252,59600
32710,28261,59508
33004,28260,59587
33268,28278,59381
33356,28282,59737
33192,28294,59696
32920,28281,59733
32740,28285,59794
32380,28271,59740
32172,28255,59783
32412,28261,59900
32748,28263,59807
33108,28270,60000
33292,28283,59937
33336,28295,59783
33224,28292,60092
33082,28291,60116
32997,28289,60100
32768,28271,60144
32492,28271,60073
32444,28268,60188
32706,28271,60261
33097,28271,60342
33100,28289,60348
33162,28295,60384
33152,28301,60423
32857,28285,60377
32648,28288,60463
32321,28277,60463
32200,28273,60577
32564,28271,60548
32957,28268,60581
33296,28279,60636
33400,28289,60726
33268,28303,60774
32769,28303,60656
32440,28295,60836
32500,28295,60825
32236,28287,60919
32280,28277,60960
32456,28281,61068
32837,28282,61061
33212,28283,61087
33316,28299,60927
33200,28302,61239
33056,28308,61224
32916,28307,61319
32960,28301,61308
32714,28292,61255
32588,28279,61511
32640,28284,61508
32934,28279,61447
33181,28281,61608
33248,28298,61639
33261,28300,61700
32948,28311,61701
32696,28300,61716
32672,28308,61844
32488,28287,61896
32321,28279,61774
32449,28281,61894
32804,28284,61940
33200,28287,62047
33380,28299,62082
33368,28304,62070
33212,28311,62087
32980,28308,61774
32844,28307,62224
32668,28288,62183
32524,28281,62203
32561,28281,62296
32932,28281,62290
33216,28288,62447
33340,28301,62291
33290,28308,62509
33072,28311,62468
32776,28308,62585
32668,28300,62573
32428,28294,62716
32280,28287,62727
32308,28284,62599
32645,28289,62823
33076,28280,62774
33350,28294,62903
33240,28315,62832
32740,28307,62869
32156,28311,63020
31849,28309,62999
31524,28300,62665
31180,28291,63021
31296,28290,63151
31608,28295,63108
31952,28293,63148
32047,28311,63109
31876,28327,63261
31596,28327,63326
32250,28319,63303
32760,28327,63331
33212,28313,63348
34132,28303,63045
35144,28301,63444
35296,28309,63413
35097,28311,63479
35093,28325,63440
35284,28324,63548
35036,28325,63564
34596,28321,63460
34409,28317,63623
34448,28305,63621
34316,28295,63551
34152,28295,63556
34104,28298,63615
33972,28302,63621
33791,28319,63596
33672,28319,63692
33580,28321,63664
33380,28324,63565
33064,28317,63633
32732,28309,63700
32484,28295,63782
32240,28295,63772
32452,28295,63815
32605,28295,63788
32704,28317,63575
32724,28321,63853
32456,28319,63864
32184,28319,63845
31996,28319,63893
31744,28313,63940
31556,28301,63969
31800,28295,63975
32360,28303,63935
32820,28308,64061
32792,28323,64055
32640,28335,64001
32472,28332,64046
32276,28324,64047
32064,28324,64007
31680,28316,63988
31538,28297,63973
31856,28300,63822
32330,28307,63879
32812,28308,63660
33038,28317,63812
32972,28326,63700
32676,28332,63751
32364,28324,63652
32248,28323,63676
31789,28321,63677
31582,28309,63703
31780,28311,63598
32056,28311,63717
32264,28311,63671
32360,28327,63682
32423,28334,63653
32322,28332,63727
32116,28332,63719
31912,28335,63652
31708,28330,63708
31512,28315,63728
31568,28317,63812
32024,28315,63438
32489,28317,63900
32708,28337,63825
32532,28344,63949
32268,28340,63814
32076,28335,63934
31965,28335,63972
31776,28327,63991
31645,28315,63879
31780,28319,64104
32360,28311,63925
32708,28321,64165
32816,28335,64116
32776,28344,64189
32551,28356,64199
32194,28350,64164
32012,28349,64215
31746,28332,64189
31656,28323,64213
31788,28320,64096
31973,28328,64332
32218,28335,64324
32202,28351,64349
32182,28357,64356
32117,28361,64376
31940,28348,64391
31845,28351,64325
32069,28344,64391
32009,28335,64200
32220,28332,64477
32608,28337,64477
32780,28337,64452
32876,28349,64492
32860,28357,64500
32688,28364,64495
32624,28366,64510
32504,28359,64583
32300,28348,64576
32240,28338,64564
32420,28336,64603
32856,28336,64569
33388,28345,64583
33560,28361,64623
33749,28367,64557
33268,28370,64685
32896,28370,64681
32648,28374,64620
32324,28351,64711
32152,28346,64647
32340,28343,64701
32557,28345,64693
33076,28351,64708
33120,28361,64448
33056,28381,64727
32885,28375,64748
32676,28377,64764
32604,28372,64797
32374,28362,64807
32392,28353,64732
32808,28348,64773
33264,28365,64484
33388,28365,64789
33236,28373,64681
32924,28383,64797
32718,28388,64628
32628,28382,64845
32728,28380,64847
32732,28372,64764
32460,28361,64816
32456,28357,64839
32660,28362,64847
32926,28361,64853
33200,28385,64775
33284,28391,64861
33184,28388,64860
32796,28382,64775
32696,28381,64836
32437,28374,64405
32168,28365,64837
32346,28365,64871
32753,28375,64846
33060,28368,64879
33172,28387,64788
33136,28401,64884
32961,28396,64888
32948,28399,64856
32836,28396,64801
32592,28383,64816
32412,28376,64853
32448,28373,64756
32716,28376,64775
33084,28383,64672
33328,28397,64775
33340,28415,64748
33108,28404,64612
33004,28405,64676
32856,28407,64599
32564,28391,64605
32448,28389,64564
32493,28383,64549
32924,28384,64519
33294,28389,64414
33284,28409,64420
33020,28415,64332
32852,28417,64342
32884,28407,64263
32677,28415,64263
32476,28404,64164
32297,28397,64215
32284,28390,64166
32668,28398,64159
32973,28404,64076
33168,28412,64071
33133,28423,63989
33072,28423,63940
32932,28423,63821
32776,28423,63942
32458,28420,63847
32208,28404,63836
32399,28406,63672
32836,28404,63732
33336,28412,63652
33500,28420,63622
33432,28436,63645
33232,28443,63548
32928,28429,63556
32776,28434,63580
32588,28423,63527
32368,28412,63212
32452,28407,63465
32788,28417,63420
33180,28423,63421
33336,28437,63360
33342,28449,63252
33113,28453,63265
33044,28444,63236
32792,28442,63140
32304,28437,63121
32100,28423,63087
32380,28421,63052
32800,28429,63004
33429,28438,63020
33748,28447,62872
33532,28459,62867
33232,28450,62801
32902,28449,62880
32680,28452,62749
32412,28439,62764
32296,28429,62648
32396,28423,62628
32788,28437,62620
33181,28429,62623
33357,28453,62466
33464,28458,62471
33212,28461,62171
32940,28463,62471
32681,28460,62441
32328,28445,62312
31992,28447,62383
32076,28444,62292
32516,28444,62320
32936,28448,62271
33216,28471,62140
33356,28463,62130
33380,28470,62116
33172,28474,62101
32833,28471,62076
32400,28455,61895
31992,28455,61996
32072,28448,61988
32440,28457,61969
32888,28453,61908
33233,28473,61860
33324,28479,61877
33041,28481,61773
32776,28480,61744
32596,28481,61297
32290,28468,61786
32085,28460,61350
32365,28457,61635
32793,28460,61380
33173,28472,61512
33416,28480,61383
33428,28488,61471
33125,28495,61495
32996,28489,61446
32936,28480,61307
32748,28479,61308
32368,28471,61309
32336,28468,61269
32588,28479,61221
32902,28478,61129
33156,28493,61108
33164,28503,60903
33029,28500,61053
32903,28503,60633
32776,28504,60988
32620,28492,60460
32380,28480,60903
32688,28487,60863
33153,28486,60735
33360,28491,60711
33185,28507,60736
33064,28518,60679
32848,28514,60679
32832,28517,60519
32848,28516,60565
32736,28496,60487
32592,28486,60527
32920,28495,60359
33073,28498,60423
33204,28511,60260
33232,28516,60335
33112,28525,59951
32856,28527,60204
32660,28529,60208
32676,28521,60181
32596,28515,60117
32512,28507,59999
32600,28511,59958
32924,28510,59861
33413,28511,59984
33584,28527,59903
33332,28541,59940
33068,28543,59872
32840,28541,59724
32604,28537,59713
32224,28522,59440
31817,28519,59685
31696,28517,59616
32116,28520,59294
32392,28527,59636
32506,28545,59503
32161,28553,59583
31694,28556,59524
31520,28557,59444
31180,28564,59399
30948,28551,59361
31312,28543,59399
32432,28545,59392
33652,28545,59356
34692,28548,59308
35680,28561,59252
35760,28574,59188
34860,28578,59092
34392,28577,59097
34500,28572,59031
34625,28553,59108
34308,28551,59063
34102,28541,59029
34524,28548,59005
35220,28551,58953
35344,28561,58887
35008,28570,58855
34316,28565,58827
33665,28566,58500
33384,28564,58751
33260,28551,58701
33104,28540,58493
33045,28545,58631
33168,28551,58596
33224,28550,58497
33032,28571,58488
32716,28585,58433
32344,28580,58524
31940,28577,58485
31988,28580,58471
31644,28564,58415
31489,28556,58271
31648,28548,58375
31993,28551,58191
32380,28561,58333
32548,28578,58388
32601,28585,58296
32496,28575,58247
32296,28583,58311
32065,28589,58199
31628,28575,58153
31368,28559,57716
31632,28559,58084
32207,28557,57669
32484,28564,57844
32624,28582,57509
32540,28589,57791
32300,28593,57692
32360,28589,57545
32064,28591,57437
31598,28583,57416
31364,28577,57341
31536,28580,57242
31984,28574,57108
32488,28580,57073
32776,28589,56670
32600,28597,57020
32152,28599,56967
31900,28594,56928
31960,28589,56831
31716,28573,56772
31548,28575,56748
31712,28573,56736
32096,28575,56804
32484,28569,56794
32448,28594,56767
32204,28605,56722
32052,28598,56668
31812,28611,56699
31680,28599,56521
31412,28583,56815
31352,28578,56823
31644,28583,56839
32304,28580,56829
32757,28587,56720
32696,28605,56943
32432,28610,56917
31832,28612,56839
31568,28613,57036
31644,28610,57084
31560,28598,57040
31364,28584,57178
31536,28591,57173
31788,28591,57263
32037,28597,57300
32192,28613,57340
32589,28617,57320
32256,28617,56957
32184,28617,57421
32112,28615,57385
31756,28602,57460
31472,28601,57559
31520,28594,57536
31758,28600,57557
32132,28596,57568
32404,28615,57566
32532,28617,57312
32468,28627,57692
32516,28627,57695
32304,28620,57658
31908,28607,57658
31808,28607,57701
31848,28603,57775
32156,28600,57757
32608,28603,57693
32884,28615,57780
32909,28626,57745
32708,28628,57405
32408,28633,57824
32184,28629,57828
31988,28612,57740
31948,28611,57787
32188,28609,57453
32712,28606,57798
33252,28607,57814
33584,28621,57700
33514,28634,57831
33116,28628,57816
32732,28628,57728
32473,28621,57708
32128,28609,57375
32092,28596,57783
32354,28603,57655
32958,28604,57292
33276,28609,57735
33199,28622,57637
32996,28637,57709
32824,28637,57641
32740,28631,57465
32716,28633,57628
32420,28612,57573
32252,28606,57453
32288,28601,57445
32796,28608,57373
33202,28613,57351
33216,28628,57250
33176,28629,57381
32974,28631,57272
32800,28630,57333
32780,28624,57284
32644,28605,57120
32620,28612,57156
32908,28609,56839
33240,28607,57132
33544,28609,57081
33497,28621,57053
33449,28637,57000
33165,28634,56967
32940,28633,56877
32692,28628,56831
32366,28613,56804
32237,28606,56751
32472,28602,56682
32817,28609,56559
33128,28613,56476
33288,28628,56324
33100,28633,56372
33084,28631,56292
32900,28624,56289
32840,28629,56116
32616,28607,55685
32404,28599,56055
32472,28609,55941
32856,28603,55829
33214,28606,55744
33448,28623,55444
33480,28632,55620
33264,28639,55523
33056,28629,55251
32904,28630,55353
32404,28619,55181
32180,28607,55111
32364,28607,55021
32848,28599,54884
33260,28608,54850
33334,28631,54788
33216,28639,54615
33016,28628,54548
32798,28622,54535
32804,28626,54441
32510,28615,54304
32250,28601,54143
32516,28604,54132
32950,28607,54023
33377,28612,53892
33528,28629,53665
33289,28639,53767
32869,28628,53668
32688,28629,53585
32656,28628,53303
32496,28613,53420
32388,28605,53341
32586,28598,53172
32881,28600,53103
33248,28615,52944
33372,28621,52885
33272,28639,52740
33120,28631,52807
33088,28623,52728
32928,28626,52616
32620,28615,52556
32548,28603,52452
32782,28602,52391
33004,28607,52231
33280,28598,52207
33428,28613,52119
33458,28628,51708
33361,28628,51939
33088,28622,51779
32764,28620,51661
32480,28606,51399
32328,28607,51517
32529,28599,51324
32948,28594,51303
33484,28606,51024
33768,28613,51144
33573,28623,51063
33100,28623,50900
32688,28622,50855
32608,28623,50740
32485,28609,50636
32400,28599,50524
32549,28600,50432
33073,28597,50300
33413,28596,50219
33532,28616,50079
33392,28620,49976
33228,28623,49752
33196,28620,49799
33055,28609,49671
32716,28602,49607
32380,28591,49487
32600,28596,49383
32918,28591,49191
33462,28588,49159
33481,28605,49007
33340,28617,48923
33101,28619,48700
33036,28615,48784
32948,28615,48719
32712,28600,48581
32558,28590,48484
32673,28599,48271
32889,28583,48228
33292,28596,48070
33412,28609,48061
33448,28615,48056
33452,28614,47945
33476,28607,47853
33248,28609,47748
32760,28596,47661
32432,28585,47536
32480,28591,47471
32808,28588,47261
33336,28595,47246
33740,28600,47144
33924,28613,47095
33817,28613,46876
33588,28612,46854
33228,28609,46641
32740,28589,46749
32328,28586,46625
32364,28583,46565
32784,28580,46393
33252,28580,46223
33556,28599,46213
33524,28617,46207
33345,28606,46130
33144,28607,46052
32984,28598,45764
32708,28590,45812
32536,28583,45508
32637,28575,45591
33144,28582,45393
33304,28591,45448
33516,28599,45268
33512,28603,45256
33269,28605,45106
32992,28599,45094
32948,28596,44909
32652,28582,44910
32537,28569,44692
32692,28580,44740
32952,28574,44655
33252,28580,44609
33380,28585,44524
33381,28600,44495
33308,28596,44365
33216,28599,44308
33028,28591,44191
32622,28577,44132
32305,28569,44013
32392,28575,43950
32701,28579,43813
32924,28571,43479
32804,28575,43615
32428,28597,43292
31988,28591,43485
31877,28590,43415
31637,28596,43303
31236,28583,43188
30956,28577,42951
31092,28581,42917
31776,28575,42895
32828,28583,42837
33628,28604,42710
34468,28607,42592
35448,28605,42404
36192,28606,42098
35865,28601,42309
34916,28591,42177
34813,28581,42093
35292,28573,41973
35624,28581,41847
35428,28567,41727
35272,28583,41689
35497,28594,41473
35368,28591,41460
34828,28583,41255
34232,28585,41138
33488,28575,40983
33092,28563,40823
33217,28553,40711
33621,28561,40567
33680,28575,40535
33576,28582,40180
33325,28585,40471
32841,28588,40294
32396,28591,40128
32104,28588,39996
31746,28568,39733
31532,28559,39967
31756,28567,39751
32132,28551,39540
32497,28560,39687
32716,28574,39575
32685,28583,39573
32528,28584,39398
32340,28585,39244
32212,28582,39152
31928,28559,38807
31648,28559,38992
31712,28556,38828
32042,28551,38735
32373,28553,38598
32636,28567,38485
32623,28577,38364
32404,28578,38196
32419,28575,38030
32128,28580,37821
31776,28559,37560
31640,28548,37684
31833,28551,37454
32168,28548,37144
32476,28551,37220
32617,28564,37060
32520,28572,36859
32297,28573,36694
32105,28559,36527
32020,28575,36511
31760,28551,36268
31648,28548,36255
31736,28541,36029
32056,28549,35944
32341,28548,35765
32468,28565,35844
32460,28575,35722
32276,28565,35484
32156,28561,35478
32028,28570,35436
31788,28549,35200
31660,28535,35215
31788,28540,35012
32244,28540,34978
32246,28543,34823
32270,28559,34975
32008,28567,34860
31873,28559,34647
31768,28564,34744
31660,28551,34612
31556,28539,34660
31348,28543,34444
31600,28535,34453
31984,28539,34363
32348,28543,34493
32470,28551,34425
32308,28567,34245
32000,28559,34380
31776,28559,34308
31692,28554,34141
31480,28538,34173
31388,28540,34194
31532,28544,34016
31900,28540,33972
32308,28543,34120
32504,28550,33989
32424,28551,33995
32192,28565,33829
32260,28557,33980
31980,28561,33887
31598,28543,33697
31505,28529,33828
31809,28532,33767
32264,28534,33585
32728,28535,33591
33008,28549,33632
33064,28551,33572
32864,28551,33437
32612,28549,33337
32444,28545,33365
32180,28535,33303
32029,28524,33325
32217,28522,33113
32653,28524,33236
33124,28519,33095
33324,28545,32964
33356,28550,33038
33112,28546,32977
32888,28548,32789
32808,28535,32808
32576,28524,32764
32448,28519,32612
32556,28518,32610
33068,28512,32493
33164,28519,32492
33308,28532,32396
33253,28547,32391
33024,28538,32237
32764,28533,32249
32648,28529,32129
32464,28511,32125
32505,28519,32007
32752,28514,32084
33204,28513,31903
33572,28516,31971
33604,28527,31833
33329,28536,31825
33024,28539,31709
32944,28527,31599
32957,28527,31512
32660,28519,31508
32500,28505,31501
32780,28511,31361
33256,28506,31351
33724,28513,31131
33868,28527,31215
33664,28535,31087
33321,28535,31079
33320,28529,30862
33020,28532,30853
32628,28516,30812
32464,28511,30661
32612,28511,30672
33004,28508,30588
33376,28513,30439
33572,28531,30447
33453,28533,30357
33257,28541,30218
33140,28533,30100
33048,28531,30087
32909,28517,29955
32728,28509,29965
32862,28509,29895
33192,28511,29703
33576,28518,29660
33656,28532,29568
33520,28532,29476
33264,28541,29417
33028,28529,29287
32964,28531,29268
32784,28519,29167
32592,28510,29049
32730,28509,28981
33313,28508,28771
33596,28518,28767
33668,28526,28669
33550,28532,28581
33256,28533,28540
33037,28527,28372
32964,28524,28348
32756,28509,28295
32608,28505,28097
32752,28505,28078
33052,28511,27974
33436,28510,27909
33592,28513,27772
33404,28535,27711
33132,28540,27516
33012,28527,27508
32961,28530,27303
32793,28515,27305
32700,28506,27169
32886,28507,27129
33200,28513,27036
33500,28517,26946
33604,28527,26802
33524,28535,26739
33306,28527,26581
33277,28527,26549
32916,28518,26486
32600,28512,26380
32613,28505,26297
32800,28501,26111
33208,28511,26095
33649,28508,25965
33796,28519,25917
33708,28529,25827
33421,28532,25681
33086,28525,25618
32906,28524,25498
32632,28515,25439
32476,28506,25335
32645,28502,25188
32968,28511,25134
33316,28509,25020
33480,28526,24943
33452,28539,24843
33270,28528,24756
33188,28535,24638
33136,28529,24533
32848,28519,24436
32652,28514,24315
32781,28511,24236
33332,28511,24125
33472,28511,24039
33610,28518,23936
33625,28529,23824
33384,28535,23741
33184,28533,23629
33144,28527,23545
32897,28516,23436
32681,28508,23343
32748,28509,23242
33220,28508,23164
33652,28514,23047
33776,28529,22952
33644,28530,22872
33248,28541,22758
33024,28535,22653
32932,28525,22573
32680,28518,22465
32564,28505,22376
32725,28511,22260
33032,28511,22191
33392,28525,22097
33633,28527,22028
33581,28540,21933
33241,28532,21879
33256,28535,21740
32908,28533,21679
32616,28519,21621
32464,28508,21511
32624,28517,21465
33080,28516,21338
33536,28519,21245
33732,28534,21249
33696,28537,21081
33420,28540,21047
33188,28543,20960
33088,28533,20860
32928,28519,20777
32884,28511,20775
33061,28511,20669
33300,28517,20633
33668,28519,20477
33836,28538,20420
33744,28543,20420
33465,28543,20275
33160,28540,20217
32994,28540,20149
32704,28527,20076
32596,28513,20087
32770,28516,19941
33352,28514,19957
33660,28516,19841
33822,28532,19808
33753,28551,19656
33576,28545,19599
33433,28542,19654
33316,28536,19485
32996,28521,19423
32756,28519,19349
32924,28519,19327
33348,28519,19301
33604,28525,19159
33756,28539,19108
33612,28549,19185
33388,28545,18982
33156,28551,18949
33036,28543,19021
32876,28522,18823
32760,28516,18814
32824,28517,18891
33064,28524,18693
33312,28527,18656
33612,28543,18655
33652,28551,18615
33436,28548,18541
33313,28544,18460
32892,28547,18517
32530,28529,18415
32360,28521,18357
32536,28523,18287
32780,28524,18308
32862,28532,18240
32652,28551,18250
32400,28550,18089
31976,28549,18087
31656,28551,18156
31448,28551,17961
31134,28551,18036
30892,28541,17900
31060,28541,17921
31804,28543,17778
33072,28541,17737
34176,28566,17860
35086,28567,17657
36052,28566,17641
36616,28567,17734
36148,28569,17526
35424,28553,17498
35308,28537,17470
35742,28542,17397
36236,28546,17505
35813,28543,17289
35468,28559,17253
35616,28567,17366
35344,28564,17208
34764,28561,17226
34156,28559,17018
33472,28548,17007
33108,28540,17105
33213,28545,16882
33492,28537,16857
33700,28543,16983
33632,28559,16834
33326,28561,16921
32888,28567,16738
32436,28572,16713
32164,28566,16872
31882,28551,16699
31628,28551,16735
31696,28543,16683
32076,28549,16671
32384,28551,16685
32536,28559,16673
32637,28568,16767
32629,28571,16580
32712,28575,16569
32375,28567,16707
31852,28556,16500
31404,28551,16548
31428,28551,16457
31902,28556,16534
32328,28551,16416
32460,28573,16483
32406,28583,16271
32244,28578,16237
32148,28580,16157
32028,28573,16127
31752,28550,16072
31568,28554,15969
31772,28562,16017
32138,28562,15939
32506,28556,15982
32628,28575,15752
32492,28589,15690
32224,28584,15777
32048,28580,15686
31916,28572,15653
31614,28566,15524
31484,28566,15519
31674,28562,15630
32256,28565,15457
32453,28567,15432
32524,28580,15418
32388,28591,15378
32101,28588,15507
31866,28591,15317
31754,28591,15330
31508,28577,15429
31336,28578,15247
31528,28577,15246
31912,28580,15308
32374,28568,15268
32496,28593,15425
32384,28591,15255
32132,28596,15239
31884,28591,15458
31692,28590,15289
31380,28576,15294
31225,28577,15513
31365,28578,15423
31640,28573,15480
32010,28577,15451
32316,28591,15485
32264,28608,15641
31952,28604,15544
31854,28604,15641
31605,28603,15565
31418,28580,15590
31324,28589,15703
31462,28583,15676
31844,28580,15860
32320,28588,15708
32592,28609,15793
32584,28614,15801
32325,28613,15828
32056,28608,15825
31868,28612,15850
31642,28599,15998
31568,28595,15885
31768,28585,15908
32168,28589,16049
32592,28596,16008
32764,28607,16098
32680,28628,15963
32512,28630,15966
32364,28622,16176
32332,28619,16056
32102,28601,16012
32048,28597,16088
32268,28589,16215
32860,28599,16096
33117,28597,16167
33252,28611,16047
33224,28629,16051
32960,28620,16190
32684,28629,16104
32580,28616,16243
32293,28607,16136
32096,28593,16165
32224,28604,16039
32624,28613,16128
33060,28615,16035
33296,28628,16140
33320,28631,16097
33164,28634,16181
33000,28634,16076
32852,28622,16090
32628,28605,15983
32492,28609,15961
32656,28607,16132
33037,28608,15937
33360,28614,16047
33436,28623,15902
33296,28636,15891
33084,28632,16066
33121,28633,15906
32828,28622,15980
32540,28619,15843
32388,28612,15844
32644,28612,15871
33053,28619,15802
33564,28622,15776
33768,28636,15789
33636,28638,15775
33356,28644,15757
33112,28644,15725
33076,28637,15785
32805,28624,15735
32604,28615,15701
32657,28614,15841
32860,28622,15628
33357,28623,15653
33608,28645,15605
33608,28647,15588
33410,28653,15577
33241,28655,15534
33084,28640,15675
32697,28638,15551
32512,28624,15524
32684,28627,15596
33188,28631,15416
33372,28639,15388
33476,28644,15448
33384,28660,15301
33144,28653,15434
32877,28660,15355
32716,28652,15425
32472,28644,15292
32356,28645,15343
32512,28636,15200
32828,28636,15146
33260,28645,15164
33488,28662,15172
33432,28672,15236
33196,28662,15091
32932,28665,15158
32832,28667,15049
32644,28650,15031
32540,28641,15159
32656,28647,14964
32888,28654,14975
33124,28652,14969
33292,28675,14869
33279,28678,14911
33044,28677,14837
32976,28674,14949
32696,28671,14864
32416,28655,14915
32325,28652,14807
32552,28663,14921
32862,28657,14735
33230,28671,14682
33405,28679,14735
33398,28687,14642
33169,28693,14790
32973,28689,14729
32928,28679,14753
32724,28676,14620
32608,28666,14615
32788,28661,14647
33056,28671,14553
33352,28679,14742
33472,28685,14630
33328,28701,14724
33140,28696,14535
33064,28693,14479
32966,28693,14650
32692,28679,14570
32628,28671,14575
32840,28671,14509
33330,28679,14460
33504,28686,14600
33645,28697,14495
33568,28713,14575
33296,28712,14488
33084,28702,14508
32940,28701,14452
32618,28693,14485
32360,28679,14428
32588,28690,14524
33008,28692,14349
33416,28695,14494
33584,28706,14319
33476,28717,14455
33236,28715,14302
32988,28720,14377
32884,28714,14265
32700,28707,14233
32628,28694,14340
32832,28694,14291
33196,28705,14276
33572,28711,14247
33636,28723,14261
33409,28735,14220
33200,28732,14268
33248,28735,14195
32961,28720,14295
32640,28713,14193
32520,28710,14162
32720,28705,14141
33104,28716,14090
33492,28725,14248
33624,28735,14091
33448,28740,14096
33081,28742,14150
32892,28743,14063
32754,28739,14001
32476,28724,14167
32372,28719,14074
32552,28725,14185
32908,28724,14013
33257,28736,13976
33452,28745,14055
33473,28754,14009
33294,28754,14036
33133,28756,14071
32973,28752,14010
32648,28739,13927
32537,28724,13975
32776,28731,13892
33160,28737,14105
33348,28743,13914
33468,28756,13899
33440,28761,13941
33189,28758,13914
33016,28762,14025
32876,28767,13904
32572,28751,13900
32440,28743,13980
32638,28742,13867
32992,28748,14027
33280,28752,13947
33493,28770,14037
33444,28781,13933
33236,28780,13929
33049,28771,13844
32950,28772,13784
32780,28752,13922
32656,28752,13820
32808,28750,13771
33138,28756,13937
33424,28765,13863
33525,28782,13789
33468,28791,13919
33216,28795,13780
33168,28790,13764
32878,28785,13862
32572,28775,13783
32420,28765,13921
32580,28774,13767
32924,28775,13714
33348,28781,13921
33464,28784,13802
33348,28806,13730
33124,28807,13847
32916,28797,13820
32784,28801,13863
32489,28788,13790
32300,28778,13809
32424,28782,13753
32756,28789,13957
33176,28797,13865
33337,28805,13811
33164,28823,13791
32957,28812,13784
32780,28812,13853
32644,28815,13795
32348,28799,13958
32080,28789,13765
32046,28796,13936
32216,28802,13845
32184,28801,13760
32132,28816,13850
32032,28836,13733
31724,28828,13806
31518,28831,13701
31392,28829,13877
31308,28823,13772
31672,28822,13896
32836,28820,13792
34168,28820,13863
35576,28825,13720
36948,28838,13886
37212,28854,13726
36428,28854,13783
35856,28847,13695
35848,28841,13852
35980,28829,13700
35712,28823,13757
35244,28820,13640
35188,28818,13563
35700,28823,13741
35712,28839,13540
35236,28848,13562
34532,28844,13480
34016,28855,13580
33472,28844,13496
33024,28831,13552
32820,28825,13511
32922,28829,13381
33069,28833,13600
33140,28839,13469
32992,28844,13605
32576,28860,13515
32006,28866,13518
31804,28865,13478
31748,28863,13451
31548,28847,13600
31500,28839,13507
31724,28841,13619
32060,28845,13627
32348,28850,13592
32468,28860,13547
32440,28877,13623
32212,28870,13569
32036,28869,13612
31922,28860,13557
31672,28850,13662
31624,28855,13561
31876,28853,13756
32380,28857,13666
32493,28856,13679
32526,28868,13568
32429,28878,13718
32192,28885,13557
32008,28881,13596
31981,28877,13466
31753,28860,13534
31624,28853,13392
31796,28847,13592
32120,28868,13438
32428,28869,13545
32588,28874,13394
32528,28895,13417
32172,28886,13284
31904,28890,13451
31772,28882,13352
31488,28877,13391
31372,28871,13255
31564,28866,13375
31896,28871,13260
32376,28867,13327
32552,28893,13392
32412,28893,13297
32120,28900,13253
31936,28894,13428
31624,28892,13378
31350,28884,13417
31252,28868,13320
31434,28877,13381
31809,28880,13385
32161,28884,13521
32316,28898,13449
32192,28900,13547
31958,28903,13368
31760,28902,13512
31597,28900,13521
31352,28886,13559
31188,28887,13674
31420,28889,13513
31868,28895,13573
32304,28899,13697
32477,28906,13661
32380,28918,13724
32160,28918,13724
32028,28917,13816
31952,28911,13725
31672,28903,13709
31524,28901,13850
31653,28901,13809
32104,28903,13930
32470,28903,13826
32748,28913,14026
32808,28925,13989
32553,28927,14040
32377,28924,13975
32272,28917,13951
32064,28908,14191
31948,28901,14043
32196,28901,14061
32580,28902,14084
32884,28909,14167
33112,28921,14192
33100,28932,14279
32908,28932,14124
32686,28932,14245
32560,28924,14152
32312,28909,14230
32224,28910,14169
32364,28908,14312
32741,28915,14195
33164,28916,14229
33316,28933,14229
33188,28940,14258
33016,28937,14409
32916,28935,14327
32624,28931,14424
32436,28916,14325
32340,28911,14420
32502,28908,14331
32884,28915,14326
33244,28923,14244
33300,28932,14419
33210,28943,14264
33057,28932,14389
32892,28931,14193
32801,28932,14208
32540,28919,14164
32385,28916,14211
32562,28913,14117
32916,28913,14188
33344,28920,14074
33572,28933,14240
33472,28951,14158
33212,28940,14239
33000,28935,14051
32872,28925,14045
32648,28908,14023
32588,28918,13950
32828,28911,14074
33292,28917,13960
33428,28924,13913
33524,28933,13957
33536,28949,14041
33381,28948,13949
33164,28945,14046
33028,28940,13903
32738,28927,14018
32696,28923,13833
32944,28919,13885
33312,28923,13797
33604,28922,13790
33724,28943,13748
33660,28951,13858
33312,28951,13734
33045,28932,13905
32861,28935,13694
32584,28922,13632
32560,28922,13830
32796,28919,13641
33104,28924,13599
33448,28932,13664
33568,28943,13652
33476,28948,13530
33284,28949,13645
33174,28951,13590
32860,28943,13569
32497,28927,13497
32352,28922,13433
32532,28930,13596
32972,28921,13514
33332,28929,13488
33398,28944,13419
33312,28959,13441
33134,28956,13358
32936,28954,13503
32812,28951,13333
32493,28940,13341
32344,28932,13345
32544,28932,13339
32944,28935,13325
33352,28943,13185
33532,28948,13357
33376,28959,13170
33104,28957,13131
32932,28961,13284
32804,28959,13152
32516,28935,13118
32452,28933,13074
32776,28931,13112
33186,28941,13086
33388,28945,13117
33508,28957,13054
33368,28967,12906
33076,28964,13025
32889,28960,13003
32800,28964,12892
32568,28950,12983
32540,28945,12956
32744,28945,12935
33016,28946,12837
33448,28951,12772
33608,28961,12887
33582,28977,12796
33402,28969,12723
33228,28974,12761
33136,28971,12780
32844,28956,12737
32620,28953,12684
32680,28953,12787
33056,28951,12636
33480,28953,12683
33569,28970,12666
33378,28981,12685
33100,28979,12740
32932,28979,12644
32716,28965,12607
32517,28957,12590
32457,28950,12509
32648,28959,12652
32940,28959,12585
33288,28961,12664
33504,28973,12591
33456,28985,12663
33225,28975,12479
32980,28980,12476
32844,28966,12449
32608,28967,12519
32554,28951,12429
32786,28959,12454
33168,28958,12412
33462,28962,12319
33544,28981,12473
33388,28986,12324
33149,28980,12444
33012,28980,12382
32932,28975,12457
32636,28955,12300
32492,28949,12227
32764,28959,12340
33141,28959,12196
33397,28965,12313
33568,28973,12169
33460,28983,12300
33208,28983,12179
32996,28975,12265
32932,28970,12132
32625,28959,12355
32460,28950,12199
32612,28962,12157
33021,28955,12176
33448,28965,12166
33552,28975,12173
33388,28983,12193
33068,28975,12183
32901,28976,12199
32780,28973,12240
32396,28967,12329
32352,28951,12188
32644,28954,12157
32996,28957,12222
33360,28965,12205
33460,28978,12341
33356,28988,12206
33092,28980,12130
33036,28981,12233
32780,28973,12280
32492,28959,12167
32428,28956,12125
32668,28949,12336
33084,28948,12174
33456,28959,12121
33509,28973,12303
33356,28982,12223
33080,28983,12224
32896,28975,12160
32782,28969,12084
32524,28952,12305
32448,28951,12098
32709,28953,12258
33144,28948,12154
33492,28958,12297
33604,28967,12193
33469,28975,12220
33196,28977,12070
32964,28972,12193
32846,28975,12080
32622,28949,12132
32564,28948,12116
32836,28949,12110
33220,28949,12221
33396,28951,12132
33500,28964,12186
33408,28973,12169
33177,28967,12276
33024,28972,12188
32928,28972,12271
32696,28945,12101
32488,28951,12252
32614,28943,12108
32988,28949,12303
33340,28951,12147
33440,28973,12177
33384,28967,12172
33213,28969,12175
33024,28967,12182
32928,28961,12196
32630,28949,12216
32560,28933,12298
32705,28935,12302
33056,28935,12403
33344,28945,12296
33484,28962,12356
33440,28967,12180
33280,28966,12236
32920,28959,12184
32296,28957,12205
31716,28953,12368
31300,28939,12155
31329,28941,12243
31560,28945,12277
31860,28959,12082
32024,28964,12289
31928,28970,12192
31976,28975,12245
32444,28969,12102
33294,28965,12026
34065,28949,12116
35101,28942,12052
36420,28955,12156
36952,28948,12106
36896,28956,12000
36810,28967,12121
36804,28974,11940
36760,28969,12122
36164,28961,11983
35436,28956,11997
34933,28933,11939
34788,28925,12038
34720,28924,11849
34676,28933,11745
34309,28935,11953
33972,28951,11819
33776,28966,11768
33500,28951,11716
33129,28951,11620
32781,28943,11842
32224,28935,11736
31908,28927,11737
31912,28930,11692
32094,28929,11628
32384,28935,11781
32500,28951,11666
32390,28959,11874
32152,28959,11852
31984,28956,11824
31836,28951,11894
31468,28933,11903
31372,28924,11983
31634,28934,11842
31968,28935,11965
32408,28935,11859
32576,28935,11982
32480,28946,11943
32404,28943,11977
32212,28945,11984
31952,28940,12014
31636,28922,12187
31505,28911,12116
31748,28917,12209
32176,28916,12120
32600,28918,12223
32732,28935,12132
32544,28940,12212
32292,28935,12138
32080,28935,12068
31852,28935,12079
31529,28924,12028
31400,28911,12084
31612,28909,12113
31996,28909,12084
32304,28916,12049
32356,28926,12115
32184,28933,12074
31886,28933,12221
31604,28933,12127
31481,28925,12152
31210,28905,12161
31116,28909,12276
31456,28903,12172
31737,28911,12133
31993,28912,12363
32132,28935,12181
32056,28935,12281
31812,28935,12229
31616,28927,12297
31460,28927,12479
31185,28905,12365
31093,28894,12369
31248,28903,12484
31584,28901,12490
31944,28895,12568
32148,28919,12483
32128,28924,12532
31844,28924,12564
31624,28925,12622
31528,28907,12613
31248,28903,12741
31272,28901,12627
31516,28888,12818
31912,28895,12701
32248,28895,12949
32381,28917,12877
32268,28916,12847
32180,28919,13060
31948,28916,12980
31764,28908,13107
31540,28894,13095
31540,28888,13066
31773,28881,13103
32092,28878,13158
32470,28892,13150
32656,28905,13148
32614,28913,13229
32360,28909,13402
32132,28908,13233
31976,28903,13374
31770,28897,13305
31740,28885,13414
32008,28877,13366
32424,28885,13479
32900,28877,13460
33140,28888,13437
33068,28903,13499
32804,28895,13512
32604,28894,13602
32556,28893,13613
32446,28866,13542
32416,28863,13581
32688,28859,13645
32833,28863,13653
32924,28871,13802
33052,28887,13618
33004,28892,13803
32820,28890,13636
32668,28887,13691
32556,28876,13665
32288,28868,13714
32184,28861,13685
32408,28855,13707
32820,28853,13691
33256,28866,13786
33468,28871,13725
33392,28879,13775
33160,28874,13867
33056,28868,13718
33005,28860,13765
32688,28836,13863
32508,28841,13743
32588,28842,13884
32980,28839,13755
33332,28841,13904
33494,28853,13693
33412,28863,13863
33344,28852,13749
33113,28854,13854
32860,28860,13689
32640,28837,13833
32572,28825,13661
32840,28836,13716
33272,28834,13811
33644,28845,13648
33680,28847,13702
33500,28849,13884
33264,28855,13764
33129,28847,13798
32999,28839,13732
32684,28829,13791
32500,28815,13808
32712,28821,13665
33177,28822,13718
33548,28825,13859
33672,28833,13777
33544,28847,13868
33412,28845,13649
33244,28845,13729
33116,28828,13665
32704,28821,13714
32484,28804,13847
32774,28806,13615
33106,28806,13692
33465,28812,13637
33584,28829,13654
33437,28829,13822
33151,28823,13609
33000,28821,13720
32948,28817,13684
32672,28805,13652
32553,28797,13711
32680,28797,13733
33063,28796,13751
33368,28806,13605
33454,28820,13706
33328,28813,13620
33100,28815,13640
32932,28814,13594
32828,28813,13634
32580,28796,13671
32516,28791,13692
32806,28783,13703
33168,28791,13662
33488,28803,13766
33496,28802,13543
33260,28812,13599
33152,28805,13602
32830,28800,13572
32702,28799,13556
32476,28788,13552
32377,28779,13725
32564,28777,13537
32936,28777,13591
33297,28791,13508
33448,28799,13585
33388,28803,13471
33184,28788,13661
33024,28797,13545
32914,28783,13457
32590,28781,13615
32449,28763,13508
32688,28760,13649
33105,28765,13517
33524,28771,13425
33648,28783,13625
33502,28785,13435
33254,28783,13513
33024,28783,13488
32888,28780,13540
32668,28767,13431
32581,28759,13411
32950,28749,13418
33192,28749,13364
33476,28757,13582
33644,28775,13405
33573,28777,13351
33344,28772,13558
33152,28765,13394
32998,28765,13389
32688,28757,13374
32572,28743,13365
32720,28751,13407
33088,28742,13349
33476,28751,13535
33636,28757,13447
33533,28764,13521
33368,28762,13351
33202,28756,13370
33048,28751,13417
32762,28729,13360
32724,28732,13322
32916,28733,13426
33338,28729,13362
33640,28735,13504
33693,28748,13409
33600,28751,13455
33500,28751,13341
33133,28749,13424
32904,28743,13345
32676,28727,13280
32580,28719,13437
32752,28715,13368
33116,28717,13377
33505,28725,13291
33679,28727,13232
33548,28740,13277
33358,28736,13260
33252,28737,13261
33161,28729,13232
32932,28711,13255
32700,28709,13240
32812,28709,13397
33108,28698,13261
33460,28709,13351
33644,28724,13251
33528,28730,13258
33240,28728,13310
32972,28719,13195
32838,28708,13402
32656,28699,13320
32561,28703,13325
32964,28687,13257
33228,28695,13319
33444,28693,13262
33536,28709,13220
33384,28711,13177
33176,28708,13361
32924,28702,13269
32676,28702,13144
32384,28679,13340
32254,28684,13191
32431,28678,13146
32812,28679,13276
33218,28689,13254
33372,28697,13206
33285,28708,13103
33032,28698,13296
32813,28698,13174
32636,28688,13176
32332,28677,13210
32244,28671,13188
32452,28661,13077
32804,28665,13257
33208,28668,13119
33372,28679,13191
33344,28693,13095
33316,28679,13088
32924,28679,13122
32684,28673,13066
32430,28656,13148
32324,28649,13068
32608,28647,13209
33020,28654,13144
33328,28657,13263
33434,28670,13163
33300,28679,13259
33124,28668,13124
32957,28669,13268
32852,28657,13175
32508,28646,13142
32317,28629,13120
32452,28636,13144
32845,28638,13136
33196,28640,13084
33328,28655,13196
33216,28660,13082
32928,28654,13241
32716,28652,13111
32624,28642,13218
32417,28628,13114
32326,28630,13315
32788,28631,13226
32868,28623,13200
33074,28624,13333
33176,28647,13188
33164,28644,13197
32920,28647,13257
32664,28646,13361
32518,28637,13191
32148,28620,13216
31900,28613,13207
31888,28613,13259
32028,28615,13173
32224,28617,13155
32280,28637,13162
31960,28623,13226
31600,28639,13156
31517,28637,13310
31412,28622,13201
31364,28624,13242
32069,28613,13110
33412,28613,13060
35016,28601,13245
36748,28605,13124
37960,28620,13168
37828,28630,13165
37212,28628,13196
36744,28622,13151
36688,28613,13228
36424,28602,13089
35704,28588,13222
35296,28593,13065
35460,28584,13110
35716,28589,13088
35468,28598,13168
34872,28612,12918
34156,28609,12940
33636,28607,12980
33398,28598,12959
33024,28591,12978
32736,28580,12826
32681,28583,12964
32776,28577,12831
32928,28580,13001
32764,28585,12903
32424,28596,13076
32096,28597,12896
31892,28596,12977
31756,28588,13163
31480,28573,13113
31392,28565,13230
31812,28567,13148
31992,28573,13268
32256,28572,13142
32392,28575,13167
32360,28588,13363
32172,28582,13169
31984,28579,13284
31788,28579,13219
31436,28562,13278
31348,28554,13394
31569,28555,13394
32008,28556,13445
32380,28559,13291
32510,28573,13368
32392,28575,13345
32260,28569,13426
32164,28565,13355
31980,28561,13471
31524,28549,13564
31442,28540,13462
31552,28543,13617
31912,28541,13452
32298,28545,13430
32392,28551,13569
32262,28561,13537
32196,28557,13604
31802,28551,13754
31544,28551,13577
31256,28525,13719
31141,28518,13648
31340,28527,13741
31685,28524,13739
32084,28525,13898
32233,28543,13816
32100,28543,13914
31801,28549,13873
31582,28540,14087
31456,28535,14084
31220,28509,14223
31168,28508,14165
31408,28513,14312
31772,28511,14265
32125,28517,14392
32220,28524,14281
32044,28533,14423
31769,28532,14450
31625,28521,14625
31508,28529,14552
31248,28504,14565
31098,28500,14691
31477,28503,14734
31744,28501,14702
32045,28497,14860
32152,28519,14867
32064,28521,15001
31884,28519,14973
31748,28517,14992
31652,28517,15103
31432,28492,15159
31392,28489,15264
31640,28489,15242
32074,28491,15301
32508,28489,15456
32684,28503,15404
32620,28508,15455
32368,28513,15695
32132,28506,15586
32064,28498,15631
31884,28486,15817
31892,28485,15738
32096,28477,15844
32384,28476,15866
32732,28482,15904
33005,28499,15966
33032,28497,16004
33052,28501,16213
32712,28497,16194
32540,28487,16328
32397,28469,16222
32334,28457,16287
32637,28462,16335
33032,28465,16454
33412,28466,16509
33594,28479,16540
33501,28486,16531
33172,28481,16563
32936,28472,16639
32655,28473,16653
32431,28447,16685
32420,28444,16812
32673,28447,16805
32980,28445,16898
33308,28453,16860
33472,28465,16855
33396,28472,17033
33164,28474,17000
32984,28465,17135
32900,28452,17049
32628,28444,17154
32500,28433,17035
32880,28435,17220
33028,28431,17164
33310,28436,17291
33494,28447,17199
33496,28449,17327
33261,28452,17208
33032,28444,17386
32848,28430,17303
32536,28414,17401
32404,28419,17341
32608,28417,17424
32992,28415,17344
33328,28419,17417
33505,28436,17360
33392,28437,17405
33148,28439,17389
32973,28428,17437
32816,28423,17455
32588,28407,17584
32484,28407,17446
32680,28397,17468
32948,28399,17590
33216,28401,17556
33372,28421,17675
33388,28423,17546
33389,28423,17566
33004,28419,17513
32805,28419,17549
32452,28393,17564
32360,28388,17537
32665,28384,17618
33148,28382,17563
33524,28393,17646
33657,28407,17576
33445,28417,17700
33104,28410,17584
32894,28407,17670
32832,28395,17646
32557,28380,17775
32436,28376,17693
32664,28377,17796
33056,28372,17652
33445,28385,17663
33608,28397,17791
33520,28407,17684
33284,28398,17695
33032,28388,17775
32848,28384,17717
32584,28375,17727
32472,28363,17757
33004,28359,17772
33264,28366,17787
33541,28364,17780
33653,28378,17885
33516,28387,17826
33260,28387,17927
33034,28373,17847
32852,28372,17950
32400,28357,17805
32320,28358,17865
32484,28353,17828
32880,28356,17837
33260,28358,17989
33439,28375,17897
33420,28375,18022
33160,28367,17877
32977,28368,17880
32900,28365,17880
32680,28351,17900
32581,28336,17967
32732,28343,17956
32988,28343,18014
33365,28343,17922
33560,28351,17908
33448,28372,18084
33376,28361,17980
33012,28356,18005
32800,28353,17965
32580,28337,17958
32524,28325,18065
32736,28335,17994
33168,28324,18155
33492,28332,18016
33588,28349,18003
33504,28356,18121
33292,28351,18045
33140,28341,18220
33028,28343,18065
32685,28321,18119
32524,28316,18121
32722,28319,18116
33076,28319,18121
33448,28318,18228
33564,28336,18209
33452,28332,18332
33292,28341,18218
33156,28338,18361
33132,28327,18242
32814,28313,18308
32580,28304,18247
33012,28300,18311
33216,28303,18276
33532,28308,18375
33668,28319,18323
33544,28333,18457
33310,28327,18327
33024,28319,18341
32853,28311,18358
32668,28300,18340
32572,28292,18445
32728,28288,18414
33088,28285,18476
33440,28295,18377
33544,28319,18364
33376,28316,18416
33140,28319,18444
32944,28313,18540
32840,28310,18455
32596,28289,18556
32525,28274,18468
32792,28276,18564
33188,28281,18463
33546,28282,18510
33654,28294,18463
33464,28303,18499
33360,28295,18588
33000,28295,18490
32832,28291,18560
32556,28276,18481
32356,28268,18560
32516,28271,18473
32944,28263,18553
33400,28271,18476
33540,28285,18522
33352,28290,18500
32956,28290,18495
32564,28287,18526
32520,28276,18540
32304,28265,18528
32280,28260,18531
32500,28253,18687
32884,28263,18581
33196,28268,18590
33310,28278,18593
33144,28276,18557
32840,28285,18606
32694,28283,18597
32624,28279,18732
32372,28261,18652
32300,28250,18757
32744,28253,18616
32972,28251,18611
33316,28259,18748
33404,28271,18694
33248,28273,18726
32913,28268,18673
32628,28277,18636
32556,28271,18813
32332,28251,18694
32260,28237,18763
32452,28243,18687
32776,28244,18686
33120,28240,18835
33340,28261,18763
33308,28266,18869
33080,28261,18760
32884,28258,18812
32763,28246,18749
32513,28241,18727
32416,28226,18847
32588,28228,18810
32944,28229,18851
33316,28229,18781
33504,28247,18775
33348,28248,18812
33213,28255,18785
32792,28249,18866
32640,28245,18839
32324,28229,18948
32225,28223,18870
32480,28218,18959
32968,28219,18891
33372,28223,18951
33494,28234,18849
33345,28236,18909
33017,28237,18944
32820,28239,18916
32716,28231,18909
32472,28221,18899
32324,28218,19036
32452,28207,18991
32792,28212,19072
33080,28211,18963
33048,28230,18989
32681,28236,18980
32140,28238,18947
31740,28228,18969
31536,28228,19007
31196,28220,18954
30974,28205,18997
31464,28208,18981
31652,28212,18964
32113,28223,18956
32814,28231,18920
33697,28243,18973
34612,28236,18946
35757,28239,18958
36976,28231,18995
37129,28218,18946
36576,28209,19000
36476,28216,18961
36896,28210,18933
37432,28203,19057
37205,28223,18969
36368,28221,19047
35636,28219,18872
35216,28217,18989
34664,28211,18904
34020,28199,18980
33534,28192,18855
33409,28191,18910
33612,28193,18830
33845,28197,18925
33640,28204,18820
33156,28214,18906
32904,28212,18798
32386,28211,18834
32032,28201,18776
31540,28201,18818
31304,28181,18818
31496,28183,18856
31848,28191,18997
32180,28189,18933
32320,28201,18953
32196,28213,19033
31932,28210,18964
31741,28204,19110
31580,28205,19069
31360,28188,19128
31268,28175,19079
31349,28183,19173
31708,28187,19126
32132,28197,19229
32314,28203,19158
32172,28217,19208
31880,28204,19139
31652,28204,19287
31640,28196,19162
31404,28188,19194
31284,28180,19247
31704,28180,19158
31928,28175,19272
32269,28180,19191
32380,28189,19196
32276,28199,19196
31984,28198,19199
31800,28197,19180
31740,28202,19204
31520,28167,19191
31372,28167,19280
31454,28167,19213
31744,28167,19262
32068,28178,19253
32158,28195,19324
32078,28196,19256
31828,28191,19300
31580,28199,19413
31440,28191,19369
31144,28185,19476
30969,28167,19410
31140,28166,19505
31456,28167,19428
31798,28187,19531
31918,28187,19455
31808,28197,19556
31708,28197,19471
31320,28196,19546
31172,28196,19494
30940,28167,19604
30860,28167,19524
31084,28167,19580
31452,28179,19567
31776,28167,19597
31721,28183,19576
31620,28198,19685
31444,28197,19628
31296,28194,19629
31264,28183,19660
30993,28167,19691
30852,28164,19793
31044,28167,19703
31440,28167,19796
31908,28167,19725
32176,28188,19719
32132,28193,19847
31860,28188,19799
31612,28196,19814
31552,28187,19780
31424,28172,19856
31360,28167,19798
31808,28167,19815
31992,28167,19830
32336,28167,19821
32560,28183,19889
32524,28191,19879
32350,28190,19934
32216,28189,19853
32212,28181,19844
31948,28166,19978
31792,28159,19881
32032,28165,19863
32484,28164,19902
32884,28165,19879
32990,28187,19937
32936,28182,19879
32816,28189,19916
32728,28181,19936
32588,28175,20000
32216,28164,19933
32016,28157,20005
32184,28151,19944
32592,28148,20016
32997,28156,19929
33188,28176,19996
33128,28182,19919
33106,28175,20009
32788,28172,19928
32574,28166,20000
32276,28162,19878
32176,28154,19895
32432,28150,19886
32840,28148,19896
33228,28156,19872
33376,28167,19975
33312,28180,19869
33061,28167,19847
32890,28167,19966
32849,28164,19865
32644,28157,19931
32524,28151,19870
32676,28151,19893
32992,28149,19878
33380,28158,19915
33496,28167,19859
33416,28167,19877
33224,28178,19859
33052,28167,19891
32885,28167,19873
32500,28155,19872
32332,28149,19856
32764,28148,19867
33009,28145,19856
33332,28156,19870
33512,28167,19879
33520,28167,19896
33334,28167,19950
33136,28161,19892
32904,28160,19912
32576,28144,19908
32408,28140,19879
32540,28140,19909
32942,28145,19879
33356,28144,19965
33537,28163,19926
33396,28167,19975
33096,28167,19921
32860,28165,19968
32761,28161,19887
32540,28146,19910
32384,28138,19942
32552,28141,19935
32884,28140,19929
33268,28151,19946
33468,28159,19981
33404,28166,20070
33367,28164,20005
32954,28166,20067
32736,28159,20026
32468,28149,20106
32384,28148,20087
32603,28145,20079
32944,28140,20111
33264,28148,20096
33373,28165,20197
33312,28172,20133
33102,28167,20207
32936,28167,20156
32780,28160,20196
32520,28151,20119
32392,28137,20146
32540,28145,20211
32908,28138,20174
33284,28146,20260
33480,28167,20196
33416,28166,20193
33212,28164,20178
33004,28165,20248
32852,28162,20231
32560,28151,20309
32417,28143,20228
32884,28137,20292
33108,28145,20250
33384,28144,20330
33506,28164,20259
33380,28167,20301
33080,28164,20272
32884,28167,20270
32809,28157,20367
32610,28148,20273
32485,28137,20313
32660,28140,20297
33024,28142,20329
33388,28148,20325
33548,28162,20344
33456,28167,20340
33184,28175,20357
33056,28155,20452
33018,28162,20392
32820,28151,20451
32708,28137,20410
32838,28135,20429
32992,28141,20437
33256,28153,20480
33504,28166,20465
33580,28167,20487
33544,28162,20521
33128,28167,20524
32869,28155,20578
32512,28150,20515
32417,28140,20630
32665,28143,20580
33044,28145,20652
33432,28145,20607
33596,28166,20652
33500,28167,20612
33208,28164,20623
32992,28167,20637
32792,28159,20662
32508,28145,20665
32420,28143,20688
32620,28143,20761
33008,28141,20719
33408,28153,20779
33532,28167,20744
33428,28182,20837
33180,28175,20786
32980,28167,20850
32820,28166,20801
32484,28150,20855
32380,28143,20844
32796,28139,20849
32980,28148,20917
33325,28146,20914
33512,28167,21004
33428,28176,20956
33200,28183,21043
33048,28167,21025
32948,28163,21088
32636,28151,21063
32496,28141,21079
32668,28143,21140
32980,28140,21169
33330,28144,21236
33428,28159,21221
33384,28167,21285
33103,28167,21276
32900,28167,21305
32776,28159,21373
32488,28140,21383
32461,28143,21432
32700,28143,21446
33132,28151,21537
33533,28157,21542
33644,28161,21569
33332,28167,21620
33144,28167,21639
32753,28167,21672
32576,28167,21759
32300,28154,21782
32180,28153,21832
32456,28154,21858
32840,28143,21937
33220,28159,21938
33377,28167,21993
33288,28167,22005
33020,28170,22058
32848,28164,22138
32756,28160,22158
32452,28146,22212
32368,28141,22245
32588,28150,22284
32988,28144,22362
33389,28151,22370
33544,28167,22439
33460,28180,22456
33240,28179,22512
33012,28153,22551
32881,28166,22612
32608,28155,22681
32464,28148,22715
32846,28143,22765
33072,28149,22816
33388,28153,22874
33484,28166,22926
33344,28167,22980
33137,28167,23033
32976,28166,23101
32844,28161,23151
32640,28149,23227
32464,28149,23272
32636,28145,23353
32936,28147,23415
33272,28159,23478
33413,28159,23537
33325,28179,23621
33068,28165,23670
32937,28164,23751
32892,28165,23825
32604,28149,23887
32440,28135,23961
32612,28140,23993
32989,28143,24092
33297,28151,24165
33360,28165,24199
33252,28167,24281
33133,28167,24351
32620,28167,24380
32240,28158,24452
31784,28153,24481
31532,28151,24554
31580,28146,24626
31692,28153,24638
31885,28157,24710
32084,28167,24717
31972,28185,24815
31872,28178,24825
32260,28175,24910
33112,28172,24961
33812,28159,25012
34852,28149,25056
36336,28152,25063
37308,28158,25160
37476,28165,25215
37304,28178,25252
37183,28181,25306
37069,28174,25316
36580,28167,25374
35804,28164,25383
35064,28156,25472
34792,28147,25521
34832,28143,25477
34604,28143,25569
34461,28142,25593
34224,28165,25655
33932,28167,25689
33632,28173,25679
33301,28167,25735
32952,28158,25709
32374,28153,25816
32000,28143,25796
32000,28148,25943
32156,28149,26023
32434,28156,26025
32616,28167,26149
32476,28173,26183
32256,28167,26319
31868,28167,26409
31736,28166,26425
31512,28153,26553
31412,28155,26562
31553,28147,26687
31948,28148,26725
32324,28154,26807
32516,28167,26893
32495,28172,26884
32496,28167,27036
32116,28165,27074
31972,28167,27161
31692,28156,27247
31340,28143,27220
31500,28141,27401
31934,28147,27452
32383,28151,27534
32604,28167,27511
32436,28167,27673
32236,28167,27671
32032,28167,27775
31772,28165,27799
31416,28151,27919
31340,28143,27976
31556,28141,28052
31932,28148,28118
32240,28144,28112
32364,28163,28234
32252,28167,28238
32008,28167,28356
31820,28165,28333
31728,28165,28570
31456,28148,28590
31316,28135,28731
31648,28141,28721
31752,28143,28879
32004,28155,28836
32116,28163,29047
32056,28175,29153
31824,28167,29137
31660,28167,29322
31540,28160,29437
31262,28153,29398
31192,28137,29613
31376,28141,29702
31648,28140,29734
32020,28149,29905
32157,28161,29887
32088,28165,30102
31804,28167,30126
31564,28167,30343
31500,28165,30413
31384,28155,30444
31318,28151,30676
31480,28140,30797
31776,28143,30755
32112,28154,31043
32356,28165,31135
32348,28167,31121
32292,28167,31313
31924,28167,31321
31820,28164,31596
31512,28151,31723
31381,28148,31679
31622,28143,31847
31968,28137,32004
32493,28143,31991
32748,28162,32142
32688,28164,32194
32424,28163,32436
32404,28165,32576
32404,28166,32502
32296,28141,32759
32108,28138,32877
32153,28140,32832
32388,28137,33061
32664,28151,33056
32852,28160,33281
32852,28167,33383
32700,28167,33340
32560,28161,33592
32449,28151,33711
32143,28140,33633
32224,28132,33799
32444,28133,33837
32536,28135,34020
32896,28137,34053
33060,28155,34213
32928,28159,34271
32700,28152,34484
32550,28161,34612
32493,28145,34549
32268,28143,34793
32172,28135,34740
32344,28132,34934
32708,28134,35007
33092,28139,35225
33264,28145,35281
33168,28161,35431
32900,28154,35469
32638,28143,35535
32460,28145,35700
32216,28137,35841
32076,28123,35903
32329,28133,35967
32695,28120,35882
33068,28127,36088
33264,28132,36149
33234,28149,36271
33088,28145,36318
32680,28151,36528
32576,28140,36567
32264,28129,36708
32316,28119,36703
32644,28123,36910
33112,28117,37061
33542,28129,37069
33624,28139,37066
33312,28146,37119
32812,28143,37318
32560,28132,37383
32488,28137,37469
32284,28125,37465
32232,28117,37660
32544,28116,37785
33024,28127,37550
33476,28125,37764
33632,28140,37829
33480,28151,38004
33020,28143,38140
32796,28135,38135
32700,28135,38191
32408,28124,38181
32188,28116,38336
32588,28117,38445
32778,28117,38245
33173,28121,38479
33376,28133,38631
33320,28146,38723
33125,28147,38880
32996,28135,38607
32812,28133,38885
32466,28117,39090
32256,28111,39106
32384,28117,39113
32724,28117,39225
33133,28125,39348
33376,28137,39373
33224,28143,39484
32921,28139,39612
32772,28131,39637
32704,28124,39639
32520,28114,39805
32484,28101,39924
32680,28109,39973
32968,28112,40151
33209,28116,40152
33249,28130,40250
33220,28133,40095
33168,28137,40308
32740,28128,40308
32548,28126,40526
32348,28109,40752
32320,28103,40710
32522,28105,40721
32853,28100,40889
33148,28107,40988
33365,28127,41085
33344,28130,41172
33065,28127,41237
32860,28118,41351
32812,28129,41428
32548,28102,41543
32428,28106,41735
32609,28100,41726
32961,28101,41844
33276,28101,41903
33432,28119,42119
33452,28130,42153
33300,28124,42287
33104,28119,42357
32852,28121,42480
32416,28109,42537
32284,28095,42700
32760,28102,42733
32964,28089,42745
33340,28109,42791
33372,28120,42935
33208,28133,42967
33016,28131,43223
32844,28125,43356
32744,28119,43143
32504,28102,43495
32328,28101,43588
32492,28094,43559
32928,28097,43831
33268,28100,43861
33409,28113,43711
33188,28122,44078
32952,28118,44140
32792,28110,43976
32672,28112,44223
32436,28095,44343
32384,28087,44509
32696,28090,44544
32925,28095,44620
33208,28093,44679
33302,28114,44551
33280,28118,44765
33236,28110,44852
32964,28116,45007
32916,28110,45077
32680,28096,45167
32578,28092,45151
32664,28085,45269
32924,28091,45349
33260,28096,45465
33454,28105,45518
33344,28110,45572
33096,28102,45567
32821,28105,45668
32752,28101,45812
32626,28086,45804
32524,28085,45772
32685,28087,45980
32984,28084,46069
33344,28085,45892
33472,28103,46167
33312,28110,46032
33068,28111,46368
32882,28109,46356
32732,28103,46494
32468,28084,46549
32360,28078,46661
32724,28079,46727
32864,28079,46476
33132,28087,46820
33292,28103,46639
33248,28111,47021
32972,28105,46879
32748,28103,47163
32616,28096,47013
32296,28087,47263
32092,28079,47314
32368,28084,47480
32764,28077,47568
33134,28077,47654
33336,28095,47719
33264,28105,47494
33108,28101,47865
32910,28095,47637
32752,28094,48044
32508,28085,48108
32424,28073,48097
32600,28068,48214
32980,28068,48254
33304,28069,48431
33468,28090,48391
33360,28093,48516
33318,28092,48445
32980,28094,48668
32844,28091,48660
32588,28070,48869
32460,28063,48997
32644,28070,49108
33029,28070,49199
33144,28069,49301
33196,28092,49101
33124,28095,49369
32904,28088,49477
32756,28084,49624
32688,28080,49671
32480,28068,49860
32312,28056,49831
32408,28063,49948
32764,28069,49984
33117,28069,50145
33296,28079,50164
33224,28086,50469
33032,28081,50561
32848,28084,50652
32769,28080,50767
32508,28061,50791
32344,28057,50919
32576,28061,51076
32572,28062,51191
32880,28066,51287
32716,28075,51311
32176,28086,51425
31757,28077,51495
31468,28079,51642
31372,28078,51719
31137,28060,51887
31012,28059,51975
31140,28057,52095
31584,28060,52231
32371,28067,52325
33365,28079,52249
34080,28085,52615
34706,28086,52327
35464,28087,52781
35478,28087,52932
34764,28071,53060
34488,28069,53173
34900,28068,53293
35513,28058,53405
35728,28070,53405
35484,28072,53571
35304,28072,53713
35228,28071,53372
34732,28072,53837
34140,28068,53919
33328,28049,54045
32616,28039,54104
32685,28047,54257
33012,28042,54316
33424,28036,54407
33524,28062,54196
33260,28069,54528
32792,28078,54693
32329,28068,54777
32100,28063,54815
31642,28053,55036
31436,28039,55077
31620,28046,55252
32012,28037,55303
32248,28039,55461
32384,28060,55416
32281,28066,55673
32057,28069,55776
31872,28055,55909
31784,28053,56038
31360,28049,55828
31260,28031,56199
31645,28041,56344
31949,28032,56124
32276,28044,56500
32512,28053,56646
32588,28052,56664
32352,28061,56789
32042,28060,56583
31828,28052,56996
31444,28039,57051
31268,28035,57120
31592,28026,57151
31996,28036,57255
32284,28039,57301
32508,28047,57376
32452,28048,57368
32196,28059,57420
31916,28046,57286
31744,28050,57531
31492,28039,57573
31268,28028,57733
31429,28031,57735
31904,28037,57774
32330,28029,57841
32366,28045,57977
32208,28055,58044
32164,28049,57735
31764,28047,58247
31601,28041,58375
31404,28028,58213
31216,28023,58484
31320,28023,58607
31672,28025,58583
32082,28028,58695
32204,28040,58820
32204,28052,58961
32073,28041,59064
31853,28047,59030
31592,28040,59229
31177,28036,59236
31021,28031,59287
31200,28026,59464
31554,28022,59599
31976,28023,59527
32133,28039,59726
32072,28052,59815
31876,28039,59757
31892,28039,59911
31884,28039,59997
31588,28023,60116
31412,28015,60159
31560,28020,60141
31722,28023,60348
32088,28022,60452
32340,28036,60274
32376,28042,60501
32328,28039,60600
32352,28036,60708
32448,28024,60793
32096,28019,60351
31700,28015,60836
31764,28009,60868
31952,28012,61005
32412,28015,61116
32773,28025,60928
32816,28032,61152
32592,28039,61158
32252,28034,61285
32240,28029,61319
32100,28014,61364
31996,27995,61357
32428,28004,61487
32796,28004,61468
33108,28005,61503
33164,28027,61608
32952,28030,61631
32864,28029,61703
32628,28020,61828
32568,28021,61660
32316,28005,61829
32192,27996,61943
32440,27996,61884
33040,27991,61996
33156,28005,61917
33132,28012,62021
32974,28015,62108
32764,28020,62076
32608,28014,62149
32628,28007,62189
32484,27995,62191
32384,27991,62239
32556,27978,62293
32802,27976,62396
32992,27997,62467
32997,28004,62287
32920,28013,62450
32844,28013,62324
32788,28014,62492
32676,28005,62585
32398,27988,62640
32304,27982,62708
32566,27981,62548
32824,27980,62668
33320,27983,62690
33356,28003,62824
33110,28000,62888
32852,27999,62553
32660,28003,62911
32624,27996,62982
32404,27982,62919
32324,27966,63047
32668,27969,62668
33092,27969,63101
33376,27972,62895
33421,27988,63141
33185,27999,63194
32705,27997,62668
32356,27992,63133
32440,27982,63143
32348,27973,62933
32310,27967,63228
32540,27966,63239
32888,27964,63278
33384,27977,63295
33440,27991,63236
33392,27991,63309
33304,27988,63295
32917,27985,63223
32592,27981,63303
32280,27965,63252
32200,27954,63361
32378,27961,63239
32844,27960,63380
33269,27971,63392
33408,27982,63392
33192,27985,63420
32828,27982,63302
32608,27976,63404
32476,27970,63294
32273,27959,63429
32245,27952,63366
32568,27944,63492
33028,27951,63452
33460,27953,63559
33460,27965,63255
33444,27968,63559
33080,27979,63585
32820,27970,63612
32768,27953,63654
32384,27948,63633
32264,27941,63596
32560,27951,63641
32901,27945,63668
33288,27953,63748
33454,27967,63471
33357,27964,63780
33040,27965,63769
32986,27962,63871
32760,27957,63871
32456,27942,63799
32396,27933,63852
32704,27936,63648
33052,27940,63994
33373,27941,63537
33444,27954,63980
33296,27964,63928
32976,27961,64007
32804,27959,63958
32888,27951,64057
32813,27937,63912
32693,27927,64124
32764,27932,64048
33005,27928,64189
33280,27936,63949
33396,27951,64164
33468,27962,64120
33376,27952,64192
32932,27951,63956
32660,27941,64253
32248,27939,63949
32177,27927,64327
32460,27929,64263
32800,27927,64277
33140,27934,64300
33192,27941,64349
33129,27947,64388
32984,27947,64372
32741,27951,64376
32628,27951,64404
32444,27926,64381
32448,27924,64423
32724,27919,64457
33028,27919,64457
33280,27924,64447
33400,27939,64463
33324,27950,64421
33033,27943,64471
32684,27943,64465
32517,27938,64519
32304,27924,64516
32172,27909,64545
32344,27911,64576
32592,27909,64595
32856,27916,64584
33048,27932,64604
33068,27933,64604
32952,27937,64623
32806,27930,64548
32704,27927,64636
32458,27911,64559
32388,27905,64692
32524,27904,64661
33044,27911,64716
33056,27911,64711
33052,27929,64700
32916,27935,64743
32732,27932,64679
32700,27927,64708
32648,27923,64612
32512,27906,64759
32448,27901,64700
32708,27897,64796
33140,27893,64767
33321,27909,64815
33502,27917,64828
33225,27927,64805
32980,27935,64825
32600,27919,64839
32636,27911,64869
32413,27898,64868
32245,27892,64861
32500,27885,64876
32848,27897,64839
33100,27894,64895
33202,27908,64836
33166,27919,64880
32988,27913,64487
32856,27909,64903
32712,27906,64929
32452,27895,64943
32292,27887,64948
32465,27881,64903
32936,27884,64957
33428,27889,64903
33660,27904,64949
33620,27918,64920
33240,27911,64975
32985,27904,64949
32856,27901,64980
32568,27887,64991
32388,27879,64996
32636,27879,65031
32728,27879,64989
32924,27889,65025
33124,27900,64996
33126,27906,65053
32884,27900,65069
32580,27903,65056
32112,27895,65072
31484,27887,65077
31080,27876,65048
31128,27877,65084
31584,27881,65031
32032,27877,65084
32112,27896,65078
31840,27905,65127
31836,27908,65049
32432,27903,65101
33061,27890,65121
33804,27879,65132
34356,27881,65134
34820,27878,65108
34700,27884,65140
34469,27895,65076
34774,27903,65156
35140,27900,65109
35036,27893,65154
34412,27892,65103
34412,27885,65142
34504,27863,65109
34156,27862,65191
33944,27861,65156
34016,27859,65188
34156,27864,65159
34226,27879,65158
34181,27887,65125
33764,27884,65205
33120,27884,65126
32753,27877,65204
32408,27860,65062
32069,27859,65220
32044,27856,65204
32304,27853,65220
32573,27863,65208
32718,27879,65224
32720,27876,65220
32568,27876,65220
32284,27877,65220
32248,27877,65221
31864,27855,65220
31784,27847,65253
32117,27849,65223
32168,27851,65268
32492,27856,65220
32732,27865,65229
32820,27872,65207
32532,27871,65176
32332,27864,65119
32344,27869,65108
32080,27854,65031
31789,27844,64985
31893,27841,64887
32112,27843,64861
32392,27844,64775
32608,27860,64647
32724,27865,64642
32592,27865,64468
32312,27862,64460
32060,27857,64327
31765,27839,64340
31752,27831,64289
32032,27833,63936
32344,27836,64173
32573,27837,64088
32664,27853,64080
32648,27861,63997
32576,27848,63997
32236,27851,63879
32009,27848,63860
31920,27839,63794
31908,27822,63828
32137,27836,63821
32500,27830,63808
32808,27837,63828
32788,27847,63732
32444,27860,63733
32044,27859,63620
31852,27852,63760
31776,27851,63792
31560,27831,63623
31480,27820,63791
31713,27823,63805
32160,27827,63876
32404,27825,63847
32500,27837,63877
32592,27854,63711
32414,27848,63917
32236,27844,63701
32008,27847,64086
31552,27828,63580
31480,27822,64095
31816,27823,64007
32044,27821,64128
32420,27828,64132
32632,27840,64199
32468,27844,64156
32204,27841,64220
32091,27847,64052
32048,27837,64300
31821,27823,64236
31817,27819,64335
32016,27813,64332
32334,27814,64359
32789,27816,64316
32949,27836,64413
32860,27842,64383
32624,27837,64455
32448,27838,64477
32480,27824,64479
32317,27821,64492
32236,27815,64460
32564,27812,64492
32740,27809,64044
33260,27807,64508
33492,27823,64501
33444,27831,64500
33212,27833,64484
32664,27830,64516
32468,27829,64459
32173,27813,64512
32143,27804,63972
32476,27800,64468
32836,27798,64361
33232,27809,64424
33364,27815,64423
33240,27820,64412
32916,27822,64391
32620,27815,64381
32593,27807,64365
32408,27807,64348
32312,27793,64263
32570,27797,64285
32952,27795,64228
33292,27799,64244
33380,27808,64151
33152,27818,64149
33012,27815,64052
32928,27804,64081
32888,27809,63841
32573,27791,64007
32468,27786,63861
32676,27783,64039
33132,27783,63967
33428,27793,63949
33492,27805,63896
33336,27812,63808
33004,27812,63871
32790,27807,63815
32720,27806,63733
32452,27791,63728
32350,27783,63623
32552,27782,63640
32832,27775,63448
33172,27783,63586
33332,27799,63188
33356,27801,63585
33292,27804,63517
33158,27796,63431
32920,27790,63335
32548,27778,63350
32304,27773,63292
32428,27771,63239
32672,27767,63032
33080,27769,63055
33266,27789,62756
33393,27797,63044
33312,27789,62436
32940,27783,62901
32728,27789,62272
32336,27764,62727
32204,27767,62645
32472,27764,62633
32936,27763,62556
33433,27773,62447
33496,27791,62436
33373,27789,62125
32996,27783,62197
32781,27783,62183
32686,27783,62069
32556,27754,62005
32544,27759,61772
32700,27761,61799
33104,27762,61693
33488,27767,61751
33541,27776,61624
33388,27782,61549
33160,27782,61535
33024,27773,61426
32844,27772,61393
32432,27757,61189
32382,27748,61172
32668,27755,61037
32792,27746,61020
33216,27751,60965
33337,27770,60900
33180,27783,60836
32892,27772,60839
32780,27771,60740
32844,27765,60708
32684,27759,60629
32556,27751,60063
32740,27746,60447
32996,27748,60337
33316,27753,60399
33232,27770,60244
33316,27771,60271
33128,27773,59630
32852,27764,60016
32852,27761,59623
32564,27749,59993
32452,27740,59892
32668,27741,59847
33160,27745,59709
33556,27748,59639
33524,27748,59199
33488,27769,59436
33400,27764,59461
33048,27760,59300
32772,27751,59212
32486,27734,59172
32408,27733,58824
32600,27724,59001
33041,27724,58884
33385,27740,58919
33460,27751,58849
33300,27763,58708
33033,27753,58661
32857,27756,58439
32752,27748,58469
32548,27738,58361
32468,27724,58373
32676,27727,58300
32992,27730,58076
33348,27733,58095
33383,27736,58055
33196,27751,57756
32892,27751,57860
32580,27749,57679
32420,27749,57676
32160,27732,57471
32221,27724,57512
32545,27720,57448
32900,27727,57132
33420,27721,57169
33540,27742,57089
33321,27748,57049
32892,27751,56935
32528,27749,56868
32468,27740,56799
32249,27726,56282
32232,27724,56503
32444,27723,56444
32812,27719,56400
33304,27725,56319
33528,27737,56215
33468,27741,56122
33236,27737,55908
33121,27736,55911
32940,27735,55813
32558,27719,55702
32332,27706,55511
32508,27708,55546
32884,27701,55493
33310,27710,55408
33612,27727,55356
33644,27733,54858
33424,27734,55079
32974,27731,55020
32752,27725,54993
32529,27719,54868
32484,27706,54740
32728,27708,54663
33144,27711,54589
33356,27712,54575
33592,27725,54471
33576,27735,54383
33220,27725,54279
32952,27725,54084
32696,27720,54136
32324,27704,54023
32256,27702,53796
32620,27697,53853
32953,27703,53767
33324,27700,53308
33236,27716,53575
33216,27726,53481
33064,27716,53351
32744,27714,53289
32281,27710,52936
31668,27695,53093
31348,27692,52783
31524,27697,52847
31860,27692,52804
32164,27700,52765
32220,27716,52668
32056,27727,52231
31636,27722,52407
31525,27722,52389
32176,27726,52325
32725,27704,52231
33241,27703,52109
34340,27702,52029
35440,27703,51832
35268,27709,51847
34888,27724,51777
34848,27735,51264
34949,27726,51492
34608,27725,51317
34092,27719,51319
33861,27695,51150
34432,27685,51147
34708,27680,51032
34680,27687,50855
34540,27692,50812
34236,27703,50660
34056,27708,50585
33837,27704,50157
33400,27716,50364
33092,27693,50256
32664,27691,50149
32413,27671,49727
32376,27679,49959
32492,27685,49735
32712,27681,49777
32808,27700,49632
32620,27702,49657
32324,27700,49543
32280,27697,49177
32237,27695,49413
31964,27684,49105
31805,27676,49222
32096,27673,49031
32472,27685,49140
32892,27683,49028
33048,27693,48971
32892,27697,48799
32616,27698,48729
32424,27703,48676
32224,27687,48545
31816,27674,48225
31702,27667,48215
31852,27669,48145
32120,27676,47684
32628,27684,47812
32845,27692,47696
32732,27700,47586
32484,27697,47418
32356,27692,47239
32332,27682,47047
32040,27669,46948
31802,27665,46516
32080,27666,46676
32500,27666,46554
32804,27671,46197
32796,27684,46311
32932,27687,46154
32620,27686,45895
32160,27693,45943
31744,27689,45780
31492,27674,45637
31484,27666,45627
31673,27668,45437
32234,27663,45285
32652,27675,45343
32774,27684,45119
32692,27693,45044
32412,27691,45079
32041,27687,44916
31960,27684,44767
31682,27663,44836
31492,27655,44711
31580,27655,44484
32008,27655,44615
32444,27661,44407
32540,27682,44423
32340,27687,44372
31958,27684,44368
31749,27686,44295
31820,27683,44246
31724,27655,44204
31652,27655,43924
31768,27655,43991
32028,27655,43813
32316,27663,43937
32420,27677,43873
32276,27686,43903
32060,27687,43702
31952,27681,43753
31993,27676,43741
31732,27655,43501
31680,27654,43648
31908,27644,43480
32136,27653,43391
32476,27660,43181
32664,27671,43362
32840,27677,43329
32697,27671,43058
32476,27666,43196
32348,27671,43164
32116,27655,42759
32035,27652,42876
32256,27645,42905
32524,27651,42900
33100,27652,42848
33293,27669,42413
33076,27673,42660
32741,27671,42532
32680,27675,42551
32636,27655,42517
32368,27640,42340
32304,27633,42230
32544,27631,42064
32968,27642,42107
33453,27644,42119
33548,27655,41991
33457,27655,41999
32965,27668,41797
32544,27655,41831
32472,27647,41652
32325,27640,41503
32325,27633,41439
32608,27634,41281
32960,27633,41287
33232,27639,41236
33344,27650,41094
33140,27655,41087
32988,27655,40950
32913,27653,40886
32769,27646,40455
32466,27637,40629
32308,27622,40473
32636,27629,40430
32909,27621,40345
33177,27633,40324
33320,27639,40221
33252,27654,40156
33036,27645,40049
32842,27648,39988
32777,27639,39839
32516,27628,39793
32548,27617,39653
32832,27615,39559
33060,27621,39334
33270,27620,39407
33324,27642,39333
33196,27644,39333
32928,27644,39264
32740,27636,38895
32636,27639,38967
32428,27628,38949
32345,27615,38875
32572,27609,38872
33052,27614,38602
33464,27623,38592
33600,27631,38493
33392,27639,38356
33108,27637,38300
32884,27636,38136
32745,27629,37977
32420,27615,37894
32212,27613,37865
32516,27611,37765
33028,27606,37697
33528,27620,37354
33588,27629,37422
33536,27631,37356
33316,27635,36982
32888,27628,37085
32724,27629,37026
32540,27610,36893
32424,27601,36753
32536,27607,36514
32828,27601,36555
33161,27617,36478
33344,27623,36329
33305,27636,36268
33109,27629,35897
33044,27626,35877
33004,27627,35736
32760,27606,35728
32556,27607,35588
32596,27604,35481
32772,27604,35303
33112,27602,35269
33288,27620,35009
33349,27621,34972
33174,27621,34780
33056,27617,34767
33089,27617,34493
32941,27592,34615
32868,27586,34449
32974,27598,34173
33064,27589,34279
33385,27602,34132
33592,27622,34045
33484,27623,33743
33316,27617,33699
33044,27621,33509
32981,27607,33501
32720,27597,33287
32544,27589,33261
32692,27591,33067
33124,27595,33071
33524,27602,32850
33748,27610,32837
33584,27615,32718
33300,27619,32676
33100,27617,32541
32900,27610,32456
32564,27598,32189
32430,27595,32160
32716,27593,31989
33102,27588,31990
33508,27591,31769
33592,27609,31719
33628,27612,31545
33390,27619,31572
33028,27614,31324
32825,27607,31383
32529,27591,31239
32396,27589,31177
32544,27583,31101
32916,27582,30983
33276,27593,30801
33400,27608,30621
33304,27613,30648
33121,27609,30573
33052,27614,30362
32916,27605,30304
32572,27589,30183
32304,27585,30118
32624,27589,29932
32982,27583,29955
33376,27591,29863
33594,27607,29725
33557,27615,29641
33272,27615,29514
32992,27604,29532
32888,27607,29441
32668,27597,29239
32694,27589,29210
32876,27588,29026
33136,27591,29036
33496,27590,28874
33564,27604,28886
33504,27611,28724
33220,27607,28559
33204,27605,28580
33244,27600,28444
33044,27581,28439
32856,27583,28294
32796,27582,28113
32960,27588,28144
33308,27587,28075
33508,27604,27932
33505,27611,27855
33320,27612,27712
33152,27607,27663
33096,27606,27596
32852,27579,27453
32684,27575,27431
32708,27583,27237
33008,27579,27251
33532,27581,27076
33624,27602,27064
33608,27606,26887
33452,27609,26899
33190,27604,26848
33056,27599,26719
32641,27591,26653
32482,27581,26485
32740,27579,26482
33308,27576,26345
33665,27589,26307
33824,27604,26176
33672,27604,26088
33356,27602,26037
33104,27604,25848
32801,27596,25872
32375,27589,25780
31988,27583,25643
31880,27583,25596
32016,27581,25463
32240,27591,25439
32352,27607,25287
32296,27611,25279
32008,27619,25146
31716,27619,25125
31456,27612,25014
31340,27598,24984
31888,27599,24911
32896,27599,24793
34076,27601,24743
35404,27607,24617
36472,27623,24573
36216,27636,24460
35373,27631,24415
34956,27629,24309
35276,27623,24223
35228,27617,24145
34756,27598,24021
34592,27599,23957
35224,27599,23829
35808,27603,23757
35652,27620,23653
35070,27621,23552
34332,27623,23444
33800,27621,23337
33582,27617,23255
33200,27599,23167
32848,27593,23076
32760,27602,22996
32800,27603,22903
32968,27607,22836
32860,27623,22773
32948,27625,22704
32869,27628,22652
32524,27631,22578
32340,27623,22535
32012,27608,22468
31784,27606,22421
31860,27601,22355
32104,27610,22294
32444,27617,22237
32621,27628,22157
32596,27631,22114
32428,27626,22015
32340,27633,21973
32332,27629,21861
32172,27615,21812
31988,27605,21689
32052,27612,21627
32228,27615,21502
32568,27616,21387
32724,27637,21276
32612,27638,21184
32344,27639,21079
32060,27642,20988
31920,27637,20928
31717,27620,20764
31780,27620,20644
32060,27622,20607
32248,27629,20454
32570,27627,20384
32676,27647,20253
32484,27647,20151
32161,27654,20068
32052,27646,19963
31969,27645,19927
31716,27633,19801
31548,27632,19753
31677,27635,19642
32052,27643,19673
32388,27645,19532
32425,27655,19498
32377,27670,19402
32236,27665,19334
32060,27655,19245
31860,27655,19229
31584,27642,19280
31372,27645,19182
31557,27645,19204
31862,27649,19132
32204,27648,19165
32344,27668,19053
32358,27671,19029
32056,27676,19121
31616,27679,19062
31428,27674,19140
31236,27653,19061
31184,27654,19150
31500,27652,19071
31912,27655,19155
32264,27655,19085
32417,27678,19179
32340,27691,19097
32056,27694,19175
31805,27686,19133
31663,27687,19170
31460,27670,19088
31393,27660,19115
31600,27671,19087
32030,27676,19183
32377,27685,19131
32568,27698,19118
32560,27710,19117
32368,27707,19230
32220,27709,19115
32236,27707,19197
32030,27692,19109
32024,27684,19120
32176,27685,19113
32392,27695,19076
32864,27694,19092
33140,27715,19085
33020,27719,19078
32733,27719,19047
32544,27716,19062
32364,27718,19053
32150,27701,19044
32064,27700,19044
32384,27699,19013
32737,27703,19015
33072,27711,18986
33188,27725,19029
33120,27735,18965
32868,27733,18983
32664,27740,18921
32564,27730,18930
32320,27721,18895
32234,27708,18951
32536,27713,18864
32972,27711,18935
33316,27725,18798
33420,27732,18772
33416,27746,18708
33132,27742,18731
32784,27743,18690
32609,27735,18665
32340,27720,18629
32237,27724,18586
32448,27731,18653
32880,27730,18511
33348,27742,18597
33504,27756,18473
33377,27762,18488
33104,27764,18373
32864,27761,18346
32750,27764,18306
32428,27748,18228
32176,27741,18217
32481,27748,18278
32860,27746,18191
33280,27757,18101
33448,27775,18182
33360,27775,18071
33184,27782,18112
33022,27775,17951
32884,27772,17906
32524,27771,17848
32432,27751,17786
32614,27759,17747
32868,27764,17652
33312,27773,17781
33496,27789,17617
33388,27797,17636
33124,27791,17466
33028,27791,17479
32921,27795,17354
32640,27780,17357
32502,27773,17253
32588,27781,17322
32900,27781,17122
33253,27796,17133
33352,27812,17032
33316,27815,17062
33137,27819,16870
32932,27820,16855
32772,27813,16733
32436,27801,16788
32284,27798,16630
32604,27798,16642
33064,27796,16437
33412,27804,16505
33570,27829,16377
33544,27829,16394
33213,27836,16178
32836,27833,16134
32652,27836,16127
32284,27821,15993
32224,27812,15989
32528,27815,15835
32964,27823,15802
33396,27825,15692
33516,27849,15757
33412,27848,15577
33096,27855,15598
32880,27849,15473
32736,27853,15506
32444,27846,15257
32369,27836,15302
32588,27843,15191
32992,27845,15232
33352,27854,15078
33532,27875,15008
33424,27878,14903
33161,27879,14793
33052,27872,14767
32964,27870,14683
32684,27863,14718
32708,27860,14534
32908,27861,14506
33237,27865,14408
33640,27874,14557
33745,27885,14373
33536,27901,14434
33264,27893,14265
33096,27898,14308
32944,27894,14140
32672,27879,14132
32590,27876,13981
32828,27877,13971
33222,27887,13823
33588,27892,13786
33684,27911,13720
33508,27925,13708
33157,27925,13564
33020,27923,13685
32956,27919,13468
32680,27908,13504
32564,27904,13331
32793,27911,13325
33137,27909,13297
33436,27921,13198
33652,27935,13124
33702,27942,13100
33404,27942,13039
33070,27940,12993
32788,27937,13088
32516,27933,12930
32400,27923,12996
32577,27930,12826
32958,27933,12784
33340,27940,12618
33364,27962,12644
33268,27975,12513
33044,27973,12516
32812,27965,12439
32652,27971,12419
32388,27957,12365
32328,27948,12325
32553,27945,12300
32972,27954,12302
33380,27963,12282
33610,27985,12137
33576,27991,12137
33276,27991,12144
33004,27988,11946
32772,27985,12002
32416,27967,11944
32557,27970,11964
32712,27968,11989
33014,27974,11768
33365,27983,11789
33528,28001,11682
33469,28007,11713
33237,28008,11660
33049,27999,11636
32900,28004,11629
32637,27992,11561
32596,27985,11691
32850,27991,11573
33285,27999,11572
33676,28002,11367
33746,28021,11423
33580,28031,11398
33324,28031,11410
33110,28029,11468
32964,28023,11221
32692,28005,11324
32564,28004,11215
32793,28004,11347
33262,28017,11125
33656,28022,11151
33736,28039,11221
33722,28044,11141
33377,28041,11037
33044,28045,11066
32941,28045,11018
32640,28038,11011
32588,28023,11028
32831,28033,10991
33148,28031,10884
33385,28038,10929
33497,28061,10847
33389,28063,11028
33169,28071,10883
33004,28065,10770
32832,28060,10886
32432,28058,10751
32056,28051,10801
32032,28055,10752
32264,28066,10766
32485,28064,10885
32480,28084,10776
32276,28097,10842
31964,28102,10704
31700,28102,10705
31632,28094,10629
31764,28095,10592
32690,28079,10604
33672,28092,10724
34992,28089,10527
36580,28100,10580
37292,28111,10575
36818,28125,10542
36132,28125,10595
36048,28129,10490
36260,28117,10397
35905,28101,10464
35252,28097,10339
35076,28103,10531
35568,28107,10411
35894,28108,10461
35664,28122,10225
35020,28134,10358
34357,28139,10186
33972,28129,10276
33700,28124,10229
33276,28119,10201
32944,28110,10341
32870,28117,10096
32996,28114,10179
33116,28135,10283
33012,28141,10155
32924,28151,10206
32528,28155,10212
32160,28145,10269
31993,28150,10390
31812,28134,10175
31750,28132,10286
32040,28135,10407
32485,28147,10264
32848,28148,10255
32884,28159,10404
32676,28167,10216
32329,28160,10240
32156,28167,10244
32100,28167,10236
31852,28156,10322
31753,28146,10213
31936,28159,10213
32294,28156,10175
32704,28167,10228
32852,28178,10011
32736,28196,10052
32514,28192,9943
32372,28196,9949
32236,28185,10028
31868,28173,9830
31920,28174,9891
32022,28172,9823
32292,28181,9772
32644,28191,9732
32824,28205,9748
32701,28201,9689
32370,28211,9736
32140,28213,9654
31984,28212,9677
31726,28197,9492
31624,28199,9572
31816,28197,9498
32244,28201,9532
32572,28207,9538
32692,28227,9542
32528,28226,9600
32192,28229,9591
32001,28231,9604
31932,28222,9572
31672,28219,9682
31544,28212,9615
31712,28210,9566
32104,28216,9589
32468,28219,9748
32573,28244,9690
32572,28241,9746
32216,28252,9646
31960,28248,9736
31836,28245,9788
31580,28233,9683
31524,28224,9815
31774,28229,9948
32160,28240,9809
32560,28244,9953
32713,28252,10041
32608,28268,10043
32292,28260,10121
32064,28268,10133
31925,28265,10175
31648,28255,10248
31604,28239,10288
31941,28240,10180
32404,28253,10367
32736,28259,10261
32852,28271,10384
32774,28287,10415
32532,28289,10529
32388,28281,10555
32340,28276,10643
32146,28264,10467
32284,28262,10565
32428,28263,10759
32680,28271,10565
32976,28277,10732
33082,28285,10635
32981,28300,10764
32712,28292,10803
32681,28295,10639
32660,28295,10743
32406,28277,10860
32268,28268,10683
32436,28271,10779
32812,28287,10697
33245,28292,10799
33400,28305,10761
33316,28311,10742
33038,28309,10758
32792,28309,10874
32688,28311,10757
32484,28288,10849
32404,28285,10645
32616,28289,10809
32884,28295,10623
33284,28305,10680
33380,28313,10679
33452,28326,10707
33124,28327,10769
32893,28326,10671
32752,28319,10744
32436,28309,10499
32256,28299,10541
32396,28295,10671
32844,28301,10537
33248,28302,10496
33460,28324,10443
33372,28331,10500
33140,28329,10515
32989,28331,10333
32924,28327,10365
32604,28313,10495
32488,28311,10308
32770,28316,10425
33204,28313,10233
33512,28319,10294
33600,28341,10364
33414,28351,10157
33082,28345,10223
32948,28345,10246
32904,28332,10253
32633,28327,10313
32664,28319,10103
32708,28320,10137
32988,28324,10264
33356,28333,10045
33484,28345,10127
33356,28356,10078
33082,28351,10124
32933,28357,10088
32800,28351,10004
32532,28329,10002
32456,28335,10122
32632,28341,9890
32940,28337,9930
33262,28342,9981
33356,28363,9892
33268,28369,9903
33080,28361,9849
32959,28365,9780
32778,28362,9855
32460,28349,9948
32321,28347,9697
32464,28344,9774
32829,28348,9877
33208,28357,9684
33364,28367,9742
33412,28373,9861
32996,28376,9628
32705,28375,9699
32660,28371,9579
32428,28358,9653
32289,28356,9693
32588,28356,9683
33053,28364,9687
33427,28369,9533
33584,28385,9567
33532,28388,9569
33217,28388,9589
32897,28380,9536
32584,28388,9577
32244,28377,9388
32224,28367,9498
32420,28367,9544
32784,28373,9404
33201,28380,9482
33336,28397,9521
33224,28396,9295
32948,28393,9373
32753,28399,9406
32616,28390,9374
32348,28386,9329
32453,28377,9349
32528,28377,9221
32849,28383,9249
33240,28388,9311
33452,28397,9166
33304,28410,9182
33052,28404,9299
32800,28415,9042
32656,28401,9175
32320,28391,9093
32181,28385,9190
32413,28387,9028
32828,28391,9095
33256,28396,9003
33448,28411,9116
33320,28415,8879
33024,28412,8994
32816,28413,8927
32736,28415,9015
32500,28397,8779
32356,28397,8849
32508,28391,8807
32900,28395,8840
33292,28403,8852
33484,28417,8650
33584,28423,8720
33172,28423,8844
32880,28421,8581
32736,28423,8669
32521,28400,8582
32440,28403,8614
32648,28404,8603
33028,28401,8561
33360,28411,8557
33448,28424,8535
33364,28428,8449
33176,28432,8511
32976,28435,8458
32852,28428,8467
32532,28413,8424
32312,28415,8539
32644,28414,8292
33032,28410,8367
33312,28420,8483
33289,28438,8249
33192,28444,8308
33044,28437,8369
32892,28441,8189
32762,28436,8247
32332,28421,8357
32352,28415,8117
32476,28412,8206
32768,28423,8308
33108,28423,8106
33200,28438,8139
33152,28452,8255
32893,28445,8023
32768,28449,8097
32652,28437,8213
32340,28428,8021
32212,28423,8068
32444,28418,8046
32826,28429,8148
33158,28432,8003
33249,28447,7997
33108,28453,8079
32848,28455,7870
32718,28454,8015
32652,28451,7939
32393,28437,8061
32277,28423,7917
32536,28430,7811
32960,28431,7898
33340,28439,7960
33412,28455,7813
33444,28460,7855
33076,28459,7862
32833,28453,7853
32744,28444,7846
32444,28443,7839
32360,28433,7730
32602,28436,7828
32960,28433,7757
33280,28445,7865
33424,28455,7652
33285,28461,7731
33084,28461,7849
32952,28455,7655
32908,28451,7750
32665,28447,7808
32549,28431,7670
32756,28439,7779
33052,28436,7769
33364,28449,7738
33524,28456,7785
33368,28461,7747
33101,28461,7815
32929,28463,7741
32817,28456,7753
32540,28449,7820
32662,28436,7815
32741,28442,7780
33064,28430,7845
33308,28455,7660
33261,28471,7744
32977,28476,7775
32539,28470,7803
32084,28475,7752
31740,28468,7760
31240,28463,7651
31124,28457,7706
31320,28456,7787
31632,28460,7756
31993,28462,7689
32077,28468,7743
32200,28487,7625
32604,28480,7676
33396,28473,7677
34356,28472,7739
35280,28454,7611
36308,28453,7719
36588,28463,7666
36452,28467,7699
36684,28461,7746
36956,28481,7573
37136,28485,7625
36304,28476,7682
35361,28477,7648
35000,28470,7621
34760,28457,7626
34446,28455,7643
34252,28452,7488
34204,28461,7525
34208,28470,7530
34197,28479,7521
33940,28479,7599
33446,28484,7362
32976,28482,7468
32620,28474,7473
32135,28474,7556
31772,28455,7604
31744,28470,7438
32016,28466,7567
32380,28468,7589
32452,28480,7697
32332,28492,7679
32073,28481,7652
31852,28486,7724
31765,28482,7824
31520,28452,7819
31580,28463,7927
31581,28452,7749
31889,28463,7831
32276,28465,7967
32413,28480,7747
32344,28493,7866
32072,28480,7972
31868,28485,7893
31816,28467,7972
31509,28469,7842
31372,28469,7982
31672,28457,7843
32076,28460,7956
32388,28473,7750
32534,28474,7836
32384,28490,7946
32058,28487,7732
31816,28491,7840
31744,28485,7749
31520,28471,7851
31460,28460,7862
31677,28468,7742
31980,28471,7813
32280,28467,7924
32360,28482,7748
32428,28483,7882
31972,28495,7900
31688,28485,7853
31580,28483,7877
31288,28468,7894
31178,28460,7972
31404,28471,7866
31740,28464,7949
31989,28476,7933
32080,28482,8028
31930,28490,8104
31692,28485,7954
31524,28486,8140
31448,28487,7999
31176,28469,8221
31056,28460,8163
31253,28462,8278
31636,28467,8183
31972,28469,8205
32044,28484,8253
31916,28491,8369
31680,28489,8345
31528,28492,8455
31484,28493,8302
31320,28463,8428
31464,28461,8458
31490,28468,8493
31780,28469,8578
32104,28467,8570
32272,28487,8691
32168,28497,8712
31924,28489,8767
31852,28487,8702
31780,28483,8776
31594,28471,8812
31482,28464,8903
31688,28463,8941
32068,28458,8997
32500,28466,8887
32692,28479,9005
32652,28487,9095
32470,28485,9093
32380,28484,9176
32308,28480,9157
31968,28460,9271
31788,28461,9285
31992,28452,9410
32428,28464,9225
32895,28462,9344
33088,28470,9386
33224,28480,9394
32768,28478,9432
32496,28483,9508
32364,28477,9579
32149,28461,9401
32120,28452,9524
32380,28449,9490
32764,28457,9525
33096,28461,9453
33137,28478,9573
32985,28476,9470
32744,28481,9570
32572,28473,9602
32456,28475,9582
32237,28457,9697
32201,28442,9542
32432,28452,9564
32796,28451,9586
33140,28452,9546
33302,28466,9602
33200,28479,9566
32984,28479,9671
32840,28469,9540
32788,28470,9653
32568,28449,9429
32704,28436,9533
32804,28445,9417
33100,28444,9474
33480,28446,9474
33688,28463,9525
33577,28468,9520
33228,28471,9394
33000,28463,9422
32902,28463,9528
32633,28441,9393
32516,28431,9495
32708,28436,9319
33076,28436,9375
33476,28447,9416
33656,28455,9414
33608,28463,9430
33372,28457,9306
33184,28462,9359
32996,28452,9349
32632,28442,9361
32464,28434,9472
32684,28436,9381
33056,28423,9341
33380,28439,9415
33504,28451,9354
33662,28457,9346
33266,28452,9370
32988,28455,9306
32841,28446,9269
32597,28433,9378
32524,28428,9167
32760,28428,9285
33132,28423,9338
33480,28439,9207
33572,28451,9297
33412,28455,9179
33088,28455,9231
32932,28450,9168
32892,28444,9290
32600,28431,9130
32448,28421,9268
32640,28422,9109
32988,28421,9203
33332,28422,9246
33484,28441,9254
33372,28455,9306
33089,28452,9220
32897,28445,9297
32816,28429,9076
32524,28417,9159
32590,28410,9111
32624,28423,9129
32937,28419,9053
33300,28423,9229
33436,28438,9156
33360,28441,9216
33156,28437,9134
32964,28439,9116
32828,28428,9064
32516,28420,8974
32412,28412,9112
32608,28419,8977
32960,28415,9132
33348,28420,8999
33524,28437,8906
33501,28436,9050
33272,28433,8993
33110,28433,8954
32940,28423,8968
32530,28417,8880
32376,28404,9030
32626,28396,8861
33100,28401,8753
33468,28413,8847
33549,28421,8767
33608,28430,8811
33118,28423,8838
32876,28421,8783
32784,28423,8772
32548,28403,8783
32396,28396,8727
32660,28405,8760
33124,28393,8697
33516,28411,8800
33570,28418,8626
33440,28420,8636
33188,28423,8598
33042,28415,8644
32900,28409,8652
32625,28391,8454
32481,28385,8564
32696,28388,8515
33012,28391,8477
33353,28397,8515
33540,28404,8523
33492,28415,8334
33248,28412,8388
33072,28407,8467
32902,28399,8239
32592,28381,8302
32744,28377,8276
32724,28390,8291
33004,28375,8305
33385,28389,8151
33532,28401,8182
33414,28414,8213
33168,28411,8089
33068,28399,8121
33004,28393,8004
32736,28375,8078
32549,28371,7977
32633,28371,8044
32868,28372,8013
33264,28380,8020
33412,28389,8112
33279,28404,7939
33040,28389,7982
32852,28389,8098
32704,28386,7869
32424,28376,7879
32288,28367,7959
32472,28357,8029
32813,28363,7948
33084,28371,7943
33173,28381,8004
33356,28391,7848
32984,28389,7929
32760,28386,7919
32604,28383,7746
32245,28363,7844
32060,28357,7960
32252,28358,7724
32660,28357,7854
33055,28356,7837
33204,28383,7857
33076,28386,7665
32864,28379,7765
32732,28375,7866
32640,28364,7705
32316,28352,7717
32238,28351,7819
32404,28346,7630
32746,28356,7647
33092,28354,7676
33261,28367,7773
33176,28376,7620
32864,28366,7588
32680,28369,7636
32568,28364,7650
32288,28345,7669
32348,28348,7683
32429,28337,7644
32804,28338,7571
33240,28344,7579
33408,28357,7457
33380,28360,7552
33128,28357,7478
32912,28358,7544
32724,28358,7605
32500,28328,7387
32424,28325,7493
32640,28327,7549
33036,28321,7459
33385,28333,7492
33528,28351,7351
33439,28344,7450
33160,28349,7450
32956,28341,7406
32820,28334,7286
32560,28327,7384
32460,28318,7506
32692,28317,7372
33078,28322,7377
33460,28330,7412
33576,28343,7346
33600,28338,7380
33150,28334,7292
32852,28343,7368
32788,28329,7411
32537,28323,7307
32500,28308,7383
32668,28309,7503
32962,28311,7396
33292,28313,7457
33460,28329,7289
33400,28333,7396
33136,28339,7514
32900,28325,7388
32740,28324,7388
32340,28311,7423
31924,28303,7401
31793,28301,7470
31933,28308,7246
32184,28312,7358
32136,28329,7386
31900,28329,7370
31664,28329,7400
31492,28324,7210
31632,28324,7315
32016,28309,7266
33168,28301,7292
34320,28301,7396
35885,28303,7353
37600,28301,7412
38112,28317,7319
37596,28327,7370
37084,28324,7296
36893,28321,7366
36840,28319,7304
36052,28293,7345
35245,28289,7112
35116,28285,7183
35461,28284,7146
35460,28289,7189
35048,28303,7210
34460,28311,6976
33848,28304,7100
33488,28309,7095
33256,28295,7028
32768,28287,7036
32416,28273,7092
32364,28271,6978
32544,28279,7018
32757,28287,6869
32661,28294,6991
32672,28303,6974
32239,28292,7075
32020,28295,7160
31869,28277,7157
31524,28273,7241
31384,28263,7156
31604,28269,7255
31952,28262,7082
32264,28273,7202
32364,28280,7338
32256,28285,7170
32040,28281,7340
31849,28280,7317
31716,28273,7317
31392,28261,7284
31246,28255,7319
31508,28246,7352
31972,28250,7419
32388,28256,7189
32504,28270,7336
32352,28271,7218
32068,28269,7301
31889,28271,7346
31769,28263,7356
31544,28242,7300
31656,28234,7250
31700,28245,7366
32004,28244,7332
32384,28251,7436
32528,28255,7418
32440,28263,7506
32096,28261,7288
31780,28258,7420
31584,28256,7355
31320,28236,7492
31244,28228,7417
31434,28228,7532
31781,28235,7452
32108,28232,7578
32224,28243,7525
32092,28253,7661
31833,28252,7557
31612,28249,7747
31448,28253,7618
31224,28236,7810
31140,28219,7679
31364,28224,7801
31744,28227,7778
32108,28226,7868
32164,28240,7849
32233,28241,7972
31812,28240,8076
31512,28243,8040
31380,28231,8007
31157,28221,8124
31121,28211,8109
31396,28215,8022
31744,28215,8269
32068,28214,8180
32192,28229,8146
32092,28234,8221
31888,28231,8288
31756,28229,8310
31628,28217,8437
31432,28202,8303
31412,28196,8479
31736,28207,8387
32208,28199,8523
32624,28212,8486
32720,28218,8367
32520,28223,8567
32236,28224,8551
32140,28217,8562
32104,28215,8564
31935,28198,8536
32164,28188,8708
32273,28183,8655
32652,28192,8734
33056,28196,8687
33246,28206,8752
33116,28206,8697
32856,28210,8701
32660,28205,8747
32632,28199,8730
32420,28183,8760
32333,28178,8740
32600,28177,8703
32996,28167,8770
33308,28179,8838
33436,28195,8865
33304,28207,8828
33032,28197,8827
32840,28195,8742
32685,28192,8905
32456,28177,8876
32388,28156,8953
32660,28165,8799
33044,28160,8898
33456,28165,8954
33593,28185,8983
33672,28186,9038
33244,28191,8908
33000,28182,8974
32900,28167,8847
32684,28159,8948
32623,28146,9102
32832,28144,8917
33260,28150,8967
33664,28157,9050
33780,28167,8977
33653,28167,9039
33336,28167,9025
33066,28167,9001
32932,28164,9124
32676,28141,8949
32612,28134,9026
32832,28132,9059
33247,28132,9097
33668,28140,9136
33853,28149,9033
33760,28163,9126
33512,28161,9030
33240,28155,9213
33092,28144,9002
32792,28132,9106
32909,28114,9129
32916,28118,9135
33193,28127,9168
33614,28129,9138
33757,28143,9206
33656,28150,9152
33392,28144,9294
33104,28136,9154
32968,28134,9146
32766,28121,9185
32676,28108,9131
32856,28112,9217
33205,28117,9285
33528,28118,9067
33632,28134,9172
33536,28137,9254
33288,28135,9221
33110,28131,9250
32996,28122,9193
32712,28111,9253
32678,28109,9373
32950,28103,9287
33312,28111,9316
33648,28104,9314
33740,28122,9343
33753,28127,9255
33348,28123,9333
33012,28116,9271
32869,28111,9360
32604,28100,9374
32496,28087,9465
32685,28095,9541
33092,28093,9349
33556,28096,9494
33744,28109,9583
33680,28114,9487
33384,28111,9586
33104,28105,9413
32872,28102,9521
32450,28079,9675
32421,28081,9462
32773,28076,9570
33168,28068,9718
33432,28079,9521
33412,28094,9605
33232,28103,9705
33012,28101,9552
32797,28099,9653
32648,28090,9673
32392,28077,9666
32553,28071,9817
32604,28066,9601
32840,28068,9783
33144,28081,9758
33326,28092,9847
33248,28101,9749
32992,28092,9765
32828,28084,9745
32740,28074,9796
32516,28063,9878
32376,28060,9650
32496,28061,9735
32872,28062,9863
33300,28062,9778
33424,28076,9805
33324,28085,9781
33092,28078,9789
32912,28079,9823
32797,28065,9768
32588,28053,9835
32488,28049,9813
32712,28046,9743
33056,28052,9776
33378,28061,9863
33520,28069,9778
33604,28073,9804
33176,28071,9925
32924,28063,9744
32837,28057,9821
32588,28046,9807
32509,28039,9841
32728,28036,9990
33140,28037,9915
33528,28039,9931
33652,28058,9862
33440,28048,9857
33112,28059,10028
32900,28052,9887
32852,28046,9922
32640,28028,9844
32600,28031,9909
32806,28023,10035
33166,28023,10009
33472,28031,10020
33592,28047,9884
33440,28047,9981
33176,28054,9994
33036,28041,10030
32896,28036,10164
32617,28019,10085
32737,28018,10141
32776,28014,9977
33124,28015,10143
33493,28020,10012
33578,28037,10115
33408,28039,10048
33084,28033,10148
32958,28031,10099
32924,28023,10232
32693,28011,10121
32660,28005,10361
32857,28004,10292
33173,28009,10258
33468,28012,10274
33508,28021,10237
33381,28029,10344
33160,28029,10341
33017,28024,10370
32897,28017,10417
32596,28005,10435
32428,27999,10450
32576,27999,10478
33004,27999,10625
33368,28007,10503
33532,28012,10575
33592,28021,10485
33184,28016,10535
32980,28014,10663
32890,28007,10629
32608,27995,10599
32504,27988,10671
32676,27991,10575
33080,27990,10685
33428,27992,10624
33534,28004,10841
33388,28011,10785
33116,28010,10720
32944,28006,10921
32836,28001,10848
32592,27983,10925
32484,27978,10865
32668,27983,10909
32989,27974,10852
33340,27991,10957
33440,27996,10856
33377,28006,11002
33184,27997,10896
32982,28003,10989
32853,27981,10973
32568,27982,11017
32676,27975,11180
32692,27973,11052
33104,27970,11097
33540,27977,11185
33700,27989,11214
33548,27991,11261
33233,27988,11166
33080,27990,11213
32961,27978,11401
32620,27964,11269
32480,27960,11392
32636,27959,11257
33037,27962,11333
33421,27963,11496
33604,27982,11402
33536,27985,11563
33368,27975,11428
33221,27982,11535
33088,27969,11543
32736,27958,11622
32524,27949,11470
32712,27951,11549
33164,27954,11494
33464,27953,11621
33476,27965,11621
33548,27972,11640
33168,27966,11599
32928,27971,11752
32748,27962,11662
32476,27948,11796
32408,27936,11738
32661,27942,11740
33037,27936,11925
33376,27943,11727
33477,27959,11844
33268,27965,11817
32816,27958,11745
32250,27959,11822
31904,27958,11816
31428,27941,11817
31200,27941,11946
31292,27938,11849
31686,27938,11838
32164,27948,11851
32328,27956,11955
32592,27964,11878
33097,27964,11918
33900,27956,11909
35008,27956,11994
36208,27945,11983
37360,27940,12121
37420,27937,11984
37296,27945,12112
37484,27935,12019
37636,27957,12151
37384,27944,12086
36460,27950,12149
35620,27945,12030
35372,27940,12092
35012,27922,11977
34496,27923,12100
34124,27921,11978
33976,27911,12011
33918,27926,12003
33892,27937,12052
33684,27940,11952
33230,27942,12121
32796,27936,11961
32512,27929,12196
32071,27913,12049
31772,27908,12060
31840,27911,12112
32140,27906,12090
32453,27916,12328
32548,27921,12159
32544,27940,12314
32084,27934,12299
31812,27929,12460
31696,27923,12423
31404,27911,12533
31360,27903,12445
31628,27905,12543
32012,27897,12447
32384,27906,12423
32514,27919,12614
32360,27924,12492
32056,27927,12565
31828,27927,12742
31720,27913,12555
31460,27900,12747
31424,27889,12679
31664,27899,12796
32032,27889,12651
32344,27900,12734
32456,27917,12687
32349,27918,12772
32128,27925,12708
31936,27911,12760
31792,27905,12762
31588,27892,12860
31758,27879,12794
31808,27880,12847
32076,27876,12929
32270,27893,13053
32268,27906,12927
32228,27902,13045
31976,27902,13012
31754,27902,13060
31572,27900,13033
31276,27881,13114
31160,27879,13264
31384,27884,13187
31790,27878,13258
32124,27885,13292
32180,27896,13309
31972,27897,13340
31648,27895,13416
31408,27901,13515
31276,27892,13651
30984,27881,13598
30956,27868,13735
31252,27876,13618
31708,27878,13785
32109,27879,13723
32212,27890,13916
32137,27903,13813
31592,27895,14000
31422,27895,13918
31340,27881,14089
31084,27875,13990
30913,27861,14044
31121,27864,14197
31496,27865,14092
31924,27868,14207
32116,27879,14170
32048,27892,14254
31824,27884,14309
31697,27887,14261
31620,27879,14305
31396,27860,14399
31408,27856,14399
31648,27858,14557
32052,27858,14431
32464,27863,14467
32614,27876,14558
32500,27884,14515
32244,27879,14613
32112,27879,14511
32080,27871,14597
31852,27855,14760
31912,27848,14687
32004,27847,14694
32356,27852,14780
32736,27856,14757
32903,27868,14744
32844,27870,14817
32608,27876,14768
32480,27869,14870
32384,27862,14780
32140,27847,14857
32076,27841,14922
32292,27839,14870
32708,27835,14927
33100,27845,14873
33272,27859,15069
33210,27861,14917
32984,27863,14957
32750,27853,15020
32476,27847,14977
32044,27833,15075
32068,27824,15052
32361,27824,15156
32764,27839,15041
33132,27837,15186
33284,27851,15088
33332,27855,15214
32888,27847,15104
32657,27849,15231
32592,27837,15082
32350,27820,15096
32265,27817,15140
32552,27813,15154
32956,27815,15188
33288,27829,15148
33448,27841,15296
33320,27846,15216
33064,27847,15292
32892,27837,15220
32774,27835,15350
32552,27819,15247
32538,27813,15370
32728,27815,15272
33062,27812,15389
33296,27819,15281
33388,27830,15399
33276,27839,15250
33076,27834,15266
32976,27831,15396
32880,27821,15305
32588,27809,15342
32628,27809,15469
32576,27799,15351
32928,27804,15346
33265,27810,15348
33308,27825,15384
33228,27835,15516
33028,27821,15331
32812,27820,15416
32672,27812,15330
32424,27794,15452
32320,27791,15332
32596,27785,15354
33036,27796,15535
33392,27800,15391
33516,27809,15428
33388,27819,15506
33124,27815,15443
32960,27815,15555
32816,27805,15410
32524,27795,15450
32432,27791,15439
32637,27784,15639
32964,27785,15543
33340,27796,15645
33436,27804,15569
33460,27813,15660
33072,27806,15564
32892,27805,15650
32728,27797,15551
32380,27783,15557
32244,27780,15604
32487,27782,15648
32900,27778,15629
33192,27786,15580
33280,27807,15636
33129,27803,15632
32886,27800,15657
32720,27797,15663
32636,27791,15657
32378,27779,15692
32337,27776,15695
32588,27772,15872
32968,27778,15781
33256,27783,15805
33325,27791,15775
33208,27799,15799
32996,27793,15897
32814,27793,15872
32669,27791,15956
32420,27771,15858
32496,27771,15924
32593,27771,15895
32968,27761,15960
33368,27773,16003
33544,27783,16130
33428,27783,15982
33014,27790,16022
32836,27783,16015
32788,27780,16030
32557,27765,16072
32464,27761,16061
32676,27759,16191
33017,27767,16137
33361,27771,16300
33460,27782,16237
33309,27789,16266
33016,27783,16199
32876,27780,16210
32800,27771,16269
32564,27763,16277
32480,27755,16291
32712,27753,16349
33084,27748,16332
33504,27761,16358
33656,27775,16537
33664,27783,16465
33281,27780,16592
33072,27776,16517
32873,27764,16492
32412,27751,16532
32376,27747,16524
32712,27747,16654
