ECG,EDA,RR
32684,20553,36425
32614,20559,36205
32588,20557,36238
32632,20564,36332
32796,20581,36096
33092,20605,36135
33284,20619,36214
33324,20622,35988
33249,20618,36009
33216,20607,36020
33096,20599,35940
33004,20593,35906
33054,20594,35740
33160,20612,35711
33332,20624,35801
33524,20659,35711
33800,20675,35766
33860,20677,35500
33872,20668,35568
33852,20651,35638
33780,20626,35229
33700,20626,35320
33740,20620,35356
33844,20628,35335
33976,20646,35166
34216,20677,35180
34448,20714,35189
34512,20723,35143
34508,20693,35180
34512,20681,34948
34436,20661,35009
34328,20670,34841
34292,20658,34943
34318,20669,34775
34384,20695,34821
34576,20737,34647
34800,20744,34773
34844,20753,34510
34868,20733,34644
34880,20717,34496
34704,20701,34484
34448,20709,34257
34335,20698,34351
34248,20713,34460
34224,20729,34296
34328,20783,34106
34416,20783,34249
34404,20785,34325
34313,20779,34069
34152,20765,34137
33956,20743,34044
33756,20749,34105
33697,20751,33779
33685,20757,33980
33728,20772,33961
33740,20820,33775
33774,20826,33835
33696,20829,33863
33540,20820,33676
33380,20823,33741
33141,20795,33594
32856,20791,33618
32756,20792,33636
32644,20813,33639
32632,20812,33375
32692,20845,33488
32761,20890,33551
32676,20890,33220
32557,20876,33376
32416,20861,33387
32126,20836,33213
31856,20825,33312
31757,20843,33237
31708,20844,33237
31684,20869,32993
31776,20893,33181
31900,20924,33063
32024,20917,33142
31968,20905,32983
31776,20916,33048
31448,20880,33047
31117,20869,32928
31018,20870,33055
31016,20900,32827
31040,20916,32903
31260,20940,32985
31476,20952,32729
31520,20964,32841
31509,20951,32711
31444,20944,32788
31308,20929,32551
31168,20923,32681
31160,20927,32783
31253,20934,32557
31360,20954,32653
31520,20975,32516
31680,20996,32645
31785,20996,32356
31820,21017,32487
31800,20987,32412
31624,20959,32501
31500,20951,32425
31480,20957,32480
31528,20977,32251
31600,20999,32419
31780,21016,32460
31972,21036,32285
32044,21059,32377
32141,21045,32391
32186,21032,32213
31976,21010,32315
31724,21004,32287
31696,21009,32133
31756,21008,32255
31800,21030,32132
32008,21069,32256
32168,21090,32145
32196,21084,31940
32164,21092,32135
32120,21084,32113
31980,21058,32001
31816,21044,32092
31780,21045,31893
31868,21056,32020
31956,21073,31904
32128,21103,31916
32292,21123,31933
32308,21120,31845
32272,21119,31772
32269,21103,31871
32210,21095,31837
32108,21073,31903
32045,21093,31677
31968,21098,31793
31980,21106,31772
32076,21159,31711
32237,21165,31772
32300,21179,31734
32216,21157,31544
32148,21165,31468
32036,21128,31647
31916,21134,31501
31908,21121,31612
31964,21132,31441
32034,21153,31550
32133,21197,31415
32340,21208,31452
32472,21213,31486
32464,21200,31436
32380,21189,31500
32096,21175,31416
31924,21165,31477
31932,21169,31254
31928,21179,31369
31876,21202,31280
32056,21220,31380
32252,21237,31237
32292,21241,31301
32340,21252,31174
32288,21229,31320
32124,21205,31058
32016,21199,31224
31944,21196,31156
32028,21225,31253
32092,21237,31041
32236,21268,31136
32376,21277,31133
32396,21279,31067
32376,21273,30967
32300,21275,31060
32268,21247,31087
32044,21238,30916
32004,21244,30864
32000,21246,30929
31960,21268,31044
32112,21294,30916
32292,21321,30808
32385,21324,30989
32352,21318,30983
32248,21303,30868
32124,21273,30791
31984,21285,30963
31952,21287,30928
32020,21297,30788
32088,21311,30936
32260,21337,30860
32460,21356,30786
32477,21351,30924
32452,21347,30965
32424,21343,30788
32266,21325,30892
32033,21302,30727
32040,21319,30880
32184,21331,30940
32246,21345,30746
32422,21370,30879
32604,21403,30768
32608,21401,30745
32480,21394,30870
32376,21376,30860
32288,21349,30792
32244,21336,30885
32284,21354,30764
32408,21361,30919
32421,21374,30711
32516,21404,30888
32800,21413,30780
33064,21422,30912
33148,21429,30704
33152,21415,30884
33072,21392,30938
32885,21381,30916
32845,21377,30796
32936,21394,30863
33110,21406,30740
33256,21431,30839
33544,21452,30943
33656,21479,30745
33636,21463,30876
33616,21445,30911
33552,21421,30761
33420,21415,30947
33472,21409,30908
33604,21430,30983
33764,21445,30797
33952,21468,30996
34097,21482,31015
34040,21501,30895
33880,21487,31052
33720,21476,30965
33460,21455,31104
33196,21437,30961
33113,21458,31125
33116,21455,31014
33076,21475,31045
33036,21507,31168
33072,21532,31051
33048,21542,31185
32918,21528,31103
32608,21519,31222
32276,21495,31278
31968,21479,31304
31876,21480,31314
31860,21476,31239
31956,21502,31429
32132,21549,31271
32352,21557,31429
32393,21564,31524
32292,21556,31339
32200,21534,31461
32052,21511,31412
31916,21500,31535
31860,21503,31607
31904,21529,31637
31945,21535,31573
32032,21561,31633
32208,21579,31727
32277,21578,31743
32208,21572,31661
32152,21557,31833
31988,21548,31751
31776,21534,31886
31772,21532,31750
31832,21537,31928
31804,21556,31948
31946,21584,32054
32188,21621,32132
32228,21601,32135
32092,21599,32195
32076,21582,32087
32062,21563,32156
31896,21550,32229
31856,21551,32349
31844,21567,32445
31864,21583,32215
32076,21620,32326
32176,21627,32512
32116,21629,32394
31984,21617,32601
31724,21612,32632
31396,21600,32701
31152,21584,32580
31156,21587,32769
31476,21591,32792
31989,21605,32856
32660,21635,32901
33452,21657,32864
34240,21658,33071
35104,21661,32932
36392,21648,33077
37976,21615,33220
39668,21589,33039
41200,21588,33268
42548,21593,33389
43624,21626,33158
44484,21637,33412
45284,21654,33568
45748,21660,33392
45468,21713,33597
43824,21678,33610
41492,21650,33733
38924,21612,33538
36569,21626,33822
34744,21631,33856
33368,21663,34004
32752,21685,33741
32617,21701,34014
32528,21695,34144
32360,21704,34045
32240,21682,34216
32036,21663,34248
31752,21642,34324
31573,21648,34258
31472,21671,34448
31448,21671,34380
31468,21698,34460
31604,21719,34624
31588,21725,34580
31474,21708,34769
31318,21708,34823
31156,21684,34833
31052,21665,34996
31024,21668,35012
31020,21674,34959
31168,21701,35185
31325,21728,35071
31456,21749,35047
31484,21740,35359
31488,21729,35364
31464,21734,35460
31341,21692,35318
31336,21682,35608
31392,21680,35626
31412,21684,35687
31424,21717,35528
31484,21739,35828
31657,21756,35991
31756,21746,35685
31684,21741,35887
31700,21733,35977
31608,21716,36103
31460,21713,36242
31472,21705,35975
31648,21719,36175
31680,21733,36359
31840,21763,36132
32108,21768,36415
32148,21771,36533
32132,21767,36256
32120,21750,36478
32052,21725,36636
31928,21721,36724
31948,21714,36736
32053,21730,36857
32100,21746,36909
32220,21771,36983
32444,21776,36965
32580,21784,37116
32637,21782,37053
32592,21776,37215
32512,21751,37284
32292,21740,37258
32241,21728,37525
32365,21735,37471
32520,21775,37504
32672,21791,37588
32892,21797,37676
33013,21806,37629
33052,21797,37767
33076,21786,37751
32980,21761,37789
32896,21741,37917
32936,21745,37924
33032,21756,37947
33340,21788,38064
33472,21804,38063
33604,21815,38271
33720,21820,38114
33728,21810,38270
33716,21797,38211
33700,21785,38476
33614,21767,38103
33640,21767,38396
33708,21777,38432
33818,21793,38549
33965,21813,38607
34256,21831,38645
34388,21825,38694
34432,21811,38653
34396,21820,38889
34317,21788,38663
34248,21775,38895
34244,21775,38869
34320,21778,38953
34432,21812,39133
34537,21820,38890
34624,21840,39143
34716,21857,39284
34743,21842,39140
34716,21836,39280
34540,21796,39282
34396,21784,39388
34236,21794,39097
34108,21803,39482
34184,21817,39444
34228,21832,39567
34404,21873,39471
34432,21861,39787
34356,21847,39814
34269,21836,39744
34084,21828,39704
33800,21816,39884
33557,21810,39885
33448,21815,39870
33408,21828,39973
33445,21862,40030
33588,21879,40199
33528,21868,40060
33408,21865,40165
33220,21840,40084
32929,21820,40189
32664,21809,40177
32484,21810,40007
32388,21814,40484
32309,21840,40225
32284,21860,40368
32352,21874,40487
32372,21875,40581
32200,21881,40732
32120,21861,40340
31908,21839,40656
31628,21823,40751
31520,21828,40877
31429,21831,40948
31376,21845,40839
31396,21863,41008
31556,21886,41047
31553,21888,41000
31452,21882,41121
31469,21869,41364
31340,21854,41189
31132,21838,41328
30968,21831,41316
30888,21842,41564
30921,21857,41292
31126,21881,41530
31365,21896,41452
31401,21908,41624
31368,21903,41540
31308,21887,41803
31132,21860,41752
30956,21843,41732
30988,21840,41997
31096,21852,41557
31144,21858,41960
31264,21883,41967
31460,21911,42085
31584,21904,42013
31511,21901,41751
31448,21884,42217
31404,21873,42151
31244,21853,42375
31240,21851,42326
31392,21861,42260
31492,21871,42436
31604,21895,42501
31766,21913,42420
31764,21919,42580
31732,21917,42631
31748,21908,42552
31596,21877,42735
31504,21865,42597
31500,21860,42772
31552,21868,42705
31640,21880,42884
31770,21902,42724
31948,21928,42929
31992,21932,42941
32024,21932,42796
32098,21916,43036
31992,21895,43097
31708,21885,42749
31524,21874,43103
31560,21878,43200
31660,21894,42887
31800,21921,43168
31984,21940,43300
32072,21938,43244
32096,21935,43297
32092,21931,43375
31946,21899,43084
31706,21886,43441
31676,21883,43349
31732,21884,43367
31684,21902,43527
31900,21928,43497
32168,21944,43413
32221,21950,43588
32172,21942,43505
32280,21925,43444
32281,21898,43679
32072,21895,43527
31936,21889,43655
31828,21907,43608
31880,21908,43692
31960,21936,43588
31968,21950,43631
32052,21950,43812
32128,21957,43748
32097,21936,43695
31816,21917,43807
31772,21893,43527
31881,21892,43840
31852,21911,43825
32028,21920,43761
32128,21942,43736
32334,21959,43849
32324,21970,43749
32180,21959,43753
32104,21946,43836
32036,21921,43764
31904,21915,43629
31820,21904,43805
31688,21912,43724
31804,21926,43596
31985,21946,43719
32185,21969,43497
32332,21976,43630
32264,21975,43642
32164,21954,43459
32108,21927,43605
32040,21919,43384
32160,21919,43397
32340,21919,43126
32328,21926,43453
32372,21948,43405
32518,21965,43087
32580,21969,43255
32376,21966,43271
32276,21964,43117
32168,21938,42847
32057,21917,42985
31980,21923,43040
32032,21919,43089
32004,21943,43031
32118,21973,42996
32336,21986,42748
32436,21987,42900
32448,21971,42828
32464,21962,42580
32352,21932,42756
32076,21938,42657
31904,21931,42687
31920,21929,42229
32000,21945,42592
32188,21965,42425
32442,21996,42375
32548,21989,42373
32645,21980,42229
32664,21966,42428
32420,21941,42173
32144,21925,42224
32156,21933,42128
32344,21930,42184
32752,21941,41831
32952,21965,42013
33080,22004,41958
33196,21991,42013
33192,21996,41912
33148,21983,41664
33184,21956,41772
33056,21930,41727
32924,21941,41596
33076,21939,41785
33253,21951,41735
33492,21989,41617
33760,22005,41380
33924,22005,41453
33876,21989,41437
33836,21987,41433
33660,21956,41352
33493,21940,41089
33412,21933,41229
33420,21951,41376
33388,21958,41102
33472,21988,41188
33576,21999,41140
33525,22000,41101
33348,21997,41065
33196,21992,40647
32953,21956,41023
32684,21940,40841
32564,21935,41031
32540,21958,40781
32480,21965,40868
32370,21989,40836
32400,22000,40889
32396,22014,40517
32312,22004,40712
32064,21999,40839
31928,21964,40609
31877,21947,40668
31828,21944,40540
31720,21956,40681
31716,21970,40471
31892,22015,40513
32029,22034,40356
32128,22023,40563
32161,22015,40356
32228,22010,40383
32032,21980,40228
31784,21958,40453
31701,21957,40214
31686,21964,40251
31700,21978,40169
31836,22011,40103
31988,22027,40154
32024,22037,40101
32013,22023,40156
31984,22005,39975
31876,21983,39657
31664,21973,39916
31621,21974,39877
31732,21980,39921
31862,21997,39766
32084,22015,39969
32192,22030,39804
32124,22029,39455
32008,22030,39729
32048,22015,39729
32004,21993,39653
31921,21985,39668
31808,21969,39479
31717,21972,39631
31540,21991,39431
31556,22017,39524
31784,22047,39477
31772,22041,39396
31696,22034,39376
31881,22023,39461
32200,22001,39156
32436,21980,39350
33020,21991,39196
33612,21991,39344
34461,21994,38983
35660,22022,39169
37176,22032,39313
38904,22028,39039
40428,22023,39143
41532,22044,39102
42356,22012,39048
43012,21987,38941
43612,21981,38815
44056,21990,39016
44052,21999,38919
42792,22033,38949
41000,22047,38648
38884,22045,38884
36722,22044,38968
34892,22033,38535
33432,22019,38752
32385,21989,38901
32004,21988,38709
32100,21990,38742
32112,22012,38576
32176,22037,38753
32268,22055,38644
32392,22056,38521
32277,22061,38716
32080,22039,38503
31744,22022,38561
31416,22004,38553
31336,21994,38420
31336,22009,38492
31320,22023,38468
31452,22045,38305
31620,22067,38407
31720,22073,38393
31632,22064,38300
31576,22060,38353
31476,22031,38441
31281,22020,38015
31144,22014,38151
31100,22023,38295
31228,22036,38252
31364,22060,38207
31560,22070,38300
31640,22079,38068
31660,22061,38176
31700,22063,38060
31620,22028,38119
31468,22012,38100
31380,22008,38072
31624,22017,37743
31768,22031,37930
31896,22060,37956
31972,22082,37606
32052,22084,37799
31933,22078,37913
31676,22057,37608
31576,22036,37698
31656,22023,37720
31608,22022,37639
31764,22023,37717
32064,22037,37321
32440,22068,37464
32664,22093,37477
32640,22087,37500
32544,22086,37548
32525,22066,37481
32380,22041,37413
32192,22035,37354
32080,22025,37406
32132,22032,37333
32117,22055,37373
32264,22081,37399
32408,22095,37327
32672,22089,37359
32892,22080,37292
33016,22073,37349
32758,22049,37221
32560,22031,37072
32663,22023,36935
32792,22031,36999
32916,22046,37047
33060,22085,36990
33304,22104,36980
33256,22110,36988
33222,22097,36888
33132,22077,36991
33100,22046,36868
33077,22033,36909
33168,22049,36775
33276,22044,36802
33376,22063,36432
33556,22090,36629
33752,22101,36689
33912,22098,36324
33864,22093,36468
33880,22094,36472
33913,22062,36495
33796,22044,36552
33852,22052,36222
34064,22048,36249
34192,22061,36320
34296,22091,36308
34388,22118,36308
34408,22116,36069
34508,22100,36191
34640,22097,36215
34528,22060,36065
34328,22053,36085
34264,22061,36032
34312,22058,36048
34368,22071,35900
34432,22092,35973
34556,22108,35837
34612,22130,36000
34656,22117,35631
34656,22100,35812
34412,22078,35916
34164,22053,35681
34164,22066,35484
34148,22062,35732
34020,22085,35590
34048,22108,35559
34192,22117,35636
34193,22117,35693
34092,22127,35359
33972,22117,35509
33740,22085,35581
33464,22061,35391
33304,22077,35463
33196,22076,35429
33196,22098,35301
33216,22109,35364
33348,22139,35437
33328,22133,35084
33140,22130,35246
32984,22116,35175
32752,22086,35240
32460,22073,35300
32208,22082,34954
32085,22084,35058
32014,22095,35099
31960,22113,35132
31976,22142,35112
31925,22137,34925
31844,22140,35049
31772,22127,35092
31567,22100,34791
31240,22085,34989
31136,22085,34865
31172,22097,35012
31201,22100,34853
31354,22135,34649
31512,22148,34877
31504,22150,34893
31408,22140,34799
31284,22140,34683
31069,22114,34764
30885,22094,34845
30814,22093,34639
30868,22100,34717
31001,22110,34575
31068,22133,34652
31266,22162,34517
31296,22173,34583
31293,22153,34448
31268,22153,34419
31172,22124,34423
31120,22102,34528
31124,22103,34376
31204,22109,34183
31198,22124,34361
31228,22149,34240
31348,22166,34302
31400,22167,34362
31472,22159,34167
31460,22141,34240
31360,22140,34168
31264,22116,34094
31220,22109,33950
31288,22120,34116
31358,22135,34054
31700,22151,34119
31952,22169,33930
32020,22173,34001
31888,22181,33943
31764,22164,33997
31620,22140,33908
31444,22121,33860
31404,22116,33903
31456,22129,33597
31624,22141,33728
31720,22167,33652
31892,22180,33524
32064,22184,33560
32132,22180,33526
32056,22167,33615
31908,22138,33479
31757,22134,33598
31793,22133,33287
31936,22137,33452
31933,22149,33429
31946,22174,33173
32198,22194,33332
32228,22208,33406
32168,22193,33169
32152,22175,33079
31944,22151,33226
31748,22149,33119
31737,22148,33222
31726,22145,33079
31852,22167,32887
32049,22189,33012
32280,22211,33040
32400,22202,32853
32477,22214,32996
32368,22197,32901
32102,22174,33009
31864,22149,32833
31792,22151,32923
31796,22155,32756
31952,22184,32859
32064,22205,32797
32324,22231,32677
32428,22228,32784
32252,22222,32677
32396,22208,32805
32312,22190,32548
32072,22166,32685
31880,22167,32708
31844,22182,32537
31985,22191,32444
32224,22215,32581
32416,22246,32622
32420,22246,32583
32236,22234,32503
32116,22237,32540
32073,22212,32535
31968,22184,32532
31940,22193,32487
31958,22194,32489
31984,22208,32324
32092,22233,32430
32316,22273,32301
32332,22273,32407
32244,22271,32391
32213,22247,32330
32192,22237,32164
32116,22221,32309
32056,22215,32388
32056,22222,32116
31960,22236,32274
31978,22265,32138
32180,22284,32197
32256,22300,32105
32248,22300,32175
32220,22279,32157
32076,22247,32218
31919,22247,32042
31892,22242,32133
31936,22253,32209
31988,22263,32004
32208,22292,32129
32472,22313,32137
32448,22317,32041
32381,22309,32017
32298,22313,32069
32172,22286,32129
31980,22270,31919
31820,22271,32037
31944,22275,31913
32108,22297,32029
32260,22337,31797
32612,22350,31872
32680,22351,31861
32688,22340,31751
32716,22351,31940
32748,22324,31847
32652,22301,31757
32660,22307,31879
32696,22311,31858
32716,22334,31855
32752,22350,31740
32856,22372,31735
32976,22378,31815
33092,22373,31759
33109,22376,31823
33092,22348,31567
33028,22343,31648
33072,22342,31671
33228,22353,31717
33264,22375,31724
33416,22381,31495
33688,22400,31548
33808,22429,31581
33761,22417,31612
33684,22402,31469
33470,22373,31532
33224,22365,31412
33061,22359,31529
32884,22385,31450
32820,22397,31353
32920,22423,31461
33056,22436,31457
33154,22454,31239
33028,22453,31332
32768,22443,31224
32564,22420,31261
32092,22406,31185
31742,22406,31311
31664,22419,31316
31657,22433,31071
31760,22464,31184
31965,22475,31252
31988,22482,31001
32000,22475,31144
31936,22482,31203
31808,22457,30969
31580,22433,31012
31500,22447,30982
31600,22451,30892
31768,22460,31014
31901,22492,30902
32009,22524,31008
31992,22519,30903
31944,22509,30848
31924,22503,30948
31724,22500,30837
31552,22485,30767
31416,22477,30902
31413,22484,30927
31544,22510,30862
31720,22532,30873
31876,22549,30660
31968,22565,30788
31968,22556,30826
31872,22548,30784
31777,22532,30684
31652,22517,30625
31620,22522,30732
31560,22532,30775
31524,22541,30544
31580,22573,30701
31800,22596,30530
31896,22602,30676
31853,22599,30686
31708,22593,30493
31536,22568,30604
31357,22567,30633
31116,22567,30602
30942,22575,30544
31018,22591,30434
31420,22620,30471
32024,22644,30396
32488,22644,30455
33012,22651,30376
33712,22639,30524
34373,22612,30495
35190,22601,30524
36456,22596,30502
38180,22599,30341
39976,22637,30388
41480,22645,30437
42852,22662,30481
43784,22669,30497
44304,22670,30466
44604,22663,30487
44488,22644,30292
43276,22668,30428
41480,22654,30424
39308,22671,30348
36900,22669,30252
34992,22723,30381
33669,22735,30415
32848,22739,30214
32504,22736,30329
32365,22725,30285
32032,22718,30205
31780,22699,30308
31616,22706,30372
31476,22711,30170
31335,22720,30308
31244,22765,30372
31260,22790,30172
31184,22791,30320
31209,22789,30340
31110,22791,30185
30952,22768,30223
30832,22752,30341
30737,22755,30160
30736,22767,30316
30732,22786,30364
30844,22813,30190
31008,22850,30260
31096,22844,30141
31168,22853,30210
31224,22848,30146
31168,22828,30300
30916,22817,30300
30808,22812,30292
30768,22818,30310
30844,22830,30279
31008,22870,30269
31292,22893,30084
31460,22901,30116
31456,22907,30166
31468,22900,30201
31394,22879,30189
31308,22864,29993
31252,22869,30135
31316,22881,30146
31365,22895,29935
31502,22922,30061
31700,22945,30076
31856,22962,29866
31884,22958,30000
31876,22957,29912
31816,22929,29957
31672,22919,29816
31600,22925,29972
31616,22930,29953
31764,22959,29777
31900,22987,29947
32128,23008,29908
32253,23025,29860
32224,23015,29925
32244,23007,29836
32128,22986,29802
31956,22983,29902
31912,22982,29805
32000,22994,29717
32084,23008,29857
32284,23036,29884
32564,23067,29669
32656,23074,29793
32580,23084,29724
32532,23075,29776
32500,23052,29684
32378,23038,29612
32336,23031,29699
32444,23047,29703
32604,23065,29508
32884,23096,29639
33089,23137,29434
33196,23141,29556
33214,23137,29549
33176,23126,29383
33112,23104,29351
32964,23102,29441
33100,23098,29352
33208,23108,29311
33310,23126,29212
33396,23165,29359
33493,23186,29229
33712,23190,29287
33933,23202,29130
33952,23196,29185
33816,23168,29227
33584,23157,29040
33536,23158,29186
33632,23175,29127
33704,23196,29154
33866,23220,28962
34132,23243,29077
34236,23254,29073
34364,23268,28901
34308,23263,29001
34221,23236,28983
34016,23220,28820
34036,23225,28948
34088,23231,28836
34116,23244,28776
34208,23287,28896
34228,23314,28856
34216,23321,28679
34032,23319,28825
33988,23314,28759
33936,23309,28634
33768,23291,28764
33616,23289,28720
33524,23303,28645
33600,23316,28574
33624,23343,28643
33700,23380,28632
33648,23390,28649
33476,23394,28649
33384,23377,28523
33340,23362,28512
33052,23347,28550
32796,23349,28445
32600,23370,28556
32436,23382,28581
32368,23419,28392
32412,23436,28521
32420,23451,28468
32364,23455,28340
32108,23449,28472
31928,23431,28476
31708,23417,28477
31586,23422,28374
31452,23437,28454
31458,23445,28408
31596,23478,28295
31606,23503,28348
31540,23515,28255
31336,23523,28409
31232,23525,28360
31212,23497,28303
30996,23487,28396
30888,23488,28292
30832,23496,28216
31024,23522,28340
31144,23545,28325
31220,23574,28345
31354,23588,28256
31249,23591,28302
31292,23586,28197
31152,23559,28295
30920,23557,28193
30849,23557,28288
31004,23567,28274
31060,23589,28257
31296,23621,28213
31404,23636,28108
31630,23649,28167
31645,23655,28084
31540,23649,28210
31316,23639,28181
31078,23623,28052
31012,23622,28089
31156,23628,27991
31224,23647,28111
31358,23681,28104
31610,23711,28053
31740,23716,28036
31776,23719,27948
31764,23717,28077
31644,23703,27916
31534,23687,28045
31449,23692,28006
31476,23696,27960
31592,23715,28029
31680,23750,27905
31940,23768,27960
32177,23778,27854
32184,23784,27954
32148,23783,27860
32028,23762,27857
31820,23746,27925
31712,23750,27919
31692,23760,27893
31677,23780,27726
31788,23801,27768
32016,23830,27781
32156,23840,27833
32168,23847,27721
32202,23845,27631
32116,23825,27709
31932,23814,27684
31760,23811,27586
31768,23817,27684
31920,23841,27713
32080,23871,27543
32280,23893,27625
32408,23908,27492
32356,23910,27604
32232,23906,27530
32044,23891,27584
31888,23872,27535
31829,23874,27468
31914,23884,27495
31956,23900,27373
32028,23923,27511
32264,23949,27470
32420,23964,27344
32464,23967,27377
32392,23961,27297
32324,23949,27431
32156,23933,27412
32000,23925,27271
32016,23938,27324
32068,23953,27192
32184,23988,27356
32412,24012,27325
32544,24016,27319
32540,24031,27285
32582,24016,27287
32552,24000,27188
32356,23988,27143
32144,23993,27180
32076,23997,27073
32128,24015,27212
32240,24044,27184
32460,24065,27089
32596,24072,27152
32532,24082,27033
32428,24071,27086
32398,24057,27017
32288,24037,27148
32168,24039,27129
32256,24052,27033
32292,24069,27040
32389,24097,26947
32496,24121,27068
32684,24140,26986
32772,24139,27078
32772,24135,27073
32720,24117,26966
32560,24104,27052
32431,24101,26947
32464,24103,26991
32616,24124,26959
32608,24148,26905
32728,24181,26985
32900,24182,26991
32892,24189,26821
32796,24177,26884
32716,24174,26921
32440,24148,26961
32316,24151,26858
32415,24165,26908
32532,24175,26919
32664,24209,26767
32824,24228,26849
32876,24230,26855
32872,24237,26729
32892,24236,26894
32860,24213,26817
32768,24199,26762
32764,24203,26713
32841,24210,26860
32926,24227,26788
33080,24247,26757
33430,24269,26758
33708,24293,26761
33900,24294,26813
33821,24292,26753
33684,24273,26759
33481,24248,26650
33444,24249,26767
33534,24255,26741
33629,24285,26732
33700,24308,26781
33836,24327,26654
34076,24339,26729
34198,24332,26780
34316,24327,26801
34309,24320,26636
34284,24301,26814
34272,24295,26735
34312,24304,26822
34296,24322,26684
34300,24354,26751
34472,24372,26776
34400,24388,26810
34296,24388,26657
34260,24377,26724
34052,24366,26832
33808,24349,26822
33576,24344,26788
33576,24350,26733
33601,24372,26681
33614,24386,26740
33728,24427,26863
33701,24429,26815
33396,24439,26845
33112,24423,26759
32920,24412,26871
32732,24397,26894
32440,24396,26799
32504,24391,26892
32648,24421,26917
32708,24445,26794
32800,24464,26933
32920,24477,26852
32881,24471,26801
32800,24476,26862
32733,24458,26887
32596,24441,26921
32504,24433,26804
32492,24440,26956
32484,24468,26932
32648,24485,26849
32892,24507,26983
33004,24519,26937
32972,24528,26821
32805,24517,26987
32576,24501,26919
32384,24485,26816
32192,24476,26960
32280,24490,26981
32406,24500,27009
32496,24525,26995
32680,24553,26913
32788,24563,26964
32824,24556,26993
32780,24556,26917
32694,24543,26974
32660,24527,26836
32545,24516,26949
32465,24524,26904
32432,24533,26973
32476,24564,26863
32472,24581,26985
32476,24599,26868
32384,24601,27004
32188,24589,26948
31984,24577,27015
31960,24566,26909
32160,24557,27023
32704,24561,27031
33216,24577,26936
33808,24599,26989
34720,24620,27000
35736,24636,26934
37008,24630,26985
38528,24628,26864
40280,24597,27001
41848,24574,26895
43072,24579,27017
44084,24582,26993
44696,24628,27041
45140,24644,27020
45412,24661,27045
45140,24663,27041
43688,24669,26928
41944,24665,27036
39424,24640,27071
36924,24628,26976
35020,24629,27008
33796,24651,26944
33173,24654,26967
32916,24679,27030
32904,24700,26914
32952,24711,27039
32768,24719,26954
32724,24711,27064
32576,24689,26983
32216,24677,27044
31948,24672,27024
31744,24679,27079
31668,24685,27063
31704,24719,27121
31932,24739,27023
31880,24746,27094
31840,24754,26984
31805,24744,27141
31693,24725,27156
31528,24710,27015
31340,24706,27164
31292,24711,27164
31365,24721,27117
31544,24751,27039
31716,24779,27060
31892,24785,27143
31880,24787,27172
31870,24778,27005
31936,24766,27171
31792,24748,27101
31638,24737,27095
31668,24749,27070
31680,24756,27093
31800,24780,26965
31874,24811,27113
32009,24821,27103
32068,24831,26988
32040,24820,27014
32084,24807,26932
31944,24789,27024
31888,24783,26980
31940,24784,26900
32080,24801,26977
32148,24821,26979
32296,24844,26821
32356,24871,26970
32304,24865,26953
32376,24857,26815
32368,24838,26936
32172,24826,26946
31989,24821,26876
32068,24829,26880
32196,24847,26789
32365,24863,26928
32580,24892,26875
32744,24896,26776
32748,24913,26873
32772,24900,26860
32768,24890,26908
32688,24868,26834
32564,24868,26746
32520,24869,26852
32516,24879,26820
32608,24902,26781
32852,24933,26764
33034,24945,26816
33164,24942,26723
33264,24941,26724
33284,24925,26623
33092,24901,26726
32921,24899,26654
32989,24900,26639
33060,24911,26620
33172,24936,26631
33404,24967,26548
33568,24980,26583
33687,24980,26596
33768,24969,26486
33778,24954,26575
33580,24934,26551
33453,24933,26437
33476,24935,26446
33544,24941,26356
33720,24967,26464
34012,25000,26400
34312,25014,26361
34320,25009,26417
34344,25012,26412
34288,24982,26271
34145,24961,26400
34124,24970,26370
34229,24967,26268
34284,24984,26303
34324,25000,26185
34316,25030,26291
34308,25041,26254
34392,25044,26101
34293,25034,26247
34184,25018,26160
34040,24998,26084
33968,24996,26184
33900,24992,26098
33864,25009,26028
33941,25028,25991
34008,25055,26085
34212,25066,26081
34248,25071,25924
34176,25063,26040
33976,25052,25988
33609,25027,25984
33289,25012,25838
33041,25031,25970
32965,25029,25915
33053,25056,25775
33100,25084,25897
33100,25095,25852
33035,25102,25836
32769,25095,25849
32560,25074,25866
32308,25057,25719
32009,25045,25833
31924,25051,25839
31868,25070,25687
31948,25087,25806
32020,25119,25813
32004,25129,25693
31950,25127,25765
31736,25124,25728
31504,25112,25732
31216,25084,25727
30928,25087,25681
30836,25081,25736
30904,25095,25740
30916,25117,25778
30936,25146,25772
31076,25160,25649
31056,25157,25783
30984,25151,25786
31000,25143,25750
30772,25114,25774
30576,25109,25738
30500,25109,25748
30656,25125,25688
30708,25133,25732
30828,25172,25773
30956,25191,25737
30844,25183,25723
30792,25177,25668
30908,25166,25767
30700,25140,25769
30612,25131,25636
30593,25140,25715
30728,25147,25738
30880,25167,25748
31096,25191,25726
31192,25204,25636
31140,25207,25740
31040,25199,25729
31036,25190,25593
30936,25156,25732
30924,25149,25692
30976,25151,25733
30864,25161,25663
30888,25188,25629
31052,25209,25708
31200,25223,25712
31280,25223,25564
31236,25220,25683
31220,25204,25668
31141,25177,25615
31112,25168,25569
31188,25172,25643
31264,25176,25637
31292,25200,25585
31424,25231,25557
31620,25241,25600
31604,25238,25569
31660,25231,25596
31668,25217,25544
31536,25191,25573
31232,25188,25459
31310,25188,25564
31488,25199,25508
31556,25221,25400
31542,25247,25506
31729,25257,25380
31776,25255,25465
31808,25247,25506
31764,25233,25481
31660,25207,25462
31416,25197,25503
31352,25208,25351
31478,25215,25385
31530,25232,25485
31676,25259,25436
31858,25266,25466
31844,25274,25415
31800,25265,25423
31728,25249,25371
31616,25229,25397
31437,25217,25400
31432,25221,25336
31488,25238,25350
31604,25258,25394
31808,25277,25414
31876,25286,25285
31856,25289,25419
31816,25283,25380
31808,25269,25266
31684,25249,25400
31417,25245,25359
31328,25243,25286
31580,25249,25389
31712,25274,25349
31864,25296,25242
32032,25308,25361
31856,25308,25372
31772,25301,25321
31720,25290,25351
31528,25264,25234
31540,25261,25338
31560,25252,25321
31556,25269,25229
31536,25292,25306
31776,25313,25324
31952,25321,25207
31916,25331,25313
31837,25316,25287
31808,25301,25308
31660,25272,25298
31655,25264,25169
31584,25271,25280
31528,25280,25222
31592,25305,25289
31776,25325,25264
31757,25333,25141
31664,25335,25236
31620,25324,25231
31672,25317,25244
31604,25292,25220
31502,25273,25229
31490,25281,25148
31498,25287,25265
31552,25308,25225
31684,25322,25235
31877,25338,25153
31933,25342,25260
31960,25325,25265
31956,25309,25141
31868,25293,25265
31639,25287,25263
31496,25287,25233
31445,25294,25279
31560,25309,25158
31668,25339,25252
31824,25341,25192
31912,25341,25309
31946,25335,25301
31920,25301,25223
31840,25293,25298
31760,25284,25202
31796,25285,25314
31968,25293,25301
32128,25308,25298
32376,25332,25334
32624,25345,25256
32456,25343,25383
32324,25330,25284
32152,25317,25397
31944,25292,25342
31976,25280,25424
32158,25274,25284
32476,25293,25410
32568,25306,25391
32779,25331,25351
32956,25339,25452
33024,25338,25460
32854,25329,25408
32960,25313,25469
32948,25285,25444
32780,25278,25469
32598,25286,25490
32544,25287,25486
32572,25305,25438
32556,25325,25548
32408,25337,25543
32236,25336,25467
32148,25332,25549
32024,25315,25567
31764,25285,25620
31560,25279,25490
31437,25278,25629
31428,25289,25646
31268,25301,25613
31192,25330,25647
31352,25333,25660
31316,25343,25588
31324,25333,25719
31224,25316,25692
31044,25292,25749
30924,25276,25683
30940,25275,25628
30902,25276,25785
31020,25300,25781
31268,25327,25752
31344,25338,25819
31317,25334,25705
31144,25327,25829
31092,25313,25823
30992,25287,25849
30864,25279,25825
30768,25279,25764
30796,25285,25866
30865,25301,25855
31008,25321,25885
31120,25333,25863
31120,25335,25740
31197,25329,25892
31160,25317,25845
31036,25287,25904
30872,25274,25836
30852,25271,25901
30956,25284,25910
31136,25294,25824
31248,25321,25909
31444,25335,25828
31368,25332,25904
31380,25319,25925
31268,25308,25808
31136,25280,25927
30917,25265,25900
30757,25269,25794
30756,25270,25952
30729,25298,25902
30896,25316,25959
30982,25325,25889
31216,25331,25809
31546,25324,25969
31972,25295,25947
32276,25269,25925
32736,25254,25977
33424,25256,25928
34400,25268,25927
35533,25280,25848
37044,25303,25902
38972,25295,26013
40612,25301,26014
41912,25300,25942
42852,25282,25898
43416,25258,26063
43748,25237,25925
43968,25229,25977
43617,25236,26060
42016,25253,26097
40224,25301,25972
37972,25308,26056
35796,25308,26141
33992,25300,26133
32848,25280,26162
32148,25263,26069
31952,25238,26182
31952,25246,26152
31792,25252,26230
31732,25265,26091
31789,25294,26256
31928,25305,26260
31872,25300,26155
31740,25292,26292
31572,25279,26335
31324,25247,26253
31077,25236,26332
31156,25232,26388
31084,25247,26313
31132,25261,26387
31280,25287,26318
31408,25290,26404
31448,25295,26456
31441,25287,26386
31471,25264,26520
31340,25244,26518
31304,25231,26484
31496,25227,26596
31460,25237,26565
31484,25249,26612
31560,25274,26556
31768,25285,26647
31848,25285,26645
31808,25276,26711
31780,25256,26573
31709,25226,26669
31688,25221,26615
31704,25223,26650
31812,25226,26744
31892,25245,26685
32060,25268,26612
32200,25281,26763
32334,25276,26728
32484,25268,26624
32532,25252,26622
32404,25222,26694
32152,25212,26793
32088,25215,26788
32256,25218,26798
32485,25234,26680
32733,25261,26778
32945,25270,26824
32924,25269,26770
32868,25257,26909
32902,25239,26914
32810,25212,26946
32684,25205,26866
32698,25207,26983
32905,25210,27003
32956,25231,26871
33176,25252,27049
33424,25262,26997
33500,25269,27079
33432,25259,26946
33445,25239,27017
33308,25210,27077
33204,25199,27087
33376,25199,27049
33596,25217,27109
33776,25229,27089
33932,25260,27029
34092,25265,27111
34136,25260,27069
34214,25255,27159
34192,25241,27015
34121,25218,27045
33978,25208,27146
34105,25213,27137
34192,25218,26998
34250,25239,27156
34472,25275,27087
34768,25279,27141
35008,25275,27182
35060,25272,27011
35052,25257,27103
35008,25230,27120
34996,25220,27176
34976,25223,27045
35012,25237,27159
35105,25261,27133
35412,25287,27193
35636,25293,27197
35692,25310,27055
35726,25301,27142
35672,25282,27188
35476,25257,27221
35244,25242,27104
35240,25247,27227
35280,25261,27197
35328,25277,27245
35544,25309,27125
35728,25321,27221
35732,25317,27252
35584,25312,27085
35480,25296,27137
35308,25284,27262
35102,25270,27265
34972,25268,27132
34965,25285,27262
35004,25299,27273
35096,25329,27101
35247,25341,27271
35312,25338,27216
35216,25330,27233
35036,25317,27192
34669,25288,27283
34348,25289,27301
34220,25289,27143
34152,25301,27317
34150,25314,27252
34212,25341,27262
34320,25352,27271
34192,25359,27285
34032,25345,27205
33902,25333,27358
33672,25311,27320
33416,25293,27369
33228,25301,27283
33140,25307,27324
33148,25329,27372
33228,25351,27276
33204,25365,27428
33140,25363,27372
32992,25361,27460
32882,25343,27316
32672,25319,27388
32584,25311,27454
32557,25307,27421
32516,25312,27490
32436,25335,27372
32421,25363,27427
32556,25381,27548
32608,25376,27501
32540,25364,27462
32478,25351,27497
32344,25320,27524
32128,25319,27541
32012,25317,27479
32096,25324,27623
32284,25345,27644
32432,25369,27499
32740,25383,27632
32812,25387,27673
32813,25382,27527
32776,25354,27541
32605,25340,27607
32460,25323,27717
32432,25323,27730
32516,25337,27728
32632,25345,27628
32781,25373,27670
32925,25384,27799
32948,25385,27735
33092,25381,27775
33182,25364,27716
32856,25333,27846
32624,25324,27840
32513,25326,27728
32636,25328,27906
32732,25348,27880
32912,25370,27813
33132,25380,27893
33280,25383,27892
33136,25375,27883
33148,25360,27928
33113,25336,27983
33080,25319,28008
33028,25316,27877
33056,25329,28028
33104,25348,27972
33237,25374,27896
33384,25383,27961
33396,25385,28023
33366,25375,28001
33316,25360,28071
33209,25333,28000
33024,25314,27999
32992,25319,28080
33188,25327,28028
33272,25347,28020
33564,25372,27945
33606,25378,28008
33732,25384,28052
33640,25375,28061
33528,25351,28028
33389,25331,28020
33220,25317,28028
33184,25319,28112
33256,25328,28069
33192,25341,28111
33388,25364,28045
33508,25374,28088
33584,25381,28124
33656,25376,28009
33564,25351,28093
33344,25330,28066
33229,25319,28124
33172,25316,28073
33134,25320,27977
33188,25341,28149
33580,25365,28099
33696,25380,27983
33605,25376,28124
33568,25372,28156
33564,25351,27983
33340,25335,28148
33092,25318,28128
32992,25314,27989
33068,25325,28143
33269,25341,28061
33456,25367,28143
33592,25382,28062
33477,25387,27993
33348,25372,28130
33388,25357,28046
33252,25334,28028
33064,25327,28116
33024,25319,28039
33040,25330,27938
33132,25350,28105
33368,25371,28025
33532,25385,28051
33560,25386,27991
33472,25383,28013
33413,25366,28008
33292,25329,27910
33064,25321,27984
33004,25317,27996
33060,25335,28057
33304,25351,27902
33516,25383,28029
33604,25392,28037
33744,25389,27900
33740,25383,27894
33524,25369,28001
33332,25342,27921
32952,25335,27969
32900,25333,27881
33136,25349,27932
33176,25360,27944
33352,25383,27807
33404,25405,27863
33320,25407,27876
33328,25396,27698
33248,25376,27850
33296,25351,27746
33380,25334,27799
33418,25341,27617
33464,25351,27730
33612,25374,27638
33808,25393,27589
33936,25411,27543
33928,25409,27589
33920,25404,27446
33936,25381,27551
33876,25372,27488
33681,25345,27385
33832,25351,27425
33832,25353,27284
33996,25373,27367
34388,25409,27315
34572,25419,27134
34605,25416,27236
34501,25413,27198
34476,25404,27040
34548,25369,27127
34496,25362,27077
34508,25363,27065
34653,25374,26981
34657,25394,26844
34864,25417,26945
35000,25431,26915
34924,25429,26787
34812,25418,26813
34680,25404,26678
34364,25384,26798
33980,25379,26701
33916,25375,26727
34060,25391,26534
33972,25404,26608
33992,25433,26593
33890,25439,26475
33780,25441,26581
33509,25439,26561
33165,25420,26429
33044,25394,26492
32808,25391,26470
32736,25381,26316
32680,25394,26268
32676,25415,26391
32832,25434,26358
32992,25448,26289
32924,25453,26169
32844,25437,26295
32732,25426,26256
32632,25399,26133
32556,25384,26203
32572,25378,26193
32624,25402,26092
32630,25412,26111
32617,25440,25959
32724,25448,26087
32712,25454,26030
32560,25449,25887
32557,25436,26012
32439,25404,25952
32272,25393,25900
32221,25397,25890
32289,25398,25876
32364,25417,25799
32534,25448,25813
32620,25456,25812
32704,25452,25686
32544,25452,25800
32524,25435,25759
32408,25401,25616
32332,25393,25703
32260,25397,25620
32293,25405,25692
32261,25428,25591
32276,25442,25656
32228,25455,25576
32128,25452,25590
32044,25449,25483
31912,25428,25540
31776,25397,25529
31712,25388,25415
32036,25388,25541
32616,25393,25523
33224,25415,25368
33948,25428,25446
34712,25447,25452
35580,25444,25443
36746,25421,25312
38228,25413,25321
39824,25378,25297
41176,25387,25328
42277,25380,25391
43100,25372,25370
43688,25382,25368
44316,25405,25316
44820,25444,25377
44316,25438,25376
42472,25432,25296
40528,25405,25350
37972,25380,25340
35628,25377,25272
33964,25376,25289
32940,25385,25325
32436,25399,25296
32468,25425,25305
32640,25438,25183
32664,25441,25310
32632,25428,25270
32608,25415,25304
32236,25386,25146
31758,25373,25284
31484,25368,25277
31408,25376,25229
31288,25392,25199
31380,25417,25201
31509,25424,25252
31472,25429,25232
31424,25423,25228
31340,25400,25267
31270,25372,25249
31040,25365,25172
30916,25363,25157
30888,25373,25246
31000,25384,25246
31120,25413,25131
31196,25424,25175
31192,25421,25250
31264,25415,25250
31296,25397,25238
31100,25365,25228
30876,25349,25196
30896,25348,25188
30930,25365,25189
31058,25374,25201
31256,25407,25191
31417,25414,25047
31432,25409,25147
31416,25407,25106
31460,25380,25045
31376,25365,24985
31240,25351,25080
31184,25349,25029
31352,25359,25042
31530,25380,24921
31628,25402,24914
31800,25408,24999
31752,25414,24950
31724,25400,24979
31784,25381,24839
31774,25358,24952
31748,25347,24916
31792,25343,24934
31860,25349,24915
31885,25368,24804
32068,25389,24922
32288,25402,24919
32300,25407,24836
32232,25389,24884
32136,25380,24850
32105,25348,24839
32064,25333,24727
32276,25337,24797
32460,25347,24805
32541,25362,24689
32734,25388,24741
32940,25399,24737
33000,25398,24741
33072,25381,24600
33089,25359,24686
32856,25341,24632
32736,25320,24625
32804,25311,24516
32996,25335,24570
33144,25349,24543
33344,25374,24410
33500,25380,24493
33632,25380,24443
33733,25377,24433
33737,25356,24303
33784,25324,24321
33688,25315,24325
33688,25311,24274
33776,25319,24289
33928,25332,24236
34208,25364,24164
34400,25367,24207
34432,25369,24153
34302,25366,24107
34272,25342,24086
34236,25317,24077
34312,25300,24060
34400,25294,23953
34500,25308,24013
34640,25316,23986
34768,25348,23866
34840,25362,23933
34972,25351,23885
34872,25342,23789
34804,25327,23860
34653,25294,23824
34240,25284,23801
34026,25284,23750
34072,25295,23741
34216,25311,23717
34540,25329,23641
34764,25331,23706
34618,25341,23669
34484,25332,23677
34392,25311,23559
34117,25284,23638
33980,25256,23604
33893,25273,23615
33936,25276,23584
33920,25285,23519
33956,25317,23570
33904,25320,23580
33854,25316,23489
33668,25308,23553
33572,25287,23524
33284,25268,23479
33052,25255,23528
32920,25252,23517
32836,25255,23453
33032,25257,23524
32940,25303,23444
32928,25309,23533
32809,25303,23522
32612,25298,23548
32556,25276,23453
32340,25244,23542
32180,25229,23550
31986,25239,23505
31894,25236,23552
31844,25263,23568
31908,25283,23487
31972,25289,23549
32030,25291,23586
31984,25282,23575
31944,25256,23571
31780,25228,23575
31508,25223,23600
31484,25218,23540
31468,25229,23627
31520,25244,23627
31656,25266,23658
31876,25276,23585
31857,25277,23661
31704,25264,23653
31676,25246,23679
31616,25223,23591
31448,25202,23640
31460,25199,23686
31615,25200,23683
31668,25223,23705
31932,25247,23637
32044,25256,23671
32065,25257,23719
31964,25242,23716
31824,25226,23706
31644,25197,23724
31617,25188,23721
31700,25181,23739
31900,25188,23687
31973,25213,23733
32028,25232,23756
32209,25237,23666
32168,25236,23694
32104,25229,23743
31988,25211,23736
31920,25186,23648
31736,25174,23673
31700,25167,23635
31688,25179,23717
31788,25191,23684
32092,25208,23702
32304,25220,23684
32296,25223,23597
32160,25213,23648
32160,25188,23653
32188,25153,23631
31968,25151,23613
31868,25143,23645
31852,25156,23636
31904,25175,23535
31980,25193,23587
32068,25207,23582
32096,25198,23526
32224,25191,23543
32260,25167,23556
32200,25144,23564
31892,25127,23460
31856,25126,23495
31908,25133,23504
31848,25151,23510
31968,25176,23417
32084,25181,23481
32084,25183,23453
32176,25168,23378
32101,25151,23388
32048,25123,23416
31808,25108,23418
31741,25115,23356
31788,25117,23317
31728,25132,23372
31776,25159,23367
31964,25166,23312
32056,25157,23334
32036,25151,23263
32169,25129,23287
32012,25102,23247
31828,25083,23306
31816,25089,23288
31788,25085,23205
31773,25110,23288
31836,25134,23271
32088,25147,23280
32140,25140,23207
32292,25129,23268
31993,25111,23268
31652,25085,23261
31456,25069,23220
31500,25069,23243
31604,25071,23194
31736,25086,23229
31824,25117,23177
31992,25121,23230
32005,25117,23232
32016,25108,23214
31940,25087,23232
31716,25060,23243
31656,25045,23234
31751,25043,23236
31832,25045,23166
31774,25061,23224
31756,25089,23160
31870,25095,23246
31844,25092,23222
31876,25085,23215
31892,25066,23230
31740,25032,23245
31573,25017,23244
31576,25020,23238
31657,25031,23260
31674,25043,23247
31860,25060,23264
31984,25075,23285
32095,25068,23300
32008,25065,23321
31880,25043,23332
31772,25012,23277
31600,24996,23329
31612,24994,23268
31854,25002,23354
32016,25030,23372
32076,25041,23300
32196,25057,23319
32284,25058,23373
32540,25036,23375
32660,25022,23320
32521,24993,23368
32432,24974,23382
32352,24973,23295
32188,24983,23376
32213,24996,23364
32504,25028,23293
32796,25027,23384
32901,25034,23361
33072,25018,23362
33168,24996,23333
33072,24973,23325
32944,24963,23349
32952,24951,23348
32968,24950,23269
33056,24969,23364
33224,25001,23328
33372,25011,23358
33460,25006,23261
33388,24995,23353
33188,24973,23328
32969,24953,23287
32552,24935,23286
32489,24927,23337
32500,24942,23333
32465,24957,23308
32508,24987,23240
32684,24988,23336
32548,24983,23325
32313,24977,23285
32284,24964,23244
32036,24933,23301
31604,24924,23327
31298,24918,23340
31260,24923,23273
31200,24942,23268
31284,24964,23329
31388,24967,23232
31408,24968,23319
31456,24962,23300
31256,24941,23308
31160,24919,23229
31073,24894,23314
30996,24897,23289
31092,24903,23305
31000,24927,23279
31092,24951,23265
31173,24957,23240
31228,24960,23301
31257,24947,23274
31254,24935,23285
31044,24908,23215
30816,24886,23256
30748,24885,23264
30860,24893,23286
30912,24905,23279
30997,24932,23209
31045,24940,23271
30960,24948,23236
30896,24939,23282
30870,24921,23271
30796,24893,23261
30660,24877,23289
30628,24870,23279
30764,24884,23319
30864,24894,23320
30948,24921,23306
31088,24937,23281
31004,24933,23250
30893,24924,23303
30736,24910,23339
30461,24877,23335
30236,24867,23358
30260,24870,23325
30615,24875,23283
31180,24886,23369
31909,24908,23359
32732,24927,23390
33418,24917,23303
34052,24915,23407
34972,24884,23393
36304,24871,23424
37900,24838,23420
39452,24838,23396
40664,24845,23416
41724,24873,23469
42612,24896,23471
43340,24901,23494
43648,24890,23410
43512,24894,23463
42144,24892,23503
40224,24848,23510
37716,24836,23501
35256,24837,23536
33454,24855,23476
32468,24871,23428
32176,24899,23532
32234,24911,23504
32312,24903,23529
32074,24896,23489
31900,24879,23492
31722,24855,23481
31540,24844,23426
31432,24838,23447
31292,24845,23490
31216,24869,23472
31296,24896,23487
31464,24900,23389
31400,24904,23422
31388,24895,23472
31500,24881,23437
31272,24845,23470
31052,24838,23358
30936,24839,23444
30920,24847,23409
31040,24867,23362
31180,24888,23376
31308,24903,23372
31364,24903,23384
31288,24899,23281
31289,24873,23250
31212,24855,23271
31144,24839,23297
31252,24839,23257
31401,24849,23231
31473,24861,23156
31636,24882,23158
31772,24911,23180
31796,24909,23132
31784,24895,23124
31780,24878,23027
31608,24853,23039
31442,24834,23041
31440,24844,23031
31500,24847,22963
31624,24871,22941
31876,24896,22957
32012,24900,22926
32156,24900,22901
32144,24900,22837
32029,24883,22902
32065,24860,22871
31936,24844,22830
32032,24843,22820
32104,24854,22862
32125,24873,22840
32370,24901,22813
32600,24912,22842
32617,24915,22844
32508,24905,22775
32392,24889,22820
32361,24861,22800
32176,24848,22748
32164,24849,22813
32229,24869,22788
32352,24886,22727
32604,24908,22784
32901,24921,22767
32960,24923,22753
32857,24923,22715
32768,24906,22748
32548,24871,22745
32449,24860,22673
32516,24865,22721
32676,24882,22699
32920,24895,22636
33076,24917,22684
33300,24934,22678
33376,24938,22658
33492,24932,22651
33464,24917,22576
33460,24892,22649
33368,24884,22620
33401,24879,22564
33444,24887,22585
33462,24908,22588
33604,24940,22611
33748,24946,22526
33877,24948,22583
34000,24947,22559
33964,24925,22574
33748,24904,22564
33647,24892,22509
33689,24903,22465
33656,24898,22521
33794,24926,22490
34100,24949,22495
34261,24975,22421
34224,24971,22405
34212,24956,22453
33998,24949,22437
33824,24919,22438
33664,24915,22350
33608,24910,22393
33612,24922,22376
33456,24946,22386
33636,24970,22302
33940,24988,22341
34016,24983,22321
33976,24979,22315
33680,24963,22275
33552,24948,22249
33244,24929,22216
33116,24933,22224
33016,24943,22240
32985,24957,22217
33200,24999,22196
33276,25006,22205
33016,25007,22154
32768,25001,22149
32496,24985,22160
32320,24965,22132
32212,24960,22129
32014,24957,22061
31992,24966,22100
31918,24986,22075
31944,25015,22023
32152,25028,22074
32148,25031,21996
31984,25030,22028
31708,25010,21997
31244,24984,22013
30985,24976,21936
30836,24981,21971
30900,24994,21970
31048,25008,21909
31140,25040,21941
31204,25056,21926
31156,25054,21912
31170,25052,21872
30944,25036,21895
30792,25009,21889
30580,25005,21840
30536,25006,21866
30592,25014,21863
30612,25039,21816
30808,25067,21836
31070,25081,21836
31028,25085,21784
31024,25073,21806
31012,25057,21798
30937,25035,21791
30692,25028,21755
30656,25028,21772
30708,25051,21764
30764,25060,21745
31024,25092,21734
31332,25107,21740
31340,25108,21733
31272,25095,21727
31112,25085,21693
30868,25063,21698
30808,25057,21712
30862,25055,21700
30952,25071,21653
30936,25095,21680
31220,25125,21672
31580,25135,21663
31544,25138,21625
31460,25135,21639
31381,25114,21629
31148,25095,21579
31173,25084,21606
31252,25089,21583
31460,25100,21573
31712,25121,21545
31704,25154,21534
31621,25162,21543
31564,25164,21492
31324,25161,21489
31422,25151,21480
31316,25130,21461
31240,25120,21438
31289,25120,21417
31476,25124,21411
31536,25157,21383
31668,25188,21375
31788,25199,21357
31772,25197,21325
31832,25193,21319
31740,25186,21304
31500,25161,21280
31308,25151,21261
31352,25158,21246
31562,25169,21212
31549,25191,21193
31724,25223,21176
31908,25236,21157
31876,25241,21138
31796,25230,21101
31744,25217,21087
31620,25200,21068
31509,25186,21054
31525,25188,21016
31544,25212,20999
31624,25225,20980
31924,25257,20949
32032,25275,20933
32132,25277,20912
32150,25272,20882
32008,25258,20856
31613,25241,20840
31428,25230,20825
31594,25233,20783
31657,25251,20760
31724,25271,20748
31953,25296,20728
32066,25313,20691
31984,25316,20677
32040,25316,20654
32120,25296,20620
31864,25279,20596
31704,25266,20593
31820,25276,20544
31871,25284,20535
31900,25309,20507
31992,25341,20498
32110,25351,20450
32020,25359,20456
32008,25351,20404
32038,25333,20405
31916,25313,20397
31668,25309,20352
31577,25317,20337
31620,25325,20308
31616,25349,20304
31928,25376,20283
32124,25392,20244
32184,25396,20233
32140,25385,20212
32068,25372,20228
31860,25357,20180
31760,25346,20174
31668,25351,20156
31968,25364,20164
31840,25388,20121
31952,25420,20126
32196,25431,20115
32296,25432,20077
32136,25425,20084
32148,25414,20053
32192,25388,20094
32088,25381,20040
31972,25384,20045
31988,25403,20027
32144,25424,20055
32416,25454,20008
32821,25464,20029
32988,25473,20005
32972,25468,20031
32956,25448,20028
32743,25428,19991
32616,25425,19992
32772,25425,20011
32936,25445,19996
33109,25467,20005
33172,25493,19978
33332,25513,19988
33500,25516,20005
33476,25511,19975
33492,25486,19984
33438,25466,19980
33440,25460,19959
33524,25476,19968
33589,25489,19984
33645,25508,19946
33776,25537,19983
33888,25547,19940
33729,25557,19950
33592,25541,19954
33508,25532,19920
33220,25513,19908
33004,25496,19943
32952,25511,19902
32820,25524,19894
32944,25544,19925
33172,25580,19876
33064,25589,19874
32704,25594,19905
32376,25593,19876
32208,25572,19894
31980,25548,19851
31956,25541,19857
32036,25544,19869
31966,25556,19873
32024,25583,19840
32072,25615,19831
32000,25635,19866
31886,25633,19841
31788,25631,19856
31966,25615,19829
32050,25590,19840
31936,25583,19840
31760,25588,19864
31628,25604,19836
31672,25623,19805
31944,25648,19831
32310,25669,19816
32364,25668,19817
32332,25660,19831
32216,25653,19800
31976,25629,19835
31800,25621,19799
31573,25624,19808
31676,25639,19826
31840,25661,19833
31900,25687,19801
32177,25708,19784
32260,25714,19828
32286,25703,19785
32256,25684,19772
31974,25665,19829
31820,25658,19781
31892,25663,19796
31984,25679,19841
32024,25703,19786
31961,25735,19810
32156,25744,19780
32193,25744,19785
32032,25741,19832
31700,25732,19780
31592,25705,19771
31876,25701,19824
32428,25700,19781
32932,25708,19777
33526,25733,19800
34320,25759,19788
35344,25771,19804
36592,25768,19817
38112,25766,19789
39660,25751,19780
40921,25734,19836
41876,25710,19831
42800,25718,19792
43500,25737,19802
43964,25764,19855
44224,25781,19812
43944,25815,19852
42320,25809,19832
40404,25797,19844
38020,25802,19866
35792,25775,19864
33888,25765,19856
32804,25764,19857
32484,25780,19918
32560,25809,19873
32804,25834,19879
32964,25853,19922
32868,25848,19911
32725,25855,19921
32624,25829,19988
32336,25805,19948
32040,25802,20009
31768,25806,19994
31736,25825,20026
31844,25845,20055
31904,25875,20048
31897,25890,20087
31888,25884,20109
31908,25892,20141
31818,25877,20150
31657,25860,20182
31512,25852,20249
31501,25855,20231
31508,25863,20266
31516,25893,20333
31717,25925,20312
31864,25933,20344
31984,25941,20403
31972,25938,20389
31988,25924,20428
31836,25902,20470
31610,25900,20426
31492,25906,20487
31576,25921,20495
31768,25932,20516
32032,25969,20548
32256,25991,20548
32372,25995,20588
32448,25987,20560
32268,25976,20583
32068,25957,20584
31892,25949,20603
31812,25956,20607
31894,25964,20633
31960,25984,20644
32120,26023,20640
32417,26032,20681
32469,26033,20675
32348,26031,20685
32336,26025,20721
32236,25996,20723
32204,25986,20749
32208,25988,20747
32388,26000,20785
32468,26022,20765
32520,26053,20780
32696,26070,20792
32846,26071,20824
32864,26064,20812
32936,26053,20823
32724,26025,20837
32593,26020,20816
32552,26023,20837
32580,26036,20839
32636,26053,20854
32736,26081,20842
33020,26094,20836
33136,26100,20829
33289,26097,20852
33140,26081,20836
33089,26059,20824
32980,26044,20850
32992,26041,20835
33116,26057,20807
33324,26076,20812
33668,26110,20828
33920,26119,20791
34114,26119,20786
34120,26119,20781
33872,26105,20780
33685,26078,20783
33556,26065,20773
33504,26076,20765
33540,26087,20742
33712,26100,20734
33916,26132,20739
34156,26144,20706
34260,26136,20700
34290,26130,20727
34296,26124,20657
34090,26098,20656
34016,26087,20636
33992,26098,20628
34052,26100,20641
34108,26117,20580
34216,26150,20575
34485,26164,20550
34669,26168,20556
34572,26164,20525
34268,26151,20497
33856,26119,20476
33612,26116,20461
33620,26111,20457
33844,26118,20420
33872,26141,20394
33960,26167,20385
34072,26181,20404
33956,26187,20359
33756,26182,20323
33689,26168,20313
33508,26144,20287
33428,26130,20276
33176,26132,20308
33160,26148,20225
33204,26168,20211
33144,26197,20254
33272,26212,20180
33204,26215,20183
33032,26209,20188
32920,26189,20167
32640,26175,20156
32400,26157,20164
32196,26164,20113
32188,26181,20127
32144,26196,20121
32204,26223,20093
32228,26241,20092
32249,26244,20134
32250,26236,20088
31996,26229,20072
31775,26201,20138
31520,26199,20076
31420,26194,20079
31408,26204,20132
31221,26223,20081
31404,26247,20105
31636,26271,20102
31482,26276,20116
31358,26261,20113
31212,26244,20113
31180,26225,20105
31268,26215,20133
31168,26214,20138
31240,26228,20169
31376,26244,20137
31518,26263,20156
31632,26284,20186
31752,26292,20164
31792,26275,20178
31824,26265,20174
31573,26241,20255
31366,26229,20200
31308,26228,20213
31276,26233,20242
31356,26254,20260
31664,26287,20326
31872,26293,20285
31840,26297,20330
31868,26285,20356
31828,26285,20346
31844,26254,20384
31684,26244,20388
31796,26237,20406
31716,26252,20468
31672,26265,20422
31784,26292,20439
31912,26308,20495
32133,26308,20471
32232,26301,20511
32284,26291,20488
32244,26269,20500
32004,26252,20529
31956,26247,20560
32004,26257,20538
32064,26270,20574
32148,26301,20560
32308,26317,20566
32304,26313,20565
32182,26310,20588
32125,26294,20591
32040,26263,20599
31949,26254,20625
31996,26255,20608
31992,26258,20624
32036,26278,20612
32173,26298,20634
32324,26312,20639
32384,26322,20670
32436,26308,20637
32472,26297,20668
32268,26273,20670
32040,26263,20653
32016,26253,20661
32033,26263,20664
32064,26276,20713
32212,26306,20672
32372,26313,20684
32336,26316,20721
32432,26311,20689
32312,26298,20685
32172,26273,20717
31981,26257,20713
31920,26254,20739
31936,26260,20703
31960,26276,20709
32156,26303,20707
32284,26320,20753
32356,26327,20716
32309,26304,20735
32244,26296,20725
32096,26275,20717
32024,26256,20733
31980,26247,20765
32036,26258,20731
32021,26276,20724
32166,26307,20767
32380,26319,20735
32321,26319,20735
32281,26315,20776
32240,26300,20757
32176,26271,20750
32002,26252,20788
31949,26253,20754
31952,26257,20773
31948,26271,20764
32084,26296,20764
32276,26316,20776
32348,26318,20833
32348,26311,20794
32140,26301,20820
32060,26265,20844
31928,26255,20829
31930,26247,20853
32004,26254,20847
32005,26265,20873
31968,26288,20910
32116,26315,20897
32176,26308,20900
32188,26308,20924
32169,26289,20948
32076,26264,20957
31980,26245,20957
31961,26244,20970
32000,26246,20992
32017,26262,20993
32225,26288,21029
32520,26304,21026
32772,26303,21055
32772,26306,21071
32680,26278,21074
32757,26252,21092
32600,26244,21108
32632,26242,21109
32801,26238,21135
32836,26249,21156
33116,26279,21174
33340,26291,21164
33340,26298,21164
33216,26295,21167
33265,26281,21186
33300,26248,21193
32917,26229,21205
32876,26223,21216
32864,26228,21209
33146,26244,21238
33592,26271,21243
33896,26280,21238
34068,26287,21253
34160,26278,21260
34200,26268,21266
34108,26239,21287
33766,26220,21287
33600,26215,21284
33473,26229,21292
33448,26231,21330
33361,26260,21304
33559,26279,21324
33644,26281,21328
33588,26272,21353
33386,26254,21340
33126,26220,21358
32724,26212,21359
32460,26208,21378
32397,26213,21380
32252,26225,21390
32144,26250,21421
32308,26270,21406
32372,26268,21418
32381,26256,21444
32436,26245,21429
32266,26208,21444
31968,26200,21461
31880,26191,21446
31880,26196,21469
31892,26207,21476
32013,26225,21484
32308,26250,21477
32464,26247,21492
32376,26239,21500
32332,26223,21499
32180,26193,21506
31920,26175,21500
31854,26173,21516
31857,26179,21516
31896,26191,21520
32105,26215,21520
32320,26225,21518
32488,26228,21521
32445,26221,21541
32360,26199,21521
32256,26180,21533
31968,26157,21528
31824,26148,21542
31878,26164,21532
31892,26164,21525
32074,26190,21540
32456,26207,21545
32680,26208,21540
32545,26199,21552
32280,26180,21549
31992,26154,21543
31624,26137,21540
31624,26132,21546
31564,26135,21535
31540,26140,21562
31657,26177,21527
32364,26182,21536
32893,26180,21537
33472,26177,21536
34016,26165,21540
34608,26132,21537
35280,26103,21538
36456,26092,21532
37884,26103,21533
39541,26103,21540
41076,26119,21524
42484,26141,21537
43500,26143,21541
44105,26126,21537
44476,26125,21553
44608,26095,21543
43984,26092,21552
42256,26100,21544
40356,26072,21544
37924,26089,21562
35960,26118,21564
34413,26134,21562
33453,26143,21576
33038,26128,21573
33016,26119,21572
32878,26089,21582
32657,26068,21591
32532,26068,21590
32532,26071,21604
32440,26085,21605
32508,26101,21609
32512,26131,21622
32468,26129,21620
32468,26119,21642
32325,26097,21666
32140,26070,21663
31844,26055,21681
31664,26039,21690
31668,26049,21709
31712,26063,21724
31768,26084,21733
31892,26103,21748
31916,26097,21750
32104,26088,21775
32028,26071,21793
31968,26044,21804
31852,26022,21816
31776,26015,21818
31720,26023,21828
31845,26031,21857
32104,26052,21840
32248,26065,21862
32396,26067,21872
32401,26063,21880
32417,26038,21877
32300,26013,21875
32164,25990,21893
32236,25991,21894
32320,25987,21900
32572,25998,21906
32548,26023,21919
32664,26040,21903
32829,26042,21922
32620,26028,21927
32496,26015,21916
32432,25988,21942
32348,25965,21952
32324,25957,21957
32364,25961,21952
32536,25968,21944
32600,25990,21991
32848,26006,21999
32988,26008,22016
32974,26000,22012
33084,25987,22037
33072,25952,22046
33053,25927,22042
32948,25929,22063
32832,25929,22064
32908,25939,22070
33072,25956,22069
33265,25980,22084
33364,25975,22084
33464,25967,22058
33536,25950,22064
33556,25922,22072
33320,25902,22073
33158,25893,22045
33244,25903,22048
33476,25905,22062
33636,25925,22045
33788,25945,22053
33916,25944,22018
33916,25941,22007
33984,25924,22010
33920,25892,22011
33794,25873,21999
33824,25870,21982
33824,25868,21975
33920,25885,21973
34120,25909,21963
34368,25914,21964
34532,25917,21942
34560,25904,21928
34496,25892,21917
34528,25863,21921
34324,25844,21913
34256,25833,21904
34404,25838,21891
34488,25848,21885
34704,25878,21872
34952,25884,21861
34928,25892,21850
34836,25878,21849
34840,25861,21829
34726,25837,21812
34533,25825,21820
34381,25810,21812
34392,25812,21783
34464,25828,21782
34492,25844,21777
34684,25863,21774
34632,25863,21756
34612,25853,21752
34488,25845,21753
34364,25808,21738
34144,25791,21732
34048,25781,21735
33925,25785,21730
33856,25801,21719
33956,25818,21723
34128,25833,21726
34144,25834,21714
33980,25828,21702
33888,25809,21712
33717,25782,21708
33460,25762,21725
33340,25749,21705
33248,25758,21712
33164,25769,21718
33269,25797,21716
33100,25808,21712
33032,25804,21720
32980,25792,21735
32888,25780,21720
32640,25756,21735
32320,25729,21740
32108,25727,21735
32260,25733,21741
32232,25742,21756
32028,25770,21748
31900,25780,21754
31904,25783,21766
31892,25763,21778
31828,25756,21764
31624,25727,21782
31465,25708,21796
31564,25701,21783
31444,25703,21798
31400,25705,21804
31520,25737,21815
31764,25751,21818
31797,25753,21833
31768,25740,21812
31776,25731,21836
31732,25700,21840
31516,25681,21844
31356,25669,21833
31528,25676,21848
31416,25682,21862
31664,25708,21857
31904,25727,21848
32005,25726,21863
31994,25717,21872
31692,25702,21860
31616,25670,21868
31594,25649,21868
31652,25640,21869
31662,25644,21868
31736,25655,21864
31893,25676,21861
32104,25698,21842
32288,25691,21846
32052,25676,21842
32156,25671,21829
32032,25638,21810
31808,25616,21820
31756,25607,21827
31928,25607,21783
32172,25627,21788
32253,25653,21781
32216,25660,21755
32200,25659,21760
32192,25652,21748
32164,25637,21737
32081,25606,21712
31936,25580,21725
31872,25581,21719
31788,25586,21688
31920,25596,21677
32184,25623,21688
32463,25631,21678
32464,25628,21676
32480,25625,21648
32388,25605,21649
32408,25573,21643
32160,25564,21618
32068,25553,21619
31980,25552,21601
32096,25565,21596
32436,25585,21600
32596,25607,21583
32608,25601,21559
32420,25593,21564
32352,25575,21557
32292,25540,21541
32085,25529,21540
31880,25516,21527
32008,25524,21532
32092,25534,21497
32068,25559,21510
32308,25573,21498
32458,25573,21498
32436,25571,21480
32384,25546,21482
32269,25513,21476
32160,25495,21473
31996,25490,21480
32080,25495,21446
32012,25504,21442
32009,25527,21456
32432,25539,21452
32540,25542,21460
32493,25533,21454
32446,25518,21448
32244,25487,21445
32008,25473,21452
31968,25465,21468
31817,25479,21479
32064,25479,21461
32252,25500,21462
32392,25510,21479
32468,25517,21490
32348,25496,21477
32152,25498,21496
32160,25465,21482
32096,25440,21500
32088,25435,21518
32173,25439,21515
32208,25457,21540
32320,25471,21529
32500,25485,21553
32580,25480,21574
32508,25476,21569
32560,25461,21591
32332,25434,21607
32144,25413,21630
31956,25407,21625
32024,25409,21646
32140,25421,21664
32212,25445,21693
32440,25460,21689
32460,25465,21720
32460,25448,21744
32573,25439,21732
32672,25404,21777
32556,25387,21790
32496,25385,21823
32712,25390,21811
32872,25396,21842
33112,25418,21871
33352,25436,21861
33272,25439,21903
33304,25430,21924
33344,25420,21918
33252,25385,21960
33023,25364,21983
32951,25357,22015
32980,25360,21993
33172,25368,22048
33552,25400,22064
33864,25420,22092
34053,25413,22081
34164,25409,22118
34100,25395,22150
33972,25359,22184
33888,25336,22173
33968,25333,22202
33957,25345,22232
33782,25351,22238
33672,25374,22271
33684,25391,22295
33720,25397,22308
33624,25396,22288
33416,25375,22349
33164,25351,22360
32864,25329,22346
32693,25325,22411
32568,25330,22427
32545,25342,22407
32508,25371,22477
32504,25388,22496
32488,25391,22471
32305,25377,22540
32225,25364,22555
32348,25332,22588
32124,25317,22564
31882,25313,22612
31888,25319,22628
31825,25328,22637
31988,25361,22679
32128,25383,22688
32148,25378,22682
32068,25376,22708
31954,25352,22756
31900,25327,22757
31672,25312,22747
31636,25304,22760
31688,25309,22811
31806,25319,22820
31824,25349,22848
31861,25366,22869
32024,25372,22862
31872,25372,22900
31816,25351,22871
31848,25321,22919
31600,25306,22958
31576,25299,22927
31689,25304,23007
31852,25321,23012
31981,25343,23030
32132,25363,23000
32202,25356,23006
31972,25351,23065
31896,25340,23089
31800,25305,23118
31612,25290,23151
31461,25289,23090
31397,25295,23181
31388,25303,23193
31358,25333,23199
31364,25347,23172
31636,25351,23262
32076,25335,23238
32548,25325,23273
32772,25283,23320
33304,25271,23356
33980,25265,23376
34932,25269,23404
36136,25283,23338
37592,25297,23437
39428,25313,23452
40884,25312,23492
42080,25297,23526
42860,25285,23476
43420,25259,23550
43744,25269,23596
44020,25244,23588
43524,25247,23626
41740,25249,23599
39832,25289,23669
37540,25316,23713
35460,25317,23648
33800,25308,23753
32840,25297,23783
32416,25267,23792
32176,25249,23743
32000,25245,23812
32112,25253,23881
32188,25267,23897
32218,25284,23939
32232,25296,23896
32044,25305,23998
31896,25292,24001
31676,25276,24060
31488,25253,24029
31365,25233,24031
31208,25230,24133
31185,25236,24178
31144,25250,24186
31212,25274,24161
31433,25292,24295
31536,25297,24288
31408,25281,24356
31348,25271,24277
31300,25241,24405
31188,25217,24404
31056,25216,24460
31085,25220,24409
31184,25237,24485
31344,25253,24532
31588,25273,24583
31673,25275,24532
31720,25263,24633
31668,25252,24660
31652,25223,24585
31476,25200,24677
31450,25197,24711
31564,25203,24728
31708,25216,24696
31828,25232,24812
32012,25261,24814
32096,25255,24820
32068,25247,24812
32068,25239,24815
32012,25206,24919
31800,25190,24960
31788,25177,24944
31888,25188,25024
32096,25196,25095
32292,25219,25087
32492,25232,25159
32540,25236,25213
32484,25228,25161
32392,25214,25349
32304,25189,25400
32252,25148,25390
32225,25156,25466
32289,25167,25412
32452,25180,25607
32612,25204,25643
32888,25220,25655
32928,25221,25756
32888,25215,25764
33036,25197,25853
33020,25163,25863
32912,25145,26018
32817,25135,26018
32856,25155,26068
32917,25149,26130
33054,25176,26216
33324,25198,26274
33444,25197,26262
33516,25191,26474
33521,25164,26491
33505,25140,26488
33468,25108,26700
33441,25116,26734
33504,25123,26838
33668,25141,26825
33876,25157,27026
34112,25173,27096
34212,25170,27053
34222,25164,27317
34240,25150,27418
34260,25122,27388
34076,25095,27644
34128,25087,27685
34252,25106,27772
34345,25111,27998
34456,25136,28102
34636,25157,28103
34768,25151,28388
34744,25151,28434
34732,25132,28500
34632,25095,28815
34408,25079,28925
34392,25069,28944
34424,25085,29143
34388,25084,29432
34464,25119,29584
34618,25138,29607
34640,25138,29921
34640,25127,30017
34576,25115,30294
34412,25084,30277
34256,25064,30635
34116,25060,30727
34036,25047,30852
34088,25081,31192
34180,25096,31412
34260,25121,31430
34276,25121,31733
34148,25115,31950
34074,25095,32038
33972,25065,32390
33664,25048,32597
33372,25052,32647
33216,25047,33021
33156,25058,33258
33216,25089,33331
33364,25110,33664
33288,25105,33789
33140,25105,34108
32928,25085,34310
32708,25052,34532
32364,25034,34668
32216,25032,34877
32161,25036,35021
32196,25054,35396
32248,25079,35515
32316,25095,35863
32237,25093,36140
31964,25093,36188
31776,25073,36517
31818,25049,36701
31752,25026,36916
31656,25030,37256
31548,25030,37493
31524,25040,37665
31572,25064,37683
31765,25087,38047
31904,25090,38364
31928,25080,38364
31820,25071,38697
31644,25040,38887
31424,25028,39193
31350,25019,39181
31392,25021,39580
31504,25036,39781
31680,25066,39994
31949,25079,40311
32008,25084,40348
32073,25084,40668
31993,25068,40756
31836,25036,40984
31584,25021,41272
31484,25018,41536
31512,25026,41640
31669,25037,41559
31837,25067,42107
32061,25087,42428
32164,25084,42217
32140,25082,42631
32084,25063,42759
32024,25035,43036
31876,25016,43391
31756,25014,43271
31764,25020,43784
31816,25033,43876
32012,25060,44100
32172,25077,44048
32356,25085,44540
32364,25076,44701
32288,25057,44612
32104,25037,44974
31840,25018,45009
31772,25011,45383
31860,25021,45542
31920,25029,45785
32012,25060,45864
32252,25073,45831
32436,25076,46216
32436,25057,46289
32430,25052,46573
32256,25025,46652
32044,25008,46896
31948,25004,47021
32000,25014,47284
31948,25023,47389
32088,25053,47564
32224,25074,47732
32296,25076,47956
32336,25062,48036
32284,25048,48198
32200,25023,48439
32080,25005,48536
32024,24994,48719
32065,25009,48815
32140,25016,49052
32304,25047,49189
32548,25065,49094
32533,25060,49396
32452,25057,49507
32440,25039,49713
32448,25006,49892
32216,24993,50071
32108,24990,50176
32140,24995,50308
32256,25005,50404
32432,25031,50316
32558,25045,50729
32520,25061,50913
32528,25044,50725
32724,25029,51183
32708,25004,51300
32328,24986,51424
32214,24979,51532
32180,24983,51544
32176,24991,51839
32284,25019,51884
32504,25037,52004
32536,25039,52217
32524,25034,52332
32516,25029,52400
32304,24997,52592
32100,24972,52471
32140,24967,52864
32192,24975,52900
32329,24988,53068
32452,25009,53219
32692,25034,53255
32760,25036,53399
32640,25034,53551
32544,25013,53620
32528,24984,53832
32308,24967,53831
32176,24967,54072
32168,24967,54101
32252,24983,54327
32496,25012,54300
32872,25029,54524
33072,25027,54557
33028,25016,54732
33095,25001,54805
33177,24973,54938
33128,24953,54972
33192,24951,55164
33176,24954,55270
33113,24975,55400
33012,24997,55517
33184,25019,55644
33412,25015,55698
33592,25012,55745
33573,24996,55847
33504,24964,56020
33416,24954,56140
33408,24946,56228
33422,24951,56242
33616,24962,56444
33728,24996,56556
33916,25006,56551
34069,25005,56741
34144,25005,56853
34244,24996,56811
34168,24964,56990
33892,24943,57049
33664,24949,57094
33508,24948,57273
33472,24964,57316
33380,24993,57412
33390,25007,57580
33413,25011,57648
33389,25002,57636
33360,24989,57812
33108,24961,57852
32736,24944,57991
32496,24937,58009
32376,24940,58161
32325,24961,58255
32576,24984,58241
32716,25003,58436
32652,25009,58095
32522,25006,58524
32552,24984,58660
32468,24961,58374
32256,24940,58820
32036,24930,58881
32037,24939,58887
32148,24957,58932
32212,24991,59056
32372,25011,59191
32600,25002,59199
32464,25001,58866
32308,24987,59328
32156,24959,59322
31976,24937,59472
31888,24935,59381
32048,24941,59492
32344,24952,59615
32324,24980,59593
32456,24999,59677
32317,24996,59677
32212,24996,59692
31964,24981,59664
32080,24959,59516
31976,24938,59720
32049,24932,59807
32020,24941,59772
32092,24949,59744
32156,24972,59836
32312,24996,59717
32368,25000,59822
32160,24994,59712
32013,24980,59772
31784,24956,59792
31576,24934,59716
31516,24928,59604
31724,24932,59669
32228,24949,59612
32576,24967,59652
33164,24989,59514
33840,24985,59437
34492,24983,59497
35285,24974,59367
36456,24946,59399
37533,24933,59197
38793,24920,59295
40020,24919,59143
41001,24923,59104
41556,24948,59017
42264,24959,59057
42976,25003,58949
43436,24979,58797
42912,24953,58428
41092,24928,58791
38748,24911,58616
36476,24921,58640
34708,24917,58172
33340,24935,58501
32488,24957,58375
32196,24974,58313
32232,24977,58340
32288,24972,58264
32472,24960,58132
32452,24932,57708
32224,24912,58041
32041,24908,57991
31980,24913,57917
31968,24925,57853
32048,24948,57863
32132,24964,57628
32140,24969,57703
32078,24967,57671
32044,24953,57607
31980,24922,57462
31652,24903,57455
31516,24903,57407
31568,24901,57369
31564,24919,57280
31670,24940,57148
31784,24959,56728
31864,24963,57136
31916,24957,57008
31904,24943,57044
31856,24918,56999
31680,24893,56839
31604,24885,56495
31584,24895,56764
31652,24908,56615
31876,24935,56590
32272,24951,56487
32416,24953,56516
32249,24940,56360
32188,24934,56349
32024,24905,56284
31904,24880,55868
31796,24877,56124
31760,24885,56039
31828,24892,55990
32080,24922,55927
32404,24933,55860
32545,24934,55811
32468,24935,55668
32436,24917,55368
32560,24894,55606
32564,24869,55469
32340,24865,55512
32292,24870,55367
32296,24878,55373
32380,24902,55328
32544,24926,55261
32773,24929,55205
32884,24922,55220
32900,24905,55113
32788,24876,54876
32512,24859,55085
32540,24860,55028
32630,24855,54919
32728,24868,54791
32972,24893,54807
33248,24910,54789
33284,24917,54765
33263,24911,54628
33210,24895,54655
33128,24871,54447
33080,24838,54535
32996,24835,54497
33056,24838,54322
33352,24859,54297
33562,24878,54309
33680,24903,54151
33834,24886,54189
33872,24896,53849
33776,24877,54068
33772,24849,53924
33636,24834,53967
33588,24831,53828
33624,24829,53724
33728,24845,53655
33840,24876,53652
34154,24884,53665
34352,24882,53591
34356,24881,53495
34332,24870,53428
34236,24839,53375
34120,24820,53341
34020,24809,53281
34048,24817,52861
34204,24833,53164
34432,24858,53085
34628,24871,52993
34637,24879,52973
34468,24867,52496
34277,24852,52893
34096,24826,52743
33964,24807,52764
33956,24797,52680
34020,24801,52564
34112,24816,52624
34292,24847,52487
34378,24858,52471
34320,24863,52359
34228,24860,52366
34124,24839,52285
34096,24815,52301
33846,24786,52164
33664,24788,52188
33557,24791,51847
33472,24817,52112
33508,24833,52077
33676,24852,51948
33720,24853,52000
33700,24847,51644
33493,24829,51880
33261,24807,51868
33004,24784,51652
32789,24782,51797
32761,24773,51719
32776,24792,51719
32737,24831,51687
32937,24838,51429
32928,24846,51625
32724,24837,51607
32517,24822,51549
32188,24797,51436
31888,24772,51510
31712,24765,51356
31700,24769,51444
31712,24788,51316
31896,24813,51356
32092,24833,51295
32064,24831,51271
31896,24828,51236
31784,24810,51206
31804,24780,51236
31640,24765,51128
31409,24756,51145
31410,24765,50999
31573,24781,51104
31676,24801,51077
31904,24823,50993
31900,24820,50975
31800,24815,50946
31736,24799,50928
31628,24774,50864
31528,24744,50911
31544,24748,50805
31576,24756,50668
31608,24764,50740
31728,24788,50809
31900,24805,50668
32000,24815,50756
31958,24803,50660
31912,24795,50628
31919,24765,50652
31790,24743,50591
31804,24741,50668
31928,24740,50439
31960,24758,50605
32056,24782,50512
32121,24799,50486
32236,24802,50548
32292,24796,50439
32288,24777,50460
32101,24758,50439
31952,24732,50317
31932,24732,50349
31936,24737,50367
32060,24748,50334
32100,24773,50301
32269,24788,50237
32352,24798,50212
32320,24786,49999
32349,24772,50141
32288,24740,50109
32149,24732,49824
32012,24724,49943
32036,24727,49772
32224,24735,49957
32520,24761,49937
32685,24780,49831
32704,24788,49780
32584,24775,49756
32504,24764,49693
32376,24740,49649
32148,24729,49691
32064,24710,49623
32108,24715,49484
32124,24732,49569
32126,24759,49440
32292,24768,49389
32361,24778,49444
32416,24773,49396
32404,24754,49230
32396,24727,49308
32310,24711,49272
32188,24711,48842
32168,24711,49100
32408,24716,49141
32544,24748,49069
32620,24764,48990
32576,24768,49031
32524,24761,48860
32528,24758,48980
32380,24723,48917
32285,24705,48583
32216,24697,48824
32184,24700,48812
32156,24717,48428
32161,24741,48775
32332,24758,48637
32524,24761,48631
32558,24751,48447
32560,24749,48629
32506,24717,48559
32408,24697,48558
32176,24694,48508
32176,24690,48391
32280,24709,48199
32308,24735,48447
32600,24751,48323
32658,24757,48373
32604,24745,48260
32516,24735,47967
32438,24709,48287
32312,24688,48191
32180,24685,48204
32196,24687,48196
32228,24704,48151
32240,24729,47904
32481,24741,48045
32616,24745,48084
32712,24740,47911
32752,24725,48046
32733,24701,47928
32628,24679,47969
32677,24675,47839
32744,24673,47934
32820,24692,47897
33014,24708,47860
33288,24740,47751
33476,24739,47732
33388,24733,47807
33136,24716,47781
32905,24690,47576
32852,24668,47711
32860,24665,47657
33009,24672,47684
33228,24679,47651
33423,24704,47623
33629,24726,47578
33780,24733,47572
33728,24715,47453
33728,24719,47524
33736,24681,47448
33724,24660,47340
33632,24660,47295
33736,24667,47232
33780,24682,47048
33765,24708,47332
33928,24729,47320
33910,24725,47276
33648,24721,47276
33388,24711,47239
33169,24677,47247
32960,24662,47033
32809,24656,47215
32784,24668,47144
32760,24685,46976
32740,24702,47127
32768,24721,47025
32640,24727,46964
32512,24711,47020
32500,24700,46872
32372,24684,47005
32180,24667,46868
32060,24663,46868
31916,24661,46568
31916,24677,46846
32128,24703,46855
32441,24722,46719
32634,24716,46623
32600,24710,46748
32468,24711,46679
32280,24679,46719
31992,24665,46434
31975,24648,46696
31936,24658,46616
32045,24679,46596
32132,24700,46532
32176,24712,46375
32261,24718,46549
32252,24717,46436
32148,24695,46445
32173,24673,46428
32129,24652,46393
32048,24650,46365
32016,24654,46321
31972,24666,46180
32104,24692,46309
32276,24711,46180
32433,24714,46214
32588,24709,46151
32544,24704,46079
32324,24677,45871
31908,24655,46121
31632,24652,46002
31572,24653,46028
31480,24672,45789
31520,24694,46000
31880,24708,45949
32309,24719,45970
32800,24711,45829
33216,24702,45764
33652,24673,45568
33980,24652,45508
34644,24638,45796
35616,24644,45703
37032,24661,45644
38734,24680,45704
40285,24696,45584
41424,24697,45645
42100,24681,45500
42792,24690,45634
43428,24679,45472
43744,24631,45543
43540,24653,45336
41996,24649,45535
40068,24660,45380
37988,24679,45292
36188,24707,45464
34716,24710,45316
33616,24711,45183
32980,24704,45384
32698,24678,45268
32496,24650,45036
32377,24646,45300
32336,24652,45216
32372,24665,45156
32368,24692,45245
32468,24718,45172
32584,24727,45063
32453,24717,45196
32284,24706,45120
32056,24679,44980
31636,24656,45154
31428,24654,45084
31370,24648,44948
31510,24670,44984
31597,24692,44977
31833,24712,45084
31860,24721,44975
31876,24719,44820
31864,24704,45012
31761,24676,44908
31613,24661,44981
31536,24657,44841
31520,24662,44919
31564,24677,44744
31736,24703,44820
31936,24719,44836
31980,24725,44821
32036,24722,44756
32104,24708,44476
32120,24686,44743
32012,24666,44628
31913,24652,44551
31860,24662,44601
31924,24674,44476
32062,24697,44573
32296,24720,44423
32504,24725,44268
32446,24727,44440
32388,24714,44373
32376,24690,44244
32189,24662,44033
32144,24660,44333
32240,24666,44132
32264,24679,44007
32404,24703,44196
32656,24725,44197
32755,24725,43876
32796,24732,44024
32821,24719,43967
32748,24686,44133
32572,24664,44067
32600,24662,44076
32612,24665,43916
32692,24682,43852
32756,24705,44016
32904,24725,43958
33056,24732,43949
33104,24727,43900
33172,24719,43589
33068,24690,43740
33017,24666,43671
33124,24659,43468
33264,24671,43669
33268,24684,43388
33342,24708,43596
33456,24730,43492
33568,24738,43613
33676,24741,43520
33700,24725,43312
33656,24701,43485
33540,24679,43359
33437,24679,43228
33444,24671,43337
33640,24696,43327
33888,24713,42944
34168,24735,43092
34324,24742,43060
34404,24730,43179
34360,24733,43092
34272,24701,42847
34164,24679,43037
34028,24679,43015
34052,24676,42796
34216,24701,42758
34389,24717,42625
34620,24741,42694
34756,24748,42764
34760,24747,42748
34776,24741,42775
34712,24708,42336
34528,24691,42612
34444,24687,42671
34420,24694,42437
34301,24701,42543
34316,24722,42384
34413,24751,42533
34484,24757,42376
34428,24759,42192
34400,24741,42367
34364,24715,42209
34190,24703,42359
34024,24690,42204
34021,24697,41863
34008,24708,42176
34056,24735,42085
34220,24757,42012
34314,24771,42068
34260,24761,41676
34024,24759,41981
33696,24724,42015
33376,24708,41807
33262,24695,41901
33308,24708,41825
33228,24721,41904
33144,24741,41437
33189,24770,41712
33166,24777,41851
33104,24780,41588
33176,24763,41789
33036,24741,41335
32712,24713,41524
32424,24705,41545
32304,24716,41669
32357,24732,41513
32412,24750,41620
32512,24779,41466
32560,24790,41087
32524,24785,41364
32420,24776,41117
32200,24748,41339
31932,24728,41231
31744,24727,41293
31778,24733,41404
31944,24748,41110
31990,24775,41180
32100,24791,41124
32128,24804,41156
32048,24804,41073
31968,24798,41073
31916,24759,41007
31746,24747,40967
31712,24743,41016
31784,24743,41024
31909,24754,41124
32072,24781,40711
32180,24807,40824
32200,24809,40869
32156,24810,40927
32072,24802,40837
32073,24781,40775
31929,24767,40839
31832,24751,40952
31820,24763,40484
31892,24775,40701
32005,24799,40488
32244,24817,40653
32524,24834,40667
32609,24822,40609
32500,24812,40554
32377,24796,40583
32204,24777,40592
32052,24775,40574
31937,24774,40439
32044,24789,40596
32188,24809,40605
32365,24839,40708
32448,24847,40557
32472,24847,40628
32576,24828,40512
32556,24806,40519
32304,24788,40485
32246,24780,40505
32261,24783,40285
32368,24791,40287
32486,24817,40225
32708,24840,40380
32948,24852,40260
32904,24845,40312
32660,24839,40380
32465,24813,39943
32220,24792,40157
32056,24791,40320
32200,24802,40017
32420,24804,40122
32428,24838,40103
32630,24862,40165
32804,24865,40120
32784,24863,40140
32812,24857,39912
32612,24830,40084
32336,24808,39981
32281,24799,40128
32264,24808,39732
32276,24815,39993
32273,24853,39682
32448,24877,39976
32549,24885,39960
32609,24872,39804
32684,24877,40021
32584,24847,39841
32353,24833,39556
32234,24812,39875
32192,24825,39796
32236,24839,39842
32385,24863,39807
32564,24887,39832
32621,24887,39669
32622,24888,39741
32664,24883,39655
32636,24859,39711
32460,24839,39760
32200,24833,39614
32077,24834,39623
32038,24839,39519
32036,24876,39471
32228,24903,39526
32452,24903,39380
32565,24905,39503
32560,24889,39453
32484,24876,39336
32208,24847,39444
32132,24839,39268
32100,24846,39324
32148,24859,39172
32240,24879,39303
32434,24908,38949
32448,24916,39188
32416,24919,39207
32344,24900,39061
32369,24877,39081
32356,24861,39164
32336,24847,38958
32344,24861,38828
32450,24865,38930
32464,24898,39044
32844,24919,38836
33160,24930,38892
33230,24929,38800
33161,24919,38877
32996,24888,38702
32700,24874,38500
32484,24861,38765
32636,24864,38690
32972,24887,38615
33141,24911,38740
33300,24935,38580
33173,24940,38632
33222,24943,38672
33404,24925,38477
33325,24909,38544
33288,24893,38437
33328,24877,38279
33244,24888,38444
33296,24897,38444
33356,24925,38296
33524,24949,38359
33640,24952,38382
33528,24948,38284
33342,24942,38254
33076,24920,38111
32744,24901,38168
32580,24895,38167
32605,24896,38023
32600,24910,38096
32448,24938,38055
32548,24960,37988
32596,24978,38116
32437,24967,37845
32168,24954,37938
31914,24940,38001
31628,24915,37747
31516,24919,37836
31442,24909,37808
31500,24925,37812
31468,24958,37501
31692,24980,37704
31805,24987,37645
31729,24987,37692
31716,24973,37622
31648,24950,37535
31488,24933,37572
31476,24927,37448
31388,24928,37280
31460,24943,37493
31592,24973,37464
31752,24996,37499
31937,24998,37359
31874,24995,37132
31748,24989,37359
31508,24963,37309
31284,24943,37295
31116,24941,37103
31209,24945,37253
31356,24961,37189
31374,24988,37253
31508,25005,37228
31748,25014,37045
31900,25018,37132
31825,25005,37196
31692,24991,36975
31480,24961,37056
31240,24959,36921
31092,24959,37085
31117,24973,36887
31264,24998,36940
31272,25020,36939
31296,25037,36836
31476,25037,36956
31796,25025,36615
32172,25000,36812
32560,24973,36871
33084,24975,36681
33836,24978,36521
34830,24988,36752
36168,25012,36814
37958,25028,36552
39724,25035,36676
41076,25028,36740
41984,25023,36389
42688,24998,36545
43176,24996,36608
43456,24986,36597
43416,24996,36649
42300,25007,36449
40532,25022,36508
38620,25076,36416
36508,25066,36572
34724,25061,36368
33249,25057,36448
32488,25045,36320
31988,25024,36455
31912,25012,36359
31740,25025,36140
31742,25030,36327
31852,25059,36218
31964,25081,36364
31758,25092,36125
31560,25095,36272
31264,25080,36231
31128,25063,36128
30889,25044,36280
30816,25038,36134
30788,25045,36068
30784,25060,36164
30749,25084,36081
31036,25105,36201
31208,25124,36189
31212,25117,36103
31100,25105,35979
31145,25084,35933
30817,25065,35789
30656,25062,36005
30708,25066,35898
30789,25076,36028
30989,25103,35838
31208,25130,35680
31256,25137,35836
31368,25133,35818
31344,25127,35895
31189,25105,35854
30948,25087,35749
30908,25083,35624
31032,25084,35596
31076,25100,35510
31174,25126,35639
31400,25145,35516
31588,25156,35549
31728,25152,35329
31708,25148,35421
31636,25128,35369
31440,25103,35479
31296,25093,35372
31296,25105,35367
31564,25116,35401
31832,25143,35390
32024,25165,35239
32118,25182,35293
32066,25178,35200
31992,25169,35260
31888,25144,35361
31800,25125,35273
31848,25116,35184
31938,25124,35212
32056,25136,35007
32100,25167,35118
32268,25188,35244
32529,25192,34946
32584,25192,35042
32524,25188,35005
32424,25162,35100
32285,25147,34980
32476,25135,35040
32540,25142,34812
32609,25158,34944
32576,25185,35005
32720,25204,34823
32804,25212,34898
32972,25212,34836
33064,25205,34912
33100,25189,34800
33012,25170,34780
32912,25151,34613
32976,25164,34704
33072,25183,34673
33284,25206,34551
33553,25227,34667
33772,25233,34457
33840,25233,34556
33772,25218,34417
33685,25210,34469
33560,25189,34514
33676,25183,34313
33760,25187,34190
33856,25203,34347
33976,25222,34209
33984,25253,34228
34012,25263,34257
34040,25252,34054
34082,25244,34167
34084,25228,34149
33888,25205,34012
33828,25199,33865
33764,25205,34041
33848,25223,33968
33824,25246,33848
34016,25265,33892
34184,25283,33900
34281,25279,33789
34208,25276,33716
34020,25256,33799
33696,25223,33740
33572,25236,33728
33492,25233,33575
33444,25247,33676
33596,25277,33533
33704,25300,33629
33712,25311,33412
33532,25308,33550
33368,25300,33489
33226,25276,33388
32944,25250,33437
32840,25249,33359
32782,25258,33245
32768,25275,33215
32802,25301,33149
32788,25327,33120
32746,25335,33121
32652,25332,33205
32664,25325,33223
32480,25306,33180
32136,25287,33152
31884,25285,33132
31712,25279,33110
31796,25303,33041
31836,25327,32940
31936,25351,32962
31984,25359,32903
31973,25364,32889
31800,25357,32908
31696,25332,32975
31432,25316,32919
31348,25319,32924
31236,25324,32842
31156,25337,32831
31288,25364,32734
31568,25385,32644
31792,25394,32775
31704,25397,32758
31536,25391,32641
31288,25373,32685
31252,25351,32716
31312,25337,32526
31456,25351,32476
31520,25364,32612
31502,25393,32583
31582,25417,32625
31778,25424,32466
31728,25431,32380
31700,25416,32537
31700,25393,32521
31528,25375,32502
31468,25376,32492
31540,25378,32460
31680,25397,32388
31764,25423,32352
31856,25447,32336
31816,25460,32322
31893,25453,32343
31924,25446,32428
31928,25425,32238
31812,25409,32372
31648,25404,32257
31796,25416,32381
31988,25428,32164
32084,25450,32167
32232,25479,32311
32320,25479,32221
32256,25486,32196
31992,25476,32300
31872,25454,32188
31628,25436,32069
31684,25436,32231
31856,25443,32197
32080,25454,32180
32128,25479,32101
32280,25504,32217
32348,25509,32107
32396,25509,32028
32376,25501,31993
32197,25481,31982
31924,25469,32107
31872,25462,32023
31961,25469,32132
32084,25482,31950
32078,25505,32071
32168,25537,32008
32261,25541,31915
32288,25541,31893
32220,25532,32039
32140,25512,31913
31964,25488,31970
31844,25487,31956
31876,25494,32000
31980,25517,31830
32036,25540,31785
32140,25560,31935
32269,25569,31887
32340,25573,31856
32308,25563,31805
32280,25536,31792
32000,25520,31681
31840,25519,31817
31868,25526,31768
31944,25540,31789
32036,25560,31616
32180,25593,31623
32320,25606,31737
32348,25599,31614
32190,25591,31727
31964,25568,31658
31804,25544,31514
31832,25543,31493
31984,25553,31476
32010,25564,31485
32000,25590,31598
32116,25626,31486
32113,25631,31591
32208,25627,31548
32248,25607,31400
32140,25596,31367
31956,25579,31396
31816,25570,31495
31888,25581,31421
31916,25589,31511
31964,25622,31390
32048,25647,31303
32124,25657,31300
32244,25652,31316
32392,25645,31437
32357,25627,31402
32336,25604,31332
32392,25599,31438
32528,25603,31247
32629,25615,31400
32676,25646,31405
32900,25662,31220
32992,25682,31367
32992,25673,31303
32948,25669,31198
32908,25641,31239
32845,25626,31324
32688,25620,31235
32820,25625,31319
32948,25640,31152
33157,25669,31200
33540,25693,31287
33625,25703,31168
33756,25701,31276
33824,25699,31097
33764,25676,31151
33656,25654,31073
33620,25652,31203
33644,25662,31160
33660,25669,31193
33772,25691,31001
33892,25724,31151
33880,25731,31118
33720,25728,31076
33517,25719,30949
33292,25696,30924
33037,25670,30911
32836,25672,31045
32820,25681,30926
32792,25700,31022
32756,25727,30859
32884,25747,30812
32968,25761,30799
32796,25749,30797
32544,25742,30905
32392,25721,30879
32288,25703,30790
32160,25701,30785
32152,25703,30797
32276,25719,30620
32312,25748,30767
32472,25771,30664
32473,25780,30725
32424,25780,30545
32460,25764,30566
32516,25745,30616
32196,25725,30601
32028,25720,30560
32100,25729,30391
32192,25742,30404
32328,25765,30524
32380,25789,30484
32468,25806,30388
32524,25800,30364
32608,25789,30365
32529,25767,30423
32300,25751,30260
32061,25746,30205
32004,25756,30233
32084,25766,30295
32320,25788,30213
32548,25815,30213
32572,25824,30101
32530,25819,30084
32472,25815,30206
32452,25792,30107
32276,25775,30030
31964,25766,30001
31824,25774,30125
31880,25791,30071
31832,25825,30082
31936,25844,29884
32268,25846,29925
32709,25848,29991
33084,25839,29941
33428,25819,29879
33852,25796,29816
34524,25797,29956
35432,25796,29861
36668,25804,29802
38112,25828,29797
40041,25860,29804
41588,25852,29808
42748,25855,29859
43604,25840,29710
44320,25818,29831
44808,25828,29795
44941,25820,29637
44344,25815,29695
42676,25828,29777
40744,25853,29700
38496,25889,29717
36496,25896,29702
34880,25900,29697
33744,25897,29606
33208,25874,29572
33000,25851,29707
32820,25849,29689
32796,25858,29653
32820,25873,29648
32788,25897,29633
32680,25922,29589
32628,25933,29574
32664,25930,29532
32470,25917,29620
32280,25897,29593
32060,25888,29466
31844,25876,29581
31736,25881,29556
31720,25893,29429
31876,25924,29569
32240,25949,29539
32532,25957,29559
32440,25956,29384
32361,25943,29503
32236,25925,29423
31900,25900,29450
31829,25897,29372
31920,25906,29340
31980,25919,29416
32096,25945,29348
32336,25969,29377
32376,25977,29324
32384,25974,29326
32392,25964,29281
32396,25932,29097
32240,25919,29105
32216,25916,29116
32296,25920,29167
32408,25932,29134
32496,25962,29089
32725,25988,29065
32720,25991,29021
32760,25990,28993
32828,25977,28901
32809,25956,28912
32680,25937,28919
32648,25935,28801
32816,25934,28804
32880,25954,28737
32932,25984,28709
33133,26005,28741
33224,26012,28705
33213,26004,28687
33228,25999,28726
33276,25975,28631
33052,25950,28573
33077,25949,28679
33076,25951,28663
33060,25967,28645
33273,25998,28532
33408,26015,28508
33580,26022,28492
33712,26016,28551
33796,26004,28521
33713,25988,28405
33612,25957,28343
33552,25964,28317
33716,25964,28293
33876,25981,28234
33888,26012,28224
34052,26025,28220
34260,26036,28277
34228,26029,28194
34252,26021,28169
34296,25996,28004
34188,25977,28041
34204,25973,28107
34280,25977,28004
34308,25996,28002
34344,26017,27886
34492,26039,27968
34780,26046,27876
34912,26043,27901
35008,26030,27732
35028,26004,27844
34884,25981,27746
34848,25982,27764
34948,25988,27591
34852,25999,27548
34896,26032,27590
35092,26049,27655
35264,26052,27578
35420,26052,27594
35512,26041,27394
35376,26015,27522
35204,26001,27428
35109,25996,27341
35080,25996,27428
35048,26018,27380
35124,26040,27306
35268,26064,27239
35292,26074,27229
35308,26067,27237
35232,26055,27210
35104,26035,27183
34840,26009,27015
34712,26001,27065
34636,26012,27111
34604,26020,27080
34692,26050,27028
34748,26077,26965
34708,26077,26993
34604,26073,26829
34504,26069,26840
34340,26041,26899
34040,26026,26885
33852,26020,26720
33912,26025,26843
33932,26037,26792
33824,26063,26785
33928,26088,26773
33717,26099,26594
33530,26092,26735
33316,26079,26668
33204,26048,26695
33092,26037,26567
32940,26029,26652
33012,26029,26640
33040,26045,26479
33092,26073,26601
33208,26093,26604
33149,26102,26442
32904,26099,26553
32813,26087,26548
32564,26067,26504
32396,26039,26490
32264,26036,26531
32252,26044,26491
32356,26062,26526
32496,26086,26384
32640,26101,26501
32628,26110,26490
32512,26103,26451
32413,26097,26480
32304,26068,26461
32056,26052,26319
31924,26049,26302
32036,26051,26343
32294,26060,26445
32400,26085,26397
32557,26108,26304
32596,26113,26427
32792,26110,26376
32677,26097,26380
32564,26077,26289
32412,26050,26405
32208,26052,26359
32192,26053,26391
32472,26062,26244
32577,26092,26324
32732,26114,26382
32748,26119,26327
32644,26119,26295
32696,26098,26231
32700,26077,26367
32512,26057,26341
32422,26055,26340
32492,26059,26265
32528,26073,26215
32673,26092,26276
32904,26110,26315
32992,26118,26271
33036,26118,26249
32988,26101,26215
32928,26077,26245
32792,26055,26220
32772,26049,26119
32836,26059,26190
32820,26069,26247
32856,26098,26210
32928,26115,26197
32948,26119,26135
33012,26115,26092
32916,26105,26192
32704,26084,26148
32604,26053,26164
32520,26053,26053
32580,26057,26083
32644,26067,26140
32776,26095,26137
33020,26113,26080
33052,26127,26024
32980,26116,26085
32928,26102,26093
32942,26076,25951
32852,26060,26078
32692,26048,26006
32784,26055,25999
32736,26068,25916
32752,26089,26028
32940,26111,25993
32968,26119,26002
33022,26110,25908
33026,26101,25927
32880,26080,25972
32612,26054,25980
32584,26053,25939
32676,26056,25834
32672,26060,25897
32704,26092,25961
32916,26115,25900
32944,26119,25945
32948,26113,25933
32928,26100,25924
32900,26071,25887
32608,26059,25925
32404,26045,25863
32362,26048,25772
32433,26063,25831
32700,26093,25847
32920,26104,25900
32996,26117,25881
32908,26103,25853
32832,26098,25867
32624,26076,25872
32573,26054,25821
32576,26048,25789
32560,26055,25872
32608,26065,25871
32652,26087,25852
32840,26105,25831
32880,26111,25866
32792,26109,25817
32744,26096,25731
32760,26076,25780
32614,26052,25867
32626,26043,25849
32796,26046,25824
32717,26053,25855
32736,26083,25748
32900,26105,25705
33204,26112,25773
33388,26101,25817
33480,26089,25773
33404,26063,25814
33220,26040,25687
33024,26038,25797
32976,26038,25766
33068,26054,25732
33092,26072,25757
33408,26101,25616
33684,26097,25654
33792,26091,25735
33876,26085,25704
33856,26057,25668
33836,26036,25697
33768,26032,25568
33752,26036,25672
33976,26044,25638
33896,26071,25581
34049,26097,25501
33992,26096,25632
33844,26090,25584
33768,26077,25601
33632,26049,25465
33336,26024,25587
33084,26034,25544
32928,26029,25561
32820,26040,25509
32720,26064,25515
32984,26089,25528
33001,26091,25409
32788,26086,25384
32560,26068,25511
32304,26052,25478
31968,26023,25364
31832,26020,25484
31820,26025,25468
31900,26039,25466
31904,26060,25352
32054,26077,25401
32143,26084,25426
32016,26077,25414
31892,26075,25390
31768,26040,25320
31508,26020,25408
31476,26021,25365
31564,26016,25253
31612,26029,25370
31561,26052,25332
31785,26072,25308
31916,26079,25263
31896,26072,25303
31808,26063,25282
31856,26032,25206
31556,26011,25290
31406,26004,25278
31548,26016,25168
31536,26025,25276
31512,26049,25246
31704,26071,25165
31900,26069,25124
31860,26071,25138
31560,26052,25226
31392,26024,25196
31336,26009,25193
31342,25996,25136
31374,26005,25095
31333,26009,25158
31356,26039,25169
31258,26058,25044
31176,26064,25111
31026,26057,25140
31012,26043,25103
31261,26015,25104
31568,25988,25006
32100,25989,25111
32770,25990,25073
33432,26001,25063
34404,26024,25105
35724,26036,25052
37213,26048,25012
38936,26030,25054
40428,26031,25068
41540,25991,25072
42516,25964,24972
43252,25954,25010
43712,25960,25040
44148,25989,25069
44024,25999,24955
42488,26012,25028
40572,26020,25060
38104,26021,25045
35832,26026,25060
34145,25994,25014
32920,25980,25052
32220,25965,25033
31950,25972,25055
31924,25982,25072
31756,26012,25080
32012,26028,25016
32148,26028,25127
32020,26026,25130
31872,26015,25055
31621,25988,25172
31236,25970,25158
31025,25959,25206
30948,25967,25109
30908,25972,25160
31076,26005,25280
31380,26020,25287
31512,26027,25212
31520,26020,25348
31444,26013,25340
31332,25981,25266
31108,25965,25351
30880,25954,25455
30838,25956,25471
30892,25971,25464
31168,25991,25508
31372,26018,25465
31548,26017,25536
31452,26008,25553
31538,25993,25456
31384,25973,25538
31272,25949,25583
31328,25940,25604
31452,25943,25500
31492,25956,25546
31488,25982,25629
31684,26005,25594
31708,26000,25567
31804,25997,25541
31760,25987,25613
31704,25957,25610
31592,25936,25511
31596,25937,25631
31624,25936,25621
31737,25946,25553
31840,25961,25644
32076,25991,25620
32208,25999,25648
32288,25989,25544
32360,25977,25671
32416,25953,25669
32340,25929,25615
32128,25919,25660
32180,25927,25689
32309,25934,25661
32548,25955,25688
32660,25975,25716
32692,25976,25741
32728,25974,25609
32768,25961,25749
32732,25938,25733
32660,25917,25632
32624,25908,25700
32720,25920,25711
32700,25920,25629
32880,25956,25671
33040,25973,25690
33176,25979,25717
33252,25970,25573
33305,25953,25700
33316,25929,25673
33268,25909,25630
33284,25901,25636
33381,25901,25574
33456,25909,25638
33512,25943,25605
33673,25956,25621
33876,25959,25513
34108,25954,25603
34120,25946,25577
33912,25927,25537
33824,25900,25437
33712,25890,25508
33721,25898,25509
33792,25908,25538
33872,25929,25411
34148,25955,25517
34424,25956,25481
34504,25944,25405
34516,25932,25444
34460,25909,25460
34252,25887,25473
34164,25879,25381
34116,25888,25425
34180,25905,25317
34324,25916,25433
34428,25938,25408
34556,25932,25309
34532,25934,25358
34460,25929,25385
34272,25895,25364
33972,25876,25382
33712,25877,25259
33608,25877,25373
33692,25886,25331
33776,25902,25262
33965,25936,25292
33948,25933,25332
33813,25928,25340
33681,25916,25265
33556,25892,25322
33392,25869,25327
33192,25863,25201
33064,25863,25278
33136,25874,25313
33156,25909,25279
33260,25924,25305
33052,25935,25189
32716,25922,25302
32632,25913,25287
32469,25884,25289
32172,25856,25189
32068,25852,25254
31953,25857,25293
31945,25869,25284
31988,25900,25312
32130,25914,25191
32156,25919,25316
32001,25917,25300
31816,25903,25326
31701,25870,25210
31484,25853,25334
31476,25850,25324
31548,25848,25223
31492,25860,25340
31421,25887,25317
31489,25905,25329
31544,25914,25227
31552,25900,25345
31544,25897,25359
31444,25870,25236
31248,25845,25360
31164,25839,25348
31172,25844,25288
31236,25854,25351
31332,25880,25363
31620,25897,25340
31794,25898,25386
31817,25895,25409
31836,25884,25337
31837,25854,25382
31696,25829,25445
31580,25829,25461
31580,25831,25373
31636,25836,25524
31868,25869,25532
32104,25893,25498
32203,25895,25540
32276,25883,25632
32216,25872,25642
32048,25842,25729
31766,25823,25730
31664,25817,25769
31780,25815,25782
32020,25821,25901
32181,25854,25972
32385,25876,25957
32472,25879,26088
32428,25874,26166
32432,25858,26085
32477,25836,26303
32380,25815,26343
32368,25802,26437
32353,25808,26412
32324,25822,26631
32400,25847,26668
32612,25863,26770
32740,25873,26805
32636,25863,26935
32576,25847,26960
32584,25820,27182
32492,25807,27260
32400,25798,27269
32412,25800,27488
32528,25808,27556
32668,25832,27609
32845,25853,27748
32920,25860,27868
32904,25854,27941
32840,25839,28068
32708,25811,28219
32452,25795,28390
32308,25783,28497
32278,25792,28496
32344,25801,28740
32448,25831,28804
32696,25852,28964
32732,25849,28991
32736,25847,29270
32704,25830,29237
32572,25810,29394
32308,25781,29664
32228,25780,29775
32240,25780,29908
32277,25790,30097
32308,25818,30180
32496,25839,30211
32684,25844,30516
32728,25836,30631
32816,25821,30766
32780,25799,30780
32536,25772,30944
32296,25764,31239
32164,25775,31376
32118,25775,31446
32168,25812,31677
32368,25828,31788
32580,25831,31868
32672,25828,32028
32732,25816,32327
32564,25789,32382
32324,25765,32644
32240,25760,32647
32236,25764,32961
32340,25774,33049
32320,25803,33225
32484,25819,33413
32672,25827,33421
32793,25817,33522
32704,25808,33873
32588,25782,33911
32212,25757,34160
32076,25748,34360
32164,25759,34409
32376,25767,34492
32420,25792,34703
32672,25810,34652
32852,25814,34964
32704,25812,35036
32732,25800,35077
32860,25769,35338
32836,25754,35396
32817,25738,35585
32900,25743,35705
32900,25756,35700
32984,25777,35708
33208,25799,36006
33356,25801,35990
33312,25800,36185
33030,25792,36237
33008,25762,36230
32936,25735,36487
32956,25735,36535
33165,25727,36633
33252,25748,36807
33408,25777,36681
33728,25798,36863
33736,25799,36885
33772,25789,36919
33736,25783,36784
33628,25756,37076
33284,25728,37013
33116,25723,37236
32964,25735,36957
32736,25745,37233
32948,25764,37239
33072,25791,37256
32960,25795,37349
32716,25784,37164
32441,25777,37302
32292,25747,37383
31964,25731,37383
31564,25721,37193
31424,25725,37036
31444,25740,37268
31396,25761,37280
31520,25791,37165
31800,25792,37077
31752,25783,37217
31632,25773,37148
31652,25748,37196
31536,25721,37055
31432,25719,36922
31252,25724,37055
31168,25735,36972
31200,25761,36946
31388,25787,36944
31492,25786,36687
31316,25780,36846
31312,25765,36792
31316,25737,36654
31056,25721,36776
30897,25719,36613
30940,25716,36380
30942,25725,36529
30877,25757,36548
31028,25778,36236
31264,25776,36429
31381,25778,36303
31332,25757,36375
31188,25735,36056
30854,25705,36116
30697,25708,36143
30630,25711,35894
30672,25720,36040
30744,25747,36096
30733,25762,35841
30700,25779,35924
30572,25769,35932
30416,25754,35611
30208,25720,35751
30109,25708,35604
30289,25692,35673
30732,25701,35516
31313,25705,35444
32056,25735,35533
32848,25754,35463
33592,25762,35304
34672,25758,35380
36048,25727,35196
37728,25704,35256
38952,25695,35204
39952,25668,35198
40560,25693,34991
41260,25689,34864
42040,25720,34967
42532,25727,35028
42317,25735,34801
40616,25741,34872
38476,25724,34786
36064,25700,34693
33892,25684,34746
32320,25678,34676
31308,25691,34541
30864,25701,34626
30868,25721,34415
31028,25748,34333
31220,25743,34380
31120,25741,34429
30912,25727,34400
30740,25702,34196
30600,25680,34281
30540,25671,34185
30262,25681,34092
30286,25684,34164
30284,25718,34112
30420,25734,34067
30476,25743,34049
30309,25735,33919
30152,25725,33892
30016,25693,33767
29752,25679,33838
29696,25676,33855
29760,25678,33855
29829,25685,33861
29856,25717,33799
29981,25735,33554
30196,25733,33649
30212,25735,33577
30122,25723,33487
30113,25686,33540
29980,25667,33500
30016,25664,33431
30021,25665,33324
30068,25684,33173
30204,25706,33270
30421,25722,33241
30516,25732,33009
30532,25722,33106
30524,25710,32927
30436,25681,33010
30216,25669,32861
30113,25654,32696
30220,25661,32821
30272,25669,32710
30516,25695,32597
30880,25713,32685
30958,25723,32673
31004,25716,32452
30918,25696,32495
30816,25670,32364
30773,25659,32481
30776,25645,32473
30592,25652,32245
30653,25661,32336
31020,25687,32316
31338,25705,32143
31404,25719,32272
31384,25706,32244
31282,25692,32047
31220,25672,32015
31076,25647,32037
30920,25647,31933
31060,25644,32048
31256,25655,32037
31448,25684,31807
31562,25701,31841
31760,25706,31884
31712,25698,31723
31776,25686,31705
31737,25661,31728
31728,25644,31580
31664,25634,31685
31764,25639,31591
31812,25648,31580
31905,25676,31416
32124,25693,31520
32216,25701,31377
32392,25691,31312
32400,25679,31380
32316,25654,31255
32304,25631,31199
32244,25626,31228
32369,25631,31188
32512,25645,31044
32553,25660,31063
32920,25687,30981
33093,25693,31060
33121,25688,31024
33216,25668,30822
33232,25650,30840
32980,25623,30739
32757,25613,30828
32677,25620,30820
32700,25638,30605
32836,25663,30677
33076,25673,30567
33284,25682,30652
33276,25680,30513
33140,25667,30406
32972,25640,30499
32716,25618,30303
32632,25607,30431
32696,25617,30333
32620,25625,30349
32848,25648,30236
32940,25679,30240
32908,25673,30061
32784,25676,30169
32632,25657,30113
32520,25625,29909
32201,25615,30040
32228,25604,29846
32208,25607,29945
32129,25623,29808
32220,25645,29769
32172,25671,29656
32108,25672,29774
32016,25676,29632
31820,25661,29630
31816,25631,29523
31712,25606,29532
31560,25604,29566
31464,25604,29383
31444,25622,29484
31392,25641,29375
31456,25665,29413
31468,25668,29229
31360,25661,29350
31124,25652,29215
30920,25622,29221
30664,25603,29073
30620,25599,29190
30544,25600,29092
30524,25607,29127
30688,25634,28920
30804,25660,29057
30861,25660,28975
30916,25660,28978
30936,25647,28816
30764,25622,28909
30680,25598,28837
30541,25589,28857
30636,25596,28666
30616,25607,28780
30648,25636,28753
30860,25647,28613
30900,25665,28636
30805,25652,28506
30960,25633,28634
30972,25607,28580
30868,25582,28561
30740,25582,28416
30596,25583,28505
30608,25601,28360
30750,25622,28453
31168,25639,28452
31352,25645,28305
31308,25639,28260
31316,25628,28301
31372,25607,28265
31341,25580,28260
31164,25573,28138
31124,25562,28245
31104,25591,28174
31204,25607,28078
31472,25629,28017
31604,25638,28029
31748,25634,28095
31712,25621,28045
31598,25594,27956
31380,25575,27953
31236,25567,27965
31288,25567,27897
31375,25582,27783
31464,25604,27765
31764,25620,27812
31888,25631,27714
31860,25631,27728
31734,25607,27560
31696,25591,27650
31628,25564,27628
31476,25556,27521
31452,25564,27519
31588,25567,27488
31829,25593,27358
32092,25607,27311
32196,25623,27325
32080,25607,27317
31977,25603,27316
31912,25574,27153
31636,25556,27194
31560,25540,27117
31618,25549,27102
31820,25557,27069
31740,25577,27076
31916,25605,26960
32066,25607,27023
32148,25607,26979
32156,25597,26825
32140,25568,26933
31960,25543,26884
31720,25540,26785
31748,25539,26788
31780,25551,26655
31972,25573,26775
32272,25591,26596
32464,25604,26732
32376,25596,26644
32224,25591,26607
31993,25553,26620
31720,25537,26453
31692,25526,26506
31868,25539,26478
31836,25543,26525
31980,25567,26453
32127,25584,26365
32212,25591,26370
32236,25584,26435
32280,25573,26366
32228,25552,26325
31948,25526,26236
31834,25524,26352
31852,25519,26309
31980,25538,26266
32016,25556,26287
32196,25575,26119
32436,25588,26190
32460,25573,26209
32364,25558,26217
32312,25541,26069
32160,25518,26101
31968,25511,26164
31896,25517,26108
31968,25517,26069
32112,25544,25965
32384,25567,26027
32656,25574,26044
32796,25569,26038
32780,25557,25976
32692,25538,26029
32532,25508,25995
32548,25498,25962
32720,25502,26010
32785,25513,25964
32868,25531,25858
33000,25555,25987
33120,25564,25973
33033,25557,25836
33068,25541,25933
33016,25515,25960
33104,25492,25810
33184,25484,25839
33332,25489,25918
33420,25497,25913
33586,25525,25878
33724,25545,25896
33876,25551,25908
33864,25540,25885
33928,25532,25935
33901,25508,25948
33636,25485,25901
33468,25477,25850
33444,25484,25832
33400,25498,25964
33304,25517,25920
33252,25538,25860
33292,25545,25905
33168,25536,25996
33056,25520,25982
32932,25493,26028
32684,25477,26033
32536,25468,25936
32556,25473,26036
32320,25492,26021
32208,25509,26097
32180,25524,26064
32248,25534,26105
32196,25530,26059
32032,25516,26082
32017,25491,26137
31900,25471,26000
31688,25461,26157
31812,25461,26070
31876,25472,26164
31932,25495,26159
32140,25522,26020
32172,25525,26176
32084,25519,26132
31976,25505,26167
31962,25472,26047
31924,25453,26134
31761,25446,26056
31872,25453,26073
31704,25461,26119
31720,25482,26080
31840,25501,26090
32008,25511,25953
32024,25505,26079
31964,25489,26029
31858,25469,25968
31680,25441,25926
31518,25429,26012
31588,25436,25956
31660,25447,25956
31744,25477,25810
31836,25488,25879
31892,25501,25901
31852,25489,25853
31668,25479,25873
31604,25454,25711
31332,25428,25776
31148,25415,25811
31313,25426,25780
31704,25441,25724
32113,25460,25636
32764,25479,25741
33394,25486,25712
34124,25473,25671
35000,25458,25665
36116,25424,25583
37616,25415,25652
39316,25393,25528
40784,25391,25644
41956,25409,25584
42864,25445,25615
43760,25456,25567
44288,25449,25471
44480,25485,25533
43728,25446,25576
41732,25412,25580
39540,25404,25445
36932,25385,25502
34873,25399,25516
33400,25407,25484
32508,25432,25509
32336,25455,25573
32528,25454,25542
32576,25454,25535
32488,25441,25468
32244,25415,25420
31772,25393,25484
31373,25384,25564
31333,25393,25559
31319,25399,25479
31392,25417,25573
31512,25433,25533
31524,25449,25460
31528,25441,25580
31444,25431,25591
31196,25402,25499
31048,25377,25575
30924,25369,25588
30820,25373,25510
30792,25383,25573
30852,25406,25581
31152,25435,25444
31356,25429,25505
31500,25422,25561
31556,25414,25510
31445,25385,25509
31244,25369,25473
30977,25357,25394
31008,25363,25481
31016,25370,25464
31192,25389,25404
31560,25413,25424
31648,25413,25252
31620,25407,25376
31614,25397,25311
31572,25373,25235
31401,25349,25255
31345,25341,25270
31404,25336,25220
31529,25348,25103
31632,25374,25216
31840,25398,25161
31920,25397,25185
32116,25395,25036
32204,25385,25149
32240,25351,25108
32184,25329,25125
32068,25317,24991
32032,25327,25109
31964,25339,25092
31940,25358,25063
32188,25381,25045
32348,25379,25062
32488,25377,24978
32308,25364,24958
32229,25335,24996
32260,25313,25022
32184,25306,25007
32260,25305,24997
32316,25319,24957
32596,25341,24924
32744,25359,24937
32868,25364,24924
32877,25356,24826
32836,25347,24783
32792,25319,24839
32714,25293,24804
32776,25294,24787
32876,25295,24645
32988,25303,24744
33156,25329,24693
33438,25348,24657
33568,25348,24604
33628,25341,24612
33592,25337,24610
33406,25301,24473
33304,25282,24559
33212,25271,24533
33268,25277,24401
33352,25280,24487
33616,25297,24428
33932,25325,24320
34164,25338,24397
34204,25328,24349
34165,25318,24352
33852,25287,24205
33624,25261,24296
33636,25260,24234
33736,25265,24236
33864,25267,24105
34148,25292,24124
34340,25308,24152
34412,25317,24120
34324,25304,24012
34322,25303,24070
34096,25270,24030
33816,25246,23966
33708,25239,24001
33640,25238,23975
33728,25255,23943
33712,25277,23861
33842,25298,23915
33940,25304,23860
33804,25301,23796
33756,25280,23777
33700,25253,23804
33405,25238,23803
33112,25218,23730
33028,25226,23728
32996,25233,23649
33076,25254,23676
33185,25279,23673
33220,25287,23589
32984,25276,23645
32900,25263,23635
32788,25247,23560
32488,25220,23569
32321,25211,23577
32108,25212,23581
31852,25223,23541
31860,25255,23473
32016,25273,23529
32020,25277,23506
31964,25269,23436
32000,25252,23497
31832,25231,23432
31517,25206,23483
31320,25193,23462
31120,25204,23372
31096,25215,23449
31172,25229,23425
31388,25253,23383
31496,25257,23364
31413,25254,23417
31336,25236,23396
30972,25210,23359
30800,25191,23334
30754,25175,23366
30800,25187,23293
30980,25191,23364
31012,25216,23326
31140,25237,23303
31200,25237,23276
31209,25234,23316
31208,25222,23307
31268,25195,23228
31180,25162,23284
31020,25160,23244
30913,25163,23240
31006,25175,23225
31184,25199,23228
31496,25217,23194
31677,25222,23221
31556,25210,23199
31468,25201,23208
31360,25175,23135
31216,25153,23152
31096,25143,23174
31280,25151,23180
31416,25156,23120
31422,25185,23085
31500,25199,23092
31630,25201,23145
31772,25193,23114
31536,25183,23133
31496,25159,23057
31480,25135,23077
31484,25133,23078
31592,25133,23037
31701,25141,23063
31816,25157,23073
32072,25178,23065
32224,25190,23052
32220,25180,23017
31984,25161,23053
31884,25130,23046
31628,25104,22974
31552,25111,23024
31660,25109,23005
31568,25124,23015
31802,25143,22949
32020,25162,22992
32144,25167,22966
32200,25165,22950
32109,25149,22961
32022,25119,22959
31736,25095,22869
31576,25092,22931
31598,25092,22904
31852,25108,22876
31800,25123,22889
32092,25144,22871
32092,25150,22833
32224,25141,22837
32281,25127,22843
32044,25101,22826
31920,25081,22829
31808,25069,22752
31649,25075,22764
31748,25087,22784
31908,25115,22777
32072,25129,22709
32188,25134,22748
32121,25127,22742
32148,25110,22673
31980,25087,22689
31741,25059,22697
31797,25055,22708
31804,25053,22641
32032,25060,22693
31996,25092,22669
32118,25106,22644
32156,25115,22660
32156,25103,22660
32089,25092,22569
31932,25062,22638
31804,25041,22630
31816,25031,22632
32000,25033,22602
31848,25046,22585
31740,25071,22617
31976,25086,22616
32128,25088,22567
32264,25085,22548
32240,25070,22606
32232,25041,22598
32016,25029,22545
31864,25017,22573
31808,25020,22605
31941,25025,22610
32058,25054,22560
32296,25073,22571
32532,25077,22628
32620,25066,22631
32560,25063,22636
32416,25031,22591
32376,25006,22631
32420,24996,22661
32421,24999,22689
32540,25004,22629
32652,25044,22626
32928,25055,22708
32948,25060,22711
32845,25048,22736
32912,25033,22679
32944,24999,22760
32896,24987,22766
32896,24973,22773
32996,24983,22790
33160,24991,22823
33472,25018,22753
33712,25036,22845
33804,25033,22853
33873,25027,22853
33884,25024,22866
33873,24986,22891
33788,24965,22898
33524,24960,22844
33336,24956,22928
33128,24967,22927
33120,24996,22930
33168,25020,22949
33172,25020,22910
33072,25013,22976
33191,24997,22973
33040,24969,22969
32700,24957,22986
32450,24941,22950
32420,24951,22992
32336,24959,22985
32270,24975,22980
32304,25001,23025
32297,24997,22940
32212,24994,23017
32004,24983,23001
31893,24960,23020
31584,24933,22960
31584,24927,22949
31584,24925,23001
31797,24937,23034
31980,24964,23024
32080,24982,23029
32104,24988,23031
32056,24973,23061
31968,24962,23040
31776,24940,22980
31509,24919,23020
31388,24909,23045
31436,24911,23081
31568,24924,22990
31708,24941,23075
31920,24967,23076
32136,24962,23065
32121,24959,23095
31960,24946,23017
31848,24927,23041
31708,24902,23093
31680,24893,23076
31820,24893,23068
31768,24903,23097
31700,24929,23054
31788,24948,23015
31944,24951,23045
31884,24951,23097
31740,24929,23084
31484,24903,23101
31289,24882,23070
31036,24868,23089
31076,24878,23085
31204,24889,23084
31624,24911,23101
32134,24922,23083
32640,24934,23093
33337,24923,23097
34104,24914,23035
34984,24879,23052
36008,24861,23093
37364,24848,23092
39138,24848,23084
40720,24850,23040
41964,24879,23116
43072,24909,23126
43976,24912,23037
44528,24896,23084
44700,24895,23078
44260,24839,23132
42436,24841,23138
40380,24829,23128
37848,24833,23160
35628,24838,23088
34020,24865,23134
33093,24893,23172
32688,24896,23191
32676,24897,23124
32696,24874,23173
32424,24844,23216
32104,24821,23220
31924,24821,23218
31748,24823,23229
31704,24831,23242
31704,24858,23251
31849,24876,23198
31805,24872,23249
31772,24877,23310
31552,24858,23301
31408,24835,23247
31288,24804,23351
31058,24800,23370
31016,24807,23292
31196,24815,23380
31388,24845,23397
31556,24857,23312
31500,24864,23396
31456,24855,23384
31484,24845,23418
31441,24805,23338
31380,24789,23414
31080,24788,23396
31232,24795,23334
31424,24796,23361
31598,24820,23380
31925,24843,23380
32032,24848,23311
32064,24836,23376
32068,24821,23345
31880,24798,23351
31497,24775,23260
31424,24767,23314
31520,24774,23295
31772,24781,23306
31864,24805,23271
32128,24821,23283
32384,24828,23205
32440,24823,23270
32404,24812,23228
32356,24782,23241
32104,24761,23263
32168,24753,23272
32228,24754,23279
32128,24769,23232
32228,24795,23281
32542,24807,23290
32784,24811,23204
32847,24804,23244
32868,24793,23288
32897,24765,23263
32648,24741,23273
32400,24739,23215
32412,24741,23236
32480,24753,23260
32620,24772,23250
32932,24791,23252
33016,24791,23164
32980,24784,23164
33168,24781,23221
33156,24757,23189
33072,24729,23200
32995,24719,23110
33088,24726,23140
33140,24740,23144
33180,24761,23079
33516,24775,23127
33784,24775,23108
33924,24773,23085
33805,24759,23076
33696,24734,23065
33576,24717,23077
33588,24696,22980
33676,24701,22986
33740,24719,22980
33876,24742,22992
34189,24753,22962
34488,24770,22996
34448,24765,22969
34264,24747,22914
34260,24722,22884
34120,24693,22934
34180,24691,22916
34260,24687,22898
34448,24698,22877
34444,24729,22848
34588,24737,22852
34729,24744,22815
34648,24740,22746
34476,24732,22778
34404,24707,22760
34252,24676,22743
34108,24668,22663
34136,24677,22655
34037,24687,22671
34020,24711,22660
34260,24733,22623
34372,24735,22632
34392,24719,22565
34292,24708,22530
34104,24689,22514
33832,24665,22498
33616,24653,22525
33621,24663,22492
33581,24674,22482
33628,24692,22425
33784,24711,22432
33720,24711,22441
33604,24704,22437
33605,24693,22362
33404,24669,22398
33256,24644,22388
33041,24632,22369
32844,24641,22372
32788,24658,22308
32656,24675,22320
32864,24693,22319
32761,24702,22329
32552,24704,22292
32472,24672,22266
32481,24651,22297
32116,24624,22287
31896,24624,22299
31868,24633,22231
31848,24636,22234
31940,24663,22261
31972,24679,22252
32112,24685,22253
31964,24676,22226
31904,24664,22249
31740,24643,22234
31424,24621,22259
31396,24613,22202
31352,24613,22239
31380,24627,22228
31524,24645,22238
31888,24669,22205
32082,24671,22230
32048,24660,22247
31944,24645,22196
31612,24620,22239
31612,24598,22240
31592,24594,22207
31580,24597,22201
31736,24612,22232
31741,24636,22236
31970,24655,22217
32104,24654,22216
32072,24651,22242
32132,24631,22204
32100,24611,22260
31808,24593,22247
31736,24583,22261
31740,24583,22227
31872,24595,22271
32020,24618,22259
32326,24636,22284
32408,24641,22253
32412,24631,22273
32316,24617,22262
32188,24583,22237
32140,24569,22286
31993,24557,22291
31888,24570,22252
32108,24575,22257
32196,24602,22284
32516,24619,22300
32700,24622,22247
32681,24612,22260
32500,24598,22289
32436,24571,22264
32208,24542,22276
32112,24543,22295
32200,24549,22230
32404,24561,22286
32512,24583,22273
32757,24611,22251
32576,24611,22247
32448,24599,22256
32344,24583,22277
32441,24558,22209
32421,24534,22248
32301,24535,22241
32252,24528,22244
32250,24548,22244
32404,24570,22219
32552,24590,22191
32736,24592,22183
32732,24583,22225
32592,24570,22224
32460,24543,22217
32168,24521,22220
32252,24508,22216
32232,24519,22189
32472,24524,22151
32644,24556,22214
32736,24572,22196
32728,24578,22168
32701,24568,22210
32680,24556,22213
32676,24528,22166
32400,24507,22208
32308,24501,22236
32172,24508,22178
32372,24519,22244
32416,24544,22276
32544,24559,22198
32568,24554,22275
32436,24553,22265
32430,24543,22305
32529,24519,22256
32276,24495,22293
32140,24489,22309
32268,24487,22298
32420,24505,22295
32572,24525,22344
32676,24540,22369
32677,24548,22310
32576,24539,22350
32492,24535,22380
32540,24504,22400
32352,24479,22347
32148,24477,22402
32042,24480,22412
32068,24484,22351
32332,24512,22412
32620,24532,22368
32778,24532,22425
32844,24525,22428
32908,24514,22363
32868,24485,22428
32764,24461,22442
32720,24461,22412
32764,24462,22430
32840,24469,22439
33081,24492,22417
33396,24514,22452
33693,24513,22404
33720,24514,22447
33736,24495,22470
33511,24467,22469
33316,24446,22503
33241,24447,22456
33324,24441,22439
33361,24455,22523
33654,24485,22521
33944,24493,22543
34088,24506,22552
34276,24495,22549
34312,24479,22546
34276,24462,22534
34044,24431,22600
34041,24428,22595
34076,24431,22556
34020,24443,22638
34148,24465,22646
34417,24484,22631
34325,24488,22651
33980,24487,22700
33640,24468,22740
33412,24447,22656
33284,24421,22754
33101,24417,22748
33129,24419,22756
33120,24434,22792
33042,24455,22747
33089,24473,22836
32952,24484,22848
32832,24471,22868
32608,24457,22869
32332,24429,22849
32100,24408,22894
31904,24402,22921
31909,24404,22928
32026,24414,22941
32196,24439,22967
32368,24466,22948
32440,24474,22981
32408,24453,23024
32388,24448,22982
32160,24420,23065
31980,24397,23058
32028,24395,22997
31852,24398,23085
31868,24409,23080
32036,24433,23135
32245,24452,23133
32256,24455,23064
32132,24450,23151
32048,24437,23151
32136,24409,23193
32029,24384,23188
31892,24381,23122
31912,24382,23218
32032,24395,23220
32162,24420,23143
32348,24432,23249
32400,24442,23261
32412,24431,23186
32352,24423,23277
32113,24392,23273
31777,24375,23235
31536,24367,23257
31332,24368,23295
31216,24388,23256
31324,24414,23252
31412,24431,23308
31932,24428,23309
32396,24414,23250
32996,24411,23297
33656,24376,23364
34310,24356,23353
35100,24346,23385
36328,24346,23328
37940,24354,23362
39797,24381,23417
41336,24408,23405
42536,24396,23449
43612,24401,23388
44128,24385,23463
44468,24346,23500
44704,24318,23437
44140,24319,23431
42176,24352,23549
40160,24357,23538
37696,24380,23543
35656,24404,23538
34176,24404,23607
33148,24391,23620
32748,24378,23653
32678,24358,23652
32512,24343,23608
32356,24334,23689
32288,24341,23704
32288,24354,23639
32276,24376,23767
32354,24393,23762
32188,24398,23805
31952,24389,23749
31786,24375,23852
31597,24352,23845
31428,24322,23892
31388,24317,23828
31329,24332,23950
31340,24342,23968
31368,24367,23927
31504,24386,23964
31600,24391,24035
31732,24383,24033
31760,24367,23967
31629,24342,23980
31380,24318,24101
31276,24311,24086
31324,24312,24144
31472,24322,24029
31736,24353,24097
32044,24372,24126
32160,24374,24070
32216,24364,24160
32284,24358,24176
32240,24324,24055
31980,24301,24132
31844,24293,24161
31876,24297,24129
31934,24310,24189
31960,24340,24202
32196,24359,24204
32372,24359,24194
32444,24351,24220
32440,24343,24120
32384,24313,24165
32228,24292,24258
32152,24293,24252
32296,24297,24269
32456,24303,24309
32660,24334,24343
32884,24347,24364
33056,24349,24327
33044,24337,24308
33052,24332,24413
32953,24303,24476
32808,24285,24485
32764,24276,24536
32806,24278,24465
32848,24303,24471
33028,24325,24612
33360,24342,24613
33684,24343,24676
33917,24329,24599
33860,24319,24684
33600,24292,24742
33348,24268,24792
33308,24261,24703
33472,24271,24806
33604,24284,24776
33716,24309,24789
33900,24325,24901
34064,24327,25012
34112,24324,25026
34164,24310,25055
34085,24283,25110
34084,24261,25209
34192,24255,25253
34308,24265,25206
34428,24270,25255
34692,24303,25381
35008,24321,25478
35204,24319,25585
35284,24306,25650
35320,24293,25778
35396,24261,25776
35176,24252,25816
35169,24244,25957
35268,24245,26085
35392,24255,26222
35496,24297,26301
35564,24308,26398
35510,24301,26479
35440,24306,26567
35520,24290,26682
35572,24260,26849
35460,24247,26887
35248,24237,26933
35136,24239,27212
35192,24247,27293
35316,24290,27368
35493,24292,27527
35604,24295,27543
35520,24287,27728
35309,24272,27924
35104,24260,28039
34840,24230,28127
34638,24232,28342
34600,24229,28335
34741,24245,28589
34884,24276,28724
34988,24288,28836
34925,24288,28999
34788,24281,29139
34616,24279,29115
34320,24252,29293
33948,24231,29589
33717,24222,29703
33685,24231,29796
33684,24244,30064
33716,24268,30054
33920,24277,30377
33948,24279,30520
33836,24275,30608
33636,24270,30863
33324,24234,30964
32972,24226,31069
32736,24209,31405
32576,24218,31463
32604,24238,31800
32824,24260,31910
33009,24272,31968
32972,24270,32335
32904,24274,32580
32757,24260,32647
32584,24229,32956
32316,24221,33117
32217,24210,33231
32240,24211,33575
32180,24227,33767
32262,24257,34073
32504,24273,34109
32657,24281,34460
32576,24270,34727
32560,24255,34782
32452,24228,35142
32298,24207,35276
32288,24199,35589
32360,24210,35612
32542,24223,36004
32774,24244,36284
33036,24260,36351
33137,24272,36806
33008,24255,36981
32692,24247,37407
32536,24216,37476
32404,24199,37574
32368,24191,38057
32458,24196,38204
32524,24219,38620
32696,24236,38743
32992,24252,38775
33112,24254,39300
33124,24256,39537
33089,24242,39774
32880,24207,40031
32668,24196,40245
32728,24190,40417
32780,24194,40661
32744,24206,41023
32832,24239,41350
32912,24256,41533
32992,24255,41696
33052,24249,41877
33156,24239,42073
33036,24203,42213
32800,24194,42623
32609,24189,42903
32752,24194,42976
32900,24201,43353
33105,24239,43557
33196,24251,43804
33304,24253,43733
33236,24247,44287
33108,24229,44476
32916,24203,44550
32756,24183,44768
32624,24184,45000
32716,24186,45207
32812,24199,45437
32892,24234,45630
32992,24245,45844
33127,24238,46071
33328,24244,46292
33270,24225,46567
33088,24194,46735
32834,24178,46840
32760,24172,47052
32684,24190,47065
32612,24192,47592
32621,24225,47788
32754,24240,47893
32852,24238,48186
33020,24236,48175
32984,24218,48588
32780,24194,48793
32509,24164,48903
32398,24179,49108
32500,24175,49337
32577,24193,49560
