ECG,EDA,RR
36500,28700,25708
38213,28708,25744
40032,28705,25687
41552,28700,25726
42840,28663,25766
43733,28636,25772
44340,28647,25781
44772,28652,25817
45000,28673,25783
44764,28702,25784
43664,28741,25809
42124,28770,25878
39752,28769,25885
37336,28762,25892
35352,28749,25924
33788,28730,25884
32838,28731,25908
32532,28743,25956
32456,28763,25960
32456,28805,25979
32532,28824,25941
32528,28836,26023
32340,28828,26025
32128,28829,26036
31904,28806,26071
31548,28793,26066
31284,28796,26037
31261,28804,26068
31236,28821,26080
31328,28857,26153
31493,28889,26152
31564,28889,26183
31552,28895,26148
31472,28889,26169
31398,28860,26246
31212,28845,26254
31129,28841,26220
31312,28852,26289
31400,28873,26300
31380,28910,26276
31456,28935,26286
31600,28941,26356
31620,28947,26357
31596,28935,26368
31592,28915,26382
31484,28896,26320
31469,28903,26397
31556,28901,26383
31640,28928,26411
31792,28959,26338
32009,28989,26364
32092,28992,26383
32076,28991,26375
32052,28987,26324
32004,28965,26404
31900,28948,26397
31840,28950,26361
31904,28958,26340
31972,28968,26425
32100,29006,26407
32236,29037,26344
32308,29045,26397
32228,29045,26434
32176,29039,26452
32196,29020,26368
32060,28991,26468
32012,28992,26450
32121,29008,26468
32237,29020,26404
32384,29060,26461
32592,29089,26412
32769,29085,26485
32804,29087,26447
32748,29081,26436
32648,29063,26455
32520,29047,26468
32460,29044,26397
32544,29049,26454
32628,29070,26441
32792,29109,26391
33065,29135,26432
33290,29149,26420
33336,29140,26329
33340,29127,26407
33233,29109,26399
33049,29092,26380
32926,29092,26357
32972,29108,26327
33125,29120,26285
33280,29157,26312
33513,29175,26295
33724,29191,26308
33820,29188,26300
33816,29172,26271
33772,29156,26274
33656,29143,26208
33620,29136,26281
33708,29156,26276
33864,29168,26225
34108,29197,26267
34332,29233,26229
34404,29239,26245
34392,29237,26248
34349,29228,26185
34320,29200,26245
34208,29190,26217
34180,29184,26236
34252,29191,26158
34328,29214,26225
34428,29252,26222
34597,29281,26180
34668,29287,26204
34680,29284,26155
34628,29272,26209
34522,29252,26196
34332,29237,26148
34169,29243,26149
34152,29254,26188
34284,29265,26174
34424,29295,26119
34512,29327,26180
34494,29333,26172
34380,29335,26116
34237,29319,26153
34024,29303,26169
33728,29293,26148
33585,29286,26138
33508,29295,26154
33472,29312,26167
33428,29344,26132
33511,29370,26180
33500,29380,26165
33368,29383,26161
33224,29376,26125
33004,29351,26170
32684,29333,26170
32444,29333,26119
32296,29341,26184
32268,29362,26183
32320,29389,26165
32488,29418,26157
32577,29428,26183
32448,29425,26145
32228,29431,26180
31916,29399,26144
31525,29382,26194
31332,29380,26153
31336,29396,26213
31360,29415,26213
31425,29447,26204
31576,29473,26185
31668,29473,26240
31604,29472,26228
31520,29468,26266
31440,29447,26280
31208,29429,26276
31008,29431,26289
30972,29441,26236
31097,29463,26295
31324,29489,26247
31513,29513,26317
31588,29525,26337
31552,29522,26348
31480,29512,26361
31392,29481,26362
31172,29473,26367
31068,29468,26348
31116,29483,26388
31246,29495,26330
31406,29532,26403
31652,29557,26404
31852,29553,26349
31900,29548,26431
31798,29555,26428
31748,29525,26420
31604,29511,26448
31468,29503,26411
31488,29509,26489
31552,29535,26498
31680,29559,26441
31900,29588,26512
32005,29593,26516
31985,29601,26471
31904,29590,26548
31829,29565,26540
31660,29542,26545
31544,29543,26585
31525,29557,26597
31592,29572,26563
31748,29604,26609
31928,29635,26633
32092,29639,26573
32100,29636,26652
32020,29630,26653
31896,29600,26605
31760,29575,26639
31632,29582,26687
31620,29596,26701
31688,29604,26629
31836,29638,26673
32060,29657,26725
32200,29671,26720
32196,29665,26710
32166,29659,26688
32088,29633,26746
31960,29613,26773
31932,29618,26697
31985,29616,26742
32036,29640,26785
32077,29668,26792
32232,29695,26716
32316,29703,26812
32276,29701,26811
32289,29688,26740
32322,29666,26820
32204,29641,26841
32180,29641,26764
32200,29650,26852
32216,29670,26852
32176,29703,26788
32288,29725,26867
32348,29735,26874
32348,29732,26810
32328,29720,26856
32281,29693,26882
32196,29679,26876
32093,29683,26860
32072,29686,26849
32096,29703,26884
32232,29737,26892
32416,29761,26849
32532,29760,26933
32481,29759,26916
32392,29743,26890
32300,29722,26947
32144,29709,26940
32080,29703,26918
32088,29719,26916
32138,29724,26965
32276,29761,26973
32456,29784,26948
32556,29796,26916
32560,29789,26998
32493,29783,27012
32364,29757,26948
32124,29732,27005
32024,29733,26960
31972,29750,27036
32036,29761,27056
32148,29792,27021
32405,29819,27048
32524,29823,26998
32513,29818,27088
32484,29810,27074
32304,29785,27079
32066,29765,27107
31896,29767,27119
31892,29769,27098
31992,29784,27143
32156,29816,27124
32373,29841,27189
32484,29850,27196
32476,29846,27151
32412,29831,27239
32344,29804,27236
32160,29790,27238
32072,29790,27233
32104,29796,27292
32210,29805,27303
32412,29842,27338
32645,29863,27344
32701,29869,27354
32608,29865,27344
32520,29860,27404
32376,29828,27382
32116,29818,27444
31992,29810,27414
32012,29813,27489
32104,29822,27501
32270,29860,27461
32476,29892,27497
32596,29897,27558
32597,29893,27586
32572,29879,27524
32480,29857,27602
32276,29830,27601
32188,29831,27623
32172,29841,27649
32248,29863,27648
32366,29885,27676
32596,29905,27703
32784,29913,27676
32864,29908,27765
32864,29893,27772
32732,29872,27717
32504,29853,27813
32380,29847,27808
32350,29848,27805
32384,29879,27817
32536,29906,27845
32764,29923,27793
32892,29927,27900
32884,29927,27921
32837,29917,27855
32816,29887,27919
32730,29869,27927
32676,29857,27933
32720,29872,27963
32732,29895,27940
32876,29916,27952
33184,29943,28004
33440,29943,28036
33536,29937,27950
33516,29931,28021
33380,29905,28072
33216,29886,28062
33088,29875,28096
33130,29884,28036
33266,29900,28127
33465,29925,28149
33788,29956,28062
34032,29956,28129
34092,29950,28178
34181,29939,28212
34156,29913,28184
34000,29882,28223
33888,29890,28161
33916,29895,28244
34029,29908,28188
34220,29937,28300
34332,29959,28320
34288,29969,28327
34148,29957,28246
33942,29957,28336
33620,29927,28280
33231,29896,28375
33088,29897,28324
33104,29909,28423
33160,29912,28420
33188,29959,28452
33296,29975,28373
33296,29984,28501
33072,29974,28503
32760,29971,28500
32457,29938,28543
32206,29919,28530
32036,29913,28500
31984,29926,28541
31993,29936,28594
32108,29959,28556
32292,29989,28588
32365,29990,28638
32380,29989,28640
32292,29972,28608
32240,29944,28697
32044,29925,28718
31912,29925,28620
31920,29925,28745
31988,29949,28732
32076,29968,28692
32224,29991,28783
32316,30004,28800
32276,29991,28723
32208,29974,28840
32120,29945,28820
31934,29924,28864
31856,29926,28780
31864,29927,28815
31918,29943,28896
32012,29970,28884
32193,29992,28927
32288,30000,28822
32204,29988,28957
32093,29981,28936
31972,29959,28914
31820,29920,28929
31796,29924,29015
31868,29924,28999
31948,29945,29021
32052,29973,28942
32229,30002,29060
32269,29998,29051
32180,29992,28948
32012,29981,29092
31844,29956,29075
31656,29928,29113
31540,29931,28999
31576,29934,29088
31720,29949,29140
32064,29972,29168
32620,29991,29047
33253,29999,29185
33836,29984,29182
34652,29957,29146
35660,29932,29166
36968,29900,29249
38584,29890,29263
40289,29889,29228
41680,29902,29257
42924,29928,29311
44016,29940,29204
44776,29936,29335
45116,29929,29359
45085,29924,29245
43904,29902,29391
42004,29892,29365
39816,29886,29396
37392,29908,29375
35468,29918,29433
34057,29950,29438
33261,29987,29369
32896,29989,29497
32724,29982,29486
32492,29965,29431
32236,29936,29551
31924,29916,29540
31740,29913,29445
31672,29925,29591
31544,29935,29564
31520,29957,29620
31614,29980,29509
31708,29989,29647
31712,29981,29633
31594,29959,29621
31488,29927,29621
31212,29916,29712
31013,29908,29745
30965,29913,29624
31040,29924,29749
31172,29949,29761
31360,29972,29823
31470,29972,29785
31504,29979,29828
31520,29957,29785
31429,29926,29887
31216,29900,29898
31048,29900,29799
31048,29903,29895
31192,29915,29914
31381,29941,29871
31644,29959,29931
31802,29958,29917
31776,29951,29900
31693,29947,29918
31520,29918,29838
31408,29894,29956
31430,29887,29930
31472,29887,29899
31560,29902,29973
31717,29929,29975
32020,29944,29975
32164,29948,29895
32176,29943,29929
32084,29935,29849
31972,29895,29985
31768,29879,29927
31689,29868,29989
31788,29876,29953
31973,29884,29959
32204,29915,30001
32416,29930,29996
32528,29937,29980
32488,29929,30030
32448,29917,30029
32452,29888,29996
32356,29863,30037
32320,29855,29937
32360,29856,30077
32428,29871,30080
32540,29892,29928
32788,29911,29975
32944,29921,30029
32972,29913,29946
32980,29895,30049
32936,29863,30005
32832,29838,29959
32821,29831,29949
32900,29837,29959
33016,29844,29936
33164,29877,29976
33462,29897,29923
33644,29904,29823
33756,29890,29932
33709,29880,29892
33596,29850,29772
33472,29828,29880
33420,29820,29852
33501,29828,29712
33632,29833,29842
33736,29853,29828
33956,29877,29685
34101,29885,29802
34084,29868,29772
34104,29857,29648
34120,29831,29756
34156,29805,29760
34160,29794,29620
34156,29797,29732
34084,29821,29721
34129,29832,29623
34368,29855,29667
34480,29863,29652
34548,29856,29601
34532,29837,29636
34456,29801,29588
34240,29788,29575
34200,29777,29589
34224,29785,29600
34248,29791,29463
34324,29817,29564
34492,29839,29533
34504,29841,29573
34432,29824,29540
34388,29817,29541
34344,29791,29393
34024,29767,29488
33868,29760,29508
33798,29756,29368
33800,29780,29497
33836,29796,29447
33996,29813,29455
34062,29820,29337
33952,29819,29465
33772,29804,29440
33557,29772,29441
33236,29748,29439
33000,29742,29306
32912,29736,29421
32800,29754,29409
32692,29782,29284
32741,29799,29413
32768,29804,29411
32652,29792,29289
32572,29777,29367
32484,29752,29326
32212,29729,29333
32016,29717,29364
31884,29721,29252
31800,29739,29352
31772,29763,29316
31864,29781,29324
31912,29789,29356
31856,29775,29381
31720,29764,29244
31540,29729,29385
31308,29703,29357
31160,29701,29384
31168,29703,29258
31236,29721,29392
31292,29741,29360
31397,29754,29380
31444,29760,29269
31389,29755,29413
31340,29722,29368
31276,29714,29356
31109,29679,29337
31085,29669,29407
31228,29678,29397
31356,29685,29295
31416,29716,29435
31468,29733,29432
31532,29737,29328
31468,29729,29408
31416,29711,29406
31412,29679,29338
31336,29652,29437
31316,29653,29412
31405,29647,29471
31548,29657,29359
31600,29681,29348
31870,29703,29479
31982,29703,29470
31988,29693,29391
31884,29680,29511
31792,29649,29479
31576,29637,29377
31420,29613,29516
31416,29628,29533
31504,29641,29540
31580,29668,29544
31788,29682,29484
31872,29680,29509
31837,29668,29437
31840,29666,29567
31884,29625,29538
31768,29604,29564
31724,29592,29428
31776,29594,29581
31812,29610,29576
31964,29637,29457
32160,29652,29570
32290,29649,29591
32268,29645,29499
32192,29631,29543
32036,29596,29489
31844,29572,29527
31732,29574,29588
31752,29573,29613
31844,29583,29537
32004,29606,29578
32268,29620,29575
32400,29629,29510
32448,29618,29628
32421,29591,29584
32304,29570,29580
32016,29548,29548
31788,29541,29589
31808,29545,29574
31968,29545,29560
32112,29575,29591
32320,29590,29505
32424,29592,29647
32368,29591,29629
32296,29568,29504
32208,29548,29641
32048,29516,29548
31932,29511,29652
31968,29504,29642
32104,29519,29549
32264,29548,29630
32456,29561,29584
32602,29565,29581
32652,29556,29635
32620,29535,29600
32472,29512,29565
32224,29488,29647
32120,29478,29649
32100,29485,29549
32105,29493,29656
32242,29520,29620
32392,29535,29621
32484,29532,29653
32456,29532,29685
32360,29513,29575
32200,29485,29687
32053,29461,29664
31980,29447,29583
31980,29449,29592
32068,29469,29693
32173,29488,29703
32340,29504,29598
32458,29504,29671
32532,29506,29700
32484,29481,29637
32448,29447,29692
32264,29428,29735
32121,29414,29637
32149,29427,29755
32216,29436,29733
32308,29457,29616
32472,29480,29766
32548,29478,29789
32520,29476,29696
32476,29443,29784
32390,29425,29819
32228,29400,29796
32160,29389,29829
32241,29393,29796
32345,29397,29860
32480,29433,29861
32644,29441,29813
32712,29447,29820
32636,29442,29881
32600,29425,29768
32496,29394,29896
32320,29375,29797
32184,29357,29920
32204,29362,29821
32272,29372,29951
32350,29397,29886
32528,29415,30008
32628,29420,30005
32594,29412,29937
32599,29392,29997
32556,29365,29922
32380,29335,30078
32276,29332,30080
32308,29333,29980
32344,29349,30093
32472,29371,30056
32684,29384,30137
32833,29391,30096
32760,29383,30052
32612,29359,30124
32476,29335,30108
32304,29313,30204
32261,29308,30194
32356,29307,30086
32500,29317,30230
32640,29335,30210
32812,29359,30127
32844,29359,30270
32783,29348,30209
32669,29340,30150
32536,29304,30191
32368,29279,30285
32348,29270,30308
32437,29271,30205
32564,29284,30316
32744,29311,30336
32928,29332,30197
33028,29327,30350
33092,29316,30326
33200,29295,30274
33196,29274,30258
33072,29239,30369
32972,29240,30299
32924,29238,30413
32994,29249,30409
33134,29271,30367
33348,29288,30445
33484,29303,30351
33541,29285,30402
33656,29277,30357
33688,29245,30429
33660,29221,30449
33617,29204,30455
33684,29213,30431
33756,29221,30470
33940,29247,30516
34208,29260,30444
34340,29267,30548
34288,29249,30549
34148,29241,30444
33984,29207,30592
33736,29180,30585
33516,29180,30513
33360,29187,30532
33321,29190,30588
33360,29221,30535
33472,29243,30666
33489,29242,30689
33372,29228,30594
33192,29221,30660
33008,29180,30617
32645,29152,30650
32336,29156,30727
32204,29165,30620
32208,29166,30702
32244,29191,30777
32409,29215,30657
32536,29213,30807
32480,29207,30831
32420,29184,30747
32332,29149,30793
32096,29126,30708
31894,29121,30839
31885,29128,30785
31996,29143,30905
32132,29170,30860
32320,29180,30912
32460,29184,30949
32437,29164,30830
32340,29162,30897
32193,29132,30834
31968,29111,30954
31840,29097,30924
31820,29105,31017
31912,29117,30965
31996,29137,30894
32176,29160,31040
32224,29157,31064
32157,29151,30945
31972,29130,31034
31828,29108,31057
31700,29084,30949
31672,29071,31093
31776,29070,31044
31812,29084,31062
31928,29110,31013
32144,29128,31061
32300,29129,31044
32301,29124,31167
32280,29111,31111
32128,29081,31059
31832,29052,31057
31648,29047,31097
31600,29047,31215
31504,29063,31181
31450,29087,31152
31692,29101,31192
32085,29107,31105
32512,29101,31232
32868,29071,31229
33400,29046,31213
33912,29012,31282
34652,29001,31269
35820,29004,31255
37350,29010,31197
39132,29028,31197
40904,29039,31329
42252,29028,31367
43224,29045,31206
43944,29011,31280
44384,28984,31316
44504,28951,31295
44256,28942,31262
42912,28956,31296
41132,28969,31416
38932,29006,31465
36736,29032,31319
34964,29041,31452
33628,29044,31503
32780,29020,31348
32416,28995,31525
32192,28975,31446
31997,28967,31398
31929,28969,31553
31912,28980,31481
31928,29005,31554
32044,29031,31550
31984,29028,31429
31876,29023,31537
31724,29006,31596
31557,28975,31648
31308,28948,31573
31132,28945,31534
31116,28950,31664
31140,28959,31644
31184,28975,31673
31332,28988,31597
31452,29002,31756
31492,28991,31700
31452,28978,31748
31392,28941,31684
31236,28927,31836
31156,28915,31817
31168,28926,31869
31212,28935,31756
31356,28959,31845
31710,28979,31892
31960,28973,31773
31884,28964,31926
31664,28948,31852
31485,28919,31956
31368,28901,31879
31252,28885,31796
31356,28892,31945
31544,28903,31861
31768,28924,31953
31997,28949,31788
32164,28949,31824
32168,28942,31932
32165,28921,31889
32140,28898,31892
32024,28868,31791
31936,28855,31804
31964,28867,31972
32028,28874,31920
32156,28895,32007
32360,28913,31877
32500,28922,32028
32501,28917,32018
32501,28888,31965
32460,28867,31958
32376,28839,32020
32300,28837,31994
32324,28836,31996
32420,28844,32053
32612,28871,32069
32872,28886,32095
33048,28893,31949
33072,28885,32007
33128,28871,32039
33104,28839,32112
32937,28813,31964
32837,28798,32105
32920,28805,32095
32965,28816,31933
33048,28847,32076
33252,28865,32079
33460,28869,31943
33484,28861,31968
33460,28841,32001
33425,28820,31919
33316,28791,31961
33292,28780,31892
33400,28788,32020
33588,28790,31946
33748,28814,31885
33980,28836,32004
34112,28839,31913
34145,28833,31887
34200,28812,31852
34216,28787,31900
34081,28758,31801
34032,28753,31935
34104,28761,31824
34220,28766,31913
34324,28788,31813
34508,28806,31905
34604,28815,31834
34588,28807,31909
34592,28789,31828
34496,28753,31828
34296,28735,31912
34168,28729,31793
34236,28727,31856
34264,28740,31781
34356,28769,31858
34516,28783,31751
34600,28796,31900
34576,28780,31910
34580,28767,31912
34516,28732,31920
34360,28711,31831
34092,28703,31842
33968,28711,31821
33880,28720,31908
33856,28745,31861
33932,28758,31933
34020,28767,31950
33945,28759,31940
33752,28747,31820
33500,28717,31890
33228,28695,31841
33086,28679,31956
33036,28679,31868
32992,28693,31946
32976,28719,31909
33088,28740,32039
33076,28743,32063
33052,28736,31949
32949,28721,32021
32692,28690,32015
32434,28668,32020
32144,28662,32056
32028,28667,32149
31908,28678,32033
31860,28701,32156
31932,28724,32188
31948,28727,32086
31848,28720,32261
31696,28702,32199
31508,28676,32263
31268,28647,32205
31144,28645,32332
31064,28653,32214
31100,28659,32383
31168,28679,32423
31375,28696,32335
31484,28707,32452
31528,28695,32505
31505,28677,32377
31452,28645,32570
31224,28621,32567
31068,28613,32625
30999,28623,32495
31116,28639,32647
31268,28653,32689
31394,28679,32712
31478,28677,32602
31522,28663,32756
31580,28653,32662
31536,28626,32797
31360,28602,32836
31190,28599,32760
31093,28606,32832
31176,28608,32810
31285,28622,32979
31568,28658,33031
31736,28657,32901
31756,28644,33031
31745,28628,33015
31708,28602,33157
31540,28580,33168
31465,28573,33225
31480,28575,33206
31520,28583,33138
31676,28615,33287
31932,28631,33321
32124,28631,33380
32168,28621,33336
32124,28615,33300
32088,28576,33465
32036,28555,33365
31985,28545,33501
32000,28551,33513
32024,28559,33596
32052,28583,33639
32188,28612,33487
32176,28612,33679
32156,28597,33737
32184,28588,33593
32088,28551,33736
31888,28527,33775
31812,28521,33775
31868,28525,33705
31936,28542,33829
31996,28561,33951
32176,28589,33812
32348,28588,34005
32364,28583,33957
32296,28567,34012
32212,28531,33935
32016,28511,34108
31932,28501,34117
31996,28506,34195
32108,28517,34244
32216,28540,34092
32328,28562,34277
32384,28563,34183
32301,28556,34327
32292,28543,34413
32256,28509,34439
32032,28489,34409
31896,28480,34364
31938,28485,34526
32044,28497,34621
32164,28519,34449
32356,28542,34612
32484,28545,34708
32464,28523,34567
32456,28519,34755
32421,28487,34808
32192,28470,34824
31980,28463,34892
31946,28467,34901
31996,28477,34951
32136,28495,34969
32348,28516,35039
32476,28521,34858
32480,28517,34996
32446,28492,35099
32352,28464,34972
32184,28450,35160
32088,28443,35268
32032,28444,35100
32104,28455,35246
32276,28481,35165
32456,28497,35389
32536,28500,35220
32516,28492,35407
32476,28480,35335
32428,28452,35430
32276,28423,35447
32217,28412,35588
32132,28423,35652
32152,28435,35536
32256,28460,35740
32500,28480,35591
32536,28476,35873
32504,28475,35865
32492,28462,35948
32472,28430,35941
32328,28400,36023
32180,28391,35813
32148,28399,36045
32188,28415,36150
32308,28441,36157
32540,28455,36224
32720,28459,36118
32684,28452,36161
32620,28441,36225
32580,28412,36375
32352,28381,36367
32224,28375,36297
32192,28378,36487
32265,28391,36568
32366,28417,36407
32492,28447,36556
32592,28447,36660
32600,28439,36468
32564,28421,36708
32574,28388,36800
32440,28364,36613
32438,28351,36837
32380,28358,36933
32272,28366,36716
32272,28403,36948
32424,28421,37009
32544,28421,36839
32592,28413,37056
32548,28392,37127
32476,28372,36956
32280,28348,37220
32200,28343,37137
32240,28341,37168
32272,28356,37302
32364,28381,37430
32560,28397,37184
32704,28397,37409
32740,28396,37476
32732,28380,37537
32648,28355,37617
32492,28327,37372
32444,28313,37585
32548,28324,37569
32560,28333,37663
32676,28356,37748
32948,28379,37807
33164,28383,37892
33148,28381,37876
33293,28356,37961
33376,28326,37716
33156,28311,37932
33012,28293,37912
32989,28303,38067
32968,28309,38175
33044,28337,37927
33308,28357,38074
33488,28361,38292
33568,28357,38151
33632,28340,38045
33656,28305,38271
33606,28281,38389
33616,28276,38397
33672,28287,38407
33716,28288,38532
33889,28317,38420
34180,28333,38559
34272,28343,38605
34264,28333,38489
34189,28314,38658
33992,28287,38756
33744,28264,38503
33556,28261,38732
33384,28268,38849
33310,28276,38873
33284,28304,38798
33420,28323,38932
33584,28325,38988
33533,28319,38913
33312,28305,39012
33104,28276,38831
32772,28253,39135
32448,28241,39169
32248,28244,39100
32232,28258,39225
32288,28284,39313
32460,28300,39063
32540,28315,39328
32496,28303,39487
32412,28287,39381
32200,28261,39464
32024,28234,39401
31960,28229,39519
31980,28229,39573
31984,28247,39568
32164,28266,39559
32420,28293,39668
32461,28288,39711
32361,28290,39760
32206,28276,39860
32156,28234,39566
32016,28221,39764
31965,28213,39972
32004,28216,39844
32037,28229,39984
32152,28257,39908
32324,28270,40116
32400,28280,39798
32392,28270,40086
32296,28253,40244
32284,28226,39967
32109,28205,40199
31988,28199,40361
31974,28199,40209
31976,28206,40335
32000,28241,40455
32156,28256,40302
32296,28263,40462
32400,28259,40366
32288,28236,40421
32116,28212,40561
31777,28184,40484
31652,28181,40665
31604,28190,40493
31628,28201,40729
31744,28225,40636
32136,28236,40784
32624,28246,40824
33136,28238,40764
33580,28216,40577
34104,28184,40913
34592,28159,41045
35364,28144,40865
36600,28145,41040
38076,28157,41020
39721,28176,41202
41276,28202,40948
42372,28190,41191
42942,28181,41133
43456,28165,41245
43904,28142,41284
44248,28127,41197
43868,28109,41366
42264,28115,41392
40152,28132,41405
37933,28180,41167
36200,28201,41380
34548,28206,41402
33212,28204,41520
32376,28191,41540
32032,28167,41612
31792,28140,41670
31792,28133,41676
31872,28134,41684
31936,28136,41724
31980,28177,41647
32068,28197,41718
32052,28196,41511
31948,28189,41895
31856,28177,41895
31790,28141,41991
31584,28124,41713
31456,28117,41893
31460,28127,41930
31325,28132,42024
31317,28162,42116
31556,28183,42191
31648,28183,42225
31622,28182,42228
31544,28162,42255
31416,28132,42028
31308,28101,42356
31360,28103,42212
31432,28103,42503
31448,28119,42490
31564,28143,42564
31810,28159,42561
31936,28165,42502
31868,28152,42463
31901,28134,42449
31889,28112,42564
31740,28090,42495
31668,28087,42607
31668,28093,42493
31781,28096,42573
31896,28129,42536
32176,28150,42628
32276,28148,42612
32365,28140,42759
32368,28124,42732
32160,28097,42862
31944,28077,42817
31882,28060,42942
31976,28074,42996
32036,28084,42814
32108,28111,43041
32288,28133,43055
32340,28133,43120
32384,28128,43014
32528,28100,43053
32612,28078,42932
32412,28055,43268
32264,28045,43300
32288,28048,43330
32292,28068,43358
32464,28093,43375
32726,28111,43423
32932,28116,43383
33036,28109,43460
33080,28103,43348
32984,28065,43420
32800,28039,43334
32716,28036,43489
32840,28039,43397
32924,28052,43521
33092,28069,43444
33388,28101,43493
33522,28100,43430
33596,28099,43514
33568,28080,43449
33420,28052,43647
33252,28027,43527
33173,28017,43695
33302,28028,43649
33496,28039,43729
33624,28063,43735
33853,28077,43812
34020,28079,43756
34064,28080,43828
34076,28061,43812
34053,28028,43860
34048,28006,43815
34072,28004,43669
34164,28013,43868
34276,28025,43788
34388,28039,43903
34592,28071,43876
34656,28071,43885
34672,28066,43833
34604,28046,43716
34500,28020,43933
34317,27991,43908
34292,27985,43640
34348,27993,43849
34360,28001,43780
34501,28025,43816
34748,28049,43678
34740,28052,43968
34604,28053,43692
34568,28031,43884
34480,28004,43712
34288,27977,43881
34016,27975,43815
33882,27976,44000
33822,27991,43977
33792,28023,44006
33912,28039,43904
33968,28045,44100
33888,28036,44085
33744,28023,44130
33616,27994,44116
33324,27975,43861
33214,27965,44032
33140,27968,44057
33065,27977,44095
33044,28007,43925
33104,28031,44229
33188,28028,44261
33056,28031,44229
32848,28008,44097
32640,27989,44220
32388,27960,44023
32140,27954,44261
31952,27961,44094
31905,27973,44295
31936,28001,44148
32098,28023,44372
32072,28023,44229
31992,28014,44349
31920,28001,44308
31684,27974,44443
31380,27952,44404
31240,27943,44228
31244,27951,44492
31248,27959,44476
31301,27991,44482
31568,28009,44416
31712,28011,44324
31668,28004,44545
31573,27984,44508
31293,27960,44351
31060,27943,44576
30984,27934,44533
30980,27942,44324
31089,27945,44573
31206,27983,44500
31296,28006,44438
31424,27999,44623
31568,27996,44548
31534,27982,44517
31436,27949,44668
31208,27926,44604
31060,27919,44551
31160,27929,44711
31320,27935,44576
31480,27960,44649
31772,27989,44736
31916,27982,44716
31768,27976,44752
31688,27968,44736
31589,27935,44792
31420,27908,44773
31424,27907,44526
31444,27908,44701
31488,27924,44638
31636,27954,44732
31804,27974,44767
31828,27974,44853
31788,27967,44840
31773,27951,44888
31588,27927,44878
31504,27907,44928
31544,27893,44823
31616,27899,44657
31548,27911,44828
31500,27937,44757
31764,27960,44889
32048,27965,44924
32221,27952,44733
32204,27940,44964
32017,27900,44804
31776,27877,44968
31666,27885,44959
31680,27895,45060
31644,27900,45063
31720,27926,44827
31928,27944,45092
32116,27950,45108
32060,27941,45036
31944,27932,45085
31892,27898,45196
31728,27873,45177
31690,27862,44934
31806,27879,45172
31808,27881,45152
31940,27909,45279
32192,27933,45172
32353,27935,45165
32268,27928,45319
32120,27911,45220
31997,27886,45118
31858,27860,45372
31764,27854,45341
31796,27862,45397
31768,27877,45360
31808,27903,45191
32064,27916,45377
32168,27930,45342
32168,27921,45448
32180,27906,45445
32040,27872,45233
31876,27848,45481
31708,27846,45503
31744,27851,45476
31852,27864,45503
31964,27887,45268
32144,27908,45447
32144,27911,45364
32286,27903,45537
32336,27887,45570
32304,27852,45313
32060,27839,45496
31984,27828,45534
31940,27828,45625
31926,27842,45596
32148,27871,45668
32348,27892,45652
32416,27894,45700
32376,27892,45663
32290,27873,45495
32172,27845,45620
31972,27820,45639
31900,27820,45749
32004,27828,45749
32022,27836,45772
32128,27861,45768
32416,27881,45765
32480,27892,45703
32452,27884,45668
32380,27869,45831
32192,27837,45831
32020,27815,45596
31965,27810,45765
32001,27817,45737
31996,27829,45900
32066,27857,45873
32224,27868,45717
32324,27877,45828
32292,27873,45783
32240,27860,45880
32184,27825,45882
32160,27813,45949
32108,27792,45944
32156,27804,45715
32164,27812,45933
32318,27844,45882
32604,27865,45959
32688,27868,45956
32692,27856,46021
32544,27837,46004
32405,27812,45725
32240,27795,45981
32173,27791,45926
32208,27791,46016
32324,27805,45988
32436,27836,46068
32642,27853,45927
32768,27855,46049
32740,27849,46024
32656,27837,46087
32532,27800,46056
32296,27778,45847
32256,27782,46008
32429,27781,45823
32588,27797,46086
32676,27825,45836
32800,27839,46020
32876,27841,46010
32944,27836,46140
32792,27820,46124
32692,27797,45839
32624,27767,46052
32676,27760,46071
32777,27770,46164
32956,27783,46076
33156,27812,45956
33284,27830,46113
33434,27832,46161
33440,27828,45869
33417,27805,46058
33392,27781,46076
33312,27756,46167
33242,27753,46137
33240,27766,45980
33361,27773,46080
33548,27801,46052
33754,27819,46180
33904,27820,46148
33972,27809,45865
33944,27797,46104
33844,27769,46060
33684,27741,46167
33655,27743,46137
33632,27750,46164
33597,27756,46137
33616,27780,46140
33666,27814,46131
33560,27809,45821
33388,27805,46033
33284,27789,45876
33148,27749,46020
32976,27733,45997
32848,27728,46072
32784,27735,46105
32742,27748,46118
32696,27780,46082
32744,27801,46100
32778,27805,46081
32738,27797,46076
32608,27780,46037
32448,27749,46036
32124,27720,45792
32047,27720,46044
32074,27730,46049
32148,27748,45892
32188,27773,45997
32488,27785,45793
32640,27790,45978
32572,27783,45989
32464,27772,45703
32304,27749,45917
32156,27718,45876
32056,27718,45748
32129,27724,45826
32172,27733,45719
32256,27770,45831
32421,27783,45848
32545,27788,45831
32524,27777,45839
32400,27763,45789
32176,27733,45796
32000,27712,45727
31884,27711,45734
31916,27716,45663
31868,27726,45694
32064,27756,45636
32288,27775,45385
32436,27775,45564
32476,27762,45485
32405,27744,45548
32308,27717,45492
32128,27703,45481
32088,27697,45407
32020,27708,45288
31968,27713,45372
31973,27748,45319
32004,27764,45295
32032,27772,45165
32052,27759,44973
32228,27740,45081
32544,27708,45129
32848,27692,45031
33344,27682,44790
33901,27684,44990
34464,27694,44969
35404,27721,44895
36792,27737,44837
38236,27741,44660
39604,27732,44773
40924,27697,44780
41800,27670,44692
42172,27642,44695
42528,27645,44496
43044,27655,44470
43516,27663,44312
43285,27694,44388
41900,27732,44245
40000,27732,44252
38072,27729,44047
36160,27716,44260
34420,27689,44238
33020,27681,44144
32180,27668,44127
31956,27682,43960
31968,27684,43919
32141,27716,43765
32440,27732,43783
32570,27739,43575
32512,27729,43687
32292,27712,43525
32036,27677,43719
31668,27668,43652
31496,27663,43614
31472,27671,43548
31416,27683,43511
31400,27713,43465
31572,27729,43399
31764,27730,43221
31736,27724,43302
31760,27713,43220
31680,27681,42901
31456,27650,43004
31416,27655,42982
31358,27655,43044
31448,27674,43015
31604,27711,42924
31836,27723,42908
31941,27718,42817
31964,27716,42684
32029,27692,42697
31928,27669,42656
31704,27648,42503
31558,27637,42536
31544,27653,42407
31700,27661,42255
31917,27692,42092
32200,27708,42053
32293,27709,41980
32248,27707,41991
32168,27690,41885
32092,27652,41886
31924,27637,41775
31836,27630,41764
31948,27645,41614
32052,27648,41624
32168,27679,41316
32324,27706,41476
32480,27709,41392
32544,27695,41465
32572,27677,41422
32464,27650,41447
32284,27625,41327
32252,27625,41316
32328,27628,41194
32432,27641,41094
32620,27671,41076
32908,27686,41024
33068,27687,40935
33052,27682,40711
32904,27663,40802
32905,27634,40561
32788,27619,40661
32808,27610,40473
32704,27617,40476
32692,27625,40452
32884,27656,40455
33192,27684,40484
33484,27685,40317
33620,27672,40245
33508,27667,40144
33382,27629,40172
33184,27609,40032
33112,27607,40020
33144,27608,39892
33336,27627,39908
33640,27653,39764
33940,27671,39735
34082,27673,39614
34116,27669,39449
34072,27648,39429
33952,27621,39332
33796,27599,39303
33812,27591,39276
33888,27601,39204
34032,27607,39156
34173,27644,38838
34424,27663,38911
34569,27655,38824
34624,27650,38821
34640,27639,38804
34592,27604,38468
34460,27585,38542
34400,27589,38452
34488,27589,38477
34504,27601,38482
34544,27634,38341
34808,27652,38336
34892,27648,38216
34908,27640,38175
34820,27629,38068
34652,27597,38040
34360,27575,37831
34188,27579,37876
34114,27588,37868
34080,27596,37492
34060,27621,37559
34220,27645,37488
34348,27645,37505
34264,27639,37368
34156,27623,37413
34004,27591,37383
33757,27574,37181
33588,27575,37228
33548,27579,37148
33488,27591,36975
33448,27622,37047
33521,27645,37056
33546,27642,36802
33392,27631,36849
33212,27622,36841
32988,27588,36536
32772,27567,36649
32572,27563,36574
32516,27569,36596
32532,27588,36422
32456,27613,36359
32412,27626,36423
32357,27631,36425
32248,27629,36124
32128,27615,36150
31901,27577,36081
31592,27564,36048
31432,27559,35964
31400,27561,36039
31448,27578,35984
31452,27608,35749
31590,27631,35903
31654,27629,35639
31632,27621,35820
31580,27609,35553
31452,27572,35580
31304,27557,35649
31180,27557,35569
31192,27566,35408
31156,27574,35322
31300,27604,35412
31484,27620,35332
31512,27625,35303
31472,27609,35172
31412,27600,35183
31384,27572,35175
31244,27554,35079
31228,27543,35045
31296,27551,34964
31358,27569,34760
31444,27589,34789
31632,27615,34612
31776,27612,34780
31808,27600,34703
31754,27592,34657
31640,27559,34591
31500,27542,34505
31396,27539,34500
31420,27538,34411
31408,27556,34265
31564,27583,34281
31836,27597,34127
31936,27609,34285
31928,27604,34216
31852,27577,34101
31681,27551,34100
31500,27532,33932
31364,27528,34009
31500,27539,33817
31620,27551,33886
31804,27581,33733
32064,27603,33791
32084,27594,33791
32080,27591,33696
32060,27581,33692
31937,27539,33489
31816,27520,33575
31764,27521,33407
31796,27524,33480
31868,27536,33297
32056,27567,33384
32212,27589,33382
32150,27596,33344
32096,27588,33300
32096,27564,33172
32000,27543,33124
31810,27523,33027
31644,27517,33107
31680,27524,33101
31828,27532,32984
31908,27557,32916
32098,27577,32989
32264,27576,32892
32260,27571,32871
32166,27557,32708
32084,27524,32768
31944,27510,32658
31840,27508,32724
31852,27516,32577
31877,27527,32720
31996,27556,32644
32172,27572,32474
32217,27577,32612
32244,27571,32560
32258,27548,32532
32109,27524,32337
31853,27503,32399
31760,27497,32260
31740,27505,32300
31784,27516,32210
31952,27546,32316
32100,27574,32233
32184,27572,32075
32196,27565,32196
32180,27543,32181
32042,27513,31997
31904,27494,32007
31841,27490,31938
31832,27500,32039
31868,27513,31980
31984,27541,31865
32172,27557,31922
32254,27559,31732
32137,27546,31854
32060,27537,31757
31900,27509,31801
31724,27492,31604
31684,27492,31575
31724,27489,31665
31828,27509,31588
32004,27532,31479
32212,27556,31529
32318,27559,31516
32313,27541,31374
32280,27528,31469
32172,27498,31441
32020,27476,31438
31928,27479,31420
31917,27486,31232
31944,27495,31251
32076,27527,31165
32288,27549,31252
32365,27546,31084
32317,27540,31151
32284,27527,31052
32246,27497,31086
32152,27474,30980
32076,27474,31111
32048,27474,31020
32032,27493,30977
32120,27524,31040
32336,27539,31021
32470,27543,30850
32481,27534,30874
32484,27522,30935
32453,27484,30768
32372,27471,30840
32340,27466,30772
32344,27471,30831
32346,27492,30761
32388,27516,30733
32564,27532,30627
32556,27529,30719
32416,27527,30687
32365,27516,30537
32258,27480,30652
32036,27462,30634
31984,27459,30615
32020,27461,30436
32124,27476,30477
32232,27511,30388
32412,27526,30435
32513,27527,30356
32520,27521,30462
32520,27510,30386
32432,27472,30256
32286,27460,30377
32212,27457,30288
32244,27463,30215
32364,27476,30301
32576,27501,30258
32884,27520,30267
33072,27525,30184
33100,27506,30038
33120,27503,30177
33004,27471,30109
32880,27447,29956
32820,27442,30073
32888,27446,30048
32996,27468,29916
33220,27499,30013
33500,27518,30000
33580,27511,29970
33596,27508,29925
33636,27492,29838
33586,27463,29810
33476,27443,29700
33437,27436,29744
33496,27439,29766
33612,27454,29628
33708,27491,29744
33877,27508,29725
33949,27508,29605
33828,27495,29646
33694,27485,29506
33428,27456,29589
33156,27441,29516
33056,27430,29454
33000,27441,29507
32925,27452,29425
32912,27490,29480
32976,27502,29409
32981,27501,29279
32812,27495,29394
32568,27479,29383
32288,27453,29244
31980,27433,29292
31873,27433,29146
31936,27438,29177
32024,27448,29223
32128,27483,29100
32335,27495,29143
32380,27498,29044
32324,27492,29147
32228,27476,29136
32097,27447,29103
31897,27429,29049
31824,27423,28880
31868,27428,28972
31940,27439,28904
32124,27477,28967
32281,27494,28921
32340,27492,28770
32344,27493,28881
32296,27465,28807
32140,27440,28717
31956,27422,28800
31908,27421,28743
31869,27429,28609
31906,27437,28708
32028,27471,28664
32248,27489,28497
32343,27488,28615
32364,27478,28594
32264,27468,28444
32092,27433,28524
31892,27413,28514
31864,27412,28349
31956,27424,28455
32032,27437,28431
32157,27460,28267
32248,27484,28378
32148,27480,28349
31944,27479,28180
31796,27460,28305
31568,27440,28229
31326,27412,28253
31372,27417,28068
31724,27415,28132
32284,27428,28122
32912,27446,28055
33486,27476,28053
34012,27474,28060
34732,27463,27927
35684,27445,27948
36916,27417,28015
38388,27387,27956
39918,27389,27930
41224,27386,27952
42328,27390,27896
43292,27416,27886
44144,27437,27729
44660,27447,27744
44744,27432,27817
43768,27429,27780
42088,27411,27666
39996,27372,27761
37588,27394,27702
35543,27397,27592
34044,27420,27699
33108,27447,27636
32672,27466,27511
32540,27469,27625
32412,27463,27558
32252,27449,27535
32128,27424,27556
31828,27399,27460
31620,27399,27500
31512,27413,27406
31468,27416,27484
31457,27449,27492
31556,27469,27372
31576,27466,27424
31536,27463,27438
31508,27448,27305
31300,27416,27422
31085,27393,27368
30948,27392,27292
30969,27399,27300
31044,27408,27346
31188,27438,27361
31436,27460,27215
31584,27463,27329
31632,27457,27264
31588,27440,27253
31496,27407,27257
31276,27389,27211
31149,27380,27195
31172,27391,27233
31224,27404,27172
31432,27438,27143
31748,27447,27178
31868,27454,27169
31892,27445,27040
31848,27428,27087
31736,27399,26980
31540,27377,27072
31468,27380,27015
31524,27384,26900
31612,27404,26981
31777,27429,26973
31960,27448,26973
32092,27452,26948
32072,27444,26832
32020,27421,26890
31964,27391,26837
31908,27375,26898
31832,27371,26837
31888,27373,26729
32032,27396,26841
32212,27428,26792
32484,27441,26773
32548,27440,26785
32400,27430,26762
32292,27416,26651
32268,27388,26745
32196,27365,26662
32192,27359,26709
32276,27371,26660
32405,27386,26532
32608,27421,26614
32828,27429,26612
32912,27435,26461
32932,27421,26546
32832,27412,26498
32672,27381,26502
32564,27361,26389
32501,27357,26357
32612,27366,26400
32773,27377,26352
32968,27417,26333
33248,27431,26201
33412,27429,26285
33492,27420,26231
33536,27401,26228
33460,27374,26117
33400,27359,26141
33380,27353,26055
33440,27363,26113
33549,27373,26056
33720,27396,26044
33951,27425,25922
34052,27420,26004
34044,27413,25951
34032,27390,25925
34021,27367,25878
33924,27349,25873
33896,27344,25876
34000,27348,25744
34144,27362,25820
34297,27398,25782
34512,27417,25665
34632,27419,25733
34636,27409,25696
34608,27385,25591
34468,27356,25656
34336,27342,25622
34280,27332,25540
34293,27343,25567
34280,27361,25558
34384,27391,25455
34532,27407,25476
34540,27411,25473
34484,27399,25399
34392,27385,25449
34199,27356,25433
33952,27332,25361
33774,27329,25372
33732,27336,25364
33716,27355,25305
33760,27385,25272
33892,27407,25317
33896,27410,25276
33776,27399,25265
33640,27376,25191
33408,27353,25254
33029,27332,25220
32732,27334,25220
32588,27343,25145
32588,27353,25185
32620,27384,25173
32672,27399,25093
32688,27408,25153
32556,27388,25124
32348,27382,25129
32104,27354,25038
31808,27332,25111
31658,27333,25095
31584,27341,25008
31592,27349,25074
31700,27387,25066
31840,27399,25060
31892,27396,25022
31836,27396,25010
31788,27373,24971
31608,27345,24996
31344,27328,24932
31214,27327,24984
31240,27332,24975
31336,27345,24925
31452,27382,24936
31624,27399,24960
31648,27399,24960
31536,27393,24877
31488,27381,24912
31356,27350,24920
31168,27332,24937
31134,27326,24847
31200,27333,24901
31320,27343,24893
31472,27365,24852
31732,27390,24856
31852,27390,24869
31864,27380,24839
31920,27373,24815
31852,27341,24834
31640,27323,24821
31546,27317,24740
31548,27327,24793
31528,27341,24748
31524,27368,24782
31677,27389,24781
31796,27391,24729
31792,27382,24727
31781,27367,24676
31752,27339,24721
31620,27325,24679
31614,27319,24700
31617,27324,24677
31668,27334,24653
31792,27369,24664
32076,27383,24662
32152,27385,24577
32072,27381,24617
32048,27367,24575
31912,27327,24609
31772,27316,24604
31696,27313,24524
31712,27319,24555
31824,27333,24524
32012,27367,24476
32176,27381,24523
32208,27381,24500
32188,27375,24437
32164,27359,24476
32084,27331,24454
31872,27306,24462
31804,27305,24406
31844,27317,24420
31896,27328,24393
32036,27359,24407
32216,27375,24352
32356,27367,24319
32372,27373,24353
32327,27349,24340
32208,27316,24285
32028,27306,24300
31960,27302,24244
32016,27311,24276
32008,27320,24272
32081,27348,24205
32241,27364,24236
32240,27373,24214
32212,27364,24193
32204,27349,24188
32096,27318,24178
31940,27303,24137
31852,27301,24141
31916,27301,24130
31993,27325,24110
32112,27345,24071
32292,27364,24097
32368,27359,24055
32360,27358,24071
32308,27349,24049
32188,27313,23990
31948,27300,24020
31865,27293,23999
31877,27303,23988
31944,27317,23965
32116,27343,23924
32324,27358,23944
32428,27366,23927
32448,27353,23933
32420,27336,23880
32208,27311,23877
32008,27295,23872
31940,27287,23841
31937,27293,23855
32013,27311,23840
32152,27340,23815
32304,27355,23820
32392,27359,23810
32372,27344,23762
32332,27337,23784
32250,27310,23770
32080,27289,23770
32048,27280,23758
32164,27290,23719
32324,27305,23735
32424,27334,23727
32596,27355,23690
32660,27352,23701
32524,27349,23700
32256,27328,23681
31992,27305,23685
31878,27284,23660
31920,27276,23682
32032,27293,23658
32128,27305,23665
32232,27332,23634
32460,27349,23652
32568,27349,23645
32612,27340,23652
32540,27326,23621
32365,27300,23629
32180,27284,23634
32092,27279,23627
32024,27284,23628
32076,27301,23592
32260,27322,23615
32552,27348,23593
32684,27344,23613
32704,27343,23610
32700,27326,23588
32527,27297,23604
32278,27272,23582
32184,27273,23604
32216,27278,23602
32308,27301,23566
32436,27335,23596
32577,27342,23591
32624,27348,23564
32589,27335,23597
32592,27316,23588
32544,27293,23557
32441,27271,23588
32448,27270,23580
32536,27283,23597
32640,27292,23580
32828,27317,23566
33156,27345,23581
33356,27339,23597
33396,27333,23567
33448,27312,23585
33272,27289,23601
33057,27271,23556
33024,27271,23586
33072,27271,23558
33144,27287,23580
33372,27320,23559
33672,27337,23584
33832,27335,23559
33901,27332,23584
33904,27313,23559
33848,27281,23584
33712,27266,23586
33728,27263,23587
33816,27266,23580
33896,27280,23596
33997,27316,23577
34088,27329,23594
34100,27337,23590
34000,27327,23597
33832,27314,23604
33578,27280,23601
33212,27263,23620
33053,27268,23612
33072,27264,23612
33106,27281,23628
33132,27311,23636
33220,27334,23622
33222,27339,23636
33076,27327,23653
32872,27311,23654
32584,27282,23644
32328,27260,23678
32140,27261,23681
32032,27268,23698
31988,27285,23670
32116,27324,23698
32352,27332,23695
32444,27332,23718
32440,27322,23705
32376,27313,23738
32228,27285,23761
31980,27262,23741
31889,27262,23771
31888,27270,23743
31960,27279,23783
32060,27311,23796
32236,27326,23797
32352,27332,23789
32424,27325,23817
32344,27309,23837
32141,27280,23814
31784,27262,23844
31656,27260,23830
31612,27268,23872
31644,27287,23879
31804,27318,23846
32032,27333,23886
32132,27331,23909
32092,27326,23900
32140,27307,23919
32006,27282,23940
31788,27265,23909
31676,27254,23957
31744,27268,23979
31840,27285,23944
32010,27308,23977
32248,27327,23999
32260,27333,24000
32052,27327,23985
31872,27303,24014
31688,27284,24037
31460,27264,24012
31272,27258,24063
31348,27268,24088
31700,27285,24048
32268,27307,24112
32836,27327,24122
33396,27332,24141
33972,27319,24127
34760,27293,24166
35708,27269,24141
36988,27242,24201
38676,27239,24228
40476,27244,24210
42036,27258,24240
43452,27289,24278
44568,27292,24255
45164,27300,24305
45428,27286,24350
45284,27273,24321
44268,27250,24383
42564,27233,24396
40416,27245,24416
37916,27253,24436
35924,27271,24416
34432,27308,24490
33614,27321,24522
33120,27333,24512
32852,27324,24564
32613,27309,24523
32308,27284,24604
32020,27261,24644
31856,27260,24619
31777,27271,24660
31688,27293,24709
31574,27319,24657
31616,27332,24756
31568,27337,24773
31476,27324,24796
31412,27316,24804
31272,27286,24857
31084,27268,24896
30916,27264,24850
30928,27271,24949
30968,27289,24977
31140,27316,24949
31404,27337,24970
31568,27336,25060
31592,27332,25093
31588,27318,25037
31508,27284,25079
31345,27264,25172
31286,27264,25175
31332,27271,25191
31364,27286,25185
31504,27317,25228
31704,27333,25234
31884,27337,25242
31896,27327,25269
31836,27317,25217
31672,27287,25308
31468,27264,25317
31373,27260,25330
31415,27272,25348
31512,27287,25272
31720,27325,25371
31940,27332,25357
32056,27343,25301
32104,27334,25405
32121,27311,25394
32052,27284,25345
31924,27260,25442
31888,27265,25397
31958,27268,25477
32072,27288,25500
32252,27316,25444
32473,27335,25503
32574,27343,25493
32612,27333,25556
32612,27313,25572
32513,27284,25589
32412,27271,25601
32408,27269,25581
32480,27271,25598
32540,27285,25530
32712,27322,25639
32952,27335,25625
33009,27341,25607
33004,27335,25624
33037,27318,25584
32982,27289,25660
32864,27271,25654
32856,27271,25594
32944,27276,25628
33045,27284,25561
33156,27319,25646
33376,27336,25645
33544,27345,25612
33608,27341,25621
33613,27325,25537
33516,27289,25628
33396,27276,25634
33412,27271,25577
33560,27277,25614
33748,27292,25558
33892,27321,25627
34149,27337,25629
34300,27343,25583
34292,27335,25552
34336,27320,25628
34264,27292,25644
34088,27284,25541
34044,27276,25622
34204,27285,25647
34352,27295,25607
34586,27320,25622
34830,27344,25629
34852,27351,25548
34784,27340,25604
34752,27332,25658
34584,27300,25629
34385,27277,25604
34308,27273,25604
34348,27285,25626
34368,27303,25567
34444,27332,25661
34612,27351,25636
34696,27355,25558
34608,27349,25653
34500,27335,25651
34344,27304,25585
34138,27285,25647
34020,27284,25637
34000,27292,25663
33981,27310,25662
34004,27335,25618
34120,27361,25636
34148,27366,25565
33980,27357,25637
33748,27343,25605
33525,27313,25663
33224,27300,25607
33076,27293,25663
32964,27305,25602
32873,27316,25660
32857,27348,25676
32924,27373,25640
32876,27370,25661
32752,27367,25640
32552,27351,25652
32276,27324,25666
31968,27304,25618
31753,27305,25701
31728,27317,25711
31716,27333,25628
31796,27356,25716
31936,27381,25743
31880,27389,25681
31768,27377,25730
31692,27367,25697
31516,27332,25738
31332,27317,25756
31264,27315,25698
31252,27319,25805
31260,27341,25827
31364,27364,25774
31528,27388,25829
31580,27399,25829
31532,27387,25831
31492,27372,25868
31368,27345,25832
31180,27327,25936
31112,27332,25940
31136,27336,25881
31196,27348,25909
31300,27378,25976
31476,27399,25911
31564,27404,26016
31572,27396,25991
31500,27385,26068
31432,27353,26084
31286,27332,26023
31204,27337,26108
31264,27345,26116
31364,27365,26039
31516,27390,26168
31780,27415,26165
31812,27411,26144
31720,27407,26188
31617,27389,26247
31556,27364,26181
31476,27345,26262
31417,27343,26191
31456,27352,26313
31544,27372,26316
31688,27402,26308
31874,27413,26388
32000,27425,26382
32049,27413,26348
31976,27399,26404
31844,27372,26452
31672,27359,26391
31648,27352,26478
31673,27367,26400
31800,27383,26519
31988,27407,26504
32228,27430,26530
32272,27428,26584
32216,27431,26530
32176,27413,26596
32056,27389,26568
31840,27364,26655
31776,27365,26673
31798,27373,26578
31868,27391,26705
31996,27424,26717
32204,27437,26628
32280,27447,26720
32176,27438,26705
32137,27429,26785
32068,27399,26762
31916,27375,26754
31904,27381,26780
31964,27388,26806
31984,27404,26772
32096,27439,26760
32341,27453,26877
32400,27456,26855
32364,27450,26861
32308,27444,26841
32152,27407,26900
31996,27391,26812
31928,27388,26951
32004,27399,26956
32084,27417,26994
32204,27445,26970
32396,27461,27012
32500,27478,26912
32434,27471,27046
32368,27450,27031
32200,27431,26961
32029,27406,27012
31946,27407,27087
31964,27418,27109
32032,27434,26998
32172,27471,27081
32384,27483,27124
32492,27483,27134
32474,27478,27135
32408,27463,27174
32272,27437,27205
32120,27428,27113
32049,27421,27188
32116,27437,27143
32226,27452,27205
32404,27482,27244
32484,27493,27157
32460,27497,27301
32372,27495,27278
32332,27487,27326
32210,27454,27324
32008,27439,27278
31916,27436,27332
31940,27451,27249
32020,27469,27367
32173,27494,27303
32388,27517,27432
32484,27519,27422
32464,27517,27336
32392,27500,27479
32216,27472,27492
32064,27459,27440
32005,27457,27499
32068,27464,27433
32088,27485,27556
32176,27508,27583
32408,27524,27568
32496,27536,27636
32448,27527,27557
32380,27516,27645
32272,27486,27569
32130,27468,27701
32060,27473,27732
32120,27483,27773
32196,27495,27791
32333,27527,27751
32566,27545,27797
32620,27551,27722
32569,27541,27872
32476,27524,27874
32336,27500,27860
32165,27490,27927
32116,27495,27913
32176,27494,27989
32296,27513,27916
32453,27538,27992
32629,27566,27940
32696,27574,28046
32641,27567,27998
32584,27548,28072
32428,27517,27999
32313,27497,28152
32317,27504,28163
32444,27516,28124
32568,27526,28178
32696,27559,28114
32916,27580,28226
32992,27585,28142
33076,27572,28297
33184,27566,28317
33172,27535,28244
33056,27521,28289
32992,27515,28280
32989,27524,28286
33080,27540,28396
33228,27577,28416
33413,27593,28376
33528,27595,28420
33616,27591,28327
33593,27578,28482
33572,27548,28495
33536,27529,28376
33660,27534,28549
33756,27549,28537
33920,27557,28533
34080,27596,28489
34272,27610,28565
34284,27608,28548
34148,27604,28599
34006,27597,28527
33736,27572,28624
33431,27553,28558
33224,27548,28704
33120,27557,28679
33076,27572,28757
33180,27606,28775
33345,27625,28691
33324,27634,28775
33209,27628,28708
33056,27609,28817
32796,27583,28724
32476,27571,28849
32260,27577,28845
32140,27582,28844
32084,27601,28895
32136,27637,28808
32364,27652,28914
32456,27655,28874
32352,27645,28974
32290,27631,28896
32164,27603,29018
31952,27584,28911
31833,27591,29076
31900,27604,29096
31966,27621,29004
32096,27653,29108
32269,27671,29044
32320,27671,29156
32263,27668,29156
32172,27654,29132
32040,27624,29175
31821,27608,29134
31724,27609,29268
31816,27620,29277
31878,27636,29309
32080,27666,29317
32272,27694,29333
32320,27684,29341
32266,27684,29364
32224,27663,29343
32088,27646,29280
31905,27623,29350
31880,27623,29305
31916,27637,29444
31948,27652,29437
32112,27685,29344
32353,27700,29423
32444,27705,29420
32292,27703,29516
32188,27686,29535
32024,27655,29457
31684,27644,29509
31528,27645,29422
31406,27655,29558
31392,27671,29508
31544,27702,29605
31957,27716,29639
32448,27721,29564
32828,27711,29636
33225,27701,29572
33664,27665,29655
34272,27648,29580
35264,27647,29668
36696,27652,29702
38436,27667,29770
40292,27688,29749
41876,27710,29806
43100,27709,29754
43872,27688,29752
44396,27694,29871
44664,27652,29824
44600,27647,29909
43728,27661,29788
42004,27652,29900
40064,27684,29915
37756,27712,29983
35904,27745,29932
34376,27748,29855
33316,27748,30016
32700,27738,30048
32417,27702,29904
32156,27686,30084
32016,27686,30068
31948,27697,30015
31904,27719,30048
31884,27751,30082
31924,27767,30032
31870,27775,30197
31757,27763,30202
31641,27757,30087
31436,27725,30264
31160,27706,30286
31015,27713,30210
31028,27725,30263
31136,27743,30359
31265,27772,30292
31405,27783,30414
31364,27784,30309
31292,27778,30447
31256,27765,30452
31156,27741,30438
31021,27727,30524
31017,27716,30561
31110,27724,30475
31268,27740,30587
31436,27778,30653
31670,27796,30535
31725,27801,30668
31780,27783,30666
31736,27777,30631
31616,27751,30724
31472,27735,30740
31420,27735,30697
31504,27743,30708
31580,27764,30678
31754,27788,30808
32012,27809,30837
32134,27812,30704
32156,27799,30821
32172,27783,30825
32057,27756,30897
31848,27747,30903
31804,27743,30937
31856,27749,30948
31952,27766,30983
32164,27804,31005
32461,27812,30902
32564,27817,31036
32582,27813,31045
32524,27794,31119
32364,27766,31143
32215,27756,31064
32220,27752,31169
32296,27763,31124
32412,27780,31261
32618,27812,31269
32844,27825,31141
33012,27833,31271
32980,27822,31224
32941,27801,31366
32840,27780,31337
32752,27765,31257
32756,27764,31367
32844,27775,31299
32868,27797,31348
33006,27821,31385
33232,27844,31455
33372,27846,31401
33433,27836,31481
33496,27823,31465
33422,27795,31525
33312,27777,31529
33320,27777,31414
33400,27783,31541
33528,27801,31525
33760,27828,31582
34012,27841,31548
34168,27850,31609
34224,27841,31616
34208,27823,31663
34092,27799,31698
33932,27781,31593
33952,27780,31633
34053,27791,31583
34172,27811,31682
34352,27837,31653
34584,27855,31792
34716,27860,31825
34660,27852,31704
34653,27837,31810
34552,27805,31870
34436,27797,31735
34384,27786,31847
34396,27799,31764
34516,27815,31932
34704,27844,31868
34912,27860,31863
35004,27865,31980
34841,27854,32018
34612,27847,31885
34336,27818,31974
34133,27799,31968
34020,27801,32093
33996,27809,32135
34028,27825,32135
34144,27860,32160
34261,27876,32031
34256,27879,32173
34112,27870,32148
33964,27855,32190
33740,27830,32109
33431,27805,32201
33260,27815,32155
33180,27825,32288
33144,27839,32218
33148,27868,32313
33220,27889,32253
33160,27887,32400
32992,27879,32474
32845,27863,32372
32604,27833,32529
32312,27821,32548
32128,27818,32586
32080,27831,32570
32034,27847,32514
32064,27887,32662
32168,27900,32646
32104,27903,32566
31952,27887,32661
31808,27881,32614
31692,27851,32780
31456,27833,32838
31308,27833,32716
31301,27836,32814
31365,27861,32868
31468,27894,32976
31616,27905,32945
31677,27906,32887
31678,27898,33093
31578,27887,33098
31362,27855,32991
31180,27843,33090
31104,27845,33068
31108,27857,33228
31234,27865,33136
31400,27892,33249
31558,27909,33353
31632,27922,33404
31572,27905,33468
31550,27893,33317
31424,27860,33479
31268,27849,33484
31228,27852,33586
31276,27861,33641
31324,27872,33654
31432,27909,33692
31653,27924,33713
31804,27918,33615
31862,27911,33724
31884,27904,33680
31736,27871,33834
31588,27855,33825
31518,27853,33927
31580,27865,33961
31680,27879,34007
31828,27908,34060
32064,27931,33909
32128,27925,34032
32068,27916,34000
31976,27905,34151
31828,27868,34239
31676,27854,34108
31712,27861,34296
31824,27868,34330
31896,27881,34208
31988,27917,34278
32130,27930,34265
32192,27928,34439
32186,27924,34503
32212,27898,34352
32132,27864,34461
31968,27862,34440
31900,27863,34621
32012,27866,34703
32188,27891,34564
32416,27911,34733
32614,27929,34725
32620,27933,34749
32560,27923,34845
32510,27909,34829
32412,27876,34741
32264,27861,34848
32156,27861,34814
32176,27870,34965
32245,27889,34876
32378,27913,34975
32556,27937,34969
32584,27937,35129
32520,27930,35123
32448,27906,35217
32277,27876,35193
32188,27859,35111
32108,27864,35332
32112,27879,35220
32236,27887,35374
32364,27927,35425
32544,27936,35463
32604,27945,35487
32600,27933,35423
32557,27919,35373
32421,27876,35553
32271,27864,35621
32176,27869,35681
32181,27876,35704
32236,27889,35753
32364,27925,35667
32480,27937,35784
32524,27938,35657
32558,27932,35815
32552,27913,35899
32429,27884,35757
32296,27868,35975
32186,27871,36055
32192,27881,35916
32248,27893,36103
32434,27924,36111
32624,27941,36036
32700,27935,36212
32696,27933,36252
32732,27918,36166
32638,27892,36103
32416,27869,36312
32296,27876,36372
32244,27879,36236
32288,27887,36452
32386,27925,36486
32672,27942,36462
32760,27942,36525
32724,27938,36612
32694,27924,36549
32510,27884,36718
32301,27872,36615
32272,27870,36754
32336,27887,36784
32356,27897,36694
32524,27930,36841
32668,27940,36963
32644,27944,36821
32648,27938,36965
32628,27911,36985
32440,27887,36924
32256,27879,37088
32192,27869,37167
32220,27884,37057
32313,27903,37196
32540,27933,37289
32696,27951,37045
32668,27944,37281
32580,27935,37399
32528,27924,37321
32400,27892,37390
32260,27876,37393
32288,27872,37367
32356,27877,37521
32436,27899,37448
32540,27927,37600
32758,27937,37605
32792,27943,37549
32684,27939,37740
32584,27921,37665
32448,27887,37527
32276,27876,37751
32340,27876,37876
32428,27884,37749
32492,27896,37905
32592,27927,37823
32776,27942,37948
32872,27948,37796
32924,27936,38045
32932,27911,37988
32809,27880,38175
32673,27872,38032
32600,27873,38160
32712,27879,38167
32820,27894,38236
33068,27920,38030
33312,27943,38254
33476,27938,38407
33496,27933,38279
33436,27917,38268
33304,27893,38341
33090,27860,38569
33064,27862,38404
33196,27878,38292
33392,27889,38595
33668,27923,38512
33904,27937,38623
34012,27943,38686
34036,27929,38767
34104,27911,38653
34008,27879,38796
33868,27860,38764
33856,27862,38900
33980,27868,38743
34024,27884,38940
34060,27917,38972
34072,27932,38960
34004,27933,38773
33812,27927,39092
33660,27911,39189
33429,27881,38976
33284,27863,39167
33153,27863,39269
33072,27861,39253
33016,27886,39082
33110,27910,39320
33216,27933,39308
33044,27934,39463
32772,27924,39320
32624,27911,39460
32420,27879,39445
32132,27868,39612
32136,27864,39444
32208,27877,39585
32168,27889,39599
32256,27916,39556
32468,27932,39687
32537,27926,39669
32464,27922,39716
32340,27902,39791
32136,27881,39785
31956,27861,39842
31924,27865,39959
31950,27866,39752
32004,27884,39929
32176,27911,39928
32316,27930,39997
32375,27930,39924
32377,27923,39772
32292,27911,40092
32092,27881,40216
31861,27858,40048
31788,27860,39939
31846,27869,40198
31940,27882,40168
32068,27908,40317
32268,27929,40025
32300,27933,40302
32224,27921,40448
32152,27905,40217
32036,27874,40314
31930,27848,40563
31876,27852,40198
31948,27860,40444
31968,27880,40596
32096,27911,40359
32224,27923,40612
32152,27928,40679
32020,27911,40485
31844,27898,40679
31588,27871,40753
31284,27849,40426
31388,27848,40652
31788,27856,40770
32256,27871,40508
32886,27897,40823
33668,27906,40956
34368,27908,40823
35144,27897,40628
36180,27876,40932
37572,27841,41045
39096,27812,40953
40552,27809,40750
41836,27816,41092
42708,27829,41032
43464,27855,41164
44220,27871,40878
44772,27879,41095
44668,27862,41304
43300,27852,41132
41148,27820,40940
38832,27820,41230
36712,27828,41319
34892,27844,41060
33444,27860,41354
32560,27899,41496
32380,27911,41284
32408,27910,41441
32329,27896,41404
32237,27877,41590
32073,27847,41383
31856,27834,41204
31728,27834,41540
31684,27841,41516
31644,27857,41709
31700,27889,41700
31828,27900,41543
31804,27902,41682
31721,27892,41684
31556,27883,41831
31328,27847,41676
31164,27827,41583
31084,27833,41669
31140,27836,41679
31152,27851,41607
31328,27886,41948
31592,27897,41889
31660,27888,42084
31620,27880,41905
31492,27871,41726
31353,27839,42078
31216,27815,42088
31250,27815,42188
31373,27823,42120
31468,27840,41931
31596,27873,42168
31864,27887,42178
31952,27885,42116
31884,27876,42179
31824,27863,42177
31712,27829,41922
31552,27807,42240
31554,27804,42209
31620,27820,42265
31736,27825,42134
31886,27858,42228
32109,27877,42230
32184,27879,42247
32168,27865,42257
32153,27844,42247
32126,27813,42310
31992,27801,42296
31992,27798,42468
32124,27810,42551
32277,27814,42448
32436,27844,42297
32588,27856,42557
32632,27858,42608
32636,27853,42553
32620,27839,42503
32548,27807,42662
32396,27786,42593
32285,27783,42645
32424,27799,42724
32584,27812,42631
32813,27837,42428
33068,27850,42769
33156,27857,42644
33076,27841,42729
33049,27822,42828
32988,27797,42788
32864,27783,42610
32916,27776,42500
32984,27783,42831
33076,27799,42708
33300,27824,42724
33512,27844,42858
33692,27845,42639
33704,27836,42831
33708,27822,42820
33636,27783,42833
33546,27767,42698
33556,27759,42865
33685,27775,42708
33788,27795,42862
33952,27815,42545
34100,27829,42870
34208,27834,42869
34233,27824,42752
34180,27803,42839
34136,27775,42798
34016,27750,42663
34022,27751,42813
34108,27764,42845
34228,27777,42838
34448,27799,42695
34616,27823,42813
34636,27815,42852
34572,27815,42526
34552,27796,42837
34460,27763,42838
34324,27746,42748
34196,27746,42805
34156,27756,42532
34136,27767,42833
34212,27796,42676
34408,27809,42741
34468,27813,42580
34332,27805,42808
34172,27786,42804
34000,27757,42855
33788,27735,42500
33636,27732,42837
33516,27746,42817
33542,27758,42719
33612,27789,42821
33752,27804,42770
33798,27804,42551
33668,27799,42788
33520,27783,42902
33248,27749,42628
32928,27726,42596
32812,27719,42759
32808,27730,42862
32789,27751,42631
32788,27781,42913
32804,27791,42915
32756,27798,42785
32584,27783,42793
32373,27775,42945
32128,27746,42828
31941,27719,42652
31740,27722,42960
31712,27728,42975
31684,27738,42848
31789,27770,43007
31832,27785,42852
31879,27789,42969
31828,27775,42860
31668,27765,42693
31525,27739,42975
31336,27712,42984
31212,27711,43007
31200,27720,42725
31304,27735,42905
31413,27759,43015
31540,27780,42725
31624,27778,42976
31664,27775,43052
31584,27755,42729
31472,27717,42967
31360,27708,43049
31289,27703,42751
31240,27715,43072
31284,27724,42988
31432,27751,43036
31652,27764,43015
31740,27767,42872
31706,27753,43084
31649,27728,43045
31608,27711,42996
31432,27685,42817
31404,27687,43108
31440,27691,42964
31516,27709,43103
31659,27733,42925
31872,27755,43109
31964,27752,42999
31992,27740,43130
31908,27719,42956
31736,27698,42928
31556,27679,43101
31544,27676,43157
31604,27685,42956
31768,27694,43173
31973,27724,43004
32200,27747,43148
32240,27750,42887
32164,27735,43070
32108,27712,43181
32080,27687,42985
31916,27669,43036
31748,27660,42885
31828,27669,43206
31832,27687,43130
31940,27714,43072
32176,27733,43205
32265,27728,43064
32228,27726,43205
32140,27706,43045
32020,27677,43236
31912,27652,43113
31949,27652,43100
31884,27662,43237
31868,27679,43245
31961,27711,42953
32184,27723,43240
32240,27721,43223
32196,27706,42952
32172,27693,43136
32108,27655,43188
31976,27645,43266
31944,27639,43311
31996,27650,43151
32028,27663,43311
32140,27688,43000
32292,27708,43328
32356,27711,43191
32342,27700,43109
32284,27687,43305
32205,27654,43357
32036,27636,43271
32004,27636,43232
32004,27644,43324
32000,27646,43141
32088,27681,43048
32276,27701,43312
32304,27695,43244
32252,27695,43287
32296,27664,43063
32221,27640,43340
31972,27621,43308
31908,27623,43149
31912,27628,43320
32040,27644,43309
32260,27671,43304
32380,27686,43143
32388,27687,43204
32404,27679,43033
32320,27655,43128
32168,27625,43268
31912,27611,43129
31909,27604,42998
31916,27616,43193
31986,27636,43257
32184,27663,43271
32448,27677,43159
32480,27677,43169
32404,27671,43249
32344,27647,43204
32256,27623,43040
32053,27601,43189
31988,27598,43201
32012,27601,43212
32088,27621,43188
32230,27653,42864
32404,27668,43040
32437,27663,42853
32429,27655,42998
32380,27639,42980
32240,27609,43138
32036,27584,42961
32036,27581,42985
32052,27593,43084
32104,27613,43015
32152,27637,43068
32313,27655,43013
32460,27655,42808
32468,27649,42887
32408,27635,42925
32256,27599,42982
32032,27581,42948
31964,27572,42897
32092,27582,42837
32128,27597,42705
32292,27631,42857
32516,27646,42868
32568,27640,42784
32500,27639,42680
32404,27622,42711
32328,27587,42722
32184,27566,42580
32080,27564,42380
32120,27572,42571
32160,27588,42652
32268,27614,42601
32496,27629,42576
32664,27631,42216
32680,27621,42367
32644,27606,42236
32484,27581,42340
32232,27558,42264
32172,27562,42348
32276,27562,42405
32343,27572,42310
32500,27606,42272
32813,27617,41902
32948,27624,42093
32936,27609,42020
32850,27592,42124
32828,27564,42126
32720,27555,41812
32672,27543,41881
32772,27548,41844
32868,27561,41888
33004,27592,41845
33221,27609,41820
33349,27615,41681
33276,27607,41716
33308,27588,41676
33310,27551,41680
33168,27532,41700
33248,27527,41260
33316,27543,41432
33440,27556,41378
33656,27584,41479
33828,27601,41348
33968,27596,41143
34016,27584,41247
33948,27569,40958
33832,27536,41149
33724,27521,41200
33597,27518,41157
33616,27527,41172
33637,27543,40748
33668,27573,41009
33624,27588,40961
33504,27590,40999
33381,27580,40557
33300,27562,40782
33097,27533,40476
32834,27514,40728
32758,27511,40590
32753,27525,40628
32780,27530,40625
32703,27559,40561
32608,27574,40380
32548,27580,40404
32480,27575,40400
32406,27557,40410
32268,27527,40321
32072,27502,40370
32012,27497,39909
32074,27511,40135
32117,27527,40142
32254,27559,40079
32470,27569,40036
32552,27573,39967
32489,27557,39804
32464,27541,39862
32324,27516,39562
32140,27493,39751
32080,27492,39703
32128,27503,39682
32112,27517,39604
32192,27541,39474
32360,27557,39489
32424,27552,39517
32424,27555,39415
32360,27533,39313
32212,27503,39257
32022,27481,39262
32012,27481,39250
32032,27488,38889
32037,27508,39093
32122,27532,39077
32392,27551,39017
32548,27553,38975
32536,27541,38834
32480,27534,38858
32337,27493,38711
32088,27483,38728
32040,27474,38432
32056,27486,38546
31968,27501,38620
32012,27525,38265
32132,27548,38401
32124,27545,38497
32016,27534,38172
31940,27524,38208
32036,27484,38183
32294,27471,38193
32692,27465,38212
33224,27474,38109
33844,27485,38117
34604,27503,37895
35676,27520,37940
36992,27516,37940
38352,27496,37617
39876,27472,37768
41140,27441,37793
41904,27422,37580
42460,27422,37639
43124,27429,37533
43804,27457,37340
44424,27476,37380
44148,27489,37372
42404,27493,37396
40348,27492,37396
38236,27480,37287
36088,27458,37302
34124,27451,36985
32825,27444,37196
32208,27452,36836
31981,27470,36991
32084,27501,36884
32252,27512,36803
32316,27516,36831
32228,27511,36865
32088,27488,36775
31841,27463,36785
31668,27447,36676
31550,27446,36591
31404,27453,36549
31320,27468,36393
31332,27500,36380
31464,27509,36317
31468,27510,36324
31444,27507,36281
31432,27478,36308
31268,27453,36326
31054,27444,36232
31032,27437,36251
31100,27436,36158
31132,27457,36159
31253,27487,35892
31486,27503,36020
31616,27502,35928
31664,27488,35768
31672,27473,35894
31589,27444,35696
31440,27429,35783
31384,27424,35751
31460,27428,35496
31552,27444,35686
31744,27474,35400
31912,27493,35442
32028,27491,35324
32100,27485,35377
32088,27462,35292
31976,27436,35295
31820,27410,35260
31788,27413,34983
31888,27421,35047
32008,27436,34925
32132,27462,35022
32292,27471,34993
32357,27477,34951
32348,27467,34892
32257,27452,34908
32172,27420,34668
32047,27399,34763
32048,27404,34715
32112,27408,34697
32208,27426,34695
32434,27457,34592
32708,27464,34487
32828,27463,34516
32821,27456,34496
32761,27445,34230
32646,27412,34319
32504,27393,34329
32440,27398,34232
32572,27399,34207
32672,27404,33959
32836,27436,34054
33104,27463,33992
33184,27461,33977
33166,27448,33903
33152,27431,33684
33116,27399,33706
32992,27380,33592
32980,27381,33581
33136,27380,33467
33229,27407,33461
33373,27437,33489
33628,27445,33287
33756,27444,33332
33880,27438,33159
33920,27417,33241
33876,27391,33199
33773,27367,33151
33704,27372,33101
33708,27379,32860
33716,27396,32872
34008,27423,32864
34284,27433,32861
34361,27436,32822
34360,27428,32574
34360,27413,32638
34276,27381,32623
34148,27359,32405
34112,27359,32481
34177,27364,32455
34292,27382,32217
34520,27412,32317
34718,27428,32276
34762,27433,32055
34708,27419,32149
34564,27404,31993
34360,27364,32048
34104,27359,31809
34024,27353,31912
33984,27356,31791
33984,27373,31817
34096,27399,31599
34268,27412,31593
34308,27415,31495
34216,27412,31584
34078,27399,31445
33836,27357,31387
33576,27343,31321
33476,27339,31362
33460,27348,31237
33440,27365,31212
33448,27392,31150
33500,27413,31095
33500,27415,31111
33376,27397,30935
33196,27389,31012
32916,27357,30974
32545,27341,30940
32381,27338,30860
32320,27343,30688
32317,27359,30809
32409,27391,30772
32444,27399,30639
32377,27408,30664
32180,27398,30493
32045,27383,30540
31876,27349,30400
31652,27338,30500
31524,27333,30452
31516,27337,30292
31450,27356,30380
31500,27378,30343
31588,27399,30152
31660,27399,30268
31677,27392,30190
31613,27377,30109
31434,27349,30025
31176,27335,30108
31112,27317,30006
31168,27340,29866
31204,27348,29972
31332,27380,29873
31472,27399,29925
31484,27393,29852
31432,27384,29728
31392,27362,29753
31236,27340,29637
31065,27321,29717
31084,27318,29629
31172,27324,29682
31264,27341,29564
31368,27367,29597
31556,27382,29565
31632,27383,29462
31624,27376,29505
31516,27359,29436
31384,27329,29356
31212,27308,29417
31188,27309,29380
31277,27316,29292
31356,27327,29318
31524,27359,29268
31780,27368,29260
31844,27380,29232
31820,27367,29070
31764,27343,29141
31628,27319,29009
31497,27297,29092
31413,27301,28992
31480,27305,29028
31581,27324,28869
31812,27349,28973
32076,27365,28812
32225,27366,28903
32164,27361,28793
32080,27343,28861
31960,27301,28838
31769,27285,28746
31776,27285,28792
31800,27299,28671
31920,27308,28668
32020,27342,28541
32224,27357,28628
32344,27356,28529
32286,27343,28556
32160,27332,28434
31988,27295,28505
31828,27279,28511
31831,27281,28423
31926,27284,28433
31944,27305,28300
32024,27335,28399
32192,27351,28305
32373,27346,28371
32348,27335,28333
32319,27324,28161
32192,27293,28270
32052,27271,28205
32052,27276,28243
32080,27287,28217
32058,27296,28112
32144,27324,28167
32352,27336,28116
32405,27343,28118
32364,27335,28036
32312,27319,28076
32224,27281,27940
32056,27267,28006
31972,27263,27868
32008,27271,27988
32080,27293,27941
32177,27319,27949
32400,27332,27805
32468,27335,27880
32444,27323,27749
32428,27303,27826
32284,27276,27703
32088,27262,27820
31988,27260,27684
31960,27263,27782
32036,27279,27729
32286,27306,27754
32504,27324,27729
32576,27319,27588
32535,27311,27660
32456,27301,27641
32256,27271,27550
32016,27253,27601
31908,27253,27508
31900,27257,27596
31982,27276,27572
32188,27302,27433
32448,27319,27536
32528,27319,27500
32420,27311,27392
32360,27292,27449
32276,27260,27329
32016,27243,27429
31968,27241,27316
32042,27246,27413
32160,27264,27330
32256,27297,27373
32436,27311,27374
32548,27319,27325
32556,27303,27340
32473,27283,27316
32329,27255,27184
32156,27241,27292
32072,27239,27216
32120,27246,27265
32200,27259,27239
32348,27284,27172
32592,27303,27183
32660,27303,27135
32676,27293,27135
32636,27285,27166
32448,27244,27169
32252,27235,27079
32224,27228,27118
32228,27242,27137
32268,27257,26978
32444,27282,27091
32632,27293,27082
32696,27303,27022
32692,27289,27031
32630,27271,26992
32448,27239,26960
32236,27225,26981
32216,27228,26885
32261,27229,26982
32344,27249,26965
32536,27277,26838
32764,27295,26932
32832,27292,26848
32816,27284,26923
32748,27263,26877
32588,27232,26832
32394,27215,26834
32332,27218,26832
32341,27229,26725
32380,27237,26832
32600,27270,26777
32908,27284,26819
33005,27284,26808
32924,27279,26733
32869,27263,26766
32712,27228,26724
32552,27210,26700
32577,27212,26686
32728,27221,26702
32924,27231,26593
33136,27269,26695
33288,27283,26692
33396,27274,26680
33364,27265,26630
33268,27260,26596
33184,27225,26614
33084,27199,26502
33164,27204,26596
33349,27205,26576
33440,27220,26548
33648,27257,26556
33944,27271,26452
34036,27271,26558
33992,27259,26546
34028,27247,26475
33893,27211,26484
33748,27200,26410
33656,27191,26503
33620,27202,26494
33597,27214,26375
33660,27244,26464
33769,27263,26444
33676,27262,26391
33456,27255,26437
33340,27239,26373
33138,27212,26404
32892,27186,26296
32757,27188,26385
32716,27197,26304
32684,27213,26361
32656,27241,26298
32653,27261,26340
32576,27261,26273
32464,27254,26327
32360,27232,26247
32168,27207,26288
31952,27180,26185
31888,27184,26272
31884,27193,26170
31953,27212,26264
32097,27243,26232
32276,27255,26160
32320,27252,26207
32313,27245,26110
32240,27236,26188
32088,27203,26189
31916,27181,26189
31873,27179,26168
31900,27189,26061
31996,27199,26145
32116,27234,26068
32276,27244,26119
32320,27254,26006
32276,27237,26107
32226,27223,26095
32057,27192,26005
31820,27176,26072
31812,27175,26042
31872,27183,25965
31976,27195,26040
32116,27228,26039
32224,27247,25916
32172,27245,26010
32116,27236,25999
32092,27217,25932
31964,27189,25951
31861,27173,25885
31832,27169,25956
31872,27175,25920
31916,27188,25904
31900,27223,25868
31937,27237,25910
31868,27239,25919
31718,27229,25823
31608,27217,25889
31584,27183,25860
31680,27166,25871
31956,27161,25796
32384,27169,25863
32900,27181,25845
33588,27214,25778
34468,27226,25797
35516,27221,25816
36855,27200,25829
38492,27184,25740
40152,27143,25836
41368,27143,25802
42405,27127,25719
43212,27135,25833
43844,27152,25810
44413,27175,25824
44846,27196,25738
44148,27201,25745
42540,27186,25826
40572,27176,25804
38053,27152,25796
35800,27143,25764
34172,27151,25736
33084,27152,25794
32556,27177,25702
32510,27200,25799
32584,27211,25769
32512,27223,25758
32392,27205,25779
32253,27192,25683
31984,27167,25793
31656,27143,25765
31540,27143,25671
31437,27152,25771
31348,27165,25774
31381,27192,25724
31597,27214,25757
31705,27212,25697
31704,27212,25778
31653,27190,25752
31484,27160,25745
31232,27143,25717
31176,27142,25760
31192,27143,25787
31212,27164,25705
31460,27192,25793
31696,27209,25799
31780,27205,25701
31780,27203,25746
31680,27177,25778
31532,27151,25762
31370,27133,25790
31356,27140,25676
31492,27138,25709
31636,27156,25749
31764,27187,25718
31972,27198,25722
32016,27197,25669
32000,27191,25692
32004,27177,25673
31820,27143,25582
31740,27129,25649
31776,27122,25649
31892,27135,25534
31933,27143,25589
32025,27179,25588
32212,27191,25552
32320,27190,25564
32364,27181,25585
32332,27169,25498
32288,27135,25596
32121,27112,25572
32132,27121,25502
32172,27125,25475
32232,27143,25536
32344,27175,25544
32520,27181,25508
32580,27187,25518
32648,27181,25549
32736,27167,25518
32702,27124,25535
32560,27108,25520
32552,27108,25396
32628,27118,25463
32696,27133,25465
32840,27164,25473
33070,27177,25361
33200,27185,25393
33248,27173,25413
33324,27155,25380
33252,27122,25373
33112,27100,25278
33117,27101,25344
33248,27113,25332
33352,27124,25255
33536,27153,25216
33776,27175,25271
33872,27173,25252
33844,27161,25223
33820,27148,25210
33780,27117,25188
33720,27103,25095
33753,27088,25135
33844,27105,25145
33929,27113,25118
34210,27148,25040
34412,27167,25063
34494,27169,25085
34532,27158,25054
34512,27138,25072
34477,27105,24979
34340,27084,24956
34296,27089,25006
34362,27095,25006
34420,27111,24906
34636,27143,24926
34773,27151,24967
34844,27157,24933
34840,27142,24926
34769,27129,24878
34660,27100,24897
34432,27076,24902
34341,27079,24813
34336,27091,24807
34360,27103,24841
34472,27130,24817
34600,27153,24772
34584,27148,24813
34480,27143,24792
34348,27122,24774
34160,27101,24708
33968,27079,24767
33824,27079,24740
33772,27081,24694
33680,27101,24719
33760,27130,24704
33868,27143,24672
33844,27155,24640
33684,27142,24685
33504,27127,24664
33218,27092,24640
32968,27073,24589
32772,27069,24644
32645,27084,24637
32580,27096,24589
32576,27125,24639
32688,27142,24578
32612,27140,24599
32460,27140,24553
32321,27114,24603
32065,27099,24592
31796,27074,24535
31656,27075,24570
31612,27082,24537
31628,27097,24575
31764,27129,24559
31924,27138,24543
31944,27143,24540
31864,27128,24553
31648,27112,24495
31412,27081,24565
31172,27068,24566
31069,27065,24497
31104,27081,24569
31108,27097,24566
31292,27127,24514
31456,27139,24580
31532,27141,24580
31476,27128,24518
31412,27110,24599
31272,27091,24602
31069,27071,24556
31056,27071,24564
31172,27064,24612
31236,27089,24605
31396,27116,24612
31684,27130,24549
31782,27132,24632
31724,27119,24630
31708,27105,24561
31588,27078,24644
31420,27063,24636
31364,27057,24568
31440,27061,24652
31544,27077,24676
31664,27109,24601
31860,27139,24686
31888,27124,24673
31856,27117,24677
31796,27100,24648
31717,27065,24711
31584,27055,24726
31552,27055,24656
31656,27063,24704
31760,27075,24733
31884,27108,24692
32008,27121,24711
32040,27127,24766
32044,27116,24754
32036,27093,24710
31900,27063,24782
31768,27045,24769
31736,27049,24768
31804,27050,24747
31884,27063,24775
32012,27100,24765
32188,27111,24810
32172,27119,24807
32096,27106,24786
32109,27092,24810
32060,27056,24729
31929,27040,24818
31864,27039,24816
31900,27047,24777
32020,27065,24806
32148,27093,24782
32340,27108,24834
32405,27111,24817
32404,27097,24761
32380,27092,24839
32280,27053,24815
32160,27031,24761
32100,27031,24804
32029,27044,24820
32044,27063,24815
32192,27087,24844
32360,27108,24834
32389,27101,24773
32336,27094,24836
32280,27082,24837
32168,27047,24775
31997,27029,24857
31904,27033,24844
31926,27023,24802
32081,27057,24857
32260,27083,24861
32384,27097,24865
32388,27098,24863
32336,27092,24836
32276,27071,24855
32087,27037,24859
31890,27023,24876
31872,27027,24886
31904,27033,24826
32012,27044,24870
32176,27077,24888
32358,27092,24836
32396,27093,24877
32348,27087,24813
32277,27071,24909
32172,27045,24911
32004,27021,24921
31980,27023,24924
32080,27031,24855
32160,27050,24932
32276,27074,24945
32444,27088,24868
32504,27090,24948
32432,27083,24956
32388,27062,24879
32260,27032,24972
32129,27023,24965
32044,27020,24995
32128,27031,25008
32240,27046,24920
32324,27075,24972
32416,27081,25029
32437,27085,25027
32404,27079,24965
32356,27060,25071
32228,27030,25058
32028,27015,25056
32000,27010,25061
32028,27017,25108
32060,27044,25136
32164,27070,25100
32356,27087,25134
32420,27079,25084
32396,27076,25184
32361,27056,25149
32284,27025,25216
32157,27009,25226
32104,27005,25151
32168,27015,25227
32180,27029,25175
32301,27061,25280
32501,27077,25289
32536,27080,25204
32516,27068,25326
32448,27051,25333
32336,27027,25252
32144,27007,25357
32100,27004,25359
32105,27014,25305
32120,27033,25364
32256,27063,25399
32472,27074,25424
32560,27079,25385
32601,27065,25445
32596,27045,25450
32476,27015,25479
32277,26996,25391
32184,26999,25508
32188,27008,25489
32280,27017,25432
32448,27045,25529
32741,27063,25552
32852,27073,25456
32796,27056,25576
32796,27037,25596
32734,27015,25499
32704,26997,25604
32740,26999,25621
32874,27004,25526
32924,27017,25640
33020,27049,25639
33236,27069,25665
33317,27069,25648
33312,27054,25623
33344,27041,25647
33264,27009,25708
33236,26992,25734
33304,26985,25618
33389,26999,25641
33552,27016,25753
33692,27037,25751
33896,27054,25773
34092,27052,25703
34116,27045,25694
34040,27037,25732
33889,27001,25826
33600,26991,25814
33432,26988,25836
33450,26992,25764
33440,27015,25869
33408,27041,25873
33388,27054,25843
33320,27060,25903
33216,27045,25932
33124,27037,25828
32940,26998,25917
32676,26984,25938
32580,26990,25925
32512,26997,26004
32441,27012,26002
32448,27036,26025
32532,27052,25966
32496,27052,25946
32480,27045,26039
32380,27026,26007
32200,26996,26096
32000,26981,26113
31892,26983,26023
31900,26989,26138
31924,27002,26119
32064,27037,26101
32332,27047,26107
32390,27056,26159
32297,27045,26184
32224,27029,26155
32032,27003,26185
31808,26986,26207
31704,26980,26247
31813,26985,26251
31900,27002,26158
32028,27036,26226
32208,27046,26297
32288,27045,26296
32208,27037,26207
32160,27023,26331
31984,26989,26367
31812,26978,26233
31756,26981,26375
31780,26981,26357
31832,26996,26284
31936,27035,26358
32164,27051,26399
32220,27049,26400
32176,27039,26351
32101,27020,26457
31936,26988,26452
31792,26971,26482
31680,26975,26417
31684,26982,26420
31640,27005,26508
31640,27036,26531
31700,27039,26412
31684,27046,26558
31716,27037,26556
31960,27016,26524
32280,26982,26477
32484,26967,26548
32895,26965,26601
33440,26975,26623
34164,26988,26552
35248,27013,26621
36720,27025,26655
38404,27018,26615
40140,26996,26668
41568,26991,26695
42620,26962,26733
43240,26948,26639
43676,26930,26777
44028,26953,26799
44260,26956,26734
43768,26985,26796
42372,27007,26848
40644,27011,26777
38265,27008,26736
36128,27006,26896
34456,26975,26884
33172,26961,26796
32474,26964,26943
32320,26965,26953
32277,26983,26868
32308,27015,26953
32388,27033,26956
32256,27028,26955
32017,27023,26980
31916,27005,26972
31696,26973,27004
31388,26958,27044
31244,26964,27039
31216,26967,27111
31196,26983,27123
31308,27012,27024
31537,27028,27143
31629,27025,27186
31600,27023,27127
31512,27006,27142
31356,26975,27220
31180,26956,27210
31200,26956,27260
31232,26967,27135
31252,26978,27306
31401,27012,27330
31624,27025,27207
31664,27023,27332
31732,27018,27343
31700,26999,27282
31592,26969,27368
31484,26956,27326
31461,26950,27356
31524,26956,27375
31585,26976,27408
31748,27002,27279
32036,27020,27428
32108,27028,27404
32105,27008,27375
32130,26993,27364
32057,26964,27358
31896,26948,27427
31852,26942,27385
32024,26956,27421
32108,26970,27322
32220,27003,27450
32400,27009,27431
32452,27013,27464
32432,27009,27341
32432,26991,27501
32336,26965,27458
32256,26944,27433
32288,26944,27540
32408,26948,27509
32440,26965,27502
32496,26991,27492
32656,27011,27533
32808,27012,27590
32872,27006,27477
32940,26983,27560
32856,26956,27505
32676,26943,27519
32636,26934,27563
32724,26943,27557
32848,26959,27582
33081,26982,27525
33348,27007,27586
33432,27013,27527
33373,26993,27409
33412,26981,27527
33328,26951,27541
33224,26939,27391
33192,26934,27527
33325,26942,27458
33500,26953,27367
33668,26986,27491
33904,26996,27439
33972,27004,27339
34012,26997,27375
33944,26975,27434
33828,26949,27423
33821,26933,27340
33816,26926,27333
33870,26933,27386
34004,26950,27404
34236,26981,27256
34473,26998,27300
34580,26993,27338
34628,26988,27361
34588,26974,27285
34420,26943,27331
34316,26927,27346
34300,26924,27246
34312,26934,27222
34428,26951,27318
34645,26973,27308
34832,26985,27229
34856,26999,27278
34784,26988,27268
34684,26969,27185
34488,26936,27233
34320,26917,27112
34261,26916,27250
34176,26930,27232
34164,26942,27109
34293,26975,27183
34476,26989,27078
34548,26991,27204
34453,26983,27159
34316,26971,27044
34108,26933,27184
33845,26920,27121
33700,26923,27109
33652,26929,27076
33512,26949,27140
33368,26976,27096
33340,26996,27095
33340,26994,27010
33292,26983,27116
33166,26964,27076
32948,26932,27053
32690,26918,27006
32452,26917,27061
32444,26924,27070
32388,26945,26981
32420,26977,26996
32456,26988,27029
32396,26992,27072
32269,26979,27047
32128,26975,27027
31856,26940,26981
31532,26917,27068
31380,26919,27070
31444,26927,27015
31520,26950,27046
31604,26975,26938
31800,26990,27037
31840,26990,27051
31660,26982,27046
31541,26964,27041
31388,26935,27073
31184,26923,27023
31164,26918,27099
31148,26925,27086
31168,26939,27021
31246,26968,27101
31345,26981,27112
31388,26991,27057
31380,26980,27178
31428,26963,27171
31317,26935,27199
31120,26919,27201
31100,26913,27109
31152,26924,27198
31238,26937,27221
31332,26975,27092
31520,26985,27144
31620,26983,27217
31614,26978,27220
31548,26961,27197
31465,26924,27268
31329,26913,27276
31244,26917,27260
31304,26919,27264
31364,26938,27164
31504,26971,27276
31713,26985,27178
31840,26983,27324
31806,26969,27249
31744,26961,27337
31616,26928,27255
31486,26909,27373
31504,26908,27327
31568,26913,27364
31684,26931,27415
31872,26959,27332
32024,26981,27428
32073,26975,27412
32124,26970,27441
32092,26948,27417
31968,26926,27456
31657,26898,27335
31604,26905,27456
31676,26908,27484
31832,26927,27482
32008,26956,27489
32232,26968,27455
32300,26975,27501
32288,26961,27407
32192,26951,27501
32036,26916,27516
31893,26901,27381
31944,26901,27490
31988,26908,27463
32016,26924,27551
32144,26951,27545
32292,26964,27517
32322,26968,27471
32360,26959,27540
32340,26937,27482
32226,26912,27522
32096,26894,27436
32029,26893,27538
32032,26903,27440
32077,26917,27583
32280,26948,27596
32500,26960,27620
32556,26956,27619
32480,26953,27521
32384,26938,27586
32272,26911,27504
32157,26895,27628
32084,26887,27645
32108,26897,27594
32200,26921,27628
32352,26941,27527
32536,26959,27630
32598,26956,27567
32552,26952,27639
32457,26930,27568
32332,26903,27675
32172,26885,27660
32120,26887,27718
32148,26897,27709
32236,26912,27584
32456,26941,27734
32628,26954,27736
32668,26959,27686
32584,26951,27728
32496,26930,27671
32352,26901,27756
32208,26885,27718
32132,26881,27794
32172,26886,27783
32232,26908,27672
32360,26936,27773
32520,26949,27708
32548,26951,27832
32500,26949,27796
32484,26927,27840
32388,26893,27751
32225,26876,27839
32228,26879,27758
32224,26887,27892
32254,26903,27921
32312,26933,27918
32464,26947,27780
32543,26948,27912
32560,26941,27929
32504,26927,27908
32380,26893,27960
32248,26879,27997
32168,26877,28005
32180,26884,27906
32229,26905,28005
32352,26932,27993
32608,26944,28065
32696,26944,28087
32637,26936,28050
32580,26917,28100
32456,26887,28000
32272,26876,28143
32249,26872,28021
32324,26885,28124
32384,26896,28036
32508,26930,28149
32684,26944,28058
32732,26949,28196
32716,26937,28096
32677,26913,28253
32600,26894,28180
32432,26866,28293
32380,26868,28300
32373,26881,28244
32393,26901,28319
32538,26929,28343
32696,26941,28276
32804,26941,28367
32864,26929,28312
32869,26916,28369
32752,26887,28275
32628,26869,28356
32588,26869,28327
32676,26876,28380
32852,26892,28343
33141,26924,28413
33389,26942,28348
33456,26935,28423
33436,26927,28413
33328,26914,28476
33160,26879,28403
33024,26861,28468
33104,26863,28406
33276,26877,28528
33421,26887,28512
33640,26916,28581
33908,26932,28576
34064,26933,28589
34080,26926,28516
34044,26903,28600
33968,26876,28618
33792,26861,28634
33748,26864,28599
33828,26863,28649
33848,26887,28568
33892,26916,28660
33888,26927,28524
33748,26932,28664
33620,26920,28588
33492,26906,28666
33356,26876,28663
33120,26861,28749
33068,26853,28653
33065,26865,28702
32945,26876,28679
33060,26909,28772
33116,26921,28653
32868,26926,28781
32556,26916,28737
32346,26903,28837
32116,26881,28774
31912,26855,28876
31972,26859,28732
32012,26873,28881
32016,26887,28908
32216,26913,28823
32360,26930,28850
32396,26932,28828
32332,26919,28944
32203,26903,28967
32008,26879,28884
31840,26862,28932
31824,26858,28868
31848,26863,28933
31940,26876,28891
32024,26913,29004
32194,26930,28904
32273,26933,29028
32193,26920,29023
32049,26903,28994
31956,26879,29020
31756,26857,28952
31624,26857,29104
31666,26866,29102
31734,26877,29151
31895,26908,29152
32164,26925,29167
32244,26927,29114
32244,26921,29023
32152,26908,29156
32049,26863,29041
31896,26852,29172
31816,26852,29110
31868,26863,29249
31860,26876,29222
31905,26911,29273
31968,26922,29280
31908,26926,29217
31784,26911,29246
31632,26905,29180
31400,26875,29285
31273,26855,29340
31472,26855,29257
31865,26856,29319
32320,26876,29292
32936,26898,29405
33728,26923,29356
34625,26911,29324
35588,26906,29450
36808,26877,29460
38232,26847,29461
39704,26832,29493
40940,26820,29364
41960,26836,29486
42777,26855,29508
43584,26893,29404
44188,26911,29564
44396,26893,29570
43616,26877,29438
41904,26865,29533
39900,26843,29616
37368,26830,29573
35300,26841,29526
33744,26855,29593
32828,26871,29618
32596,26903,29719
32680,26913,29561
32688,26921,29732
32520,26910,29686
32337,26886,29600
32096,26863,29782
31792,26843,29716
31653,26843,29695
31584,26852,29698
31518,26873,29797
31596,26894,29805
31748,26916,29732
31792,26919,29877
31672,26909,29919
31536,26890,29777
31332,26861,29949
31116,26849,29933
31044,26846,29996
31153,26851,29870
31186,26875,29914
31392,26898,29988
31596,26916,30077
31681,26913,29951
31712,26905,30108
31652,26887,30053
31568,26861,30015
31348,26841,30177
31384,26837,30113
31452,26853,30172
31508,26863,30087
31708,26894,30182
31893,26913,30092
31989,26911,30242
31980,26897,30159
32040,26877,30207
31970,26855,30263
31716,26836,30261
31664,26843,30143
31788,26843,30226
31932,26863,30265
32144,26887,30169
32417,26905,30269
32504,26911,30308
32497,26897,30223
32484,26877,30290
32380,26852,30215
32288,26839,30341
32204,26832,30341
32313,26849,30311
32364,26864,30284
32464,26892,30341
32520,26903,30302
32668,26908,30416
32800,26895,30453
32864,26879,30316
32776,26855,30452
32600,26831,30469
32608,26829,30308
32544,26845,30478
32632,26859,30399
32960,26882,30309
33216,26901,30436
33400,26902,30357
33404,26892,30441
33284,26875,30343
33084,26845,30261
32992,26825,30392
33096,26823,30327
33204,26836,30281
33289,26853,30375
33377,26880,30295
33528,26894,30325
33710,26899,30148
33700,26890,30284
33632,26869,30289
33600,26836,30113
33540,26822,30162
33688,26821,30064
33684,26831,30180
33880,26847,30136
34112,26871,30034
34372,26893,30060
34453,26893,29977
34412,26884,30034
34360,26865,29930
34172,26830,30051
33922,26823,30008
33892,26817,29932
34100,26829,29957
34236,26842,29836
34444,26865,29944
34652,26887,29908
34772,26887,29925
34780,26864,29889
34732,26856,29896
34568,26837,29881
34304,26817,29691
34156,26815,29796
34052,26818,29717
34144,26843,29796
34220,26873,29790
34368,26879,29660
34388,26884,29669
34308,26884,29588
34270,26854,29654
33980,26828,29509
33680,26815,29616
33632,26813,29496
33780,26823,29591
33888,26831,29551
33940,26856,29583
33952,26884,29489
33732,26879,29425
33602,26879,29512
33420,26855,29348
33120,26830,29477
32832,26814,29324
32752,26809,29438
32661,26823,29437
32524,26837,29318
32524,26860,29364
32588,26881,29319
32596,26881,29318
32540,26876,29280
32388,26861,29376
32184,26820,29279
31924,26814,29333
31812,26804,29228
31704,26814,29313
31644,26834,29280
31738,26865,29224
31872,26881,29319
31852,26877,29318
31600,26875,29185
31410,26853,29231
31256,26822,29191
31104,26813,29237
31028,26806,29191
31140,26820,29253
31200,26836,29182
31312,26860,29252
31455,26872,29190
31448,26879,29253
31420,26861,29159
31344,26848,29304
31232,26810,29153
31116,26802,29300
31052,26804,29170
31040,26818,29279
31036,26831,29183
31196,26857,29333
31456,26869,29307
31560,26871,29312
31564,26863,29191
31578,26849,29311
31438,26816,29325
31364,26807,29200
31326,26800,29336
31316,26812,29352
31272,26825,29205
31390,26852,29367
31672,26870,29361
31780,26875,29198
31804,26854,29383
31886,26844,29308
31696,26819,29301
31429,26795,29314
31356,26796,29344
31392,26796,29340
31488,26822,29250
31708,26849,29313
32012,26863,29394
32064,26869,29407
32052,26852,29297
32048,26847,29424
31888,26811,29423
31744,26784,29309
31840,26789,29396
31876,26799,29324
31852,26813,29352
31972,26844,29388
32205,26852,29268
32292,26860,29442
32316,26852,29380
32304,26828,29295
32148,26799,29397
31964,26788,29401
31880,26776,29332
31948,26793,29415
31936,26809,29399
32077,26838,29447
32284,26857,29447
32356,26853,29345
32296,26842,29402
32216,26835,29375
32129,26798,29447
32064,26780,29484
32100,26785,29337
32148,26791,29425
32109,26807,29384
32308,26839,29480
32452,26849,29485
32488,26847,29353
32365,26846,29449
32272,26820,29418
32109,26794,29496
31964,26782,29506
32000,26779,29380
32116,26789,29440
32204,26805,29399
32288,26833,29461
32508,26845,29414
32560,26849,29516
32541,26837,29441
32532,26820,29477
32332,26796,29407
32108,26776,29529
32124,26774,29437
32204,26791,29548
32224,26804,29422
32376,26828,29575
32544,26844,29508
32572,26845,29607
32556,26837,29596
32480,26809,29509
32309,26788,29604
32130,26775,29657
32080,26772,29508
32052,26782,29628
32092,26793,29541
32272,26823,29690
32532,26834,29679
32628,26847,29559
32568,26830,29681
32520,26812,29585
32296,26783,29657
32052,26767,29621
31949,26756,29767
31940,26780,29738
32136,26789,29651
32372,26820,29724
32592,26836,29650
32628,26837,29804
32608,26824,29829
32570,26800,29830
32356,26780,29868
32080,26766,29760
32030,26764,29853
32072,26777,29769
32148,26797,29898
32376,26820,29881
32556,26830,29966
32564,26835,29932
32536,26829,29829
32488,26809,29996
32324,26781,30020
32093,26758,29876
32004,26760,30036
32064,26768,30055
32192,26788,30038
32400,26821,29967
32644,26837,30084
32680,26837,30093
32636,26823,30054
32596,26798,30092
32542,26775,30092
32485,26757,30197
32464,26758,30164
32558,26768,30076
32652,26782,30225
32716,26813,30265
32800,26826,30145
32856,26830,30215
33008,26816,30140
33125,26799,30289
33096,26770,30153
32964,26758,30284
32860,26751,30249
32952,26765,30303
33140,26779,30260
33348,26813,30406
33500,26820,30427
33552,26821,30431
33548,26814,30385
33552,26798,30295
33516,26766,30438
33480,26753,30409
33501,26746,30401
33576,26759,30413
33766,26779,30479
33980,26804,30528
34172,26816,30548
34121,26822,30420
34004,26812,30557
33989,26797,30598
33836,26764,30463
33532,26743,30570
33265,26749,30487
33172,26759,30656
33148,26771,30673
33112,26804,30505
33120,26820,30683
33156,26821,30633
33084,26811,30700
32904,26788,30592
32624,26766,30757
32300,26744,30727
32076,26756,30660
32017,26748,30811
32072,26772,30743
32208,26800,30684
32417,26812,30857
32464,26816,30864
32420,26809,30727
32400,26788,30901
32192,26764,30852
31916,26743,30944
31844,26743,30895
31885,26758,30820
31960,26772,30980
32080,26805,30996
32202,26815,31028
32308,26814,31037
32356,26801,30914
32332,26784,31077
32224,26759,31028
31972,26737,31118
31884,26749,31079
31876,26754,30999
31920,26770,31069
32048,26794,31093
32244,26804,31194
32296,26803,31174
32246,26804,31066
32212,26788,31153
32108,26756,31178
31988,26743,31128
31892,26732,31245
31946,26745,31303
32077,26759,31149
32200,26792,31302
32300,26802,31335
32406,26810,31221
32312,26796,31261
32172,26778,31196
31904,26750,31358
31664,26732,31311
31504,26735,31396
31404,26748,31257
31432,26768,31414
31756,26791,31388
32394,26806,31448
32864,26805,31290
33360,26796,31424
33892,26768,31436
34376,26740,31325
35062,26720,31340
36148,26721,31471
37580,26724,31519
39196,26732,31364
40696,26767,31516
41848,26769,31554
42636,26777,31453
43316,26773,31580
43852,26736,31556
44068,26725,31589
43608,26719,31584
41928,26708,31652
40092,26725,31650
37872,26743,31688
35912,26772,31631
34472,26791,31580
33413,26791,31716
32758,26789,31605
32528,26767,31796
32440,26743,31815
32208,26725,31688
32132,26730,31847
32137,26729,31915
32092,26751,31757
32056,26783,31847
32108,26796,31808
32048,26790,31950
31952,26785,31956
31828,26764,31912
31597,26732,32076
31437,26727,32070
31481,26721,32179
31516,26735,32153
31444,26756,32224
31464,26775,32124
31665,26788,32340
31792,26791,32259
31824,26782,32380
31816,26759,32317
31680,26735,32457
31488,26720,32572
31429,26722,32430
31488,26729,32636
31604,26749,32605
31816,26772,32688
32036,26788,32605
32124,26788,32809
32068,26778,32868
32060,26759,32727
31961,26727,32908
31832,26719,32968
31842,26713,32862
31936,26724,32885
32064,26743,32993
32237,26764,33063
32420,26788,33122
32480,26783,33184
32492,26773,33196
32384,26756,33188
32305,26727,33101
32196,26716,33228
32165,26714,33341
32272,26716,33249
32400,26741,33412
32528,26761,33388
32672,26778,33566
32700,26781,33620
32700,26772,33672
32664,26751,33752
32548,26724,33777
32421,26707,33863
32448,26708,33693
32572,26717,33877
32708,26734,34022
32853,26760,33869
33144,26767,33973
33200,26779,34156
33228,26766,34001
33236,26746,34106
33164,26724,34135
33028,26698,34302
32988,26699,34239
33016,26713,34256
33080,26732,34319
33273,26765,34366
33472,26773,34512
33581,26772,34585
33608,26766,34415
33601,26753,34605
33560,26718,34695
33484,26705,34503
33532,26692,34669
33584,26708,34637
33700,26724,34773
33904,26755,34832
34189,26772,34877
34240,26766,34823
34169,26759,34999
34196,26736,34804
34076,26710,35013
33964,26698,35069
33972,26690,34951
34048,26703,35138
34164,26727,35052
34416,26748,35077
34664,26762,35196
34680,26759,35135
34664,26753,35270
34628,26733,35335
34472,26711,35214
34304,26693,35312
34212,26692,35302
34288,26703,35463
34364,26712,35412
34460,26742,35520
34629,26758,35602
34657,26759,35616
34541,26746,35609
34444,26725,35751
34208,26704,35709
33892,26691,35652
33764,26695,35854
33744,26701,35607
33781,26712,35755
33864,26747,35795
33948,26756,35921
33892,26759,35991
33796,26756,35989
33640,26735,35908
33416,26706,35937
33124,26690,36100
32964,26688,36069
32916,26692,36204
32877,26718,36140
32910,26744,36020
33000,26756,36241
32892,26755,36343
32720,26751,36148
32524,26725,36355
32294,26702,36462
32062,26685,36222
31944,26688,36359
31896,26699,36460
31900,26709,36541
31992,26743,36567
32104,26752,36487
32048,26759,36425
31880,26746,36581
31700,26731,36785
31544,26708,36644
31364,26685,36796
31334,26678,36871
31368,26695,36772
31461,26712,36920
31540,26745,37020
31540,26756,36884
31424,26754,37009
31341,26747,37095
31256,26732,36972
31132,26698,37125
30984,26686,37161
31012,26681,37204
31052,26695,37313
31045,26709,37277
31261,26739,37383
31416,26752,37351
31476,26752,37421
31488,26740,37199
31388,26724,37543
31272,26697,37511
31108,26680,37511
31041,26681,37445
31136,26692,37539
31256,26709,37512
31436,26735,37599
31724,26751,37639
31840,26749,37772
31776,26735,37887
31708,26716,37881
31572,26690,37893
31416,26676,37717
31360,26676,37942
31440,26682,37922
31580,26701,38069
31834,26732,38183
31968,26745,37948
32036,26741,38134
31969,26735,38215
31852,26719,38265
31712,26689,38340
31552,26673,38342
31596,26668,38372
31700,26685,38460
31817,26697,38428
31984,26727,38469
32068,26740,38509
32126,26740,38596
32160,26732,38375
32160,26713,38535
32044,26683,38551
31841,26673,38685
31832,26665,38645
31900,26676,38663
31956,26696,38779
32124,26722,38873
32292,26738,38799
32320,26733,38759
32292,26722,38918
32208,26714,39029
32069,26676,38932
31992,26662,38799
31952,26662,39141
31916,26676,39015
31998,26693,38860
32148,26720,39159
32372,26733,39217
32528,26734,39233
32476,26721,39201
32376,26701,39239
32133,26672,39124
31968,26665,39400
31904,26661,39343
31972,26674,39407
32109,26688,39509
32284,26716,39431
32496,26732,39581
32532,26730,39628
32492,26713,39748
32492,26698,39599
32364,26678,39731
32193,26654,39875
32192,26649,39519
32220,26669,39888
32268,26685,39740
32408,26710,39880
32604,26724,39920
32620,26726,39993
32612,26716,39965
32540,26693,39957
32320,26667,40036
32104,26653,40237
32040,26655,39892
32068,26660,40169
32144,26687,40340
32332,26711,39996
32476,26724,40294
32549,26719,40389
32472,26714,40391
32381,26695,40426
32256,26668,40448
32064,26649,40169
32000,26655,40408
32044,26660,40546
32040,26681,40284
32228,26708,40516
32404,26724,40650
32481,26717,40681
32420,26706,40628
32381,26692,40669
32288,26662,40796
32116,26648,40893
32060,26648,40868
32100,26660,40896
32128,26673,40828
32254,26703,40978
32440,26715,40996
32520,26716,40937
32472,26706,40992
32401,26688,41124
32256,26657,41095
32116,26644,41087
32072,26649,41220
32124,26653,41197
32308,26668,41183
32516,26699,41269
32804,26708,41254
32960,26706,41388
32924,26698,41432
32789,26695,41343
32616,26657,41509
32494,26638,41458
32558,26639,41640
32660,26653,41290
32885,26665,41547
33076,26697,41657
33216,26716,41732
33204,26708,41815
33132,26705,41520
33144,26685,41821
33128,26652,41958
33116,26631,41911
33268,26631,42028
33284,26642,41948
33453,26664,41983
33664,26692,42007
33896,26706,42078
33974,26706,42074
33960,26695,42005
33856,26676,42177
33740,26655,42111
33572,26629,42118
33448,26628,42287
33428,26641,42176
33444,26661,42217
33492,26687,42393
33508,26709,42420
33413,26697,42241
33276,26694,42460
33124,26674,42434
32925,26645,42404
32638,26631,42559
32504,26631,42663
32480,26645,42328
32400,26660,42631
32424,26691,42759
32520,26705,42416
32456,26707,42729
32392,26687,42847
32236,26677,42600
32093,26647,42887
31877,26628,42947
31785,26631,42628
31784,26631,42919
31856,26661,43015
32033,26694,42727
32261,26701,43045
32404,26696,43084
32396,26686,43045
32228,26665,43189
32092,26647,43152
31933,26624,42938
31844,26630,43271
31880,26636,43124
31924,26657,43209
32122,26684,43343
32212,26699,43366
32236,26701,43258
32216,26689,43428
32092,26665,43423
31912,26640,43295
31788,26631,43205
31812,26623,43548
31914,26631,43413
31984,26657,43585
32096,26687,43449
32260,26693,43469
32356,26695,43411
32384,26685,43718
32320,26669,43692
32072,26631,43556
31796,26621,43472
31692,26623,43759
31620,26631,43783
31582,26655,43828
31676,26678,43737
31888,26697,43588
31965,26695,43932
32104,26676,43822
32408,26667,43948
32744,26631,43797
33144,26614,44038
33732,26614,43967
34324,26626,44038
35172,26645,43900
36428,26668,44108
37888,26680,44124
39364,26678,44085
40677,26654,43933
41480,26631,44189
41796,26615,44191
42212,26604,43968
42828,26587,44284
43324,26594,44268
43024,26621,44212
41592,26648,44368
39644,26670,44263
37561,26678,44376
35776,26667,44101
34145,26656,44352
32868,26631,44404
31989,26614,44160
31636,26618,44512
31632,26628,44380
31776,26645,44415
32037,26671,44532
32296,26687,44472
32220,26691,44551
32092,26673,44473
31940,26663,44625
31748,26631,44516
31540,26614,44625
31421,26616,44407
31328,26625,44606
31364,26646,44544
31524,26675,44772
31736,26681,44764
31804,26684,44508
31736,26679,44783
31688,26661,44807
31608,26630,44773
31404,26613,44601
31340,26607,44847
31352,26617,44935
31432,26644,44748
31684,26672,45004
31808,26685,44892
31853,26681,44956
31916,26668,44796
31908,26652,45063
31742,26623,45012
31640,26615,44863
31652,26608,45099
31720,26623,44977
31858,26636,44988
32064,26666,45093
32196,26682,45028
32160,26686,45079
32172,26669,44840
32112,26649,45004
32040,26622,45032
31940,26609,44852
31896,26604,45125
31952,26617,45148
32112,26631,45201
32280,26668,45116
32496,26676,45137
32552,26679,45305
32516,26665,45221
32568,26650,45300
32460,26617,45063
32336,26601,45284
32369,26604,45353
32397,26608,45404
32484,26631,45347
32656,26661,45396
32912,26668,45300
33069,26664,45204
33108,26661,45518
33104,26640,45431
32929,26609,45517
32760,26598,45380
32772,26601,45530
32848,26609,45580
32868,26629,45468
33084,26653,45549
33376,26671,45447
33468,26663,45607
33465,26660,45604
33416,26644,45575
33374,26612,45519
33292,26596,45592
33244,26596,45560
33312,26607,45380
33504,26618,45612
33740,26652,45575
33972,26661,45645
34064,26664,45639
34000,26652,45593
33932,26631,45429
33904,26605,45356
33840,26593,45661
33792,26591,45536
33880,26604,45637
33928,26616,45447
34136,26644,45646
34381,26657,45592
34484,26662,45570
34540,26653,45583
34528,26630,45447
34320,26607,45608
34100,26596,45631
33984,26591,45543
33988,26596,45568
34064,26618,45592
34276,26645,45584
34548,26660,45523
34537,26655,45319
34488,26648,45609
34500,26631,45575
34308,26600,45472
33908,26594,45572
33652,26587,45420
33632,26605,45276
33584,26619,45564
33792,26641,45560
33976,26657,45411
33912,26657,45601
33852,26642,45476
33692,26628,45564
33493,26606,45479
33236,26589,45380
33126,26588,45605
33120,26597,45524
33056,26615,45568
33072,26644,45544
33156,26655,45392
33260,26652,45590
33192,26647,45616
32952,26631,45556
32589,26600,45610
32276,26583,45487
32084,26586,45636
32024,26596,45597
32065,26612,45376
32104,26645,45609
32168,26661,45620
32200,26656,45468
32124,26653,45643
31996,26631,45552
31796,26601,45508
31556,26591,45658
31460,26588,45604
31393,26596,45489
31372,26612,45644
31524,26641,45649
31720,26659,45648
31736,26661,45564
31640,26644,45632
31614,26621,45437
31508,26596,45630
31232,26582,45660
31188,26583,45575
31196,26597,45624
31236,26612,45572
31412,26641,45461
31580,26655,45353
31588,26660,45640
31570,26644,45556
31492,26625,45621
31372,26599,45554
31158,26583,45388
31132,26584,45633
31232,26590,45537
31344,26609,45632
31502,26636,45444
31656,26653,45668
31784,26652,45597
31808,26644,45639
31824,26626,45496
31752,26596,45687
31606,26580,45607
31504,26575,45679
31584,26589,45560
31624,26602,45661
31788,26640,45625
31960,26652,45690
32032,26653,45503
32000,26633,45735
32053,26623,45670
32012,26589,45567
31844,26572,45732
31717,26582,45612
31648,26588,45703
31649,26613,45524
31792,26636,45677
31976,26653,45636
32060,26647,45727
32100,26644,45639
32028,26626,45710
31870,26589,45653
31676,26582,45721
31696,26580,45585
31809,26583,45757
31808,26601,45702
32032,26628,45737
32300,26653,45676
32304,26640,45764
32304,26637,45719
32216,26623,45732
32012,26591,45688
31868,26575,45460
31780,26575,45700
31808,26585,45713
31968,26601,45772
32174,26631,45485
32364,26642,45783
32400,26639,45749
32364,26631,45609
32340,26615,45737
32174,26587,45665
31972,26572,45663
31878,26572,45447
31888,26587,45659
31904,26601,45575
32072,26628,45445
32300,26644,45679
32252,26644,45701
32192,26637,45495
32120,26612,45724
31950,26590,45675
31780,26573,45471
31784,26573,45637
31920,26573,45644
31980,26604,45368
32096,26626,45615
32280,26644,45536
32388,26652,45575
32381,26631,45318
32284,26615,45596
32076,26591,45492
31876,26575,45481
31844,26567,45293
31880,26576,45537
31930,26589,45469
32093,26631,45468
32252,26639,45240
32280,26637,45472
32260,26631,45412
32272,26621,45207
32128,26588,45422
31840,26566,45407
31876,26569,45176
32000,26574,45389
32081,26599,45360
32224,26624,45232
32408,26641,45319
32432,26644,45157
32392,26628,45002
32312,26612,45287
32152,26587,45156
31968,26567,45180
31952,26572,45241
32000,26577,45201
32108,26597,44957
32300,26620,45189
32416,26631,45045
32440,26638,45136
32404,26629,45024
32340,26613,44845
32128,26585,45085
31996,26565,45012
32000,26566,45009
32004,26572,44830
32124,26588,45014
32340,26625,44845
32496,26630,44895
32540,26639,44903
32576,26622,44818
32613,26614,44855
32464,26579,44633
32388,26565,44513
32384,26564,44793
32436,26573,44742
32526,26589,44631
32721,26623,44676
32986,26630,44574
33124,26629,44477
33100,26624,44340
33018,26601,44612
32891,26576,44473
32704,26564,44517
32664,26560,44305
32776,26565,44455
32904,26587,44313
33172,26622,44385
33389,26630,44193
33454,26631,44316
33484,26624,44327
33504,26598,44181
33400,26579,44172
33272,26566,44183
33208,26565,43988
33248,26565,44119
33372,26583,43993
33640,26611,44036
33748,26626,43847
33660,26631,43693
33516,26616,43969
33372,26604,43757
33116,26573,43736
32868,26562,43830
32704,26556,43719
32656,26572,43455
32673,26580,43743
32704,26617,43676
32824,26629,43527
32800,26631,43548
32574,26623,43244
32352,26605,43533
32132,26577,43345
31924,26567,43404
31823,26563,43255
31864,26578,43041
31932,26589,43285
32036,26623,43269
32244,26629,43070
32332,26631,43063
32308,26628,43143
32340,26604,42996
32232,26574,42725
31968,26558,43008
31846,26566,42804
31870,26566,42919
31916,26591,42760
32068,26621,42788
32258,26636,42775
32352,26629,42583
32318,26623,42670
32288,26604,42576
32122,26578,42364
31956,26564,42524
31908,26567,42447
31893,26569,42420
31948,26593,42284
32090,26621,42300
32232,26631,42160
32336,26631,42288
32313,26624,42161
32256,26607,41972
32133,26576,41721
32020,26560,42025
31968,26563,41943
31985,26572,41822
32008,26591,41847
32188,26620,41604
32324,26631,41735
32328,26631,41709
32185,26626,41756
32000,26609,41588
31796,26580,41191
31584,26567,41444
31768,26561,41421
32239,26569,41389
32728,26587,40989
33388,26621,41237
34144,26631,41316
34748,26625,41228
35360,26613,40997
36253,26592,41062
37376,26561,41017
38712,26550,41008
39956,26536,40607
40924,26549,40836
41596,26584,40925
42308,26589,40660
43101,26592,40711
43712,26602,40588
43644,26599,40589
42220,26590,40553
40160,26565,40477
37984,26554,40415
36033,26564,40116
34396,26573,40332
33078,26585,40253
32440,26622,40295
32289,26631,39876
32389,26631,40120
32340,26628,39935
32268,26605,40116
32072,26574,39935
31808,26563,39789
31717,26565,39576
31718,26576,39757
31673,26596,39661
31752,26616,39760
31865,26631,39599
31874,26631,39276
31812,26625,39425
31688,26609,39524
31565,26582,39151
31449,26566,39293
31336,26567,39204
31276,26576,39255
31240,26593,39232
31352,26628,39060
31564,26636,39108
31652,26637,38972
31648,26628,39036
31688,26607,38855
31504,26576,38612
31336,26561,38573
31376,26564,38764
31440,26570,38697
31552,26588,38633
31680,26622,38564
31908,26631,38422
31968,26630,38462
31972,26624,38182
31956,26604,38249
31877,26574,38311
31756,26567,38125
31712,26561,38085
31761,26571,37992
31864,26589,38031
32092,26615,37647
32366,26631,37818
32461,26637,37860
32512,26623,37724
32500,26610,37421
32356,26576,37631
32208,26561,37644
32100,26563,37304
32104,26576,37437
32184,26589,37473
32384,26617,37108
32636,26630,37269
32684,26631,37310
32781,26615,37080
32796,26604,37132
32712,26580,37016
32572,26560,36867
32560,26564,36902
32592,26567,36847
32688,26589,36800
32876,26612,36721
33112,26625,36659
33172,26631,36506
33108,26624,36620
33140,26599,36239
33053,26574,36397
32948,26560,36345
33020,26559,36154
33150,26567,36076
33285,26583,36144
33433,26613,35985
33708,26628,36054
33828,26631,35847
33834,26614,35641
33856,26601,35679
33808,26575,35591
33692,26556,35431
33720,26558,35564
33840,26564,35385
33968,26583,35463
34080,26604,35207
34248,26625,35282
34304,26619,35116
34332,26618,35169
34352,26586,34932
34284,26568,34804
34240,26557,34893
34248,26551,34861
34289,26560,34796
34329,26576,34543
34476,26608,34627
34668,26614,34468
34696,26621,34343
34632,26607,34404
34496,26592,34240
34384,26565,34306
34248,26549,34039
34148,26553,34108
34160,26563,33983
34190,26577,33924
34236,26611,33756
34328,26615,33823
34340,26628,33742
34232,26619,33692
34134,26596,33542
33878,26565,33423
33644,26548,33469
33533,26552,33316
33528,26564,33214
33504,26580,33109
33564,26607,33207
33624,26620,33121
33516,26624,33052
33348,26614,33004
33202,26596,32799
33000,26565,32876
32776,26554,32813
32570,26548,32671
32452,26560,32661
32396,26579,32559
32514,26607,32431
32640,26624,32477
32600,26620,32477
32474,26611,32392
32293,26597,32190
32076,26568,32287
31781,26552,32175
31622,26554,32153
31564,26559,31988
31572,26575,32014
31609,26612,31972
31761,26629,31789
31714,26631,31889
31613,26613,31759
31536,26597,31751
31381,26568,31580
31212,26557,31665
31088,26559,31599
31052,26566,31421
31048,26580,31500
31176,26611,31382
31408,26625,31239
31520,26625,31345
31552,26617,31265
31440,26604,31255
31228,26568,31205
31056,26556,30983
31004,26550,31085
31040,26567,30920
31121,26580,30894
31332,26608,30775
31521,26629,30856
31600,26627,30784
31600,26615,30738
31532,26603,30668
31433,26569,30565
31304,26555,30580
31256,26559,30561
31344,26564,30439
31460,26583,30279
31632,26606,30269
31856,26621,30349
31992,26623,30215
31912,26613,30228
31816,26592,30065
31704,26567,30113
31552,26548,30114
31532,26555,29904
31528,26558,29921
31628,26573,29956
31812,26601,29850
31985,26620,29758
32009,26618,29722
32040,26608,29733
32088,26593,29717
31992,26565,29658
31810,26546,29481
31756,26548,29464
31793,26558,29532
31840,26568,29495
32004,26604,29327
32232,26623,29275
32264,26623,29354
32264,26611,29240
32264,26589,29108
32072,26561,29133
31904,26547,29148
31848,26545,29140
31960,26553,29032
32124,26569,28907
32348,26593,28888
32513,26613,28976
32508,26613,28925
32344,26604,28845
32176,26591,28829
32084,26561,28628
31952,26540,28759
31960,26542,28687
32004,26553,28640
32041,26575,28503
32188,26605,28606
32336,26619,28497
32408,26613,28448
32364,26599,28364
32404,26584,28448
32348,26561,28419
32124,26542,28282
32048,26545,28219
32052,26551,28303
32096,26573,28228
32180,26603,28224
32396,26614,28076
32480,26613,28166
32468,26605,28084
32348,26588,28068
32236,26551,27908
32092,26548,28020
32016,26533,27996
32013,26545,27796
32092,26566,27809
32285,26596,27872
32420,26605,27811
32456,26617,27820
32461,26607,27764
32388,26585,27591
32258,26551,27720
32125,26540,27652
32068,26540,27641
32140,26548,27535
32244,26564,27543
32380,26599,27529
32516,26608,27364
32529,26614,27480
32528,26596,27457
32508,26582,27324
32406,26555,27369
32240,26537,27336
32112,26542,27201
32148,26551,27311
32245,26565,27222
32433,26589,27239
32648,26607,27089
32665,26612,27124
32612,26598,27168
32533,26584,27121
32364,26551,27078
32160,26537,27021
32096,26542,26902
32180,26549,26930
32284,26566,27013
32456,26593,26953
32641,26610,26956
32732,26607,26887
32684,26602,26760
32628,26583,26748
32484,26551,26757
32308,26533,26797
32253,26537,26824
32313,26543,26773
32460,26562,26740
32655,26591,26745
32848,26603,26737
32964,26605,26596
32913,26599,26592
32856,26575,26578
32812,26547,26576
32773,26528,26645
32896,26528,26618
33022,26535,26577
33156,26564,26537
33292,26586,26473
33404,26603,26407
33320,26599,26532
33216,26592,26469
33204,26573,26485
33166,26547,26349
33116,26531,26449
33196,26530,26427
33328,26532,26278
33472,26548,26360
33692,26587,26244
33877,26596,26348
34008,26599,26331
34048,26588,26270
34044,26564,26182
33897,26537,26239
33720,26525,26249
33596,26529,26245
33604,26541,26125
33600,26551,26228
33664,26572,26177
33656,26594,26116
33560,26599,26039
33468,26590,26151
33292,26571,26119
33064,26547,25991
32782,26524,26017
32652,26525,26089
32592,26533,26054
32484,26551,25937
32461,26576,25999
32580,26589,26006
32544,26596,25892
32464,26585,25980
32372,26573,25962
32268,26540,25885
32130,26522,25957
32000,26524,25911
32044,26532,25885
32132,26553,25844
32261,26577,25898
32332,26594,25816
32404,26597,25828
32336,26587,25735
32284,26569,25784
32104,26537,25781
31924,26526,25777
31901,26524,25666
31909,26535,25765
32016,26544,25733
32167,26582,25681
32317,26593,25607
32340,26596,25710
32313,26584,25668
32240,26570,25662
32153,26534,25557
32008,26520,25655
31944,26519,25636
31944,26530,25514
31984,26546,25608
32164,26578,25580
32280,26586,25477
32360,26588,25569
32328,26581,25539
32237,26567,25429
32113,26543,25504
31900,26518,25494
31780,26519,25377
31772,26530,25481
31700,26544,25453
31808,26577,25383
31866,26598,25335
31817,26592,25415
31788,26577,25421
31952,26567,25303
32204,26528,25351
32444,26516,25357
32792,26516,25317
33362,26524,25254
34052,26530,25311
35044,26559,25328
36274,26572,25318
37712,26574,25215
39196,26567,25312
40584,26542,25292
41616,26511,25282
42304,26484,25265
42876,26502,25249
43400,26498,25173
43772,26523,25231
43640,26556,25245
42404,26561,25262
40824,26564,25159
38588,26572,25240
36448,26551,25248
34672,26526,25200
33300,26511,25215
32528,26512,25156
32240,26520,25197
32193,26540,25117
32228,26565,25189
32276,26583,25144
32264,26577,25201
32176,26578,25191
32028,26556,25156
31772,26531,25191
31472,26514,25188
31324,26509,25188
31260,26527,25077
31244,26543,25166
31380,26565,25148
31565,26582,25178
31598,26591,25156
31536,26573,25073
31460,26558,25174
31364,26532,25170
31190,26510,25104
31132,26516,25141
31200,26519,25076
31264,26537,25172
31396,26567,25148
31600,26577,25162
31672,26589,25157
31653,26570,25105
31652,26557,25125
31556,26523,25028
31433,26510,25121
31448,26508,25098
31496,26521,24985
31520,26537,25065
31684,26561,25052
31884,26575,24937
31996,26582,24989
31968,26572,24932
31936,26548,24977
31848,26518,24935
31724,26510,24877
31672,26507,24931
31708,26519,24905
31832,26528,24813
32000,26561,24872
32208,26576,24812
32336,26574,24869
32340,26560,24869
32324,26550,24828
32192,26523,24839
32036,26503,24824
32044,26505,24853
32096,26512,24823
32146,26525,24837
32300,26556,24735
32544,26570,24775
32632,26570,24783
32588,26564,24784
32553,26540,24785
32460,26519,24774
32316,26500,24723
32296,26497,24724
32428,26512,24653
32536,26533,24690
32736,26549,24615
32964,26564,24656
33060,26573,24568
33065,26560,24615
33048,26538,24543
32928,26516,24581
32817,26498,24484
32829,26494,24535
32964,26511,24480
33177,26526,24506
33336,26555,24436
33484,26569,24466
33512,26569,24375
33500,26565,24433
33532,26543,24342
33500,26511,24409
33440,26496,24382
33501,26503,24338
33605,26502,24344
33736,26526,24264
33924,26557,24336
34164,26564,24332
34276,26568,24263
34308,26552,24279
34238,26541,24216
34140,26517,24266
33956,26501,24260
33924,26496,24165
33940,26503,24224
34008,26522,24222
34200,26556,24132
34416,26563,24181
34441,26564,24191
34380,26556,24130
34317,26546,24157
34181,26517,24149
34020,26499,24092
33972,26498,24103
33972,26503,24053
34032,26522,24101
34164,26551,24071
34237,26574,24000
34176,26573,24058
34009,26563,24052
33862,26543,23973
33684,26516,24007
33465,26500,23948
33392,26503,24005
33348,26515,23994
33304,26533,23983
33317,26563,23956
33344,26572,23893
33324,26571,23937
33174,26569,23879
32928,26545,23927
32676,26517,23872
32436,26503,23916
32316,26502,23912
32272,26519,23869
32252,26533,23884
32296,26555,23847
32376,26575,23876
32340,26578,23806
32180,26569,23839
32058,26552,23796
31840,26522,23841
31604,26513,23784
31476,26513,23833
31432,26523,23836
31448,26533,23820
31504,26564,23815
31633,26586,23775
31632,26586,23804
31588,26575,23788
31520,26557,23826
31356,26531,23780
31248,26518,23800
31220,26516,23775
31276,26525,23804
31412,26543,23748
31648,26570,23807
31836,26582,23791
31840,26582,23780
31744,26581,23788
31684,26565,23800
31552,26535,23750
31357,26526,23821
31320,26522,23826
31384,26529,23757
31509,26549,23808
31672,26587,23807
31885,26597,23810
31976,26597,23774
31912,26588,23823
31908,26571,23808
31768,26543,23833
31616,26529,23793
31632,26533,23837
31698,26536,23839
31772,26556,23788
31940,26586,23858
32160,26605,23876
32212,26603,23840
32200,26591,23860
32129,26577,23872
31988,26549,23825
31828,26529,23888
31816,26532,23897
31904,26538,23853
31960,26561,23873
32124,26591,23919
32296,26607,23925
32320,26610,23871
32276,26598,23909
32184,26584,23924
32069,26558,23947
31944,26548,23888
31966,26537,23946
32032,26557,23953
32125,26572,23897
32314,26605,23957
32500,26615,23949
32524,26617,23951
32416,26612,23932
32356,26593,23961
32232,26564,23905
32049,26556,23972
32017,26552,23972
32048,26570,23912
32084,26581,23972
32236,26617,23997
32424,26628,23949
32468,26631,23968
32416,26615,23948
32316,26601,23956
32220,26579,23977
32120,26567,23929
32133,26567,23988
32176,26578,23989
32236,26594,23927
32392,26628,23988
32510,26638,24001
32548,26644,23973
32536,26630,23987
32500,26613,23972
32348,26591,23973
32188,26576,23990
32100,26574,23947
32088,26585,24012
32204,26605,24008
32420,26631,24011
32512,26653,23962
32520,26660,24004
32520,26644,23967
32528,26631,24023
32424,26604,24029
32284,26589,23998
32252,26597,24032
32272,26598,24001
32332,26615,24033
32508,26647,23999
32690,26665,24052
32736,26668,24046
32672,26659,24063
32565,26644,24040
32440,26614,24063
32349,26597,24026
32332,26605,24076
32412,26613,24030
32416,26631,24082
32512,26673,24039
32656,26687,24100
32716,26686,24069
32749,26673,24127
32754,26662,24140
32604,26631,24152
32348,26619,24128
32312,26613,24151
32289,26631,24111
32292,26655,24177
32424,26687,24144
32600,26700,24220
32704,26697,24215
32700,26692,24235
32638,26676,24252
32485,26655,24253
32324,26636,24243
32280,26642,24276
32330,26647,24245
32397,26672,24319
32576,26703,24327
32776,26717,24281
32812,26717,24357
32829,26710,24332
32700,26698,24393
32520,26668,24407
32366,26658,24422
32346,26661,24445
32420,26669,24399
32484,26693,24452
32608,26719,24416
32852,26735,24492
32992,26742,24511
33004,26724,24485
32984,26718,24524
32858,26682,24516
32700,26668,24556
32744,26679,24506
32864,26691,24592
33028,26713,24537
33220,26741,24622
33500,26752,24615
33548,26756,24623
33488,26751,24648
33448,26732,24649
33252,26713,24710
33080,26695,24705
33088,26694,24669
33301,26705,24740
33552,26728,24687
33736,26754,24762
33996,26767,24764
34124,26769,24744
34084,26761,24815
34068,26749,24776
33984,26724,24816
33820,26716,24778
33724,26712,24853
33704,26726,24841
33688,26741,24901
33742,26773,24911
33822,26792,24929
33748,26797,24940
33557,26775,24956
33406,26773,24937
33198,26740,24985
32933,26732,24993
32813,26738,25013
32756,26753,25024
32700,26768,24960
32748,26801,25044
32712,26817,24993
32604,26821,25084
32440,26821,25036
32301,26797,25106
32100,26773,25052
31924,26767,25143
31908,26758,25087
31916,26775,25160
31968,26796,25116
32156,26831,25201
32308,26840,25223
32336,26844,25216
32293,26833,25272
32246,26821,25231
32072,26793,25302
31896,26782,25266
31760,26790,25325
31784,26796,25293
31880,26818,25334
32084,26849,25271
32228,26862,25388
32280,26869,25396
32192,26865,25305
32096,26848,25401
31952,26823,25344
31740,26804,25422
31676,26813,25368
31752,26820,25455
31888,26840,25400
32004,26873,25487
32164,26887,25509
32232,26899,25533
32184,26887,25516
32108,26873,25524
32020,26844,25501
31872,26828,25578
31860,26836,25524
31980,26845,25607
32021,26871,25600
32068,26901,25639
32060,26913,25645
32000,26921,25653
31896,26911,25634
31760,26894,25590
31564,26868,25668
31520,26860,25708
31774,26860,25636
32236,26869,25705
32684,26897,25628
33288,26919,25727
34036,26937,25658
34837,26932,25753
35748,26921,25758
37060,26897,25711
38552,26873,25802
39996,26855,25796
41248,26864,25853
42324,26860,25884
43092,26887,25883
43704,26928,25818
44100,26937,25892
44152,26938,25852
43112,26933,25956
41500,26931,25914
39376,26894,25967
36868,26906,25965
34904,26903,26009
33539,26917,25958
32766,26941,26054
32560,26971,26062
32640,26989,26042
32584,26989,26096
32376,26981,26021
32260,26971,26113
31997,26945,26056
31705,26933,26149
31548,26935,26070
31456,26954,26192
31428,26973,26184
31456,27004,26194
31509,27015,26263
31468,27015,26215
31436,27012,26271
31384,26999,26187
31236,26977,26333
31102,26954,26352
31062,26960,26318
31108,26980,26368
31196,27000,26370
31366,27023,26389
31600,27047,26452
31664,27047,26428
31673,27036,26481
31588,27023,26373
31428,26988,26533
31252,26988,26513
31250,26980,26421
31340,26997,26537
31492,27022,26493
31704,27044,26580
31905,27066,26587
31968,27064,26495
31924,27063,26580
31900,27047,26592
31781,27018,26460
31652,27012,26607
31676,27015,26576
31822,27020,26513
31940,27044,26591
32104,27076,26598
32280,27093,26580
32383,27088,26617
32376,27091,26630
32360,27074,26576
32232,27037,26665
32016,27039,26692
31956,27031,26568
32068,27051,26657
32109,27071,26720
32357,27100,26752
32639,27117,26676
32736,27113,26745
32748,27111,26784
32740,27095,26652
32644,27068,26791
32528,27063,26802
32556,27054,26672
32652,27073,26788
32745,27085,26721
32972,27127,26788
33196,27132,26759
33233,27143,26808
33220,27135,26805
33140,27116,26709
33013,27095,26784
32924,27079,26684
32932,27085,26756
33056,27092,26720
33164,27124,26775
33372,27143,26687
33576,27167,26756
33716,27164,26631
33760,27156,26721
33748,27140,26709
33700,27111,26687
33576,27103,26702
33544,27101,26597
33632,27117,26726
33734,27135,26686
33900,27172,26714
34100,27185,26676
34260,27181,26573
34268,27173,26674
34240,27165,26612
34140,27137,26696
34004,27126,26645
34016,27129,26585
34116,27133,26629
34216,27161,26645
34396,27195,26638
34600,27210,26581
34644,27210,26634
34597,27204,26562
34497,27180,26653
34348,27165,26612
34208,27150,26653
34184,27151,26642
34220,27164,26631
34232,27188,26639
34356,27212,26535
34516,27231,26600
34517,27229,26557
34328,27223,26551
34196,27209,26596
33988,27187,26580
33732,27181,26548
33636,27175,26599
33580,27191,26533
33565,27209,26553
33696,27236,26465
33820,27255,26559
33844,27257,26449
33724,27255,26532
33526,27231,26456
33281,27213,26548
33044,27197,26521
32804,27198,26444
32656,27211,26515
32472,27239,26433
32532,27265,26524
32669,27285,26540
32644,27287,26416
32504,27272,26501
32348,27255,26532
32076,27235,26413
31824,27227,26522
31696,27231,26518
31654,27237,26439
31638,27263,26477
31684,27290,26504
31804,27308,26457
31828,27309,26476
31784,27301,26523
31696,27280,26543
31532,27253,26455
31304,27245,26564
31268,27245,26552
31308,27269,26482
31368,27293,26580
31524,27308,26587
31694,27330,26532
31708,27335,26600
31688,27317,26618
31628,27305,26531
31452,27271,26618
31300,27270,26601
31265,27268,26576
31324,27291,26653
31380,27310,26644
31584,27341,26649
31868,27351,26572
31964,27349,26628
31928,27337,26669
31888,27325,26697
31716,27295,26652
31544,27289,26606
31520,27292,26680
31568,27308,26727
31612,27327,26759
31716,27357,26639
31909,27369,26726
31929,27372,26791
31924,27360,26760
31862,27341,26795
31788,27327,26745
31744,27311,26806
