ECG,EDA,RR
30974,38095,35164
30609,38113,35160
30180,38147,35132
29792,38151,35120
29504,38151,35156
29328,38118,35084
29432,38048,35194
29753,38089,35176
30020,38087,35108
29994,38060,35204
30092,38137,35188
30676,38165,35079
31792,38180,35173
32924,38172,35076
33844,38112,35181
34608,38125,35132
35140,38089,35101
35512,38055,35157
35708,38044,35079
35572,38068,35173
35344,38105,35092
35036,38132,35188
34792,38145,35179
34568,38164,35156
34292,38132,35183
33972,38116,35182
33776,38069,35177
33608,38074,35096
33505,38076,35173
33420,38084,35137
33324,38108,35204
33216,38118,35204
33112,38163,35116
33016,38156,35207
32968,38132,35200
32892,38121,35172
32864,38095,35129
32844,38087,35175
32840,38084,35231
32852,38068,35272
32780,38119,35150
32760,38148,35284
32744,38127,35264
32705,38191,35173
32708,38173,35292
32644,38134,35276
32638,38092,35212
32644,38052,35288
32644,38095,35286
32648,38117,35200
32672,38140,35309
32672,38148,35260
32640,38189,35334
32632,38204,35331
32676,38189,35260
32645,38151,35333
32644,38125,35248
32648,38112,35349
32685,38112,35388
32694,38117,35308
32685,38151,35378
32672,38180,35380
32640,38191,35416
32604,38217,35340
32568,38169,35300
32592,38180,35384
32612,38121,35404
32612,38137,35396
32608,38120,35364
32628,38141,35328
32652,38168,35428
32625,38202,35421
32600,38224,35316
32564,38236,35392
32568,38199,35408
32564,38188,35438
32586,38148,35324
32600,38151,35327
32646,38144,35413
32640,38135,35388
32652,38183,35392
32661,38196,35408
32620,38239,35331
32592,38228,35360
32584,38239,35396
32604,38205,35388
32588,38160,35321
32608,38156,35276
32628,38127,35304
32596,38175,35368
32600,38196,35351
32600,38224,35380
32632,38250,35284
32604,38253,35252
32608,38247,35353
32608,38222,35320
32572,38191,35351
32580,38175,35277
32590,38175,35237
32640,38188,35238
32636,38213,35315
32620,38260,35316
32588,38263,35308
32576,38273,35261
32580,38265,35200
32608,38221,35244
32596,38213,35286
32616,38188,35312
32616,38167,35295
32648,38210,35284
32688,38232,35260
32700,38261,35278
32712,38261,35210
32704,38296,35148
32682,38279,35268
32704,38252,35233
32724,38228,35132
32728,38215,35223
32748,38192,35204
32764,38217,35157
32764,38255,35154
32768,38276,35168
32752,38290,35115
32762,38300,35160
32772,38293,35144
32788,38265,35036
32773,38244,35109
32784,38213,35102
32796,38224,34996
32780,38233,35079
32760,38257,35052
32724,38300,35010
32712,38317,34951
32700,38319,35038
32700,38308,34997
32694,38277,34997
32696,38259,35013
32704,38233,34911
32712,38196,34927
32692,38248,34960
32688,38271,34964
32697,38264,34881
32716,38320,34980
32704,38334,34932
32720,38316,34956
32720,38287,34849
32736,38249,34908
32776,38252,34932
32832,38251,34901
32916,38252,34929
32972,38288,34832
32990,38319,34892
33001,38300,34880
33000,38348,34791
32968,38333,34868
32988,38300,34863
32988,38240,34763
32980,38254,34861
33028,38248,34840
33068,38268,34732
33116,38268,34828
33112,38324,34797
33100,38344,34788
33140,38357,34800
33120,38340,34685
33144,38317,34769
33160,38285,34758
33168,38279,34748
33188,38263,34656
33200,38241,34751
33200,38309,34743
33208,38340,34640
33165,38340,34741
33152,38365,34700
33128,38357,34636
33104,38321,34725
33080,38300,34731
33048,38276,34672
33056,38276,34693
33112,38298,34606
33104,38331,34684
33085,38352,34625
33028,38368,34700
33024,38356,34672
32984,38369,34610
32976,38342,34676
32997,38318,34657
33048,38301,34676
33052,38295,34572
33068,38310,34660
33076,38324,34660
33080,38365,34567
33068,38390,34637
33034,38392,34596
33034,38372,34645
33016,38353,34612
33016,38324,34588
33000,38316,34632
33032,38311,34626
33056,38328,34544
33088,38348,34596
33068,38368,34591
33040,38393,34627
33056,38367,34613
33045,38391,34620
33020,38372,34583
33040,38332,34586
33040,38313,34608
33069,38279,34540
33068,38328,34567
33080,38365,34536
33065,38388,34544
33028,38401,34576
32968,38420,34501
32924,38406,34588
32916,38380,34555
32908,38354,34508
32909,38309,34558
32952,38337,34517
32993,38348,34567
33016,38381,34560
33024,38382,34532
33032,38429,34564
33000,38440,34528
32986,38436,34549
32984,38407,34465
32964,38372,34550
32992,38372,34548
32980,38356,34535
32972,38373,34456
32968,38404,34526
32940,38439,34493
32944,38456,34540
32940,38465,34540
32932,38456,34500
32904,38437,34524
32888,38372,34457
32900,38382,34510
32936,38367,34461
32964,38389,34542
32964,38429,34532
32996,38468,34461
33036,38480,34528
33044,38491,34537
33024,38477,34516
32992,38440,34518
33004,38427,34449
33024,38406,34516
33028,38404,34439
33032,38407,34517
33028,38392,34439
33024,38451,34512
33000,38476,34446
32976,38492,34528
33002,38476,34524
32956,38449,34440
32912,38407,34516
32896,38400,34429
32936,38391,34512
32932,38407,34468
32944,38432,34532
32912,38471,34525
32893,38485,34470
32853,38500,34504
32800,38484,34524
32780,38464,34441
32768,38429,34516
32768,38417,34512
32784,38405,34444
32844,38415,34484
32840,38444,34495
32824,38469,34448
32825,38484,34505
32816,38500,34502
32788,38484,34433
32844,38468,34489
32869,38436,34439
32932,38416,34490
32948,38407,34436
32985,38428,34493
33024,38453,34492
33016,38480,34401
32996,38504,34472
32960,38503,34428
32988,38501,34476
32980,38477,34425
33040,38407,34468
33104,38398,34465
33112,38420,34420
33088,38428,34433
33056,38456,34377
33056,38492,34439
33008,38505,34384
32948,38509,34424
32892,38513,34370
32828,38477,34417
32840,38447,34360
32880,38430,34436
32894,38425,34417
32952,38438,34357
32985,38460,34396
32988,38486,34336
32960,38508,34409
32924,38527,34344
32932,38471,34380
32964,38492,34330
32960,38465,34377
32964,38436,34311
32996,38432,34375
33000,38452,34308
32984,38476,34356
32964,38505,34293
32912,38484,34344
32872,38535,34324
32792,38527,34340
32636,38503,34352
32460,38468,34288
32284,38406,34328
32152,38444,34284
31984,38468,34324
31796,38495,34272
31540,38516,34341
31248,38510,34309
30780,38561,34260
30264,38564,34340
29869,38535,34320
29624,38472,34252
29576,38480,34320
29878,38492,34320
30320,38505,34287
30552,38534,34311
30628,38572,34260
31000,38593,34304
31972,38545,34252
33100,38550,34304
34232,38548,34248
35136,38481,34302
35872,38486,34241
36412,38472,34299
36536,38501,34244
36480,38512,34308
36312,38545,34244
36000,38573,34304
35528,38551,34264
35164,38568,34311
34840,38551,34272
34497,38518,34303
34148,38509,34302
33900,38497,34247
33700,38525,34288
33536,38501,34231
33396,38582,34289
33236,38599,34224
33078,38601,34280
32980,38585,34228
32912,38569,34276
32896,38508,34212
32900,38531,34293
32904,38512,34292
32888,38520,34254
32880,38535,34256
32852,38556,34196
32813,38597,34261
32804,38615,34270
32798,38609,34247
32772,38572,34244
32752,38549,34166
32753,38530,34228
32756,38519,34196
32796,38535,34252
32812,38564,34164
32772,38585,34248
32768,38621,34232
32757,38617,34175
32732,38608,34232
32696,38587,34168
32720,38560,34223
32728,38519,34194
32712,38535,34238
32697,38548,34168
32708,38564,34236
32720,38596,34208
32681,38615,34223
32653,38627,34234
32664,38617,34172
32638,38593,34240
32624,38568,34161
32648,38544,34232
32664,38535,34189
32660,38540,34189
32624,38576,34213
32612,38612,34153
32608,38629,34214
32620,38637,34224
32576,38639,34204
32528,38576,34212
32524,38591,34172
32558,38556,34209
32585,38556,34210
32584,38569,34168
32561,38584,34209
32564,38621,34136
32525,38640,34183
32496,38653,34116
32488,38644,34176
32464,38614,34192
32456,38596,34124
32456,38567,34177
32460,38561,34110
32452,38573,34152
32412,38599,34111
32425,38628,34149
32452,38649,34169
32464,38663,34151
32460,38647,34121
32436,38628,34157
32440,38599,34110
32448,38589,34137
32425,38540,34064
32400,38578,34112
32388,38608,34060
32412,38636,34100
32460,38660,34046
32436,38660,34092
32432,38655,34028
32444,38632,34092
32432,38600,34070
32448,38556,34084
32504,38580,34052
32532,38592,34054
32532,38613,33988
32544,38647,34029
32540,38676,33974
32516,38682,34036
32488,38676,33992
32524,38652,34004
32536,38600,34000
32556,38569,33950
32576,38589,33983
32592,38599,33992
32588,38618,33932
32612,38647,34005
32628,38676,33974
32612,38685,33916
32601,38685,33978
32620,38660,33973
32636,38623,33892
32644,38607,33967
32652,38601,33904
32664,38601,33957
32692,38630,33902
32692,38663,33929
32724,38647,33892
32716,38650,33927
32676,38644,33908
32640,38620,33875
32620,38600,33892
32618,38596,33848
32640,38576,33869
32720,38568,33866
32756,38631,33844
32788,38652,33826
32812,38681,33828
32800,38684,33799
32788,38678,33814
32808,38648,33815
32832,38580,33799
32832,38597,33784
32868,38592,33789
32904,38597,33761
32928,38617,33783
32936,38647,33773
32924,38650,33776
32932,38652,33765
32956,38670,33761
32976,38648,33777
32988,38572,33718
32992,38596,33759
33056,38594,33703
33056,38598,33756
33056,38615,33705
33048,38649,33760
33056,38663,33701
33089,38679,33751
33081,38663,33678
33088,38647,33748
33076,38617,33734
33080,38596,33720
33092,38581,33727
33100,38591,33685
33060,38623,33701
33049,38644,33669
33061,38672,33718
33064,38671,33714
33056,38663,33653
33040,38638,33718
33060,38606,33722
33048,38581,33664
33080,38535,33717
33088,38584,33719
33072,38604,33660
33056,38637,33716
33008,38660,33685
33012,38672,33735
32968,38628,33692
32964,38632,33738
32972,38609,33726
32960,38593,33684
32972,38578,33756
32968,38576,33751
32973,38601,33711
32970,38624,33772
32952,38657,33760
32932,38660,33732
32916,38652,33772
32900,38631,33737
32900,38606,33768
32904,38591,33744
32908,38574,33796
32964,38556,33790
32972,38604,33764
32964,38631,33790
32924,38652,33756
32940,38660,33799
32932,38649,33796
32912,38616,33808
32908,38588,33788
32912,38556,33799
32916,38529,33786
32932,38556,33823
32932,38543,33768
32952,38572,33836
32916,38615,33784
32888,38605,33812
32888,38633,33820
32880,38612,33828
32884,38573,33780
32880,38556,33826
32908,38541,33776
32948,38548,33846
32956,38568,33828
32968,38596,33856
32932,38623,33863
32924,38615,33826
32892,38596,33877
32885,38588,33848
32904,38553,33877
32889,38535,33873
32892,38532,33833
32904,38526,33881
32876,38564,33840
32876,38588,33885
32864,38604,33843
32840,38613,33916
32832,38615,33912
32804,38581,33848
32796,38556,33901
32824,38525,33868
32816,38516,33940
32892,38527,33926
32920,38551,33905
32896,38577,33924
32856,38592,33937
32824,38608,33889
32812,38588,33937
32788,38580,33900
32781,38548,33928
32763,38487,33880
32764,38513,33927
32756,38524,33882
32756,38535,33933
32756,38580,33876
32764,38599,33941
32764,38604,33917
32752,38596,33956
32716,38535,33913
32744,38540,33949
32780,38517,33918
32737,38516,33945
32780,38512,33924
32792,38535,33927
32816,38567,33972
32868,38592,33916
32884,38592,33989
32900,38599,33988
32880,38535,33961
32879,38535,33968
32920,38513,33932
32932,38505,33992
32976,38508,33994
32992,38513,33924
32988,38565,33988
33025,38586,34000
33056,38599,33973
33049,38566,33989
33028,38577,33944
32996,38540,34016
32961,38508,34011
32932,38495,33949
32912,38496,34009
32869,38500,33948
32872,38556,34021
32882,38574,34032
32884,38589,34008
32904,38584,34032
32948,38556,34017
32940,38532,34028
32989,38468,33989
32992,38485,34036
33016,38498,33988
33009,38512,34063
32996,38516,34048
32996,38535,34032
32978,38557,34048
32956,38552,34055
32924,38513,34087
32956,38496,34023
32945,38461,34085
32936,38457,34084
32916,38455,34005
32876,38508,34100
32728,38535,34092
32578,38556,34045
32416,38548,34085
32224,38564,34104
32009,38541,34047
31764,38516,34092
31488,38488,34054
31128,38460,34084
30688,38488,34112
30208,38509,34092
29860,38544,34104
29608,38576,34047
29568,38588,34102
29856,38584,34070
30176,38564,34128
30367,38493,34112
30509,38481,34109
31076,38476,34136
32164,38500,34152
33368,38511,34102
34476,38528,34137
35268,38548,34084
35920,38556,34156
36360,38550,34086
36408,38516,34150
36352,38492,34100
36140,38465,34157
35788,38458,34117
35348,38432,34191
35008,38485,34192
34656,38519,34197
34280,38517,34200
33940,38513,34159
33652,38511,34190
33450,38487,34142
33276,38484,34212
33118,38439,34213
32992,38430,34144
32924,38426,34229
32840,38452,34228
32764,38492,34180
32732,38532,34220
32720,38553,34196
32676,38541,34230
32620,38521,34225
32628,38493,34172
32628,38472,34239
32608,38452,34244
32580,38452,34246
32600,38445,34240
32600,38500,34205
32628,38532,34229
32628,38534,34238
32592,38508,34172
32600,38512,34240
32596,38487,34232
32572,38463,34193
32544,38438,34236
32528,38460,34212
32552,38469,34256
32556,38500,34242
32545,38516,34183
32520,38501,34240
32500,38535,34199
32476,38511,34196
32464,38479,34284
32476,38432,34265
32460,38423,34212
32460,38436,34272
32456,38461,34260
32422,38485,34207
32424,38513,34286
32408,38488,34279
32410,38489,34272
32396,38484,34277
32425,38422,34229
32444,38424,34276
32468,38425,34229
32468,38425,34276
32448,38455,34196
32424,38480,34271
32428,38500,34218
32452,38512,34287
32396,38505,34296
32372,38444,34274
32348,38454,34276
32352,38436,34228
32365,38428,34309
32444,38424,34294
32456,38445,34234
32472,38478,34300
32480,38500,34258
32440,38508,34297
32428,38496,34277
32388,38489,34328
32405,38456,34336
32464,38422,34286
32500,38375,34311
32512,38424,34254
32428,38444,34332
32392,38474,34268
32412,38489,34336
32400,38503,34288
32388,38496,34352
32393,38444,34352
32445,38404,34352
32532,38428,34354
32577,38404,34351
32624,38407,34357
32712,38433,34300
32764,38460,34348
32732,38476,34295
32668,38508,34366
32596,38491,34336
32604,38471,34348
32620,38444,34301
32608,38407,34356
32616,38367,34296
32648,38380,34373
32648,38424,34328
32696,38448,34372
32684,38473,34317
32652,38453,34393
32640,38493,34380
32644,38461,34312
32644,38445,34404
32688,38400,34324
32688,38388,34397
32688,38395,34417
32736,38407,34356
32784,38441,34412
32804,38465,34372
32784,38473,34439
32704,38429,34452
32672,38452,34424
32692,38420,34464
32720,38384,34444
32692,38380,34463
32716,38390,34390
32732,38406,34480
32721,38424,34461
32721,38448,34492
32732,38464,34448
32708,38455,34502
32745,38407,34492
32784,38407,34532
32808,38376,34538
32860,38372,34468
32856,38343,34549
32872,38364,34493
32864,38399,34559
32868,38429,34516
32928,38449,34589
33009,38444,34548
32996,38379,34629
32988,38378,34629
33016,38366,34648
33020,38350,34660
33052,38350,34561
33088,38373,34664
33088,38404,34610
33012,38416,34673
32964,38437,34653
32916,38420,34733
32908,38388,34735
32912,38359,34677
32960,38355,34729
33026,38324,34700
33096,38325,34760
33132,38353,34716
33088,38377,34797
33092,38407,34768
33044,38384,34846
33066,38407,34852
33156,38396,34761
33168,38357,34841
33172,38336,34788
33156,38324,34872
33120,38287,34804
33128,38332,34897
33209,38350,34828
33264,38392,34917
33224,38407,34892
33232,38407,34953
33372,38380,34875
33388,38351,34960
33392,38324,34921
33398,38304,34938
33368,38304,34977
33344,38303,34910
33304,38349,35031
33240,38377,35037
33324,38393,34973
33360,38384,35028
33328,38372,34964
33412,38338,35052
33464,38308,35029
33412,38274,35096
33352,38288,35110
33380,38316,35121
33404,38344,35124
33340,38346,35104
33352,38351,35140
33348,38332,35149
33312,38353,35170
33284,38287,35172
33260,38296,35090
33200,38295,35152
33164,38286,35084
33068,38276,35176
33024,38292,35137
32964,38340,35188
32964,38334,35112
32952,38373,35204
32936,38342,35131
32912,38312,35206
32904,38279,35145
32932,38269,35236
32972,38279,35144
32968,38293,35260
33014,38329,35205
33016,38348,35293
33016,38363,35222
33036,38351,35248
33036,38295,35269
33048,38261,35207
33080,38276,35287
33100,38260,35295
33145,38260,35316
33192,38272,35282
33244,38304,35300
33236,38324,35214
33208,38303,35332
33180,38339,35328
33152,38309,35324
33117,38279,35269
33096,38252,35343
33048,38236,35356
33004,38245,35348
32972,38268,35244
32972,38292,35341
33016,38309,35350
33020,38324,35348
33000,38325,35327
32984,38297,35346
32985,38260,35333
33012,38241,35333
33049,38220,35314
33044,38225,35332
33040,38221,35312
33016,38245,35247
32980,38285,35304
32924,38308,35236
32860,38312,35282
32844,38289,35228
32864,38260,35277
32944,38228,35284
32952,38178,35177
32908,38213,35264
32864,38237,35228
32840,38255,35284
32756,38290,35207
32688,38300,35312
32688,38260,35316
32664,38272,35253
32704,38244,35335
32752,38221,35271
32832,38201,35342
32844,38207,35301
32808,38226,35360
32780,38248,35399
32756,38241,35335
32784,38262,35388
32756,38292,35324
32772,38262,35437
32808,38241,35392
32828,38208,35378
32808,38198,35463
32852,38188,35393
32900,38215,35489
32904,38233,35532
32916,38260,35534
32936,38277,35551
32960,38271,35462
32984,38251,35553
32940,38215,35501
32924,38188,35612
32928,38144,35634
32896,38140,35606
32844,38201,35636
32824,38231,35564
32788,38246,35680
32776,38272,35634
32754,38269,35732
32736,38244,35748
32744,38215,35708
32701,38168,35792
32708,38172,35756
32708,38176,35822
32752,38191,35797
32768,38189,35860
32762,38236,35847
32728,38263,35896
32740,38246,35860
32720,38228,35912
32704,38204,35868
32714,38175,35929
32750,38151,35953
32752,38164,35854
32716,38175,35988
32658,38196,35984
32528,38232,35916
32365,38237,36003
32160,38253,35908
31972,38191,36002
31784,38191,35924
31560,38168,36029
31312,38151,35963
30984,38108,36033
30628,38132,35966
30220,38200,36041
29796,38241,36056
29512,38257,35944
29308,38254,36044
29396,38240,36004
29788,38209,36077
29988,38184,36076
29984,38173,35944
30136,38177,36029
30904,38184,35968
32120,38205,36040
33336,38213,35968
34304,38207,36048
35060,38222,36036
35640,38215,36012
35936,38172,36020
36048,38140,35998
35884,38128,35992
35620,38120,35872
35316,38142,35956
34984,38179,35976
34744,38198,35940
34444,38215,35932
34112,38207,35847
33821,38185,35940
33600,38163,35847
33432,38139,35925
33304,38113,35909
33196,38112,35892
33116,38135,35847
33000,38164,35737
32908,38188,35812
32840,38199,35778
32793,38204,35805
32756,38181,35692
32720,38148,35753
32704,38121,35728
32676,38108,35624
32636,38103,35654
32646,38120,35653
32652,38151,35576
32620,38170,35568
32576,38188,35598
32592,38183,35600
32592,38160,35488
32560,38113,35564
32548,38109,35556
32600,38089,35479
32648,38092,35502
32656,38114,35409
32628,38133,35436
32638,38133,35450
32620,38168,35462
32592,38177,35325
32532,38151,35404
32532,38121,35351
32520,38097,35401
32556,38079,35386
32581,38068,35329
32572,38068,35340
32544,38095,35236
32528,38145,35311
32520,38161,35276
32494,38156,35215
32476,38141,35273
32480,38116,35260
32440,38087,35169
32444,38072,35196
32484,38064,35094
32512,38085,35174
32544,38112,35161
32524,38140,35049
32460,38149,35079
32396,38140,34996
32360,38135,35040
32380,38108,34948
32408,38080,35000
32440,38023,34972
32437,38056,34855
32464,38072,34896
32428,38092,34822
32428,38124,34854
32412,38141,34749
32392,38141,34772
32372,38119,34668
32392,38093,34716
32412,38021,34617
32396,38016,34672
32380,38045,34572
32388,38060,34608
32404,38085,34508
32416,38120,34556
32448,38140,34524
32444,38125,34469
32412,38078,34462
32432,38084,34436
32464,38049,34353
32472,37996,34381
32480,38036,34289
32496,38055,34311
32500,38080,34228
32484,38116,34214
32468,38128,34212
32492,38125,34180
32468,38109,34093
32476,38076,34132
32488,38052,34088
32505,38037,34036
32524,38031,34010
32548,38052,34000
32568,38076,33927
32569,38108,33948
32608,38120,33875
32612,38116,33897
32593,38097,33828
32576,38037,33837
32568,38055,33813
32596,38033,33740
32636,38026,33736
32620,38048,33648
32652,38068,33685
32640,38100,33636
32636,38117,33636
32680,38116,33625
32620,38103,33543
32624,38076,33560
32592,38052,33481
32576,38030,33508
32584,38036,33439
32584,38047,33473
32568,38068,33401
32540,38092,33445
32528,38113,33380
32520,38105,33428
32516,38090,33408
32508,38026,33344
32488,38023,33364
32480,38009,33309
32456,38023,33341
32496,38033,33318
32532,38060,33324
32549,38080,33324
32544,38097,33286
32576,38092,33277
32612,38032,33212
32644,38008,33260
32668,37975,33228
32672,37977,33175
32704,37991,33223
32696,38018,33161
32688,38045,33188
32688,38053,33157
32676,38079,33159
32708,38063,33151
32748,38055,33113
32780,38023,33113
32824,38000,33052
32860,37980,33096
32896,37983,33055
32888,37997,33080
32886,38026,33020
32896,38048,33056
32900,38064,33005
32892,38068,33056
32912,38048,33028
32876,38013,32976
32841,37993,33040
32832,37968,33023
32876,37966,32980
32896,37984,33009
32916,38013,32996
32948,38039,33018
32924,38052,33021
32896,38053,32972
32899,38023,33020
32908,37999,32980
32876,37952,33036
32884,37927,32992
32928,37927,33031
32944,37976,33002
32960,38001,33024
32954,38006,33055
32944,38047,33072
32929,38053,33030
32912,38031,33088
32896,38006,33077
32884,37980,33117
32861,37956,33092
32912,37956,33136
32888,37972,33121
32857,37992,33151
32844,38029,33188
32849,38039,33188
32845,38036,33231
32800,38023,33252
32760,37999,33237
32736,37932,33300
32752,37948,33321
32766,37959,33345
32816,37956,33373
32828,37993,33392
32808,38020,33412
32804,38028,33440
32772,38036,33461
32764,38012,33415
32780,37990,33517
32804,37959,33504
32820,37936,33568
32848,37948,33529
32828,37954,33614
32828,37980,33596
32804,38015,33690
32840,38030,33722
32858,38012,33775
32881,38008,33796
32872,37969,33777
32864,37948,33870
32860,37931,33892
32884,37894,33885
32886,37940,33951
32884,37967,33946
32852,37996,34032
32877,38013,34007
32888,38012,34084
32893,37996,34047
32900,37972,34144
32909,37944,34140
32932,37884,34215
32928,37880,34202
32932,37927,34310
32952,37961,34289
32960,37996,34390
32972,38000,34357
32958,38004,34468
32960,37984,34516
32952,37944,34529
32968,37928,34580
32964,37919,34540
32976,37915,34680
32960,37930,34704
32988,37953,34676
33004,37980,34837
33016,37989,34820
33060,37996,34932
33056,37985,34917
33032,37956,35033
33006,37924,35079
33016,37913,35113
33041,37872,35175
33032,37895,35124
33044,37942,35305
33056,37972,35356
33000,38001,35356
32988,38001,35448
32992,37981,35457
32964,37957,35556
32968,37929,35569
33028,37903,35683
33040,37895,35741
33039,37910,35776
33064,37925,35865
33048,37977,35864
33001,37999,35951
32992,37988,35952
32976,37964,36102
32952,37949,36164
32917,37917,36212
32916,37895,36148
32928,37869,36320
32932,37921,36405
32936,37940,36414
32956,37966,36481
32940,37975,36439
32884,37977,36608
32824,37957,36680
32800,37934,36625
32808,37916,36745
32796,37894,36708
32788,37895,36857
32768,37908,36860
32788,37935,37016
32820,37954,37083
32804,37958,37060
32798,37940,37152
32784,37957,37116
32780,37949,37301
32828,37912,37365
32888,37895,37412
32912,37895,37481
32976,37913,37527
33004,37942,37469
32992,37956,37632
33008,37974,37605
33032,37988,37760
33020,37972,37764
33016,37936,37861
33016,37917,37860
33072,37894,37988
33125,37890,37991
33144,37917,38125
33128,37940,38201
33125,37952,38263
33084,37975,38270
33048,37972,38366
32976,37941,38308
32920,37924,38470
32904,37895,38568
32917,37876,38535
32916,37882,38637
32940,37892,38772
32976,37917,38736
32948,37912,38848
32948,37972,38821
32936,37969,38992
32920,37916,39036
32920,37917,39013
32904,37886,39132
32920,37870,39104
32933,37864,39348
32956,37876,39236
32984,37895,39412
32960,37926,39431
32950,37950,39564
32988,37948,39645
32940,37894,39663
32901,37892,39670
32785,37872,39807
32608,37860,39844
32436,37816,39922
32288,37845,39845
32136,37893,40033
31932,37933,40128
31708,37913,40000
31408,37944,40196
30994,37943,40105
30532,37895,40295
30176,37895,40297
29980,37868,40316
29868,37844,40444
30080,37892,40464
30504,37919,40553
30800,37945,40548
30896,37965,40665
31132,37966,40656
32008,37911,40783
33216,37909,40877
34412,37868,40892
35336,37847,40892
36028,37813,41029
36548,37848,40852
36692,37876,41084
36564,37884,41069
36400,37912,41031
36125,37909,41116
35732,37909,41247
35296,37876,41365
34912,37837,41164
34560,37826,41377
34232,37831,41454
33952,37844,41301
33721,37871,41524
33548,37881,41420
33444,37920,41620
33276,37927,41588
33124,37895,41516
33028,37844,41712
32992,37836,41718
32944,37822,41796
32910,37816,41805
32916,37839,41700
32888,37821,41887
32892,37883,41950
32840,37895,41748
32845,37908,41940
32828,37884,41973
32820,37844,42052
32808,37839,42100
32840,37828,42021
32828,37820,42136
32869,37824,42204
32888,37816,42184
32856,37872,42132
32832,37892,42116
32840,37895,42224
32809,37884,42247
32788,37865,42280
32776,37828,42332
32784,37765,42087
32764,37804,42278
32752,37820,42330
32764,37849,42342
32732,37879,42332
32724,37895,42339
32692,37892,42177
32705,37889,42388
32708,37861,42412
32672,37830,42440
32676,37813,42428
32688,37782,42268
32676,37788,42400
32672,37809,42242
32656,37879,42496
32604,37895,42492
32593,37895,42528
32612,37877,42498
32612,37857,42453
32628,37820,42477
32640,37797,42327
32662,37799,42580
32641,37813,42541
32644,37837,42464
32716,37836,42473
32636,37891,42564
32644,37884,42608
32556,37876,42580
32498,37841,42629
32628,37824,42364
32632,37797,42590
32584,37801,42368
32568,37812,42519
32548,37827,42385
32548,37860,42590
32520,37878,42399
32529,37844,42631
32536,37836,42412
32528,37796,42533
32556,37815,42416
32560,37792,42644
32549,37790,42604
32560,37801,42654
32524,37837,42636
32521,37854,42661
32581,37864,42636
32620,37848,42607
32600,37860,42604
32608,37831,42401
32612,37805,42668
32604,37789,42648
32640,37776,42548
32644,37789,42586
32656,37817,42456
32657,37845,42564
32660,37864,42477
32636,37869,42568
32608,37845,42477
32616,37805,42576
32636,37799,42484
32632,37780,42696
32708,37773,42461
32712,37792,42684
32692,37818,42466
32716,37842,42621
32732,37856,42500
32752,37829,42644
32736,37828,42569
32696,37812,42721
32708,37793,42768
32700,37772,42748
32748,37765,42784
32768,37785,42764
32749,37808,42813
32744,37829,42784
32700,37856,42721
32748,37860,42804
32717,37849,42604
32712,37818,42767
32688,37788,42720
32684,37733,42852
32716,37734,42881
32741,37736,42631
32756,37760,42769
32756,37785,42664
32780,37845,42892
32796,37847,42892
32707,37828,42836
32764,37799,42880
32764,37748,42812
32700,37717,42853
32852,37753,42840
32828,37735,42926
32804,37784,42957
32740,37815,42916
32844,37832,42917
32948,37838,42936
32926,37808,42940
32928,37796,42952
32964,37767,42961
32976,37751,42949
32980,37742,42956
33012,37729,42953
33128,37777,42863
33104,37804,42924
33080,37821,42743
33056,37828,42922
33036,37820,42823
33060,37799,42932
33048,37764,42884
33040,37741,42912
32960,37732,42864
32952,37752,42932
33088,37774,42901
33037,37793,42836
33072,37826,42684
33053,37788,42880
33052,37808,42669
33080,37781,42860
33028,37756,42660
33060,37734,42844
33120,37729,42631
33148,37708,42774
33212,37752,42696
33124,37789,42824
33100,37815,42852
33088,37821,42812
33016,37767,42808
32990,37772,42544
33000,37745,42696
33000,37733,42532
32949,37726,42772
32992,37734,42717
33020,37764,42660
33008,37789,42604
32944,37812,42492
32880,37812,42630
32901,37796,42612
32960,37767,42625
32948,37745,42612
32913,37721,42388
32904,37713,42540
32904,37733,42553
32932,37759,42561
32902,37781,42276
32878,37804,42404
32836,37816,42281
32792,37796,42381
32776,37782,42372
32796,37753,42390
32796,37732,42413
32801,37728,42136
32833,37732,42281
32824,37767,42268
32792,37786,42276
32848,37809,42289
32864,37774,42006
32848,37783,42142
32828,37741,41944
32828,37713,42056
32884,37691,41926
32868,37686,42052
32868,37704,41860
32844,37748,42047
32852,37766,42013
32820,37765,42016
32792,37799,41959
32780,37804,41852
32784,37780,41808
32760,37742,41700
32772,37721,41789
32760,37729,41620
32764,37733,41717
32796,37753,41589
32784,37777,41672
32760,37804,41617
32756,37805,41711
32756,37792,41708
32748,37767,41657
32748,37748,41640
32800,37719,41556
32768,37708,41400
32764,37716,41460
32790,37743,41320
32788,37766,41408
32806,37780,41255
32800,37785,41476
32804,37780,41412
32784,37752,41402
32780,37711,41320
32792,37717,41149
32804,37705,41213
32804,37710,41252
32832,37741,41232
32817,37761,41149
32788,37781,41029
32764,37799,41090
32764,37783,40924
32790,37740,41094
32792,37716,41033
32772,37700,40982
32800,37690,40949
32836,37703,40767
32832,37728,40812
32864,37750,40711
32840,37772,40763
32832,37772,40620
32820,37767,40692
32764,37757,40588
32776,37717,40662
32796,37688,40692
32752,37686,40663
32766,37698,40641
32788,37716,40604
32732,37745,40550
32728,37774,40410
32733,37781,40484
32716,37765,40485
32736,37708,40434
32756,37709,40416
32748,37695,40273
32698,37693,40317
32688,37697,40176
32720,37717,40284
32644,37756,40279
32628,37767,40204
32616,37739,40164
32586,37732,40007
32584,37700,40045
32589,37668,40071
32612,37692,40052
32600,37684,40036
32592,37693,39943
32624,37716,39919
32568,37745,39780
32577,37736,39825
32644,37767,39703
32612,37751,39776
32644,37732,39799
32672,37702,39777
32692,37684,39576
32740,37669,39717
32780,37684,39524
32784,37700,39616
32768,37736,39548
32769,37752,39580
32722,37765,39548
32732,37733,39527
32736,37728,39516
32760,37689,39463
32780,37668,39292
32848,37668,39336
32878,37677,39220
32889,37700,39351
32869,37728,39270
32868,37716,39284
32868,37725,39140
32848,37748,39175
32776,37720,39074
32720,37668,39205
32724,37644,39172
32772,37652,39166
32782,37671,39110
32804,37693,39060
32812,37724,39025
32832,37741,38901
32828,37743,38948
32800,37722,38973
32816,37709,38932
32813,37676,38958
32853,37663,38885
32864,37620,38895
32876,37639,38846
32916,37685,38862
32892,37716,38839
32966,37724,38845
32940,37734,38727
32924,37725,38656
32788,37703,38801
32684,37670,38761
32548,37633,38724
32428,37615,38696
32248,37625,38568
32100,37676,38620
31884,37717,38660
31652,37740,38508
31468,37697,38568
31076,37693,38568
30620,37702,38596
30260,37685,38564
29988,37673,38488
29836,37665,38407
29834,37679,38549
30368,37703,38496
30844,37730,38353
31016,37756,38478
31124,37757,38452
31717,37744,38412
32860,37717,38380
34048,37652,38276
35008,37648,38329
35700,37639,38252
36216,37636,38372
36488,37658,38348
36372,37681,38284
36248,37703,38300
36044,37701,38160
35668,37691,38308
35216,37648,38276
34784,37639,38200
34436,37619,38208
34104,37638,38100
33816,37639,38221
33544,37669,38061
33340,37696,38197
33184,37727,38168
33052,37727,38144
32960,37705,38124
32864,37652,37985
32768,37650,38064
32748,37634,38100
32736,37632,38076
32724,37639,38033
32724,37661,38009
32684,37696,37983
32684,37700,37930
32648,37716,37969
32612,37716,37942
32632,37692,37885
32564,37648,37764
32540,37636,37884
32508,37637,37828
32536,37637,37732
32632,37664,37844
32584,37692,37821
32580,37708,37716
32508,37724,37805
32482,37712,37752
32536,37681,37620
32510,37653,37748
32532,37638,37728
32444,37631,37566
32488,37612,37716
32493,37639,37684
32545,37696,37667
32536,37724,37524
32460,37732,37577
32460,37724,37473
32408,37700,37568
32416,37677,37511
32516,37653,37532
32553,37625,37508
32592,37660,37383
32538,37680,37511
32520,37716,37488
32501,37735,37333
32492,37747,37460
32504,37735,37433
32488,37713,37391
32488,37680,37351
32548,37663,37377
32574,37618,37340
32568,37639,37333
32496,37688,37292
32528,37719,37264
32560,37742,37148
32524,37736,37263
32492,37696,37231
32484,37700,37124
32480,37688,37164
32464,37657,37084
32432,37659,37188
32492,37664,37132
32516,37653,37036
32432,37724,37154
32472,37746,37117
32392,37748,36964
32356,37741,37044
32320,37720,37071
32344,37668,37059
32372,37649,37012
32468,37630,36916
32440,37639,37012
32440,37682,36972
32462,37728,36845
32460,37748,36960
32449,37761,36940
32456,37719,36828
32424,37733,36867
32368,37701,36876
32524,37680,36727
32536,37679,36813
32620,37700,36812
32680,37716,36679
32672,37746,36756
32624,37745,36708
32572,37788,36718
32524,37767,36590
32472,37764,36636
32396,37732,36678
32592,37676,36613
32656,37701,36605
32680,37717,36613
32704,37741,36464
32732,37780,36577
32716,37796,36529
32636,37796,36401
32633,37788,36477
32648,37767,36508
32656,37745,36412
32668,37724,36430
32688,37714,36359
32684,37711,36404
32680,37704,36388
32660,37780,36400
32668,37792,36271
32632,37799,36351
32608,37801,36334
32576,37781,36220
32604,37755,36300
32580,37733,36257
32576,37702,36279
32584,37737,36128
32624,37764,36244
32584,37796,36218
32564,37828,36160
32580,37837,36156
32548,37791,36064
32628,37783,36159
32660,37746,36103
32668,37764,36040
32652,37748,36085
32696,37760,36069
32712,37785,36072
32736,37814,36046
32756,37841,36028
32720,37847,35944
32744,37812,35972
32736,37797,35847
32805,37788,35940
32820,37767,35830
32848,37764,35900
32897,37764,35838
32940,37792,35912
32928,37824,35919
32852,37848,35876
32908,37863,35740
32948,37852,35828
32936,37828,35725
32928,37807,35796
32936,37783,35702
32944,37772,35799
32958,37780,35682
32981,37810,35744
32968,37824,35688
32940,37832,35700
32940,37865,35718
32960,37860,35719
32932,37836,35588
32944,37809,35653
32960,37789,35692
32984,37785,35575
32996,37788,35640
32996,37825,35549
33068,37844,35613
33048,37841,35488
33020,37880,35581
32976,37887,35470
32936,37854,35560
32944,37831,35462
32976,37808,35532
32996,37804,35472
33016,37810,35549
33028,37836,35510
32996,37868,35457
33020,37895,35497
33021,37909,35463
33000,37861,35508
32965,37885,35468
32972,37862,35460
32968,37832,35360
32952,37820,35444
32976,37839,35340
32956,37855,35424
32940,37884,35380
32868,37918,35429
32776,37924,35432
32828,37913,35364
32808,37888,35460
32844,37866,35437
32832,37830,35382
32768,37814,35439
32788,37868,35330
32892,37885,35425
32948,37921,35380
32897,37943,35439
32784,37956,35412
32768,37951,35436
32808,37932,35321
32832,37916,35412
32824,37890,35348
32820,37876,35404
32784,37882,35335
32808,37910,35412
32828,37931,35336
32813,37968,35398
32728,37991,35388
32656,37982,35330
32661,37969,35356
32754,37935,35276
32748,37924,35378
32792,37909,35364
32868,37916,35301
32860,37941,35343
32816,37967,35287
32832,37985,35325
32788,38015,35229
32756,38004,35332
32780,37980,35260
32772,37969,35338
32744,37946,35262
32760,37893,35329
32800,37936,35221
32824,37965,35328
32808,37997,35334
32884,38023,35330
32893,38044,35249
32856,38037,35300
32724,38023,35308
32716,37990,35268
32808,37972,35282
32860,37967,35172
32960,37983,35288
32868,38000,35276
32936,38026,35164
32928,38060,35271
32884,38072,35205
32836,38068,35241
32796,38055,35244
32756,38022,35195
32820,38009,35204
32876,38004,35220
32893,38012,35184
32885,38028,35184
32956,38055,35096
32944,38056,35144
32832,38092,35072
32888,38103,35124
32928,38086,35033
32888,38064,35108
32836,38052,35052
32896,38024,35119
33020,38045,35102
33025,38069,35039
32820,38102,35070
32964,38126,34980
32860,38129,35076
32884,38135,35078
32920,38108,35052
32940,38081,35064
32925,38063,34996
32908,38060,35040
32832,38069,34948
32830,38088,35052
32848,38116,35060
32848,38149,34942
32820,38180,35032
32840,38173,35048
32868,38151,35022
32864,38118,35020
32864,38109,34964
32896,38092,35004
32784,38114,35013
32836,38135,34924
32844,38167,34993
32816,38193,34998
32704,38209,34927
32712,38215,34956
32732,38151,34968
32720,38160,34864
32712,38144,34945
32772,38128,34965
32740,38144,34894
32748,38172,34940
32768,38198,34932
32820,38222,34876
32792,38238,34948
32699,38236,34932
32640,38225,34837
32752,38207,34909
32824,38178,34832
32856,38172,34924
32869,38188,34872
32828,38198,34917
32944,38241,34919
32912,38253,34870
32924,38277,34908
32933,38279,34845
32992,38252,34921
32960,38220,34839
32976,38212,34944
33016,38207,34933
33120,38226,34853
33080,38242,34916
33102,38277,34869
33052,38300,34951
32988,38316,34945
32980,38273,34880
32953,38271,34904
32884,38268,34837
32864,38248,34928
32889,38238,34868
32916,38244,34929
32904,38279,34871
32928,38309,34884
32940,38337,34916
32924,38359,34832
32900,38348,34886
32884,38325,34805
32948,38301,34879
32936,38279,34840
32974,38276,34900
32993,38276,34900
33000,38308,34849
32900,38340,34875
32800,38365,34836
32864,38380,34900
32896,38372,34849
32896,38336,34880
32837,38294,34823
32656,38268,34885
32504,38293,34884
32278,38279,34831
32104,38316,34882
31936,38328,34788
31736,38358,34846
31568,38420,34798
31332,38417,34852
30956,38399,34804
30624,38377,34823
30340,38368,34757
30192,38357,34823
30216,38364,34756
30500,38396,34810
30916,38428,34823
31204,38460,34816
31316,38476,34756
31544,38477,34798
32388,38456,34790
33434,38424,34718
34432,38393,34783
35192,38385,34764
35756,38383,34692
36152,38372,34757
36256,38407,34765
36152,38424,34660
35920,38468,34741
35728,38467,34741
35380,38453,34740
34848,38389,34642
34560,38399,34732
34268,38391,34687
34016,38399,34725
33704,38431,34708
33528,38453,34649
33266,38492,34695
33008,38496,34695
33064,38501,34692
32956,38478,34608
32836,38446,34683
32748,38437,34606
32712,38423,34637
32660,38433,34629
32669,38455,34544
32664,38486,34617
32556,38519,34618
32612,38527,34576
32728,38492,34581
32652,38504,34551
32568,38484,34580
32544,38460,34535
32536,38455,34567
32464,38460,34548
32460,38447,34550
32476,38503,34488
32582,38532,34527
32552,38552,34452
32513,38548,34508
32518,38527,34448
32456,38501,34516
32516,38477,34513
32534,38464,34446
32436,38478,34484
32536,38503,34432
32548,38535,34473
32520,38557,34423
32468,38552,34456
32364,38567,34404
32376,38540,34456
32442,38527,34382
32376,38501,34425
32480,38465,34367
32540,38496,34421
32476,38516,34352
32436,38556,34404
32500,38583,34344
32480,38592,34400
32396,38588,34327
32400,38568,34380
32444,38541,34311
32485,38513,34380
32518,38470,34318
32532,38517,34364
32596,38535,34276
32568,38569,34340
32544,38606,34276
32436,38605,34329
32356,38610,34264
32416,38600,34328
32400,38567,34260
32428,38535,34311
32416,38533,34304
32393,38496,34261
32544,38535,34288
32484,38564,34276
32396,38572,34274
32377,38631,34228
32564,38597,34260
32576,38577,34256
32404,38572,34168
32440,38572,34208
32512,38542,34223
32504,38557,34141
32520,38572,34205
32486,38605,34141
32552,38598,34172
32388,38653,34169
32492,38637,34156
32488,38604,34140
32472,38613,34151
32388,38584,34129
32436,38576,34116
32414,38548,34062
32480,38593,34096
32596,38628,34041
32568,38628,34072
32489,38663,33995
32488,38672,34016
32416,38648,33988
32492,38628,34012
32468,38607,33981
32520,38589,33983
32564,38567,33956
32616,38620,33980
32608,38649,33973
32596,38672,33957
32596,38692,33953
32596,38644,33932
32624,38663,33912
32616,38636,33866
32608,38620,33884
32648,38604,33821
32652,38618,33799
32640,38628,33840
32648,38618,33773
32620,38692,33826
32588,38711,33751
32572,38703,33799
32525,38685,33788
32548,38653,33732
32550,38581,33753
32608,38621,33700
32648,38621,33718
32628,38651,33725
32584,38643,33645
32568,38661,33684
32488,38724,33618
32406,38720,33660
32332,38703,33592
32396,38676,33624
32432,38649,33588
32464,38637,33609
32596,38644,33584
32645,38653,33582
32640,38663,33556
32608,38684,33566
32680,38737,33559
32728,38705,33500
32668,38676,33521
32773,38679,33473
32797,38648,33505
32828,38611,33488
32888,38613,33469
32877,38653,33481
32890,38696,33460
32880,38730,33480
32864,38740,33488
32920,38729,33444
32872,38714,33476
32840,38684,33477
32912,38663,33469
32916,38644,33415
32940,38654,33472
32976,38681,33424
33008,38702,33452
32968,38725,33425
32824,38741,33476
32888,38753,33476
33000,38723,33432
32977,38700,33476
32997,38677,33464
32968,38663,33488
32968,38663,33487
32968,38684,33497
32924,38711,33500
32993,38737,33445
33016,38715,33476
32984,38712,33456
32992,38692,33485
32962,38703,33496
32940,38684,33444
32989,38656,33489
32980,38663,33440
32936,38692,33480
33072,38724,33473
32980,38748,33500
32888,38758,33492
32860,38761,33484
32869,38730,33456
32842,38712,33500
32800,38692,33454
32780,38680,33496
32796,38677,33460
32908,38708,33503
33016,38734,33509
32894,38757,33508
32868,38773,33505
32924,38744,33452
32908,38750,33513
32864,38732,33510
32900,38700,33523
32876,38686,33533
32816,38701,33542
32756,38719,33543
32780,38740,33552
32832,38773,33568
32748,38784,33580
32816,38783,33600
32876,38753,33585
32876,38732,33618
32912,38708,33588
32853,38697,33653
32888,38699,33648
32928,38719,33700
32888,38724,33680
32840,38778,33748
32772,38790,33711
32860,38788,33756
32948,38760,33799
32985,38745,33845
33000,38716,33832
32948,38700,33884
32888,38708,33908
32976,38677,33912
32996,38741,33946
33028,38769,33924
32948,38792,34002
32864,38791,34021
32804,38776,33984
33048,38748,34073
33036,38723,34100
32928,38716,34112
32912,38715,34128
32940,38733,34120
32992,38766,34148
32960,38788,34204
32821,38800,34224
32864,38802,34188
32896,38791,34245
32877,38752,34295
32892,38732,34232
32880,38716,34311
32884,38717,34336
32894,38734,34295
32900,38761,34393
32948,38791,34407
32957,38800,34420
32988,38764,34439
32944,38781,34439
32932,38748,34477
32980,38724,34465
32985,38720,34517
32972,38718,34524
33004,38743,34496
33036,38764,34586
33028,38790,34591
32992,38812,34567
32953,38765,34611
32932,38758,34661
32924,38757,34615
32932,38732,34664
32942,38723,34692
32940,38717,34637
32920,38740,34716
33010,38745,34677
32992,38767,34729
32976,38807,34743
32936,38808,34777
32964,38789,34708
32912,38753,34793
32852,38732,34801
32912,38721,34728
32948,38720,34814
32944,38740,34823
32896,38764,34772
32952,38791,34856
32892,38812,34868
32968,38813,34793
32948,38791,34908
32900,38765,34906
32806,38749,34860
32844,38724,34941
32900,38726,34951
32936,38740,34949
32944,38765,34989
32936,38791,34981
32916,38808,35024
32868,38809,35040
32644,38785,35001
32816,38759,35077
32908,38744,35093
32908,38716,35032
32908,38724,35100
32904,38751,35044
32869,38756,35150
32870,38762,35110
32864,38813,35184
32848,38821,35113
32816,38791,35224
32648,38768,35180
32720,38740,35264
32812,38732,35264
32788,38724,35256
32792,38749,35293
32781,38772,35300
32686,38799,35321
32672,38814,35280
32748,38820,35320
32665,38801,35236
32664,38779,35328
32604,38756,35284
32660,38705,35357
32680,38729,35276
32684,38748,35373
32752,38768,35309
32792,38807,35384
32804,38831,35304
32800,38821,35380
32864,38804,35335
32824,38776,35409
32788,38712,35335
32860,38732,35408
32968,38726,35363
32976,38753,35412
32928,38781,35416
32952,38791,35423
32964,38813,35332
32964,38820,35423
32964,38804,35360
32964,38748,35408
32912,38753,35340
32956,38732,35424
32940,38741,35356
32932,38756,35428
32853,38752,35360
32800,38809,35432
32648,38824,35348
32728,38825,35452
32824,38804,35377
32784,38781,35444
32796,38753,35414
32864,38741,35470
32856,38725,35443
32808,38759,35471
32820,38791,35460
32828,38813,35364
32718,38828,35452
32812,38828,35431
32820,38820,35472
32756,38780,35476
32772,38765,35392
32820,38740,35449
32832,38736,35388
32852,38760,35460
32784,38788,35392
32736,38820,35432
32576,38828,35402
32320,38821,35463
32140,38828,35376
31852,38788,35428
31628,38762,35365
31596,38744,35440
31372,38749,35392
31133,38772,35382
30840,38791,35429
30512,38818,35354
30352,38844,35429
30244,38856,35366
30276,38838,35424
30688,38808,35380
31136,38784,35438
31400,38769,35348
31760,38773,35412
32140,38799,35325
33144,38805,35408
34184,38840,35348
35020,38849,35404
35612,38832,35333
36032,38810,35393
36256,38780,35325
36080,38756,35396
35824,38740,35340
35736,38741,35395
35468,38757,35394
35084,38791,35318
34724,38788,35372
34420,38830,35256
34000,38825,35335
33600,38817,35280
33437,38789,35313
33344,38756,35236
33208,38724,35284
33016,38727,35223
32888,38727,35288
32784,38788,35284
32770,38808,35238
32704,38829,35245
32700,38829,35138
32624,38807,35205
32484,38766,35124
32590,38756,35204
32572,38741,35148
32624,38742,35200
32572,38753,35196
32568,38773,35193
32608,38792,35176
32586,38829,35088
32552,38829,35158
32532,38798,35168
32464,38761,35045
32460,38750,35126
32516,38736,35112
32572,38740,35140
32517,38741,35053
32457,38736,35097
32544,38800,35055
32448,38820,35015
32432,38820,35082
32485,38783,35071
32476,38769,34989
32520,38748,35056
32436,38741,35037
32520,38732,34953
32516,38749,35044
32520,38765,35008
32661,38760,34942
32568,38791,34996
32468,38820,34980
32573,38796,34894
32564,38768,34924
32560,38748,34836
32580,38729,34917
32504,38724,34881
32544,38751,34792
32372,38769,34840
32500,38806,34823
32420,38823,34732
32484,38813,34800
32492,38807,34796
32480,38768,34736
32460,38750,34756
32532,38724,34756
32552,38732,34671
32544,38745,34734
32524,38769,34716
32544,38796,34612
32504,38822,34679
32512,38820,34620
32508,38807,34636
32456,38775,34660
32504,38752,34607
32496,38695,34652
32696,38684,34651
32624,38723,34553
32620,38753,34629
32584,38801,34543
32444,38820,34625
32332,38823,34613
32401,38796,34532
32448,38772,34592
32576,38759,34509
32512,38732,34565
32648,38732,34528
32492,38749,34575
32524,38740,34564
32497,38808,34508
32616,38822,34521
32436,38823,34458
32556,38804,34497
32612,38780,34487
32692,38749,34436
32660,38725,34392
32676,38724,34455
32728,38740,34398
32792,38776,34412
32792,38796,34411
32744,38807,34320
32760,38783,34384
32756,38788,34308
32641,38753,34362
32600,38757,34342
32608,38736,34269
32752,38737,34341
32788,38741,34317
32788,38765,34252
32928,38765,34324
32912,38772,34308
32900,38820,34244
32868,38804,34276
32860,38776,34225
32868,38743,34286
32800,38729,34252
32758,38725,34277
32856,38742,34290
32828,38767,34210
32740,38796,34281
32696,38788,34220
32684,38788,34300
32596,38791,34247
32492,38774,34248
32576,38739,34308
32660,38721,34308
32628,38719,34248
32608,38718,34301
32608,38742,34273
32540,38748,34308
32584,38809,34244
32632,38812,34324
32564,38751,34268
32536,38756,34311
32714,38728,34311
32736,38716,34254
32753,38716,34308
32768,38685,34260
32804,38750,34328
32748,38776,34308
32613,38793,34284
32748,38799,34292
32812,38745,34248
32824,38744,34292
32836,38725,34252
32864,38713,34311
32856,38704,34293
32873,38716,34228
32828,38757,34280
32896,38764,34226
32840,38781,34297
32848,38748,34292
32908,38768,34280
32924,38743,34264
32888,38720,34212
32936,38696,34251
32856,38696,34208
33004,38713,34245
32948,38743,34244
32940,38765,34175
32936,38777,34229
32900,38780,34168
32884,38766,34229
33024,38733,34221
32948,38717,34157
32772,38687,34181
32884,38680,34108
32782,38662,34180
32632,38706,34117
32852,38753,34148
33008,38757,34126
33004,38779,34056
32988,38752,34113
33000,38736,34089
33032,38710,34024
32992,38688,34064
32916,38641,34021
32964,38656,34044
32916,38720,34037
32972,38736,34020
33084,38764,34014
33044,38766,33983
33032,38752,33912
33080,38725,33944
33016,38692,33897
32996,38676,33937
33004,38677,33880
32960,38688,33901
32929,38712,33872
32952,38748,33828
32880,38724,33852
32892,38764,33785
32992,38743,33816
32890,38716,33757
32880,38692,33788
32836,38644,33740
32932,38660,33761
33032,38665,33719
32996,38704,33732
32848,38725,33717
32876,38711,33636
32912,38716,33677
33088,38749,33634
32860,38716,33640
32945,38688,33612
32788,38663,33601
32908,38662,33548
32988,38677,33568
33012,38697,33505
32788,38720,33527
33025,38740,33492
33004,38744,33508
32932,38732,33492
32860,38703,33484
32948,38671,33470
32992,38655,33452
33012,38649,33388
32912,38660,33415
32982,38693,33356
32984,38720,33376
32968,38736,33340
32992,38755,33348
32964,38688,33340
32984,38700,33305
32961,38668,33268
32932,38648,33276
32988,38644,33222
33024,38656,33236
33108,38644,33184
33076,38708,33204
33024,38732,33184
33032,38733,33167
33014,38717,33140
32928,38700,33140
32852,38663,33116
32949,38647,33056
33060,38644,33060
33040,38644,33044
32897,38647,33040
32902,38672,33018
32916,38725,32961
32888,38724,32984
32868,38716,32948
32864,38692,32942
32864,38656,32921
32844,38636,32886
32905,38628,32892
32964,38644,32860
32864,38661,32853
32948,38693,32838
32964,38689,32812
32964,38716,32808
32932,38700,32748
32968,38684,32752
32948,38647,32712
33004,38621,32696
32932,38620,32686
32884,38636,32680
32940,38663,32636
33048,38663,32644
33044,38663,32609
33020,38704,32593
33012,38693,32582
32976,38663,32567
32952,38644,32529
33000,38616,32516
32974,38608,32480
32900,38631,32472
32972,38653,32434
33072,38688,32436
33044,38695,32415
33020,38711,32375
32884,38650,32364
32904,38628,32348
32896,38592,32337
32928,38601,32330
32964,38604,32298
32916,38623,32286
32972,38646,32263
32984,38676,32251
32932,38693,32239
33000,38690,32231
32856,38680,32209
32712,38616,32194
32780,38625,32180
32888,38592,32171
32881,38596,32149
32900,38605,32136
32916,38633,32123
32984,38663,32097
32968,38681,32092
32848,38680,32085
32772,38672,32046
32780,38650,32050
32720,38616,32040
32708,38604,32020
32744,38592,32019
32712,38592,31988
32604,38629,31984
32676,38652,31968
32728,38663,31962
32792,38678,31949
32756,38663,31940
32876,38620,31920
32807,38600,31904
32772,38591,31908
32696,38583,31893
32772,38593,31881
32736,38620,31879
32772,38623,31852
32710,38661,31844
32780,38663,31846
32716,38653,31832
32732,38629,31824
32840,38596,31816
32936,38551,31808
32940,38567,31805
32952,38567,31802
32988,38605,31780
32944,38631,31782
32944,38660,31780
32972,38663,31762
32972,38641,31775
32792,38617,31751
32840,38541,31757
32982,38564,31740
32980,38560,31741
33024,38572,31732
33004,38586,31729
32878,38612,31721
32744,38644,31711
32684,38644,31718
32820,38631,31700
32852,38601,31696
32836,38564,31708
32748,38548,31687
32856,38544,31698
32831,38525,31684
32856,38588,31692
32904,38608,31693
32904,38639,31680
32977,38628,31653
32948,38624,31692
32869,38589,31668
32840,38564,31688
32792,38529,31676
32840,38532,31623
32848,38544,31684
32848,38577,31658
32864,38598,31660
32732,38620,31657
32532,38616,31645
32268,38592,31641
32032,38583,31605
31928,38556,31632
31785,38532,31616
31656,38532,31622
31516,38535,31596
31233,38556,31607
30852,38596,31596
30536,38623,31599
30429,38629,31594
30536,38623,31580
30780,38573,31590
31128,38560,31566
31552,38544,31568
31644,38543,31568
31964,38553,31568
32848,38536,31572
33804,38596,31565
34612,38616,31584
35264,38572,31568
35576,38585,31569
36036,38552,31577
36292,38533,31573
36117,38503,31589
35856,38500,31569
35636,38516,31585
35400,38502,31582
34912,38551,31584
34676,38585,31577
34328,38589,31576
33932,38568,31577
33636,38524,31578
33432,38508,31580
33296,38493,31578
33224,38486,31572
33088,38496,31573
32956,38511,31564
32848,38528,31581
32736,38567,31560
32692,38574,31564
32688,38564,31572
32568,38533,31554
32608,38504,31548
32608,38477,31556
32632,38473,31549
32672,38492,31544
32628,38524,31541
32640,38551,31540
32580,38567,31544
32544,38535,31533
32500,38541,31540
32532,38530,31532
32480,38495,31550
32520,38436,31556
32536,38452,31546
32493,38469,31553
32561,38493,31552
32432,38526,31566
32612,38549,31548
32472,38548,31558
32396,38527,31554
32604,38495,31556
32652,38464,31540
32604,38452,31565
32608,38449,31556
32604,38460,31561
32592,38476,31544
32584,38500,31557
32504,38524,31556
32544,38535,31550
32532,38479,31556
32448,38488,31533
32492,38460,31540
32480,38404,31534
32480,38433,31542
32520,38445,31525
32484,38477,31511
32488,38492,31521
32480,38516,31514
32472,38511,31508
32520,38500,31516
32504,38481,31508
32481,38455,31516
32484,38425,31500
32416,38412,31517
32468,38437,31508
32532,38453,31509
32580,38493,31513
32480,38468,31509
32473,38501,31517
32464,38492,31500
32460,38476,31505
32504,38444,31492
32492,38421,31496
32504,38421,31492
32536,38420,31485
32392,38436,31484
32445,38472,31488
32509,38489,31476
32468,38503,31478
32464,38440,31466
32472,38452,31468
32508,38425,31472
32517,38400,31457
32520,38368,31455
32424,38401,31436
32493,38429,31440
32546,38463,31449
32528,38484,31419
32568,38476,31436
32492,38469,31404
32628,38440,31421
32656,38420,31408
32752,38396,31404
32688,38364,31399
32616,38393,31389
32680,38420,31395
32725,38447,31368
32676,38468,31372
32592,38469,31358
32596,38460,31360
32732,38428,31341
32757,38392,31338
32796,38383,31329
32840,38372,31332
32829,38380,31324
32812,38396,31328
32676,38433,31311
32684,38455,31312
32772,38427,31301
32845,38436,31300
32784,38407,31284
32744,38389,31286
32832,38357,31270
32804,38360,31282
32792,38373,31279
32700,38392,31258
32688,38428,31263
32612,38440,31261
32568,38448,31256
32548,38437,31249
32532,38403,31236
32492,38388,31235
32488,38361,31233
32460,38352,31220
32412,38364,31220
32416,38391,31212
32416,38407,31228
32396,38428,31220
32400,38438,31228
32412,38414,31216
32440,38391,31238
32464,38357,31231
32516,38334,31213
32592,38296,31232
32616,38300,31232
32660,38361,31252
32720,38396,31252
32736,38407,31249
32780,38407,31276
32796,38396,31276
32800,38364,31277
32826,38335,31301
32893,38320,31308
32932,38309,31332
32976,38312,31340
32964,38328,31351
32952,38370,31358
32942,38352,31381
32956,38348,31387
32972,38357,31407
32972,38353,31420
32944,38319,31445
33016,38293,31445
33064,38289,31469
33108,38300,31484
33080,38332,31503
33056,38350,31520
33000,38368,31529
32932,38373,31556
32900,38364,31580
32876,38345,31586
32876,38308,31605
32916,38289,31620
32944,38272,31640
32968,38260,31653
32904,38288,31689
32924,38341,31695
32940,38365,31719
32950,38367,31735
32896,38348,31765
32869,38320,31776
32916,38296,31800
32932,38249,31805
32912,38260,31829
32908,38276,31862
32896,38261,31878
32921,38324,31908
32888,38344,31908
32844,38338,31943
32812,38336,31940
32784,38315,31975
32772,38282,32004
32792,38264,32020
32796,38225,32052
32840,38268,32041
32872,38294,32084
32848,38321,32108
32884,38336,32101
32880,38336,32143
32896,38332,32176
32892,38276,32152
32908,38273,32197
32952,38263,32192
32976,38252,32226
32984,38255,32242
32976,38287,32248
33012,38279,32278
33016,38326,32307
32960,38337,32313
32909,38333,32341
32912,38268,32332
32900,38264,32381
32964,38247,32351
32974,38237,32401
32984,38245,32424
33008,38253,32431
32996,38295,32470
32992,38308,32454
32952,38326,32502
32945,38316,32524
32925,38268,32532
32904,38254,32570
32892,38231,32548
32910,38225,32611
32916,38228,32616
32944,38262,32594
32912,38292,32649
32936,38279,32672
32960,38303,32645
32980,38300,32699
32944,38271,32685
32972,38239,32737
32968,38221,32751
32988,38200,32758
32984,38220,32781
32997,38252,32740
32988,38269,32792
32932,38301,32820
32900,38297,32781
32892,38293,32841
32881,38269,32854
32884,38237,32821
32884,38212,32871
32921,38204,32864
32928,38216,32900
32932,38244,32909
32964,38256,32885
32964,38289,32936
32957,38292,32957
32960,38279,32924
32976,38254,32960
33024,38220,32933
33020,38204,32972
33048,38193,32967
33052,38203,32993
33056,38212,32988
33044,38236,33000
33052,38244,33008
33040,38255,33004
33000,38273,32980
32968,38244,33024
32924,38214,33018
32932,38195,32977
32916,38185,33009
32928,38199,32964
32960,38227,32996
32965,38244,32975
32948,38262,33005
32932,38265,33004
32888,38257,32951
32856,38226,32964
32853,38204,32929
32820,38183,32970
32832,38174,32975
32828,38183,32901
32856,38200,32958
32808,38235,32962
32768,38252,32916
32764,38261,32925
32732,38252,32903
32712,38224,32932
32728,38188,32903
32764,38172,32911
32796,38160,32908
32832,38172,32872
32860,38188,32888
32860,38217,32887
32865,38239,32889
32852,38240,32886
32832,38224,32841
32808,38210,32876
32804,38172,32832
32821,38144,32859
32892,38145,32820
32928,38162,32848
32876,38188,32836
32904,38212,32844
32892,38229,32837
32912,38228,32812
32896,38212,32823
32920,38151,32804
32900,38132,32828
32906,38143,32810
32860,38139,32823
32812,38143,32775
32812,38157,32823
32780,38166,32785
32756,38198,32836
32712,38226,32805
32680,38205,32846
32696,38182,32820
32708,38150,32858
32692,38132,32865
32696,38116,32872
32736,38103,32885
32760,38128,32899
32764,38188,32864
32789,38204,32892
32736,38209,32858
32684,38196,32896
32648,38172,32864
32664,38138,32919
32664,38109,32876
32684,38104,32929
32756,38076,32932
32788,38136,32922
32820,38175,32935
32832,38196,32892
32840,38189,32940
32860,38151,32952
32844,38148,32908
32904,38122,32965
32904,38092,32968
32913,38089,32938
32913,38083,32971
32928,38084,32989
32916,38151,32967
32896,38168,33008
32864,38180,33012
32804,38164,33015
32754,38137,33034
32728,38100,33018
32704,38087,33056
32729,38072,33025
32772,38084,33082
32752,38111,33068
32744,38128,33129
32736,38151,33092
32756,38150,33159
32724,38108,33176
32728,38116,33191
32728,38090,33196
32772,38064,33172
32824,38057,33236
32816,38064,33223
32856,38093,33276
32832,38112,33286
32780,38128,33306
32792,38108,33327
32792,38124,33346
32696,38101,33352
32572,38078,33372
32404,38055,33380
32232,38048,33348
31981,38005,33407
31780,38085,33401
31592,38116,33384
31432,38105,33413
31236,38139,33439
31008,38129,33398
30672,38113,33461
30392,38086,33421
30225,38060,33472
30236,38052,33456
30400,38065,33501
30828,38073,33516
31300,38095,33505
31512,38092,33542
31568,38124,33541
31954,38084,33590
32724,38102,33560
33584,38069,33592
34228,38040,33593
34764,37991,33632
35156,38036,33668
35432,38054,33624
35516,38076,33712
35400,38096,33717
35196,38113,33671
34976,38092,33752
34720,38064,33720
34436,38016,33799
34244,38016,33818
34008,38012,33764
33776,38023,33844
33568,38034,33868
33388,38069,33895
33200,38048,33844
33072,38095,33928
32980,38080,33921
32904,38052,33968
32796,38020,33931
32676,38013,33976
32640,37999,33929
32608,38004,34024
32540,38025,34005
32504,38056,34055
32484,38074,34069
32432,38080,34031
32348,38068,34092
32348,38045,34057
32404,38015,34136
32408,37999,34148
32436,37988,34098
32449,37991,34206
32505,38017,34220
32564,38052,34218
32525,38061,34228
32492,38077,34169
32500,38060,34264
32476,38039,34223
32416,38004,34324
32452,37984,34277
32476,37972,34338
32492,37959,34351
32513,38009,34289
32524,38040,34369
32540,38056,34348
32516,38055,34412
32484,38049,34341
32460,38031,34432
32452,37996,34436
32444,37974,34405
32388,37929,34432
32372,37973,34364
32377,37997,34439
32308,38021,34414
32264,38045,34437
32216,38023,34447
32225,38044,34383
32284,38020,34454
32260,37983,34464
32268,37962,34473
32300,37925,34464
32320,37964,34393
32368,37989,34454
32364,38020,34388
32384,38036,34460
32423,38048,34452
32436,38028,34482
32480,38005,34400
32492,37968,34463
32440,37953,34414
32412,37944,34488
32428,37960,34481
32436,37982,34449
32468,38001,34464
32448,38030,34372
32408,38009,34455
32412,38023,34479
32349,37993,34472
32352,37964,34404
32341,37951,34445
32340,37932,34439
32316,37944,34383
32332,37970,34428
32332,38001,34364
32324,38020,34437
32316,38033,34388
32272,37981,34443
32276,37960,34447
32288,37941,34396
32326,37940,34416
32388,37936,34336
32397,37949,34421
32378,37960,34432
32380,37982,34393
32396,38013,34404
32420,38023,34332
32468,38013,34405
32512,37991,34408
32564,37956,34326
32564,37940,34404
32606,37928,34429
32632,37936,34415
32660,37956,34392
32609,37988,34311
32576,38012,34414
32556,38020,34328
32568,37999,34381
32548,37991,34320
32544,37961,34404
32564,37934,34336
32584,37921,34380
32612,37917,34336
32616,37948,34388
32628,37975,34388
32640,38004,34372
32597,38013,34356
32540,38000,34279
32516,37972,34352
32472,37945,34286
32464,37920,34375
32453,37910,34379
32472,37919,34329
32488,37940,34350
32508,37966,34273
32520,37983,34380
32519,37960,34376
32456,37984,34311
32368,37961,34364
32312,37932,34292
32278,37908,34380
32248,37869,34368
32268,37909,34300
32332,37927,34393
32340,37958,34341
32352,37983,34397
32380,37988,34400
32332,37973,34348
32346,37948,34388
32340,37927,34319
32404,37895,34404
32460,37876,34429
32488,37885,34380
32560,37895,34420
32612,37948,34341
32620,37968,34425
32630,37973,34421
32592,37958,34374
32584,37940,34423
32604,37909,34348
32608,37887,34439
32620,37879,34436
32644,37881,34429
32688,37905,34439
32704,37927,34348
32662,37950,34425
32664,37953,34368
32657,37948,34436
32608,37909,34388
32600,37894,34431
32600,37868,34447
32604,37856,34388
32601,37868,34448
32576,37868,34389
32576,37924,34425
32604,37946,34438
32613,37945,34397
32618,37948,34455
32636,37916,34468
32660,37865,34370
32692,37824,34449
32720,37852,34376
32724,37860,34450
32736,37884,34372
32736,37917,34457
32748,37932,34477
32772,37932,34431
32814,37884,34449
32820,37908,34360
32808,37879,34437
32816,37858,34372
32812,37844,34436
32784,37855,34425
32764,37873,34348
32756,37908,34440
32764,37922,34421
32733,37926,34357
32716,37925,34424
32664,37895,34404
32644,37861,34311
32656,37855,34420
32752,37836,34412
32732,37841,34384
32720,37860,34368
32724,37895,34305
32724,37908,34375
32668,37894,34288
32689,37895,34388
32436,37892,34383
32508,37826,34276
32676,37825,34377
32680,37801,34356
32646,37801,34264
32548,37863,34347
32288,37876,34331
32784,37872,34361
32984,37922,34280
32696,37908,34320
32752,37878,34270
32836,37855,34304
32812,37809,34295
32432,37788,34232
32336,37830,34253
32112,37861,34176
32636,37884,34230
32640,37906,34144
32280,37904,34215
32532,37876,34133
32512,37891,34208
32608,37852,34112
33333,37804,34183
32844,37818,34104
32384,37832,34190
32056,37846,34204
32484,37876,34156
32374,37876,34188
32176,37900,34159
32276,37895,34241
31668,37886,34252
32097,37845,34192
32540,37820,34294
32772,37807,34289
32344,37821,34277
31964,37820,34366
32132,37832,34384
31712,37892,34381
32412,37895,34453
32320,37885,34460
32192,37860,34567
32636,37840,34617
32364,37806,34671
32184,37804,34724
32484,37788,34696
32832,37833,34817
32516,37857,34820
32660,37876,34944
32655,37886,34922
32430,37881,35084
32716,37852,35132
32576,37825,35237
32596,37805,35301
32492,37791,35244
32532,37801,35401
32764,37817,35402
32693,37845,35517
32540,37873,35452
32678,37888,35591
32656,37876,35654
32596,37848,35693
32552,37820,35719
32488,37812,35652
32456,37789,35726
32468,37805,35648
32420,37823,35757
32408,37851,35705
32464,37871,35790
32413,37845,35781
32412,37868,35812
32448,37829,35785
32480,37816,35692
32512,37796,35800
32448,37782,35812
32393,37792,35792
32320,37821,35784
32104,37844,35705
32536,37860,35780
32384,37869,35671
32504,37852,35722
33088,37829,35632
33048,37805,35714
33160,37788,35664
32848,37776,35687
32880,37777,35575
32636,37777,35644
33000,37808,35567
33020,37845,35636
32720,37833,35620
32980,37823,35536
32978,37833,35580
33036,37800,35553
33860,37781,35418
33608,37756,35492
33868,37761,35456
33064,37797,35463
33236,37831,35428
32893,37851,35316
32012,37860,35356
32876,37837,35248
33256,37825,35272
33900,37799,35165
33644,37783,35240
32944,37767,35207
32668,37776,35105
31716,37801,35129
32476,37796,35004
32292,37822,35048
33160,37851,34968
33436,37847,34972
33480,37832,34852
32084,37801,34919
32652,37768,34816
32360,37756,34830
32112,37765,34788
30692,37799,34692
31032,37822,34694
30856,37820,34581
30892,37808,34576
31116,37812,34436
31556,37824,34464
31852,37741,34351
31900,37761,34377
32304,37748,34292
31496,37767,34192
32176,37775,34196
31596,37812,34064
31518,37832,34053
31012,37844,33932
30672,37848,33921
30824,37828,33856
31464,37790,33689
32300,37752,33701
32536,37752,33617
31196,37764,33476
29664,37756,33445
29192,37831,33353
28788,37858,33216
28952,37866,33188
29652,37863,33112
30216,37845,32963
30800,37780,32933
31604,37780,32857
32676,37757,32704
33488,37767,32684
34048,37781,32596
34592,37809,32473
34664,37828,32448
35272,37808,32356
35312,37824,32276
36052,37792,32196
35604,37767,32148
34744,37749,32048
34452,37732,32005
34116,37750,31925
33948,37767,31868
33324,37756,31780
32812,37789,31685
33100,37791,31655
33040,37796,31603
32600,37764,31513
32076,37776,31470
32376,37748,31397
31565,37741,31319
31776,37719,31288
31920,37767,31230
32128,37805,31161
32800,37820,31120
32856,37821,31064
32764,37795,30999
32944,37790,30956
32296,37767,30912
31308,37757,30852
31136,37740,30796
31980,37733,30752
31532,37767,30682
32288,37784,30636
31968,37810,30590
32084,37821,30511
32028,37817,30460
32276,37789,30404
31820,37767,30365
31860,37749,30289
31741,37741,30260
31688,37748,30225
31704,37767,30143
32148,37796,30094
32024,37807,30086
31928,37817,29997
31654,37822,29959
31716,37797,29912
32192,37764,29873
33168,37701,29854
33116,37720,29772
33076,37732,29748
32696,37759,29690
32360,37789,29668
31712,37812,29673
31066,37804,29576
30989,37804,29552
31620,37788,29518
32200,37757,29500
32752,37735,29502
33096,37717,29458
32756,37724,29425
32376,37749,29421
31520,37776,29429
31340,37808,29406
31716,37820,29424
31968,37804,29383
32604,37776,29377
33433,37756,29364
32909,37706,29369
32092,37727,29344
31984,37722,29381
31928,37764,29328
31272,37789,29340
31236,37776,29325
31388,37817,29319
31712,37808,29300
31896,37784,29316
32048,37763,29300
31976,37737,29348
32044,37721,29314
31752,37733,29346
32236,37749,29306
32132,37791,29340
31981,37804,29313
31960,37825,29324
32136,37804,29319
32088,37776,29341
32092,37748,29328
32268,37734,29335
32420,37720,29340
32564,37721,29364
32548,37748,29352
32480,37783,29397
32184,37805,29365
32384,37822,29401
32452,37805,29369
32312,37788,29406
32364,37756,29370
32660,37741,29396
32488,37732,29386
32640,37728,29437
32448,37760,29409
32820,37772,29464
33012,37807,29412
33068,37815,29445
32932,37812,29431
32809,37769,29477
32560,37759,29455
32492,37736,29504
32712,37719,29473
33172,37711,29465
33176,37713,29484
33188,37745,29484
32854,37788,29521
32552,37820,29513
32272,37812,29575
32104,37788,29548
32312,37765,29556
32532,37724,29620
32700,37708,29607
32997,37732,29656
32852,37759,29640
32480,37783,29680
32336,37793,29676
32444,37813,29714
32420,37796,29708
32344,37767,29736
32216,37756,29801
32208,37752,29792
32316,37751,29820
32520,37752,29841
32620,37776,29863
32648,37808,29925
32508,37832,29930
32188,37849,29975
32116,37804,29980
32056,37796,30016
32032,37797,30068
31984,37777,30078
31820,37761,30103
31996,37767,30157
32152,37800,30165
32420,37820,30220
32312,37844,30236
32164,37836,30269
32288,37844,30292
32352,37836,30332
32420,37809,30356
32416,37780,30378
32312,37756,30436
32364,37772,30474
32600,37799,30508
32228,37827,30561
32504,37852,30601
32244,37832,30661
32528,37860,30696
32536,37827,30757
32782,37812,30800
32800,37790,30869
32880,37750,30918
33100,37780,30983
33136,37804,31048
32984,37828,31114
32488,37860,31170
32237,37879,31248
32264,37861,31293
32612,37816,31372
32716,37818,31412
32861,37776,31493
32181,37788,31532
31944,37788,31622
32008,37810,31661
32080,37846,31737
31725,37864,31796
32156,37876,31844
32068,37849,31920
32256,37809,31968
32336,37815,32036
31977,37796,32061
32125,37791,32135
32368,37789,32164
32552,37812,32252
32196,37845,32313
32228,37877,32360
32092,37886,32367
32132,37879,32463
32252,37868,32492
32144,37831,32568
32248,37807,32578
32228,37798,32673
32136,37793,32689
31768,37828,32775
32016,37859,32772
32096,37883,32869
31976,37888,32924
31984,37894,32925
31952,37868,33001
31944,37840,33062
31944,37823,33049
31916,37805,33133
31980,37808,33144
31952,37838,33196
31892,37873,33264
31904,37892,33287
31845,37873,33269
31757,37913,33386
31764,37884,33415
31756,37855,33447
31744,37833,33444
31768,37821,33535
31788,37806,33505
31756,37846,33588
31785,37854,33575
31824,37895,33671
31816,37917,33695
31848,37922,33684
31856,37888,33789
31812,37871,33833
31768,37848,33828
31716,37837,33901
31708,37844,33876
31724,37862,34016
31664,37895,34032
31572,37924,34124
31516,37895,34145
31564,37942,34255
31760,37927,34311
31872,37895,34398
31876,37877,34468
31980,37849,34556
32052,37872,34600
32064,37895,34680
32108,37932,34743
31932,37920,34876
31756,37969,34884
31676,37968,35057
31702,37940,35108
31816,37916,35285
31948,37895,35380
32004,37887,35394
32036,37894,35612
32168,37912,35735
32200,37932,35847
32224,37955,35968
32168,37988,36076
32084,37984,36212
32144,37924,36245
32220,37905,36504
32312,37895,36637
32489,37895,36680
32544,37908,36903
32500,37924,37013
32416,37960,37220
32337,37985,37352
32232,38001,37495
32194,37988,37540
32152,37992,37852
32156,37965,37999
32152,37948,38164
32156,37938,38192
32112,37951,38501
32172,37942,38663
32206,37990,38809
32220,38021,38944
32164,38024,39012
32072,38033,39349
32048,37988,39356
32060,37959,39684
32136,37926,39679
32228,37920,39930
32276,37936,40086
32324,37954,40301
32337,38014,40359
32332,38055,40645
32328,38062,40672
32317,38069,40960
32332,38052,40972
32413,37996,41372
32442,38009,41496
32408,38004,41694
32420,38000,41831
32416,38023,42004
32360,38052,41924
32348,38081,42228
32348,38085,42312
32340,38076,42562
32304,38072,42764
32344,38028,42887
32344,38048,43041
32228,38037,43184
32248,38038,43301
32260,38056,43472
32257,38092,43606
32284,38116,43527
32300,38097,43879
32388,38140,44024
32460,38122,44160
32476,38103,44089
32448,38087,44396
32483,38056,44393
32528,38068,44745
32464,38100,44684
32496,38126,45004
32572,38159,45112
32592,38170,45156
32672,38172,45404
32764,38151,45452
32820,38125,45664
32840,38100,45640
32852,38086,45927
32837,38101,45964
32828,38116,46207
32784,38151,46252
32680,38164,46553
32572,38208,46672
32324,38169,46800
32052,38180,46952
31756,38164,47072
31572,38151,47205
31416,38132,47341
31317,38141,47217
31196,38160,47572
31020,38198,47684
30781,38229,47818
30608,38247,47908
30500,38206,47903
30452,38185,48135
30604,38197,48237
31084,38189,48344
31536,38178,48436
31680,38192,48540
31724,38220,48637
31968,38247,48652
32512,38272,48774
33144,38276,48808
33648,38279,48963
34112,38264,48832
34484,38228,49144
34688,38215,49029
34868,38188,49263
35104,38201,49252
35088,38217,49468
34884,38225,49409
34625,38269,49633
34440,38292,49628
34200,38288,49720
33952,38269,49604
33760,38246,49957
33532,38196,50009
33320,38204,50021
33225,38212,50084
33149,38197,49986
33208,38257,50232
33244,38292,50102
33228,38292,50324
33108,38300,50439
33004,38301,50396
33008,38237,50460
32996,38241,50439
32928,38236,50644
32856,38241,50694
32832,38253,50659
32808,38288,50695
32852,38327,50556
32832,38311,50884
32860,38332,50927
32934,38328,50902
32996,38298,50968
33004,38272,51046
32965,38260,51041
32944,38263,51079
32932,38254,50960
32972,38309,51216
33132,38340,51192
33128,38368,51309
33045,38377,51116
32960,38364,51288
32856,38337,51416
32748,38316,51399
32704,38305,51482
32688,38320,51537
32688,38328,51479
32737,38364,51352
32676,38388,51641
32612,38407,51660
32580,38423,51524
32552,38397,51716
32612,38380,51677
32636,38359,51765
32640,38343,51624
32610,38344,51808
32608,38372,51782
32656,38404,51824
32728,38439,51808
32796,38428,51892
32808,38460,51900
32720,38441,51709
32616,38421,51968
32592,38356,51968
32696,38372,52012
32784,38380,52000
32836,38407,52026
32934,38433,51768
33048,38468,52078
33084,38445,52079
32996,38484,52113
32928,38476,52128
32968,38440,52000
33064,38416,52140
33060,38397,52192
32972,38412,51929
32992,38436,52156
33000,38463,52217
33132,38488,52140
33168,38516,52228
33196,38508,52159
33120,38484,52311
33080,38439,52312
33072,38452,52304
33076,38432,52278
33112,38437,52204
33168,38456,52264
33228,38489,52204
33236,38524,52295
33200,38535,52220
33160,38540,52316
33044,38527,52340
32949,38508,52416
32920,38455,52412
32972,38468,52416
33128,38468,52256
33180,38500,52477
33308,38508,52464
33300,38512,52448
33296,38552,52481
33336,38573,52412
33308,38550,52434
33344,38535,52260
33516,38515,52540
33568,38501,52296
33540,38510,52496
33480,38533,52552
33492,38516,52572
33520,38572,52572
33588,38604,52588
33668,38612,52588
33720,38600,52528
33624,38581,52516
33532,38524,52468
33540,38532,52505
33500,38544,52332
33412,38561,52487
33348,38589,52450
33257,38596,52516
33228,38644,52500
33168,38647,52556
33152,38631,52388
33132,38608,52532
33116,38568,52268
33158,38564,52448
33176,38557,52504
33152,38585,52487
33136,38604,52477
33092,38644,52436
33032,38656,52248
33032,38624,52388
32976,38645,52353
32968,38625,52389
32936,38603,52324
32912,38588,52388
32848,38592,52380
32896,38610,52372
32941,38636,52351
32952,38663,52324
32964,38678,52333
33017,38687,52305
33153,38677,52260
33344,38639,52228
33468,38620,52116
33432,38607,52164
33384,38604,52166
33312,38617,52196
33225,38649,52124
33148,38661,52008
33080,38669,52045
33088,38704,51824
33272,38692,52036
33380,38663,52036
33284,38640,51832
33152,38614,52036
33141,38620,52000
33184,38601,51785
33146,38676,51964
33056,38702,51934
33060,38719,51912
33220,38732,51900
33300,38708,51880
33332,38684,51852
33364,38652,51815
33380,38639,51804
33504,38636,51749
33576,38663,51780
33564,38694,51708
33572,38724,51751
33608,38713,51728
33632,38740,51696
33592,38735,51696
33568,38713,51412
33560,38692,51652
33452,38663,51636
33376,38663,51536
33412,38678,51588
33424,38712,51526
33444,38742,51556
33440,38756,51432
33388,38724,51494
33360,38712,51497
33408,38734,51487
33500,38700,51445
33648,38688,51308
33700,38688,51360
33744,38704,51388
33728,38700,51365
33724,38765,51336
33704,38786,51308
33724,38788,51228
33668,38775,51009
33592,38751,51232
33520,38704,51204
33460,38714,51072
33508,38708,51132
33488,38733,50969
33452,38760,51072
33396,38788,51066
33376,38804,50920
33324,38812,50932
33292,38788,50951
33324,38773,50916
33364,38712,50863
33384,38702,50656
33352,38720,50836
33365,38749,50597
33389,38768,50749
33420,38820,50677
33436,38828,50732
33512,38789,50648
33662,38772,50631
33668,38772,50428
33608,38766,50660
33556,38750,50600
33494,38749,50471
33472,38751,50492
33448,38776,50316
33364,38831,50438
33297,38844,50420
33240,38852,50468
33216,38840,50463
33272,38812,50247
33344,38791,50301
33396,38777,50344
33536,38775,50352
33513,38788,50290
33276,38806,50296
33133,38812,50196
33100,38854,49951
33108,38872,50156
33128,38852,50143
33336,38825,49916
33560,38796,50076
33616,38784,50088
33492,38791,49989
33312,38812,49934
33168,38832,49988
33168,38868,49932
33260,38880,49900
33436,38864,49735
33532,38842,49832
33577,38808,49844
33548,38766,49828
33492,38761,49543
33412,38789,49703
33436,38825,49543
33332,38847,49709
33280,38874,49448
33308,38897,49624
33312,38892,49396
33428,38879,49607
33568,38836,49428
33592,38813,49516
33696,38812,49340
33864,38823,49432
33868,38836,49337
33756,38871,49392
33744,38892,49248
33688,38918,49376
33620,38912,49391
33700,38901,49368
33760,38876,49333
33821,38844,49280
33804,38824,49287
33724,38801,49231
33656,38817,49244
33580,38884,49159
33568,38904,49159
33628,38933,49045
33712,38937,49127
33820,38914,49020
33900,38895,49052
33897,38865,48837
33916,38852,49044
33792,38844,49028
33616,38862,49004
33508,38892,48989
33440,38919,48964
33468,38917,48924
33488,38919,48903
33600,38909,48876
33716,38881,48868
33704,38845,48828
33744,38860,48832
33744,38871,48789
33748,38884,48769
33733,38910,48516
33664,38949,48636
33488,38956,48556
33400,38970,48605
33352,38958,48391
33348,38929,48612
33156,38904,48365
32916,38887,48580
32720,38889,48312
32476,38861,48540
32108,38932,48292
31784,38961,48428
31460,38985,48348
31064,38989,48417
30632,38940,48330
30340,38912,48384
30028,38943,48248
29824,38929,48312
30020,38919,48348
30400,38948,48340
30576,38991,48308
30528,39020,48224
30868,39039,48244
31944,39038,48159
33240,39018,48284
34448,38990,48256
35396,38950,48224
36109,38919,48176
36576,38919,48096
36860,38936,48204
36852,38940,48196
36620,38988,48164
36308,39013,48104
36044,38980,48135
35760,38998,48133
35520,38980,48088
35193,38952,48037
34852,38900,48092
34560,38896,48064
34352,38919,47864
34152,38956,47966
34012,38965,47996
33896,39030,48007
33884,39032,47989
33756,39021,47932
33772,38996,47912
33760,38969,47824
33732,38962,47848
33669,38957,47879
33568,38968,47865
33460,38992,47847
33420,39020,47812
33428,39044,47796
33476,39031,47775
33452,39006,47689
33412,38980,47741
33440,38978,47719
33390,38974,47694
33373,38980,47684
33428,38982,47640
33404,38996,47641
33328,39020,47609
33336,39040,47612
33276,39028,47566
33324,39052,47532
33337,39032,47424
33372,39004,47476
33404,38991,47476
33420,38949,47452
33460,39004,47449
33456,39029,47412
33429,39056,47396
33336,39084,47152
33212,39096,47276
33176,39076,47096
33172,39042,47253
33200,39024,47048
33248,39004,47164
33196,39004,47048
33172,39029,47136
33109,39015,47111
33028,39069,47111
32952,39108,47044
32992,39096,46928
32964,39092,47036
32944,39070,47016
33012,39036,46980
33068,39029,46957
32984,38999,46920
33020,39040,46912
33093,39068,46656
33136,39095,46828
33108,39113,46662
33052,39116,46721
33016,39108,46749
33098,39089,46516
33092,39056,46628
33148,39047,46569
33184,39036,46620
33216,39069,46540
33214,39059,46585
33196,39124,46561
33248,39141,46532
33228,39148,46493
33208,39132,46412
33124,39111,46241
33076,39080,46432
33076,39068,46416
33120,39056,46388
33176,39080,46356
33264,39110,46316
33226,39140,46286
33164,39116,46263
33088,39167,46262
33060,39153,46229
32976,39136,46084
33028,39116,46150
33160,39100,45973
33180,39061,46108
33140,39112,46119
33116,39140,45884
33052,39164,46021
33044,39204,46021
33064,39204,45823
33168,39197,45941
33220,39161,45894
33242,39145,45964
33249,39136,45928
33198,39133,45908
33132,39150,45848
33108,39169,45796
33060,39200,45864
33076,39208,45799
33088,39237,45831
33092,39225,45804
33057,39204,45633
33057,39174,45760
33088,39152,45749
33109,39152,45544
33104,39172,45670
33092,39199,45633
33200,39230,45649
33240,39246,45632
33216,39259,45428
33260,39236,45575
33268,39208,45581
33210,39189,45364
33192,39172,45522
33136,39169,45508
33092,39191,45303
33036,39216,45417
33016,39236,45340
33022,39261,45423
32976,39260,45318
32984,39256,45381
33020,39221,45248
33068,39196,45318
33044,39188,45164
33064,39182,45344
33156,39207,45348
33188,39225,45316
33172,39252,45309
33160,39279,45252
33172,39252,45295
33280,39228,45189
33352,39220,45220
33360,39217,45207
33248,39213,45236
33196,39197,45215
33240,39172,45044
33213,39239,45148
33204,39277,45044
33173,39289,45152
33240,39292,45112
33348,39281,45152
33348,39220,45106
33340,39217,44917
33332,39199,45101
33444,39209,45076
33468,39230,45085
33412,39252,45061
33424,39285,45037
33420,39317,45032
33404,39310,45040
33356,39303,44854
33316,39273,45000
33368,39252,44988
33428,39232,44973
33498,39197,44796
33476,39228,44957
33472,39272,44765
33433,39288,44935
33352,39324,44742
33284,39332,44909
33248,39319,44924
33264,39297,44844
33264,39278,44884
33300,39216,44864
33428,39210,44852
33540,39252,44687
33560,39263,44865
33522,39321,44836
33520,39344,44631
33396,39356,44830
33276,39332,44788
33208,39318,44612
33236,39296,44807
33196,39279,44800
33224,39284,44741
33268,39294,44708
33300,39295,44568
33224,39348,44734
33180,39372,44729
33140,39380,44673
32976,39366,44709
32924,39336,44529
32984,39317,44664
33064,39296,44544
33152,39260,44693
33204,39316,44653
33236,39358,44484
33268,39373,44623
33272,39404,44664
33188,39405,44637
33120,39380,44640
33060,39329,44492
33056,39349,44580
33056,39327,44621
33032,39332,44580
33016,39345,44596
33004,39377,44464
32972,39399,44538
33008,39420,44373
33076,39413,44564
33252,39388,44565
33264,39402,44474
33188,39372,44462
33196,39356,44341
33168,39359,44484
33129,39364,44424
33136,39398,44272
33196,39428,44439
33204,39440,44254
33200,39430,44456
33180,39444,44390
33208,39431,44224
33252,39396,44412
33232,39384,44405
33220,39336,44396
33168,39356,44380
33096,39406,44369
33028,39452,44340
32988,39480,44256
32928,39486,44263
32884,39473,44322
32872,39452,44274
32840,39407,44104
32868,39412,44276
32952,39408,44255
33052,39428,44223
33068,39454,44220
33017,39486,44116
32932,39484,44168
32904,39494,44117
32932,39510,44158
32880,39484,44148
32896,39468,44116
32900,39452,44121
32948,39446,44082
32996,39460,43862
32988,39494,44012
32980,39520,43820
32952,39508,43964
32980,39545,43809
33044,39540,43984
33040,39516,43956
33072,39492,43940
33124,39476,43911
33120,39468,43893
33148,39482,43884
33172,39513,43814
33112,39551,43840
33064,39568,43816
32984,39581,43768
32896,39572,43600
32836,39540,43724
32836,39488,43711
32800,39502,43510
32860,39502,43640
32928,39490,43468
33008,39493,43647
33056,39540,43636
33096,39597,43566
33130,39609,43552
33116,39600,43372
33068,39575,43517
33049,39529,43519
32996,39538,43525
32964,39525,43527
32988,39504,43500
33033,39574,43489
33040,39604,43460
33020,39628,43460
32996,39647,43423
32998,39628,43417
32960,39605,43392
32904,39588,43329
32782,39570,43356
32621,39567,43328
32444,39568,43108
32236,39598,43233
32040,39637,43223
31809,39658,43252
31584,39676,43236
31316,39660,43015
30976,39645,43132
30529,39620,43204
30056,39610,42948
29736,39604,43109
29516,39629,43125
29400,39652,43094
29600,39680,43092
30036,39710,42841
30028,39730,42988
29753,39733,42972
29792,39705,42988
30692,39677,42984
32128,39648,42941
33550,39598,42908
34748,39644,42724
35660,39668,42885
36400,39685,42689
36728,39708,42845
36736,39701,42848
36568,39711,42608
36252,39687,42789
35820,39663,42678
35372,39616,42722
34992,39647,42647
34664,39662,42622
34308,39687,42660
33992,39724,42604
33717,39753,42484
33564,39748,42599
33420,39748,42596
33280,39721,42340
33192,39684,42471
33152,39676,42304
33088,39628,42517
33056,39684,42247
33036,39716,42448
33024,39748,42320
32984,39764,42169
32952,39780,42310
32908,39772,42277
32872,39740,42166
32800,39724,42276
32732,39672,42268
32700,39703,42220
32704,39716,42029
32708,39748,42132
32692,39771,41991
32688,39796,42144
32700,39806,41937
32692,39805,42060
32680,39783,41985
32708,39748,42073
32720,39708,42060
32740,39729,42074
32684,39751,42024
32632,39777,41952
32612,39804,41952
32600,39783,41901
32600,39831,41932
32564,39827,41900
32542,39808,41871
32520,39779,41796
32532,39753,41820
32544,39756,41744
32572,39764,41749
32593,39800,41572
32620,39791,41672
32636,39848,41573
32656,39854,41684
32592,39858,41644
32564,39834,41617
32564,39812,41432
32549,39778,41509
32516,39781,41377
32513,39800,41532
32480,39816,41460
32456,39848,41406
32412,39877,41420
32404,39886,41372
32412,39876,41384
32416,39828,41360
32356,39796,41342
32372,39767,41324
32392,39791,41108
32416,39821,41287
32420,39847,41061
32424,39879,41148
32420,39900,41020
32392,39911,41124
32408,39905,41117
32456,39885,41108
32440,39848,41038
32450,39841,40952
32488,39828,41052
32490,39844,41055
32448,39876,40837
32412,39902,40927
32388,39929,40900
32368,39924,40908
32365,39920,40906
32348,39904,40711
32348,39865,40788
32352,39823,40664
32348,39814,40762
32364,39839,40639
32356,39852,40711
32353,39880,40711
32406,39904,40541
32412,39960,40695
32436,39952,40505
32469,39933,40648
32472,39901,40448
32509,39889,40529
32532,39889,40504
32532,39897,40532
32520,39916,40465
32484,39941,40503
32456,39980,40492
32432,39996,40308
32420,39988,40455
32432,39964,40256
32456,39900,40335
32492,39909,40213
32520,39917,40321
32593,39924,40288
32596,39965,40316
32580,39980,40269
32580,40005,40175
32584,40013,40109
32560,40012,40186
32564,39973,40212
32576,39967,40047
32624,39942,40102
32644,39928,40005
32644,39957,40103
32633,39975,40120
32648,39980,39943
32632,39989,40052
32660,39990,39943
32660,40033,40025
32644,40007,40029
32720,39982,39856
32780,39927,39974
32856,39943,39804
32936,39964,39888
33016,39972,39878
33020,40017,39808
33012,40032,39853
33004,40050,39743
33044,40036,39784
33044,40012,39664
33028,39989,39764
33008,39969,39624
33016,39921,39712
33044,39968,39604
33037,40002,39672
33068,40037,39552
33084,40054,39644
33096,40061,39583
33136,40052,39647
33148,40026,39624
33124,39997,39588
33104,39972,39589
33120,39973,39560
33152,39984,39556
33152,40012,39392
33156,40055,39468
33180,40061,39343
33144,40069,39416
33116,40032,39325
33160,39996,39396
33124,39960,39276
33093,39961,39365
33144,39988,39268
33172,40004,39361
33180,40030,39353
33196,40060,39221
33176,40085,39286
33192,40092,39189
33184,40078,39248
33152,40058,39129
33136,40016,39208
33104,40008,39110
33080,40005,39181
33084,40016,39078
33100,40012,39209
33097,40071,39196
33100,40094,39047
33064,40111,39141
33060,40068,39012
33080,40071,39124
33056,40052,39092
33064,40028,39060
33086,40012,39004
33082,39980,38964
33056,40060,39075
33004,40093,39076
32992,40109,38928
32932,40124,39007
32936,40109,38929
32941,40086,39012
32948,40060,38889
33012,40036,38990
33041,40028,38993
33076,40032,38865
33072,40064,38943
33044,40100,38956
33100,40101,38804
33076,40128,38936
33044,40132,38934
33000,40100,38775
32961,40071,38883
32972,40047,38868
32988,40039,38881
33016,40063,38836
33012,40079,38774
32964,40117,38849
32928,40134,38807
32948,40103,38825
32898,40136,38812
32857,40113,38796
32800,40087,38797
32796,40066,38797
32824,40064,38644
32881,40077,38756
32952,40096,38773
33016,40135,38748
33056,40150,38764
33017,40141,38608
32992,40153,38700
32988,40120,38684
33020,40103,38616
33008,40080,38672
33008,40068,38551
32996,40080,38663
32988,40108,38631
32936,40141,38668
32917,40164,38672
32928,40136,38526
32920,40117,38604
32856,40132,38504
32821,40113,38592
32820,40083,38533
32824,40082,38588
32812,40092,38604
32828,40119,38469
32869,40144,38588
32896,40169,38572
32856,40173,38548
32860,40164,38532
32870,40141,38428
32877,40108,38535
32888,40098,38532
32892,40081,38520
32877,40093,38428
32880,40119,38484
32888,40109,38494
32924,40165,38481
33021,40172,38423
33084,40165,38461
33084,40143,38488
33112,40116,38377
33136,40090,38407
33176,40084,38436
33205,40096,38476
33236,40128,38388
33286,40149,38426
33348,40173,38344
33313,40134,38429
33252,40131,38405
33216,40111,38424
33228,40068,38430
33216,40093,38401
33224,40089,38279
33164,40105,38367
33144,40124,38295
33116,40152,38376
33080,40172,38291
33080,40172,38354
33056,40177,38276
33028,40148,38326
33044,40118,38261
33008,40093,38332
32992,40085,38255
32956,40104,38345
32988,40126,38324
33052,40156,38302
33076,40161,38230
33020,40151,38269
32988,40165,38173
32992,40157,38258
33024,40127,38167
33016,40108,38252
32976,40084,38255
32932,40108,38249
32816,40135,38145
32668,40165,38209
32538,40184,38120
32361,40192,38196
32196,40194,38088
31980,40165,38172
31760,40094,38080
31428,40124,38169
31036,40110,38072
30484,40124,38173
29912,40159,38108
29508,40188,38151
29304,40215,38140
29180,40236,38121
29360,40228,38084
29656,40193,38025
29620,40182,38085
29488,40158,38000
29632,40164,38080
30672,40157,38058
32176,40136,38016
33736,40199,38072
35062,40208,37949
36072,40212,38052
36800,40196,38068
37072,40157,37944
37076,40139,38015
36960,40115,37917
36644,40108,37996
36188,40117,37933
35672,40132,38011
35200,40172,37966
34784,40188,37912
34360,40193,37973
34024,40189,37951
33780,40172,37975
33600,40137,37920
33432,40119,37853
33328,40108,37936
33200,40114,37920
33124,40143,37824
33076,40171,37864
33028,40197,37756
32961,40189,37842
32908,40180,37816
32852,40156,37845
32840,40124,37860
32808,40071,37728
32832,40111,37792
32877,40116,37702
32908,40135,37780
32916,40160,37709
32880,40175,37780
32836,40178,37676
32844,40180,37758
32800,40161,37678
32724,40132,37728
32732,40110,37740
32764,40104,37742
32772,40120,37639
32788,40140,37713
32836,40173,37693
32864,40190,37609
32808,40166,37668
32772,40159,37548
32752,40134,37623
32708,40124,37517
32712,40127,37598
32728,40108,37530
32724,40126,37600
32728,40144,37508
32748,40169,37548
32672,40196,37440
32665,40190,37511
32620,40155,37432
32604,40169,37516
32612,40136,37478
32596,40108,37408
32580,40105,37436
32612,40108,37405
32596,40143,37423
32556,40166,37408
32556,40181,37394
32524,40199,37391
32544,40191,37285
32532,40162,37335
32492,40140,37305
32492,40116,37324
32464,40100,37320
32520,40117,37228
32480,40140,37304
32496,40164,37286
32485,40180,37269
32440,40193,37180
32423,40180,37237
32408,40156,37225
32392,40133,37204
32384,40108,37084
32412,40101,37156
32428,40104,37106
32460,40128,37140
32444,40144,37136
32438,40166,37020
32328,40148,37101
32264,40129,37008
32248,40114,37064
32280,40125,36972
32300,40100,37012
32300,40088,36997
32324,40100,36984
32340,40124,36970
32356,40159,36936
32388,40172,36936
32377,40181,36924
32352,40131,36900
32380,40148,36810
32388,40101,36853
32424,40060,36749
32452,40085,36820
32472,40101,36734
32488,40126,36808
32481,40152,36729
32444,40160,36796
32460,40173,36773
32485,40172,36724
32465,40148,36724
32505,40076,36652
32556,40060,36704
32628,40084,36604
32604,40093,36680
32592,40116,36612
32600,40151,36654
32609,40165,36578
32632,40180,36623
32608,40173,36556
32620,40136,36615
32592,40064,36550
32626,40084,36584
32640,40071,36508
32644,40079,36476
32672,40084,36540
32725,40128,36552
32724,40144,36534
32724,40170,36532
32750,40105,36455
32773,40120,36517
32784,40096,36496
32832,40070,36492
32864,40055,36470
32892,40065,36486
32932,40084,36461
32960,40109,36481
32980,40089,36448
32976,40140,36445
32992,40121,36422
33032,40104,36444
33044,40071,36364
33056,40046,36436
33104,40030,36455
33096,40045,36389
33120,40031,36424
33196,40088,36348
33196,40110,36436
33216,40122,36358
33233,40065,36464
33224,40069,36448
33236,40048,36372
33292,40022,36476
33336,40026,36480
33381,39972,36460
33392,40041,36465
33389,40071,36412
33392,40092,36496
33384,40101,36444
33368,40095,36516
33309,40064,36464
33288,39998,36527
33324,40008,36501
33340,40000,36540
33356,40002,36543
33316,40025,36556
33280,40045,36562
33240,40070,36572
33213,40080,36568
33192,40071,36588
33188,40000,36604
33239,39985,36612
33264,39996,36588
33273,39980,36566
33289,39976,36641
33300,39961,36644
33289,40012,36637
33282,40048,36655
33304,40069,36637
33298,40053,36677
33292,40035,36644
33340,39989,36680
33356,39967,36671
33388,39956,36711
33372,39966,36664
33360,39943,36717
33328,40008,36660
33324,40028,36740
33312,40044,36668
33288,40031,36756
33236,39972,36692
33196,39967,36783
33196,39943,36788
33208,39932,36736
33192,39911,36808
33188,39960,36743
33200,39984,36857
33156,40007,36853
33136,40015,36764
33124,40014,36886
33132,39980,36905
33093,39953,36879
33109,39874,36903
33140,39908,36841
33134,39908,36935
33164,39936,36897
33184,39964,36964
33212,39986,36941
33216,39972,36996
33156,39943,37016
33092,39919,36980
33072,39892,37036
33061,39878,36972
33104,39884,37080
33148,39888,37121
33136,39913,37072
33136,39937,37120
33104,39950,37094
33100,39940,37183
33065,39911,37200
33036,39917,37198
33024,39871,37212
33082,39846,37133
33132,39820,37255
33156,39830,37184
33156,39884,37284
33140,39909,37221
33184,39909,37276
33172,39909,37300
33148,39904,37255
33116,39860,37337
33112,39844,37376
33120,39855,37392
33136,39830,37381
33148,39832,37326
33140,39869,37408
33108,39886,37469
33092,39911,37460
33064,39924,37476
33056,39924,37391
33032,39900,37511
33024,39875,37548
32986,39841,37468
32980,39832,37559
32968,39831,37516
32972,39856,37632
32964,39882,37637
32976,39879,37660
32960,39905,37592
32896,39902,37655
32868,39832,37624
32832,39844,37743
32828,39828,37751
32848,39815,37763
32852,39815,37677
32892,39837,37788
32908,39876,37804
32896,39893,37824
32868,39906,37740
32904,39844,37828
32924,39872,37857
32944,39840,37844
32976,39812,37829
32996,39798,37780
33028,39800,37890
33009,39834,37788
33020,39847,37884
33064,39876,37797
33088,39886,37886
33062,39876,37914
33033,39836,37878
33060,39815,37902
33076,39792,37894
33112,39778,37909
33124,39781,37895
33124,39798,37894
33104,39820,37846
33040,39852,37916
32988,39860,37895
32940,39860,37894
32864,39828,37838
32888,39807,37912
32928,39761,37892
32972,39758,37912
33000,39756,37920
32988,39778,37796
32960,39796,37868
32945,39820,37783
32946,39824,37852
32928,39824,37784
32968,39806,37880
33016,39768,37871
33064,39741,37815
33064,39726,37829
33052,39726,37767
33041,39719,37828
33020,39765,37860
32996,39796,37840
33008,39803,37752
32940,39800,37821
32768,39780,37727
32620,39751,37826
32439,39716,37734
32284,39705,37813
32128,39708,37837
31916,39720,37725
31628,39764,37804
31284,39785,37695
30816,39741,37792
30232,39779,37704
29701,39768,37780
29384,39740,37676
29221,39719,37805
29140,39708,37820
29364,39720,37725
29644,39700,37772
29632,39705,37716
29484,39741,37805
29724,39792,37800
30845,39776,37742
32378,39756,37764
33924,39717,37710
35137,39685,37788
36092,39655,37800
36752,39633,37732
36924,39676,37767
36952,39700,37702
36824,39725,37804
36460,39728,37706
35936,39721,37788
35428,39704,37792
34976,39673,37720
34604,39647,37749
34256,39628,37663
33976,39618,37776
33732,39661,37670
33508,39670,37734
33312,39699,37772
33172,39668,37746
33032,39665,37748
32960,39644,37652
32928,39639,37736
32882,39616,37738
32844,39598,37728
32864,39597,37617
32868,39613,37720
32836,39644,37748
32784,39664,37668
32776,39679,37702
32796,39676,37639
32752,39645,37669
32760,39585,37700
32772,39588,37712
32775,39566,37637
32772,39568,37686
32748,39580,37684
32716,39616,37700
32684,39639,37604
32672,39654,37672
32644,39644,37669
32632,39609,37696
32612,39587,37688
32612,39581,37660
32632,39540,37568
32664,39548,37633
32660,39559,37660
32636,39581,37572
32616,39609,37600
32596,39621,37509
32604,39616,37592
32548,39584,37612
32544,39559,37473
32560,39528,37559
32536,39473,37488
32496,39492,37565
32512,39532,37560
32484,39559,37524
32464,39573,37499
32452,39585,37528
32445,39556,37428
32428,39567,37501
32428,39534,37500
32420,39504,37348
32432,39492,37424
32436,39489,37417
32468,39500,37448
32468,39505,37321
32405,39532,37383
32388,39524,37404
32372,39516,37358
32344,39522,37365
32320,39500,37310
32304,39464,37336
32300,39430,37240
32340,39431,37317
32348,39428,37188
32328,39468,37268
32304,39480,37164
32296,39532,37269
32312,39535,37236
32288,39508,37112
32280,39472,37200
32276,39445,37173
32272,39431,37132
32304,39422,37124
32320,39444,37069
32316,39469,37079
32284,39498,37004
32244,39501,37016
32216,39508,36881
32220,39481,36944
32224,39454,36813
32273,39392,36885
32352,39396,36772
32384,39407,36840
32352,39413,36751
32364,39445,36806
32372,39438,36772
32340,39469,36704
32312,39438,36684
32285,39413,36596
32313,39416,36653
32324,39388,36604
32336,39380,36524
32392,39375,36512
32408,39388,36419
32421,39416,36460
32396,39420,36444
32376,39423,36308
32368,39405,36388
32366,39388,36340
32337,39403,36256
32320,39367,36254
32364,39349,36279
32380,39344,36232
32384,39369,36096
32420,39388,36160
32452,39389,36084
32488,39424,36084
32500,39421,36066
32512,39398,36020
32528,39370,35916
32520,39332,35983
32448,39311,35924
32416,39335,35845
32404,39348,35832
32393,39364,35820
32456,39377,35812
32449,39392,35701
32484,39385,35719
32528,39364,35704
32548,39335,35564
32608,39303,35637
32668,39285,35600
32728,39287,35506
32780,39262,35540
32836,39317,35460
32893,39340,35463
32904,39357,35456
32924,39341,35415
32976,39289,35396
32996,39271,35324
33022,39230,35348
33028,39239,35311
33036,39242,35241
33045,39264,35239
33064,39288,35152
33044,39327,35200
33008,39309,35116
33000,39316,35116
33040,39295,35076
33076,39268,34983
33096,39204,35033
33149,39192,35001
33216,39212,34894
33268,39229,34964
33248,39255,34916
33200,39276,34874
33168,39293,34872
33156,39289,34878
33124,39251,34836
33096,39229,34873
33080,39201,34871
33108,39183,34784
33132,39174,34847
33160,39194,34812
33176,39172,34823
33202,39252,34837
33192,39255,34761
33184,39212,34834
33136,39232,34780
33090,39193,34833
33104,39164,34806
33116,39148,34856
33117,39140,34874
33092,39151,34836
33116,39175,34861
33145,39200,34894
33108,39207,34810
33068,39207,34881
33056,39181,34920
33056,39148,34852
33032,39120,34946
32996,39068,34933
33008,39058,34902
33024,39118,34932
33052,39144,34983
33052,39167,34985
32980,39175,35012
32908,39132,34948
32864,39163,34988
32836,39131,35038
32860,39096,35040
32876,39069,34972
32892,39076,35063
32897,39086,35060
32896,39110,35036
32877,39142,35046
32896,39162,35000
32872,39145,34991
32892,39113,35037
32893,39076,34984
32884,39044,35040
32876,39029,35018
32880,39060,34964
32876,39078,34982
32828,39104,34940
32800,39131,34968
32768,39112,34951
32752,39136,34912
32796,39116,34935
32816,39093,34832
32844,39041,34904
32840,39044,34856
32860,39036,34881
32836,39058,34840
32848,39072,34860
32844,39104,34800
32832,39120,34828
32808,39124,34823
32820,39065,34764
32808,39072,34758
32812,39032,34768
32832,39025,34724
32860,39020,34746
32864,39030,34712
32856,39054,34645
32848,39056,34676
32876,39101,34660
32840,39096,34592
32828,39077,34597
32816,39047,34539
32800,39028,34562
32792,39006,34476
32828,38978,34529
32852,39014,34468
32836,39036,34423
32816,39062,34487
32776,39079,34453
32776,39076,34375
32801,39055,34436
32804,39032,34408
32792,39004,34380
32768,38983,34395
32804,38985,34328
32840,39002,34345
32824,39021,34303
32832,39047,34301
32828,39056,34311
32812,39053,34311
32821,39045,34294
32852,39016,34276
32856,38983,34204
32896,38967,34261
32912,38961,34241
32888,38980,34188
32852,39008,34212
32844,39000,34156
32824,39036,34223
32804,39039,34200
32788,39021,34140
32752,39003,34198
32756,38963,34192
32752,38916,34173
32780,38940,34196
32788,38956,34132
32772,38976,34191
32694,38984,34189
32676,38973,34149
32688,39015,34175
32706,38999,34201
32700,38981,34212
32740,38940,34192
32804,38916,34216
32816,38916,34228
32876,38937,34180
32976,38951,34242
33012,38981,34248
33068,38966,34222
33064,38982,34278
33072,38964,34276
33108,38934,34257
33128,38900,34284
33120,38885,34302
33140,38882,34330
33120,38897,34273
33120,38896,34325
33148,38948,34308
33196,38956,34345
33164,38960,34348
33144,38940,34278
33108,38903,34321
33100,38863,34280
33052,38854,34278
33052,38853,34294
33044,38868,34311
33036,38885,34243
33060,38908,34252
33068,38888,34201
33072,38917,34200
33060,38894,34142
33072,38869,34052
33112,38836,34028
33148,38791,33904
33164,38808,33883
33188,38824,33749
33232,38856,33670
33192,38884,33572
33204,38892,33406
33200,38893,33324
33200,38866,33160
33174,38844,33021
33181,38804,32876
33180,38781,32715
33096,38733,32517
33000,38788,32333
32869,38812,32103
32728,38840,31921
32572,38856,31705
32364,38852,31478
32084,38833,31238
31700,38815,30978
31292,38775,30736
30744,38756,30463
30116,38748,30212
29656,38775,29940
29424,38796,29637
29276,38828,29344
29353,38849,29028
29652,38840,28710
29760,38828,28495
29692,38807,28101
29757,38781,27779
30600,38757,27572
32152,38740,27156
33772,38751,26776
35100,38766,26490
36104,38777,26137
36864,38756,25856
37264,38765,25496
37356,38753,25228
37268,38712,24914
36908,38689,24572
36432,38629,24318
35920,38649,23989
35420,38677,23592
35028,38705,23367
34644,38724,23050
34284,38751,22767
34024,38716,22456
33768,38720,22129
33568,38697,21849
33444,38663,21572
33333,38620,21290
33248,38639,21221
33216,38655,20818
33132,38663,20704
33088,38695,20318
33024,38663,20016
32988,38673,19866
32948,38689,19545
32908,38655,19432
32880,38636,19214
32880,38612,19095
32868,38596,19055
32900,38589,18758
32925,38631,18688
32928,38663,18481
32908,38679,18196
32892,38636,18196
32896,38625,17986
32904,38624,17992
32876,38588,17878
32840,38568,17896
32844,38568,17721
32836,38588,17695
32808,38604,17522
32820,38624,17602
32812,38652,17584
32832,38644,17576
32788,38616,17519
32800,38597,17620
32776,38535,17587
32736,38548,17690
32709,38540,17556
32676,38557,17721
32660,38596,17677
32648,38604,17870
32652,38584,18117
32628,38620,17984
32620,38600,18218
32644,38573,18502
32652,38540,18398
32668,38521,18655
32676,38517,18994
32660,38535,19017
32676,38560,19260
32622,38567,19332
32615,38564,19658
32612,38567,19929
32592,38577,19965
32586,38561,20318
32560,38529,20473
32584,38509,20790
32496,38511,21188
32452,38529,21229
32464,38549,21561
32500,38581,22020
32504,38551,22042
32520,38588,22400
32496,38573,22840
32473,38545,22887
32468,38509,23279
32454,38484,23681
32472,38498,23812
32468,38505,24140
32444,38533,24367
32428,38519,24711
32400,38552,25032
32328,38574,25298
32276,38573,25602
32244,38535,25882
32232,38474,26281
32228,38486,26484
32244,38495,26840
32280,38500,27077
32308,38532,27402
32316,38524,27646
32272,38569,27967
32261,38569,28347
32245,38549,28525
32260,38532,28831
32272,38501,29166
32280,38484,29432
32284,38479,29768
32296,38497,30004
32344,38520,30320
32336,38559,30553
32361,38532,30848
32368,38567,31120
32356,38556,31401
32356,38533,31691
32348,38500,31941
32372,38497,32227
32356,38500,32468
32384,38486,32768
32416,38492,33028
32436,38535,33284
32416,38544,33543
32388,38581,33804
32364,38572,34055
32380,38542,34311
32400,38508,34561
32428,38497,34793
32448,38457,34983
32488,38468,35268
32544,38497,35500
32536,38546,35748
32528,38580,35980
32521,38568,36117
32532,38551,36409
32568,38535,36508
32600,38509,36817
32644,38451,37032
32704,38492,37236
32740,38492,37320
32776,38509,37565
32788,38564,37710
32808,38574,37988
32821,38576,38177
32808,38575,38204
32812,38544,38472
32844,38516,38676
32936,38500,38692
32980,38485,38912
32989,38472,39092
32980,38524,39266
32980,38569,39430
32984,38589,39394
33008,38592,39628
32984,38572,39717
32996,38551,39904
33000,38519,39928
32980,38519,40142
33057,38492,40128
33092,38527,40333
33140,38564,40352
33164,38581,40560
33148,38600,40532
33152,38608,40724
33164,38590,40815
33216,38562,40964
33248,38496,41052
33272,38501,40925
33292,38516,41160
33232,38508,41263
33192,38573,41312
33176,38593,41176
33136,38617,41455
33124,38620,41292
33092,38600,41464
33080,38578,41390
33052,38544,41602
33028,38535,41607
33024,38527,41476
33016,38549,41666
32996,38569,41550
32985,38598,41668
32988,38624,41572
32996,38625,41812
32990,38612,41797
32980,38584,41844
32972,38565,41807
33008,38543,41775
33056,38535,41630
33045,38542,41783
33037,38576,41836
33032,38617,41807
33008,38633,41697
32973,38601,41604
32960,38620,41740
32924,38604,41726
32926,38580,41672
32920,38550,41479
32932,38551,41575
32932,38557,41421
32936,38592,41504
32920,38614,41479
32928,38630,41441
32906,38640,41357
32876,38621,41252
32824,38588,41252
32816,38581,41212
32804,38561,40926
32824,38551,40952
32842,38565,40785
32862,38584,40807
32872,38624,40601
32896,38647,40589
32888,38655,40573
32880,38628,40513
32864,38600,40228
32848,38583,40268
32844,38556,40008
32860,38520,40055
32848,38572,39772
32864,38599,39732
32864,38623,39660
32848,38637,39399
32808,38655,39382
32796,38636,39164
32756,38588,39153
32756,38577,39039
32776,38563,38894
32828,38563,38726
32824,38585,38577
32834,38597,38336
32836,38630,38308
32816,38613,38158
32840,38652,37895
32844,38637,37853
32868,38613,37632
32864,38584,37560
32884,38569,37383
32908,38532,37268
32940,38576,37058
32952,38601,36975
32936,38639,36767
32956,38652,36665
32948,38660,36500
32936,38647,36351
32900,38617,36206
32892,38598,35996
32896,38532,35904
32916,38560,35685
32937,38588,35621
32916,38612,35485
32960,38644,35242
32928,38661,35156
32904,38663,34953
32852,38660,34872
32852,38633,34718
32840,38593,34593
32892,38586,34437
32927,38584,34308
32916,38599,34169
32912,38628,33976
32932,38648,33870
32968,38663,33687
32940,38676,33598
32920,38654,33469
32916,38629,33294
32890,38605,33204
32872,38580,33031
32880,38576,32912
32876,38591,32756
32864,38616,32657
32856,38612,32513
32860,38663,32397
32852,38663,32228
32808,38655,32141
32804,38590,31999
32820,38590,31879
32797,38573,31766
32797,38535,31632
32776,38586,31524
32756,38618,31389
32760,38642,31276
32714,38653,31168
32708,38628,31036
32681,38608,30937
32632,38621,30808
32620,38553,30727
32600,38548,30594
32592,38528,30503
32556,38561,30374
32536,38572,30304
32536,38601,30167
32508,38615,30087
32464,38621,29975
32433,38652,29852
32440,38628,29781
32424,38601,29664
32420,38568,29602
32428,38576,29573
32448,38588,29447
32472,38623,29420
32433,38648,29301
32468,38668,29265
32536,38677,29150
32592,38662,29145
32660,38644,29008
32688,38616,28952
32692,38599,28935
32696,38557,28844
32713,38588,28844
32696,38621,28743
32684,38652,28716
32688,38693,28658
32712,38692,28676
32732,38679,28575
32760,38609,28580
32736,38626,28508
32744,38608,28540
32768,38612,28464
32760,38624,28463
32704,38652,28399
32672,38660,28393
32656,38708,28468
32621,38714,28346
32620,38700,28355
32616,38637,28253
32621,38613,28309
32648,38624,28305
32664,38621,28242
32673,38612,28302
32702,38663,28321
32728,38692,28237
32708,38721,28260
32696,38724,28202
32660,38706,28271
32672,38687,28135
32664,38652,28155
32676,38633,28112
32708,38629,28098
32692,38649,28128
32668,38680,28073
32644,38719,28077
32568,38724,28048
32432,38728,28047
32249,38700,28151
32096,38688,28023
31904,38663,28023
31676,38605,27999
31369,38641,27991
31028,38672,27976
30528,38696,28053
29912,38704,27903
29392,38753,27897
29068,38773,27861
28880,38761,27855
28988,38736,27876
29292,38712,27836
29496,38708,27841
29476,38652,27752
29424,38729,27766
29968,38744,27709
31296,38777,27685
32880,38781,27788
34248,38788,27644
35265,38765,27686
36069,38730,27600
36468,38678,27668
36536,38663,27552
36526,38663,27516
36276,38694,27545
35892,38703,27472
35424,38740,27450
34940,38764,27501
34508,38769,27429
34040,38750,27444
33700,38724,27447
33480,38660,27333
33260,38679,27268
33132,38672,27296
32996,38700,27228
32876,38706,27309
32776,38741,27176
32705,38766,27177
32636,38760,27237
32604,38750,27124
32596,38720,27100
32584,38692,27236
32552,38663,27072
32588,38676,27068
32596,38686,27143
32568,38716,27101
32576,38739,27105
32560,38764,27132
32512,38756,27024
32468,38745,27021
32460,38712,27176
32472,38686,27007
32473,38636,27016
32452,38663,27124
32456,38676,27057
32436,38714,27034
32428,38734,27018
32432,38751,27126
32412,38748,27021
32372,38732,27057
32356,38705,27161
32328,38677,27022
32352,38644,27061
32360,38649,27016
32356,38637,27068
32365,38705,27148
32368,38725,27022
32340,38749,27029
32328,38695,27178
32328,38727,27052
32316,38663,27068
32320,38684,27186
32324,38631,27102
32300,38652,27200
32304,38673,27085
32312,38700,27108
32296,38684,27173
32256,38748,27168
32256,38749,27286
32236,38689,27180
32208,38697,27241
32202,38662,27227
32228,38652,27344
32224,38625,27249
32256,38654,27307
32252,38692,27399
32244,38689,27372
32212,38735,27496
32224,38740,27414
32204,38712,27444
32196,38687,27452
32204,38663,27488
32240,38647,27644
32280,38649,27556
32284,38658,27624
32284,38687,27661
32237,38676,27665
32236,38736,27696
32204,38733,27830
32160,38716,27796
32120,38693,27844
32164,38663,27837
32200,38640,27872
32188,38644,27962
32216,38661,27940
32240,38692,27982
32242,38719,28014
32188,38740,28047
32132,38744,28191
32132,38724,28166
32116,38693,28172
32132,38663,28201
32132,38644,28334
32152,38640,28319
32200,38644,28359
32180,38661,28380
32192,38716,28413
32184,38732,28528
32204,38743,28484
32204,38721,28529
32220,38690,28580
32236,38663,28612
32248,38655,28717
32284,38644,28690
32316,38660,28789
32304,38689,28772
32320,38713,28873
32288,38728,28882
32300,38732,28976
32292,38712,28964
32304,38692,29080
32288,38661,29060
32308,38649,29168
32342,38644,29148
32384,38652,29196
32392,38682,29206
32416,38687,29278
32392,38716,29314
32396,38735,29401
32376,38708,29409
32396,38684,29484
32416,38663,29494
32472,38640,29564
32516,38637,29572
32524,38645,29624
32564,38676,29656
32624,38700,29708
32664,38719,29746
32676,38711,29804
32661,38708,29868
32712,38652,29908
32764,38651,29980
32776,38617,29980
32836,38616,29997
32908,38632,30060
32944,38662,30090
32960,38694,30153
32980,38709,30236
32988,38712,30228
33016,38694,30314
33029,38661,30324
33032,38621,30381
33068,38580,30415
33104,38581,30476
33144,38592,30496
33160,38612,30566
33150,38638,30567
33140,38700,30652
33152,38708,30666
33128,38672,30740
33152,38661,30750
33160,38629,30823
33192,38613,30823
33216,38604,30884
33208,38623,30920
33212,38649,30948
33216,38651,30992
33188,38689,31040
33156,38687,31084
33144,38676,31140
33120,38644,31164
33104,38607,31217
33144,38597,31238
33164,38601,31285
33156,38609,31310
33188,38628,31361
33172,38663,31392
33164,38692,31432
33104,38689,31485
33104,38663,31506
33068,38636,31556
33080,38617,31580
33128,38592,31623
33140,38593,31648
33116,38592,31678
33080,38629,31704
33096,38660,31744
33088,38680,31749
33040,38672,31793
33024,38663,31808
33004,38645,31844
33040,38598,31856
33044,38581,31888
33068,38581,31896
33056,38596,31936
33046,38630,31948
33056,38660,31980
33060,38663,31990
33040,38653,32023
33032,38612,32034
33053,38585,32057
33036,38593,32084
33052,38572,32092
33072,38571,32119
33068,38591,32125
33028,38588,32135
32984,38611,32156
32960,38648,32176
32960,38663,32187
32964,38637,32217
32932,38617,32208
32921,38589,32240
32920,38564,32255
32952,38556,32285
32992,38572,32302
32976,38605,32327
32968,38631,32349
32960,38650,32348
32934,38647,32368
32920,38629,32391
32892,38604,32401
32892,38576,32430
32940,38556,32428
32960,38556,32454
32965,38569,32442
32968,38594,32464
32976,38617,32503
32976,38646,32493
32980,38641,32536
32936,38612,32518
32928,38594,32558
32941,38556,32589
32968,38544,32570
33000,38546,32601
32986,38550,32628
32980,38572,32639
32976,38607,32644
32992,38616,32677
32956,38628,32685
32968,38612,32716
32996,38590,32740
33012,38560,32725
33008,38495,32772
33016,38497,32793
33056,38519,32824
33062,38565,32849
33072,38596,32845
33028,38621,32888
33000,38633,32884
32980,38609,32949
32972,38576,32944
32984,38544,33007
32992,38532,32993
33005,38492,33058
33016,38540,33084
33008,38567,33080
33004,38589,33132
32988,38617,33120
32960,38623,33149
32948,38575,33208
32932,38564,33201
32932,38545,33253
32928,38517,33287
32928,38519,33277
32964,38533,33327
32932,38560,33308
32928,38594,33392
32900,38609,33404
32892,38615,33412
32920,38599,33447
32964,38540,33457
32968,38527,33436
32952,38511,33505
32965,38508,33501
32988,38516,33566
32992,38549,33536
32964,38584,33592
32932,38597,33584
32920,38600,33637
32860,38592,33606
32824,38558,33671
32840,38532,33644
32872,38519,33711
32896,38508,33701
32952,38487,33769
32960,38548,33725
32978,38572,33799
32988,38598,33785
32960,38592,33863
32932,38564,33871
32924,38516,33896
32948,38500,33919
32973,38508,33888
32952,38487,33948
32944,38508,33938
32942,38534,34004
32960,38525,33957
32940,38561,34021
32908,38564,33998
32860,38532,34086
32828,38520,34049
32788,38489,34128
32800,38448,34095
32832,38461,34175
32840,38468,34148
32792,38489,34199
32768,38519,34175
32740,38548,34229
32720,38560,34181
32712,38564,34260
32728,38532,34278
32728,38508,34333
32752,38492,34344
32744,38484,34365
32792,38495,34376
32824,38519,34391
32804,38540,34350
32808,38566,34417
32840,38564,34385
32836,38559,34439
32828,38527,34377
32848,38500,34461
32896,38476,34425
32932,38472,34504
32961,38448,34445
32980,38500,34533
32980,38529,34507
32952,38556,34588
32936,38535,34548
32937,38550,34597
32949,38516,34548
32944,38480,34636
32924,38464,34574
32924,38468,34703
32909,38479,34721
32868,38501,34714
32842,38509,34748
32793,38546,34756
32736,38564,34732
32768,38511,34774
32808,38508,34732
32792,38495,34828
32781,38464,34854
32830,38455,34880
32872,38468,34900
32864,38489,34848
32848,38512,34942
32812,38505,34918
32833,38529,34965
32836,38525,34932
32848,38500,35038
32864,38473,34989
32872,38455,35080
32876,38449,35044
32900,38460,35133
32872,38476,35100
32780,38511,35180
32672,38529,35143
32508,38532,35231
32348,38520,35212
32180,38496,35328
31952,38475,35364
31724,38448,35380
31400,38441,35352
30988,38466,35437
30432,38456,35468
29840,38524,35425
29404,38540,35532
29120,38500,35486
29022,38544,35620
29224,38525,35673
29604,38495,35713
29756,38476,35713
29708,38484,35776
29920,38481,35728
30900,38509,35847
32409,38526,35858
33896,38542,35961
35080,38535,35982
35980,38508,35965
36600,38472,36076
36768,38462,36056
36793,38423,36207
36660,38407,36244
36332,38432,36272
35856,38460,36321
35372,38490,36289
34964,38480,36404
34560,38510,36341
34156,38500,36487
33844,38476,36438
33593,38432,36573
33364,38424,36559
33184,38420,36700
33056,38405,36640
32956,38441,36765
32872,38482,36841
32860,38495,36853
32825,38472,36928
32773,38488,36909
32729,38461,36999
32672,38406,36980
32688,38405,37080
32700,38404,37029
32712,38416,37196
32680,38440,37148
32668,38425,37265
32608,38487,37221
32588,38494,37364
32576,38477,37332
32584,38407,37463
32580,38397,37429
32548,38380,37617
32540,38360,37649
32508,38372,37664
32524,38431,37736
32504,38431,37645
32493,38478,37840
32488,38486,37871
32493,38479,37924
32468,38452,37956
32456,38416,37975
32468,38352,38045
32516,38361,38033
32520,38388,38061
32544,38407,38151
32532,38444,38169
32508,38471,38180
32481,38468,38257
32440,38452,38151
32412,38433,38261
32372,38396,38212
32360,38381,38381
32381,38373,38285
32364,38383,38468
32380,38404,38468
32328,38441,38380
32336,38460,38513
32312,38468,38460
32284,38456,38624
32224,38427,38535
32212,38403,38708
32244,38376,38720
32236,38367,38724
32258,38324,38776
32244,38406,38673
32192,38420,38796
32196,38406,38748
32188,38458,38917
32164,38436,38919
32144,38412,38848
32160,38384,39036
32156,38331,39036
32184,38304,38919
32216,38316,39065
32228,38375,38968
32224,38407,39152
32196,38421,39128
32180,38406,39039
32169,38432,39173
32132,38407,39149
32161,38380,39244
32164,38357,39196
32180,38340,39217
32168,38361,39148
32140,38386,39265
32140,38400,39325
32140,38437,39332
32104,38441,39222
32101,38381,39310
32076,38360,39228
32084,38336,39412
32125,38350,39373
32164,38332,39276
32176,38356,39436
32164,38374,39396
32168,38404,39295
32196,38431,39404
32178,38434,39405
32176,38407,39493
32173,38397,39452
32216,38343,39436
32262,38304,39524
32276,38326,39389
32308,38338,39552
32320,38364,39552
32373,38392,39431
32400,38420,39573
32440,38426,39585
32436,38413,39558
32392,38389,39557
32364,38365,39470
32340,38340,39670
32364,38327,39658
32368,38317,39656
32388,38350,39524
32392,38376,39713
32424,38407,39716
32397,38406,39745
32408,38407,39728
32392,38378,39721
32440,38348,39744
32532,38332,39732
32580,38343,39721
32632,38324,39780
32632,38345,39700
32668,38380,39781
32676,38396,39783
32708,38360,39783
32748,38373,39780
32760,38317,39784
32796,38293,39676
32844,38301,39772
32880,38284,39692
32936,38309,39880
32972,38332,39864
32984,38351,39884
32960,38384,39879
32960,38385,39893
33004,38375,39865
33004,38343,39790
33016,38293,39845
33060,38284,39772
33096,38289,39815
33133,38292,39740
33148,38312,39916
33168,38325,39902
33184,38365,39916
33160,38368,39892
33144,38356,39848
33140,38328,39860
33152,38311,39741
33188,38279,39856
33188,38272,39825
33244,38269,39876
33236,38307,39800
33248,38334,39884
33248,38311,39902
33248,38332,39880
33220,38342,39924
33180,38308,39886
33120,38279,39744
33120,38265,39832
33120,38247,39735
33140,38264,39838
33136,38284,39728
33116,38325,39821
33088,38321,39732
33104,38335,39848
33112,38334,39725
33109,38300,39852
33124,38268,39733
33140,38252,39880
33122,38240,39892
33092,38251,39880
33098,38260,39754
33076,38303,39872
33052,38327,39848
33008,38332,39732
32988,38321,39793
32980,38268,39728
32980,38229,39788
32988,38215,39709
32992,38215,39868
32992,38239,39722
33028,38260,39838
33028,38285,39844
32996,38304,39844
32964,38310,39730
32949,38304,39854
32900,38285,39727
32852,38254,39909
32880,38222,39908
32897,38222,39927
32952,38224,39919
32960,38228,39893
32976,38237,39901
32950,38271,39790
32948,38291,39912
32948,38295,39764
32936,38238,39972
32952,38206,39912
32940,38188,39780
32924,38172,39989
32920,38208,39940
32936,38233,39814
32960,38261,39901
32976,38250,39816
32948,38295,39989
32944,38285,39992
32944,38254,39943
32940,38225,39943
32944,38212,39837
32948,38196,39964
32944,38199,39840
32948,38217,40037
32960,38260,40004
32985,38276,39863
32952,38281,40052
32916,38271,39986
32932,38238,39872
32908,38217,39964
32940,38199,40010
32976,38183,40020
32980,38149,39981
32996,38196,39878
32992,38231,40054
33004,38260,40012
32964,38276,39876
32944,38265,40020
32912,38234,39972
32868,38207,40020
32874,38176,39868
32900,38151,39960
32904,38183,39880
32920,38199,39978
32904,38225,39890
32893,38252,40029
32908,38252,40055
32916,38207,40036
32900,38228,40056
32888,38177,40008
32908,38172,40017
32928,38148,40004
32920,38168,39968
32900,38192,40012
32896,38212,40038
32896,38239,40020
32880,38208,40037
32892,38232,39839
32884,38212,39933
32900,38180,39849
32888,38151,40037
32884,38151,40012
32924,38150,40024
32948,38172,40020
32916,38197,40000
32880,38228,40008
32852,38232,39868
32840,38231,39949
32856,38209,39852
32840,38168,39968
32812,38151,40004
32824,38143,40012
32849,38144,39980
32876,38168,39934
32868,38198,40000
32872,38230,39929
32852,38232,39973
32864,38233,39869
32880,38202,39943
32880,38164,39815
32860,38117,39920
32856,38139,39922
32876,38134,39964
32852,38160,39943
32840,38147,39956
32821,38212,39929
32813,38209,39943
32828,38212,39980
32796,38196,39959
32760,38166,39973
32764,38138,39959
32796,38127,39967
32824,38126,39780
32828,38145,39909
32820,38183,39924
32816,38203,39916
32836,38213,39900
32844,38212,39815
32844,38188,39825
32836,38145,39724
32832,38125,39920
32780,38112,39871
32729,38124,39732
32732,38096,39869
32721,38172,39712
32693,38180,39892
32712,38193,39862
32680,38198,39780
32660,38178,39840
32660,38140,39776
32680,38104,39839
32676,38108,39751
32708,38108,39756
32716,38132,39671
32760,38160,39797
32728,38177,39668
32720,38199,39796
32724,38193,39648
32704,38158,39828
32724,38144,39786
32720,38103,39726
32756,38100,39744
32770,38070,39639
32823,38112,39742
32836,38143,39620
32836,38173,39728
32832,38188,39591
32840,38182,39732
32856,38151,39700
32864,38117,39569
32884,38092,39758
32894,38084,39701
32926,38085,39575
32928,38105,39724
32932,38104,39696
32938,38156,39559
32904,38183,39640
32886,38169,39684
32800,38140,39668
32740,38112,39591
32740,38086,39494
32732,38072,39665
32800,38072,39568
32820,38080,39480
32792,38092,39612
32820,38144,39580
32850,38120,39471
32840,38151,39572
32788,38140,39488
32784,38101,39544
32768,38081,39556
32812,38064,39536
32812,38065,39404
32824,38100,39473
32844,38124,39376
32842,38151,39544
32816,38164,39516
32804,38125,39423
32744,38125,39457
32608,38100,39361
32472,38074,39488
32348,38023,39502
32200,38030,39356
32012,38081,39476
31820,38124,39489
31548,38151,39502
31176,38133,39484
30708,38148,39492
30124,38142,39480
29557,38117,39489
29208,38092,39476
28996,38080,39452
29044,38094,39408
29408,38119,39308
29796,38125,39396
29880,38126,39310
29796,38151,39496
30148,38156,39456
31252,38129,39354
32680,38092,39384
34040,38060,39310
35121,38063,39372
35952,38060,39308
36440,38085,39431
36500,38096,39447
36436,38124,39403
36200,38132,39294
35848,38127,39460
35420,38115,39453
35064,38080,39468
34736,38057,39431
34337,38049,39420
33976,38023,39430
33737,38054,39376
33552,38093,39374
33336,38132,39425
33156,38149,39412
33040,38138,39412
32900,38102,39420
32820,38052,39401
32804,38052,39285
32828,38044,39338
32820,38033,39260
32820,38032,39372
32780,38086,39252
32788,38115,39417
32768,38124,39245
32728,38127,39400
32720,38100,39248
32724,38080,39388
32712,38050,39252
32684,38032,39333
32644,38041,39284
32645,38055,39332
32632,38085,39248
32612,38118,39428
32601,38088,39236
32592,38116,39384
32564,38100,39240
32560,38068,39398
32612,38042,39248
32604,38023,39333
32608,38029,39281
32620,38056,39363
32628,38078,39290
32624,38113,39372
32560,38126,39256
32512,38084,39384
32484,38092,39328
32476,38071,39380
32497,38040,39303
32512,38004,39376
32544,38030,39368
32564,38053,39220
32552,38082,39370
32564,38068,39223
32556,38119,39280
32496,38075,39204
32444,38088,39328
32440,38065,39333
32440,38039,39196
32440,38020,39296
32452,38022,39197
32460,38049,39336
32448,38077,39332
32445,38085,39319
32436,38108,39311
32428,38101,39184
32392,38088,39289
32370,38053,39175
32380,38029,39277
32356,37988,39175
32392,38021,39284
32388,38041,39339
32340,38047,39156
32320,38097,39253
32284,38108,39184
32316,38102,39296
32332,38085,39304
32316,38057,39175
32320,38028,39239
32320,38013,39109
32360,38023,39188
32372,38046,39108
32368,38060,39205
32344,38094,39193
32304,38111,39180
32264,38112,39122
32256,38087,39172
32260,38023,39180
32248,38023,39008
32280,38017,39001
32292,38023,39108
32284,38036,39086
32277,38077,39097
32268,38094,39100
32308,38109,38948
32288,38105,39028
32288,38080,38916
32292,38053,39036
32284,38029,39047
32281,37991,39036
32276,38020,39031
32316,38044,39010
32352,38068,38991
32380,38101,38849
32392,38108,38956
32384,38116,38992
32388,38086,38823
32412,38061,38912
32436,38030,38861
32508,38020,38948
32532,38020,38909
32492,38043,38781
32528,38068,38860
32516,38057,38919
32492,38077,38756
32510,38068,38816
32489,38057,38724
32501,38012,38820
32488,38000,38854
32526,38008,38844
32516,38017,38849
32533,38007,38700
32572,38036,38791
32556,38092,38743
32576,38109,38780
32588,38068,38814
32636,38056,38630
32652,38020,38720
32696,37990,38663
32740,37972,38736
32772,37980,38746
32788,38023,38584
32836,38056,38681
32888,38085,38656
32924,38088,38704
32908,38057,38708
32904,38070,38669
32948,38044,38604
32956,38016,38628
32993,38000,38604
33048,37992,38644
33108,38023,38621
33156,38056,38616
33124,38053,38636
33136,38084,38609
33112,38085,38604
33109,38064,38605
33086,38033,38597
33093,38013,38425
33120,37989,38551
33128,37988,38534
33168,38012,38413
33180,38042,38511
33164,38077,38545
33164,38068,38526
33140,38055,38535
33132,38039,38361
33108,38036,38500
33108,37984,38496
33112,37953,38344
33092,37964,38432
33089,37996,38432
33084,38051,38453
33090,38072,38404
33072,38079,38420
33072,38068,38420
33060,38013,38424
33080,38022,38416
33100,38000,38289
33112,37976,38407
33120,37982,38399
33128,38006,38384
33120,38033,38240
33108,38061,38342
33092,38074,38367
33060,38056,38334
33016,38029,38277
33000,38007,38333
33016,37988,38350
33008,37988,38201
32996,37944,38273
33016,38012,38204
33024,38026,38301
33000,38062,38197
32992,38063,38263
32968,38065,38188
32984,38049,38268
32992,37982,38175
32992,37959,38253
32984,37953,38170
32961,37949,38262
32964,38004,38266
33020,38032,38272
33004,38052,38248
33000,38066,38285
32965,38076,38247
32948,38040,38151
32964,38022,38225
32960,38004,38136
32928,37977,38237
32956,37983,38133
32977,37988,38295
32974,38030,38268
32954,38063,38252
32928,38055,38262
32900,38056,38269
32888,38041,38248
32896,38008,38260
32868,37992,38260
32868,37983,38269
32900,37983,38110
32916,37999,38215
32929,38023,38192
32916,38048,38237
32913,38063,38213
32872,38060,38216
32896,38040,38225
32894,38020,38108
32904,37988,38236
32932,37945,38083
32944,37964,38164
32960,37989,38096
32976,38016,38181
32948,38045,38145
32952,38068,38212
32964,38056,38188
32932,38032,38212
32952,38009,38208
32956,37983,38090
32988,37939,38163
32984,37935,38078
33008,37953,38177
32992,37988,38138
