ECG,EDA,RR
33040,30432,32668
32986,30414,32676
33004,30409,32508
33057,30385,32635
33052,30374,32566
33056,30384,32518
33108,30380,32445
33096,30404,32548
33028,30420,32464
33032,30429,32490
33020,30430,32359
32984,30424,32448
32912,30410,32445
32896,30398,32295
32940,30389,32388
33012,30382,32414
33029,30385,32239
32972,30400,32335
32812,30422,32345
32668,30430,32197
32512,30439,32291
32332,30426,32228
32072,30428,32184
31788,30408,32108
31420,30404,32224
30936,30408,32220
30288,30422,32054
29676,30438,32156
29240,30471,32168
28892,30484,32026
28808,30484,32145
29020,30484,32100
29088,30470,32096
29016,30436,31972
29064,30444,32089
29792,30434,32066
31298,30424,32024
32953,30410,31933
34408,30431,32008
35524,30425,31964
36452,30425,32000
36996,30405,31872
37192,30396,31856
37152,30383,31936
36912,30367,31935
36512,30372,31812
36024,30380,31876
35584,30394,31824
35164,30416,31894
34744,30425,31857
34298,30436,31852
33976,30429,31790
33768,30421,31681
33616,30405,31768
33480,30380,31783
33408,30396,31604
33336,30402,31744
33317,30404,31664
33280,30433,31685
33184,30436,31677
33108,30437,31536
32992,30439,31532
32928,30418,31606
32928,30406,31604
32928,30394,31430
32921,30380,31580
32928,30396,31509
32980,30400,31437
32976,30428,31529
32952,30434,31495
32872,30445,31372
32864,30432,31416
32876,30425,31461
32856,30406,31392
32864,30388,31397
32872,30388,31447
32904,30404,31456
32920,30404,31325
32900,30428,31401
32892,30429,31420
32848,30441,31244
32790,30434,31361
32788,30428,31335
32804,30404,31237
32804,30396,31284
32836,30388,31239
32852,30400,31212
32840,30412,31228
32816,30424,31201
32848,30441,31256
32821,30439,31201
32776,30438,31133
32740,30421,31216
32736,30415,31180
32800,30397,31057
32840,30385,31178
32856,30401,31116
32848,30416,31030
32836,30428,31064
32748,30441,31105
32680,30449,31109
32644,30430,31024
32620,30437,31032
32652,30408,30937
32669,30404,31028
32704,30397,31004
32716,30407,30953
32704,30420,30981
32664,30437,30904
32604,30444,31001
32528,30452,30956
32497,30442,30862
32476,30430,30916
32500,30409,30821
32544,30407,30861
32532,30402,30744
32552,30404,30860
32536,30421,30780
32544,30437,30823
32504,30448,30821
32484,30452,30725
32448,30447,30746
32408,30433,30644
32368,30416,30756
32396,30404,30687
32444,30406,30640
32452,30408,30556
32428,30422,30670
32442,30439,30617
32432,30455,30500
32408,30442,30617
32376,30463,30572
32380,30436,30468
32432,30417,30460
32428,30406,30512
32420,30404,30493
32436,30412,30416
32450,30416,30380
32480,30445,30448
32460,30446,30415
32472,30461,30328
32484,30445,30399
32460,30444,30392
32417,30425,30308
32384,30412,30329
32432,30401,30276
32472,30414,30272
32544,30425,30288
32620,30450,30237
32708,30452,30197
32716,30454,30245
32716,30457,30248
32708,30428,30112
32673,30421,30229
32656,30407,30222
32676,30400,30111
32768,30408,30164
32848,30420,30120
32876,30439,30116
32924,30449,30117
32936,30452,30133
32948,30441,30049
32974,30432,30031
33012,30412,30105
33048,30397,30080
33052,30397,29958
33104,30405,30070
33173,30421,30069
33204,30437,29916
33288,30441,30004
33344,30455,29910
33340,30440,30020
33324,30430,29985
33304,30423,29904
33290,30401,29940
33364,30405,29854
33404,30408,29958
33396,30417,29912
33336,30440,29901
33345,30447,29932
33342,30447,29884
33328,30446,29797
33308,30424,29872
33320,30414,29761
33332,30407,29854
33386,30396,29796
33460,30404,29800
33525,30416,29842
33552,30436,29777
33532,30445,29796
33476,30455,29723
33464,30447,29801
33460,30432,29732
33445,30405,29740
33436,30397,29758
33468,30398,29642
33484,30398,29768
33452,30416,29724
33412,30436,29612
33428,30444,29740
33421,30444,29690
33448,30444,29626
33469,30429,29700
33452,30414,29633
33536,30397,29693
33472,30400,29686
33404,30396,29548
33384,30420,29637
33312,30434,29540
33269,30436,29634
33288,30449,29524
33296,30441,29613
33262,30428,29558
33272,30409,29604
33244,30401,29588
33212,30388,29465
33200,30404,29569
33240,30420,29561
33252,30421,29430
33196,30436,29493
33164,30449,29501
33140,30436,29519
33108,30424,29390
33146,30405,29479
33220,30405,29474
33248,30400,29420
33236,30404,29424
33188,30405,29328
33160,30434,29422
33112,30439,29412
33108,30442,29308
33128,30436,29373
33120,30422,29305
33124,30409,29332
33116,30396,29358
33092,30391,29368
33116,30388,29252
33140,30404,29324
33196,30433,29246
33172,30447,29348
33140,30432,29340
33148,30434,29264
33156,30422,29281
33172,30410,29180
33232,30398,29298
33248,30404,29287
33220,30388,29281
33244,30408,29254
33204,30432,29132
33132,30436,29220
33148,30441,29220
33150,30436,29109
33176,30422,29205
33216,30418,29199
33284,30393,29133
33280,30388,29154
33216,30398,29053
33152,30413,29140
33072,30416,29164
33024,30436,29063
33000,30433,29108
33024,30432,29071
33068,30423,29053
33016,30406,29077
32968,30388,29060
32960,30384,29004
32968,30395,29068
33028,30404,29074
33080,30426,28961
33065,30432,29068
33028,30441,29026
33052,30439,28946
33092,30420,29042
33096,30405,29008
33080,30393,28940
33060,30389,28921
33112,30393,29012
33132,30408,28976
33124,30430,28900
33088,30433,28982
33056,30441,28967
33196,30436,28884
33228,30428,28910
33200,30412,28951
33108,30397,28929
33148,30390,28875
33156,30396,28869
33168,30416,28892
33124,30426,28908
33104,30436,28873
33124,30439,28826
33144,30439,28890
33196,30434,28884
33244,30412,28820
33246,30396,28833
33216,30397,28868
33172,30396,28868
33120,30400,28812
33076,30425,28832
33005,30433,28744
32960,30437,28833
32976,30434,28820
32976,30418,28772
32996,30401,28807
33008,30382,28821
32984,30384,28741
32996,30383,28788
33004,30401,28807
33036,30416,28730
33076,30432,28773
33104,30437,28678
33108,30427,28788
33124,30416,28769
33125,30407,28708
33144,30397,28701
33220,30376,28752
33252,30396,28745
33176,30404,28652
33052,30416,28753
32884,30432,28728
32792,30436,28734
32669,30429,28669
32544,30422,28717
32328,30405,28708
31968,30392,28684
31604,30396,28703
31239,30404,28638
30772,30408,28697
30160,30445,28606
29580,30469,28681
29168,30478,28638
28864,30471,28705
28796,30439,28694
28876,30447,28638
28924,30431,28664
28996,30439,28649
29364,30410,28690
30578,30436,28661
32212,30436,28695
33784,30438,28665
35032,30435,28572
36076,30416,28679
36816,30388,28653
37176,30376,28677
37240,30364,28564
37128,30356,28660
36784,30360,28660
36313,30376,28583
35820,30400,28660
35388,30412,28628
34952,30416,28585
34512,30412,28647
34192,30408,28623
33872,30393,28540
33644,30385,28629
33528,30380,28596
33416,30385,28540
33320,30407,28542
33220,30408,28578
33144,30420,28589
33096,30428,28545
33068,30413,28572
33020,30409,28580
32980,30384,28479
32960,30376,28560
32968,30372,28572
32919,30387,28470
32824,30391,28564
32812,30412,28581
32836,30420,28504
32832,30431,28564
32800,30422,28521
32780,30407,28594
32753,30388,28591
32772,30377,28532
32828,30377,28572
32868,30372,28533
32864,30388,28593
32852,30404,28596
32836,30415,28501
32820,30426,28593
32796,30415,28552
32752,30409,28536
32685,30396,28589
32672,30380,28587
32692,30372,28552
32744,30383,28586
32720,30377,28509
32716,30407,28578
32756,30420,28512
32744,30428,28584
32736,30410,28534
32736,30407,28605
32680,30388,28607
32660,30376,28605
32628,30369,28589
32601,30380,28615
32628,30373,28616
32684,30405,28575
32716,30420,28592
32720,30420,28534
32784,30423,28616
32788,30402,28612
32716,30382,28589
32632,30381,28626
32568,30365,28566
32576,30377,28636
32585,30391,28566
32588,30417,28644
32580,30420,28573
32576,30426,28668
32524,30414,28620
32444,30409,28700
32408,30392,28676
32396,30375,28624
32452,30373,28718
32480,30367,28685
32480,30391,28721
32464,30397,28613
32400,30423,28712
32352,30417,28720
32320,30416,28636
32325,30412,28708
32284,30388,28661
32252,30380,28645
32248,30375,28701
32236,30373,28676
32200,30389,28709
32192,30404,28644
32176,30428,28677
32180,30424,28705
32208,30428,28672
32174,30417,28688
32176,30399,28693
32236,30372,28592
32288,30368,28668
32285,30377,28636
32260,30396,28664
32192,30408,28652
32152,30428,28679
32112,30437,28608
32144,30430,28691
32208,30414,28625
32228,30392,28674
32255,30384,28604
32321,30372,28686
32310,30376,28641
32328,30388,28688
32268,30415,28697
32252,30422,28636
32256,30432,28692
32245,30421,28644
32328,30412,28696
32424,30390,28677
32520,30373,28718
32568,30373,28696
32608,30380,28713
32644,30376,28672
32684,30401,28677
32664,30417,28700
32648,30423,28629
32624,30425,28720
32588,30401,28732
32656,30388,28657
32694,30372,28721
32776,30366,28644
32840,30375,28744
32880,30380,28754
33024,30398,28703
33084,30410,28740
33148,30414,28696
33116,30414,28724
33072,30400,28766
33056,30381,28704
33088,30367,28760
33116,30364,28713
33156,30372,28754
33216,30384,28700
33229,30396,28766
33224,30410,28770
33264,30417,28760
33272,30416,28816
33248,30404,28772
33240,30373,28801
33244,30369,28725
33229,30357,28809
33257,30364,28736
33332,30380,28829
33376,30399,28773
33424,30410,28853
33432,30412,28777
33368,30405,28856
33284,30392,28828
33228,30381,28896
33208,30368,28911
33210,30365,28844
33236,30360,28923
33280,30374,28941
33304,30388,28853
33289,30405,28944
33240,30419,28904
33188,30405,28969
33156,30397,28981
33184,30387,28877
33192,30364,28988
33200,30359,28903
33228,30351,28996
33188,30374,28918
33156,30394,29028
33188,30412,28974
33176,30421,29071
33150,30397,29070
33104,30380,29031
33072,30373,29079
33108,30359,29052
33164,30356,29126
33160,30361,29146
33180,30373,29130
33172,30376,29179
33104,30396,29189
33040,30408,29125
32956,30404,29214
32940,30383,29140
32952,30376,29247
32941,30357,29190
32892,30354,29252
32844,30364,29156
32848,30374,29287
32856,30381,29297
32876,30407,29325
32884,30408,29284
32912,30412,29340
32924,30380,29256
32912,30372,29362
32904,30357,29328
32888,30356,29430
32880,30361,29444
32892,30373,29357
32904,30388,29445
32892,30393,29377
32848,30402,29500
32812,30400,29434
32816,30391,29525
32808,30369,29541
32800,30358,29476
32804,30359,29564
32804,30354,29493
32796,30367,29612
32816,30388,29606
32772,30407,29653
32748,30413,29636
32756,30406,29632
32772,30389,29710
32768,30372,29633
32772,30360,29768
32776,30359,29776
32852,30353,29676
32880,30372,29797
32892,30385,29767
32897,30407,29860
32848,30400,29834
32808,30396,29765
32768,30396,29886
32768,30381,29814
32762,30364,29933
32808,30357,29968
32836,30356,29900
32828,30364,29992
32844,30376,30016
32822,30398,29967
32800,30404,30052
32820,30397,29968
32748,30388,30120
32684,30383,30102
32640,30356,30178
32664,30359,30141
32708,30359,30192
32712,30374,30180
32696,30396,30212
32677,30404,30284
32689,30413,30324
32704,30400,30305
32712,30392,30224
32720,30377,30374
32704,30351,30377
32672,30350,30389
32706,30357,30332
32652,30372,30452
32604,30392,30408
32624,30396,30496
32581,30406,30532
32564,30393,30565
32596,30389,30580
32592,30380,30616
32612,30361,30625
32609,30350,30527
32624,30356,30636
32664,30364,30590
32689,30381,30720
32676,30389,30736
32676,30407,30637
32688,30401,30759
32700,30388,30711
32688,30376,30774
32700,30349,30757
32736,30352,30854
32668,30356,30781
32684,30364,30873
32692,30389,30846
32712,30405,30961
32697,30411,30966
32712,30393,31014
32644,30389,31021
32652,30373,30948
32672,30361,31037
32672,30356,30972
32652,30356,31072
32644,30372,31060
32644,30382,31148
32640,30394,31035
32644,30397,31152
32676,30396,31072
32644,30390,31223
32612,30361,31190
32616,30364,31289
32608,30349,31317
32592,30348,31265
32588,30372,31348
32556,30375,31228
32536,30389,31399
32514,30404,31302
32528,30401,31416
32532,30381,31340
32524,30368,31460
32536,30357,31392
32569,30348,31540
32576,30357,31441
32540,30372,31617
32436,30381,31606
32236,30399,31679
32088,30401,31709
31880,30396,31596
31612,30389,31729
31288,30388,31648
30936,30368,31814
30464,30366,31838
29876,30377,31869
29360,30396,31806
29038,30420,31905
28782,30432,31880
28752,30436,31976
28864,30438,32020
28896,30429,31913
28912,30413,32029
29096,30397,31976
30092,30372,32067
31614,30373,32012
33180,30373,32135
34408,30375,32132
35408,30385,32215
36120,30382,32175
36495,30372,32320
36560,30361,32239
36525,30343,32368
36284,30337,32404
35816,30330,32322
35300,30337,32445
34838,30345,32475
34420,30367,32524
34012,30387,32557
33732,30396,32453
33456,30396,32590
33236,30384,32631
33080,30360,32641
32916,30348,32672
32808,30348,32703
32720,30349,32597
32638,30356,32728
32644,30374,32637
32640,30377,32785
32600,30396,32817
32580,30378,32840
32528,30383,32852
32448,30367,32735
32412,30349,32857
32368,30348,32816
32320,30352,32989
32320,30360,32988
32424,30373,32868
32396,30396,33004
32388,30404,32933
32420,30393,33072
32428,30388,32994
32416,30364,33096
32340,30352,33078
32280,30343,33232
32312,30355,33276
32348,30361,33309
32378,30372,33327
32388,30395,33294
32408,30402,33336
32340,30394,33262
32256,30382,33360
32228,30373,33312
32268,30340,33428
32284,30348,33444
32296,30342,33373
32300,30359,33480
32289,30375,33432
32268,30381,33604
32224,30393,33601
32224,30392,33636
32180,30381,33655
32149,30365,33600
32152,30341,33572
32120,30349,33711
32100,30350,33755
32076,30369,33776
32128,30385,33819
32124,30378,33778
32120,30398,33824
32096,30392,33864
32084,30385,33866
32048,30369,33868
32020,30352,33799
32061,30348,33972
32100,30357,33949
32144,30362,34020
32144,30380,33949
32140,30400,33983
32144,30404,33940
32132,30396,34052
32100,30378,34110
32084,30369,34000
31989,30353,34142
31928,30349,34031
31908,30348,34172
31948,30367,34221
31976,30389,34082
31968,30402,34175
31872,30404,34143
31816,30384,34278
31844,30395,34164
31884,30372,34296
31896,30364,34337
31896,30356,34349
31897,30348,34264
31896,30369,34297
31928,30388,34249
31888,30396,34368
31885,30410,34260
31840,30401,34352
31824,30393,34284
31828,30380,34428
31876,30360,34462
31884,30356,34471
31908,30356,34480
31928,30373,34393
31968,30393,34508
32029,30396,34404
32024,30404,34560
32016,30401,34530
32000,30388,34437
32000,30373,34597
32036,30365,34596
32108,30351,34488
32116,30361,34554
32112,30375,34506
32128,30397,34702
32184,30399,34692
32184,30413,34724
32172,30391,34553
32196,30385,34757
32172,30380,34740
32224,30364,34781
32248,30359,34639
32324,30348,34742
32376,30361,34660
32400,30383,34788
32376,30389,34714
32332,30398,34796
32320,30398,34720
32345,30389,34772
32364,30372,34737
32480,30357,34853
32564,30348,34792
32657,30352,34928
32740,30352,34944
32752,30380,34984
32777,30389,34980
32764,30399,34948
32804,30393,34933
32808,30383,34859
32812,30374,35044
32746,30352,35039
32748,30350,35072
32828,30348,35060
32908,30353,34967
32952,30377,35061
32976,30383,35108
33000,30401,35124
33064,30394,35108
33068,30369,35155
33065,30356,35173
33080,30343,35014
33112,30337,35142
33156,30343,35040
33196,30352,35231
33202,30372,35237
33132,30385,35196
33113,30392,35236
33076,30386,35140
33092,30372,35286
33140,30359,35300
33136,30349,35329
33092,30334,35325
33121,30336,35197
33104,30352,35398
33084,30372,35341
33032,30380,35223
33008,30391,35424
32972,30385,35398
33000,30372,35308
32996,30357,35353
32960,30344,35463
32968,30339,35380
33012,30344,35385
33076,30350,35335
33040,30365,35535
33004,30372,35490
33004,30383,35364
32992,30380,35559
32976,30373,35516
32928,30359,35401
32856,30343,35416
32864,30332,35518
32888,30341,35624
32908,30343,35584
32908,30358,35547
32928,30381,35548
32900,30382,35605
32805,30380,35492
32777,30367,35676
32800,30353,35662
32872,30337,35540
32884,30330,35624
32872,30340,35684
32872,30351,35696
32856,30364,35671
32775,30377,35569
32740,30391,35718
32704,30376,35604
32696,30373,35662
32704,30364,35590
32748,30343,35812
32788,30329,35760
32796,30340,35652
32840,30351,35719
32844,30351,35681
32880,30374,35752
32876,30378,35668
32860,30377,35874
32828,30372,35839
32832,30352,35728
32816,30340,35841
32824,30329,35769
32778,30334,35821
32764,30351,35916
32777,30357,35795
32740,30380,35916
32704,30389,35949
32676,30378,35856
32660,30365,35880
32664,30360,35889
32756,30343,35940
32808,30325,35908
32820,30329,35983
32836,30343,35948
32752,30365,35989
32708,30386,36005
32712,30383,35992
32748,30383,35881
32824,30364,36028
32864,30348,36069
32896,30330,36052
32912,30332,36041
32900,30329,36015
32860,30342,35905
32848,30356,36076
32820,30372,36004
32796,30378,36088
32728,30386,35948
32740,30373,36010
32724,30349,36116
32641,30336,36156
32620,30336,36121
32613,30336,35992
32632,30353,36086
32628,30357,36160
32712,30376,36175
32724,30391,36160
32668,30375,36004
32636,30369,36206
32656,30359,36196
32708,30336,36069
32712,30333,36209
32760,30335,36236
32780,30335,36255
32756,30364,36112
32716,30369,36161
32692,30382,36132
32644,30380,36279
32596,30366,36278
32556,30351,36316
32608,30343,36324
32672,30334,36152
32736,30335,36380
32824,30343,36366
32844,30356,36401
32808,30375,36391
32741,30381,36415
32652,30365,36421
32592,30364,36458
32628,30357,36244
32700,30337,36343
32712,30336,36406
32744,30336,36461
32740,30348,36508
32768,30367,36332
32800,30378,36500
32828,30380,36368
32796,30377,36520
32773,30368,36519
32756,30356,36365
32688,30341,36500
32640,30332,36396
32668,30321,36581
32684,30343,36417
32696,30356,36604
32744,30372,36460
32752,30377,36545
32692,30375,36469
32672,30366,36636
32640,30346,36497
32624,30336,36712
32604,30327,36713
32600,30320,36743
32616,30343,36583
32617,30361,36734
32608,30365,36797
32604,30365,36612
32536,30380,36709
32416,30352,36664
32312,30348,36808
32193,30337,36720
32052,30317,36828
31840,30329,36844
31496,30350,36880
31100,30370,36868
30672,30393,36904
30112,30392,36876
29464,30409,36852
28912,30399,36744
28500,30359,36870
28264,30364,36781
28440,30367,36900
28792,30368,36916
28789,30382,36960
28612,30399,37004
28813,30419,36814
29996,30408,36974
31632,30389,36960
33160,30369,36982
34400,30338,37012
35424,30308,36944
36260,30301,36940
36628,30304,37050
36672,30308,36980
36472,30326,36932
36104,30340,37068
35684,30351,37133
35296,30351,36964
34936,30338,37109
34508,30329,37046
34140,30316,37108
33852,30315,37140
33600,30311,37188
33436,30328,36948
33372,30343,37140
33236,30359,37173
33088,30361,37022
33009,30352,37184
32912,30348,37228
32924,30336,36999
32888,30324,37164
32892,30308,37249
32864,30317,37053
32826,30329,37212
32784,30343,37263
32686,30357,37244
32616,30361,37149
32536,30373,37268
32489,30349,37132
32437,30336,37312
32428,30312,37212
32428,30310,37333
32446,30318,37190
32484,30324,37281
32512,30343,37252
32568,30356,37393
32608,30364,37416
32568,30364,37266
32484,30348,37401
32408,30333,37460
32328,30316,37252
32304,30318,37428
32273,30318,37477
32228,30328,37456
32264,30343,37382
32304,30359,37513
32296,30353,37271
32272,30364,37432
32312,30335,37517
32388,30327,37272
32392,30316,37463
32361,30309,37532
32292,30313,37356
32204,30320,37469
32200,30343,37511
32268,30344,37511
32320,30367,37536
32368,30356,37341
32428,30345,37584
32532,30332,37543
32656,30300,37596
32700,30308,37364
32685,30296,37525
32720,30324,37605
32660,30337,37430
32564,30356,37496
32484,30349,37508
32368,30356,37575
32288,30335,37573
32352,30328,37460
32336,30312,37492
32293,30305,37456
32268,30308,37517
32225,30317,37503
32216,30340,37525
32204,30349,37448
32116,30359,37518
32100,30361,37490
32148,30351,37608
32238,30330,37629
32224,30316,37639
32165,30308,37596
32132,30300,37448
32168,30324,37535
32202,30340,37505
32228,30342,37636
32204,30352,37692
32208,30356,37638
32156,30356,37489
32032,30335,37590
31956,30319,37669
31984,30308,37648
31984,30308,37621
31984,30327,37508
32088,30332,37559
32204,30358,37543
32284,30356,37568
32288,30350,37453
32229,30344,37671
32256,30327,37468
32204,30316,37574
32180,30311,37544
32220,30308,37500
32242,30322,37699
32228,30343,37551
32260,30353,37693
32256,30361,37656
32142,30358,37496
32144,30348,37644
32176,30335,37572
32228,30316,37668
32184,30308,37660
32164,30313,37701
32248,30321,37589
32300,30341,37684
32366,30345,37728
32400,30351,37720
32444,30342,37756
32460,30336,37708
32452,30329,37600
32452,30300,37673
32540,30296,37736
32664,30304,37793
32712,30321,37748
32704,30332,37756
32624,30346,37548
32588,30351,37732
32540,30343,37543
32528,30324,37656
32544,30316,37592
32608,30308,37681
32684,30301,37621
32688,30296,37673
32712,30308,37636
32808,30316,37674
32920,30336,37564
32925,30336,37727
32932,30343,37596
32984,30321,37669
33052,30306,37624
33056,30295,37748
33100,30285,37783
33128,30284,37799
33088,30297,37776
33000,30319,37732
32920,30324,37753
32876,30329,37639
32864,30330,37696
32904,30318,37601
32968,30308,37792
33068,30289,37601
33104,30277,37754
33136,30288,37661
33268,30292,37733
33380,30316,37612
33360,30329,37828
33280,30333,37627
33224,30332,37773
33144,30325,37672
33048,30301,37811
32992,30286,37668
33048,30278,37765
33056,30286,37780
33040,30300,37836
33016,30311,37804
33028,30317,37820
33068,30324,37806
32972,30335,37856
32876,30316,37912
32816,30302,37868
32842,30287,37925
32944,30279,37862
33032,30276,37920
33168,30297,37877
33228,30308,37927
33200,30321,37884
33108,30330,37871
32976,30320,37728
32920,30309,37797
32929,30303,37684
32960,30286,37799
33060,30265,37748
33132,30281,37828
33100,30287,37767
33040,30305,37840
32936,30316,37829
32896,30324,37869
32832,30324,37744
32740,30312,37780
32712,30300,37656
32756,30282,37828
32808,30279,37732
32876,30271,37788
32974,30284,37680
33048,30310,37836
33004,30309,37686
32984,30327,37786
32884,30320,37656
32852,30308,37821
32773,30295,37725
32804,30284,37860
32876,30264,37917
32956,30268,37861
33030,30282,37844
33108,30295,37848
33048,30316,37799
32936,30321,37820
32848,30324,37732
32820,30301,37825
32856,30293,37876
32868,30274,37639
32954,30264,37748
33048,30272,37733
33068,30286,37812
33036,30299,37856
33004,30309,37613
32984,30324,37724
33024,30319,37599
32952,30308,37685
32888,30288,37644
32892,30276,37775
33012,30273,37720
33088,30265,37629
33084,30276,37740
33088,30298,37704
33076,30308,37751
33016,30311,37734
33016,30314,37584
33008,30308,37692
32960,30286,37711
32889,30276,37712
32844,30257,37756
32794,30263,37503
32764,30279,37612
32764,30293,37521
32852,30308,37605
32892,30307,37550
32789,30304,37639
32728,30300,37598
32740,30292,37668
32772,30279,37696
32840,30265,37660
32892,30256,37705
32912,30265,37636
32852,30281,37574
32808,30300,37639
32761,30308,37673
32761,30305,37455
32780,30300,37544
32848,30280,37437
32900,30265,37535
32878,30252,37550
32928,30260,37630
32868,30276,37584
32828,30288,37588
32884,30304,37552
32968,30296,37592
33000,30314,37639
32976,30296,37379
32968,30285,37528
32960,30268,37607
32916,30252,37356
32948,30257,37452
33084,30256,37408
33148,30275,37434
33160,30305,37400
33144,30305,37501
33072,30308,37489
32968,30295,37492
32876,30276,37383
32840,30261,37448
32736,30247,37364
32792,30254,37444
32904,30268,37436
32972,30281,37444
33000,30294,37452
32960,30305,37335
32872,30301,37215
32896,30284,37433
32968,30271,37204
33012,30253,37405
32972,30252,37181
32933,30244,37356
32980,30261,37362
32996,30276,37368
32956,30287,37145
32948,30298,37248
32892,30281,37180
32824,30277,37267
32704,30271,37296
32524,30256,37289
32412,30244,37324
32172,30252,37262
31837,30266,37308
31508,30288,37048
31172,30298,37171
30805,30310,37064
30212,30321,37192
29564,30317,37244
28984,30280,37190
28576,30294,37225
28376,30284,37172
28509,30289,37173
28712,30310,36968
28542,30328,37058
28365,30343,36973
28728,30337,37061
30092,30332,36964
31884,30300,36983
33512,30260,36959
34812,30247,37028
35964,30231,36952
36800,30215,37004
37116,30229,37057
37056,30245,36996
36816,30260,37008
36480,30266,36968
35992,30276,36912
35556,30263,36884
35181,30248,36909
34760,30229,36836
34412,30224,36800
34152,30231,36678
33884,30245,36892
33700,30271,36825
33565,30276,36804
33372,30284,36748
33188,30292,36638
33036,30271,36716
32900,30263,36581
32884,30244,36605
32896,30228,36501
32864,30237,36721
32844,30244,36629
32886,30260,36503
32892,30271,36548
32868,30284,36426
32840,30274,36633
32856,30270,36581
32816,30249,36481
32824,30247,36466
32876,30233,36360
32928,30229,36528
32964,30233,36524
32984,30256,36340
33016,30272,36532
33072,30281,36478
33069,30279,36388
32945,30269,36416
32848,30250,36295
32820,30229,36392
32884,30220,36308
32872,30224,36340
32900,30244,36190
32880,30245,36279
32852,30268,36156
32796,30272,36269
32740,30269,36201
32776,30265,36044
32829,30254,36228
32784,30243,36164
32756,30228,36068
32720,30233,36093
32660,30225,35942
32620,30252,36080
32624,30271,36052
32700,30277,36060
32756,30276,36006
32744,30265,35981
32704,30244,35945
32736,30237,35932
32784,30222,35732
32784,30215,35894
32804,30238,35812
32780,30244,35696
32720,30266,35740
32708,30279,35576
32721,30276,35732
32656,30265,35700
32656,30249,35665
32648,30232,35479
32629,30222,35564
32736,30225,35596
32820,30235,35584
32848,30247,35525
32884,30257,35369
32840,30264,35500
32712,30276,35365
32660,30257,35268
32632,30244,35412
32636,30236,35257
32664,30208,35365
32708,30220,35294
32728,30237,35140
32712,30245,35284
32712,30256,35208
32664,30273,35044
32636,30274,35200
32644,30261,35147
32648,30245,35145
32628,30229,34944
32629,30212,35104
32648,30220,34950
32624,30228,35032
32612,30245,34853
32612,30261,34881
32576,30273,34780
32568,30280,34852
32576,30256,34896
32512,30244,34809
32508,30232,34790
32521,30215,34665
32532,30224,34732
32572,30229,34610
32608,30252,34668
32592,30261,34564
32572,30272,34604
32584,30276,34508
32636,30263,34596
32652,30248,34534
32685,30228,34551
32684,30220,34415
32724,30226,34476
32768,30241,34517
32833,30244,34420
32928,30253,34406
32992,30256,34300
33000,30268,34439
33016,30252,34244
33064,30237,34351
33108,30228,34228
33124,30210,34288
33076,30210,34228
33092,30212,34117
33084,30237,34257
33048,30260,34208
33052,30261,34041
33082,30263,34175
33120,30253,34128
33172,30236,33972
33248,30225,34077
33332,30196,34079
33408,30212,33892
33496,30215,33985
33528,30241,33984
33520,30251,33885
33500,30257,33861
33484,30252,33768
33440,30246,33804
33384,30228,33836
33344,30215,33748
33372,30207,33776
33400,30196,33658
33396,30212,33725
33368,30225,33573
33424,30245,33732
33412,30252,33636
33380,30253,33504
33384,30250,33632
33364,30228,33524
33348,30208,33561
33337,30197,33396
33388,30203,33469
33456,30210,33370
33528,30237,33440
33600,30244,33428
33564,30253,33277
33616,30245,33348
33612,30238,33223
33592,30228,33263
33528,30209,33169
33500,30207,33305
33440,30202,33258
33388,30214,33174
33352,30215,33208
33348,30237,33073
33344,30244,33100
33302,30250,33017
33336,30241,33112
33324,30214,33004
33344,30204,33092
33360,30200,33048
33348,30181,32974
33296,30200,32996
33272,30220,32976
33300,30236,32945
33316,30238,32932
33312,30239,32756
33296,30232,32812
33268,30207,32852
33210,30206,32673
33148,30196,32799
33140,30190,32782
33160,30207,32613
33236,30221,32657
33280,30237,32574
33268,30244,32658
33204,30241,32653
33149,30221,32517
33112,30214,32528
33156,30201,32448
33188,30188,32564
33224,30186,32532
33240,30196,32382
33212,30215,32516
33164,30235,32421
33096,30232,32468
33004,30236,32437
32972,30224,32436
33056,30205,32425
33124,30194,32368
33148,30180,32287
33112,30186,32279
33104,30194,32185
33116,30208,32304
33092,30229,32268
33056,30232,32100
33056,30229,32182
33088,30224,32109
33080,30213,32196
33117,30191,32088
33140,30182,32132
33140,30180,32093
33168,30196,31964
33172,30215,32072
33156,30226,32072
33140,30229,32015
33168,30240,32021
33120,30215,32007
33120,30205,31982
33128,30191,31964
33144,30183,31836
33158,30177,31924
33188,30190,31896
33228,30209,31876
33224,30222,31716
33228,30236,31783
33185,30237,31652
33148,30215,31773
33132,30200,31764
33184,30197,31644
33164,30191,31705
33192,30188,31698
33204,30189,31648
33192,30206,31566
33156,30231,31604
33096,30215,31486
33052,30232,31553
33012,30215,31477
32988,30207,31556
32997,30189,31429
33052,30177,31446
33148,30176,31356
33164,30199,31404
33104,30203,31326
33096,30215,31388
32996,30215,31280
32956,30224,31332
32940,30215,31337
32900,30199,31348
32864,30186,31322
32864,30173,31159
32894,30174,31284
33020,30184,31247
33028,30205,31100
33036,30215,31207
33057,30223,31173
33060,30220,31188
33064,30215,31132
33096,30197,31141
33064,30182,30993
33056,30182,31068
33092,30175,30944
33136,30176,31068
33140,30210,30914
33144,30214,31032
33088,30215,30896
33032,30215,30968
33032,30214,30885
33048,30204,30917
33076,30180,30853
33120,30175,30936
33136,30177,30836
33212,30191,30896
33248,30209,30799
33324,30212,30857
33328,30225,30721
33320,30228,30770
33288,30215,30692
33216,30209,30789
33156,30184,30778
33092,30175,30644
33028,30172,30709
33048,30191,30613
33064,30196,30714
33084,30206,30700
33124,30220,30528
33140,30215,30654
33192,30206,30628
33156,30192,30623
33072,30181,30504
33040,30173,30561
33056,30164,30447
33092,30180,30532
33088,30192,30493
33084,30209,30449
33108,30213,30500
33068,30212,30477
33016,30208,30425
32884,30199,30447
32805,30176,30356
32740,30164,30404
32681,30173,30356
32581,30180,30395
32368,30191,30368
32076,30215,30288
31696,30232,30300
31228,30236,30233
30608,30233,30268
29936,30228,30161
29380,30212,30284
29020,30207,30265
28732,30204,30201
28769,30228,30214
28960,30247,30109
28933,30236,30177
28776,30260,30073
28974,30271,30172
30084,30239,30152
31769,30212,30087
33524,30188,30132
34920,30159,30060
35972,30153,30116
36836,30148,29991
37224,30171,30076
37324,30177,29972
37184,30189,30062
36860,30186,30054
36400,30183,29977
35900,30166,30016
35528,30156,29942
35140,30144,30029
34760,30159,29996
34448,30163,29932
34164,30182,29904
33948,30188,29959
33780,30209,29831
33636,30206,29916
33516,30200,29848
33404,30180,29856
33304,30165,29812
33196,30165,29860
33160,30152,29748
33116,30159,29804
33056,30188,29716
32980,30193,29784
32924,30198,29670
32960,30204,29785
32960,30190,29720
32968,30180,29781
32932,30164,29772
32926,30151,29669
32928,30154,29724
32940,30163,29644
32956,30178,29703
32944,30190,29654
32936,30193,29703
32952,30196,29717
32949,30187,29616
32972,30172,29652
32972,30156,29549
32948,30152,29642
32944,30148,29584
32944,30156,29624
32904,30175,29508
32800,30190,29581
32716,30188,29478
32708,30209,29566
32724,30188,29473
32760,30177,29549
32780,30158,29428
32820,30149,29509
32852,30144,29468
32804,30154,29517
32808,30172,29512
32756,30181,29386
32720,30193,29479
32672,30200,29405
32665,30188,29496
32672,30181,29453
32624,30161,29325
32592,30149,29453
32596,30150,29452
32652,30167,29319
32724,30169,29412
32756,30196,29349
32768,30192,29403
32718,30192,29289
32648,30193,29391
32660,30174,29304
32656,30156,29380
32680,30147,29268
32708,30143,29384
32764,30160,29380
32756,30172,29241
32688,30188,29356
32608,30200,29308
32544,30204,29340
32480,30196,29325
32452,30176,29204
32440,30159,29308
32477,30142,29280
32464,30148,29248
32448,30159,29268
32368,30172,29253
32356,30184,29170
32388,30196,29253
32396,30193,29236
32388,30186,29114
32352,30170,29191
32356,30160,29180
32340,30150,29134
32353,30157,29160
32344,30165,29060
32280,30168,29134
32240,30188,29044
32236,30202,29149
32242,30207,29146
32224,30189,29076
32205,30181,29125
32224,30168,29100
32257,30145,28986
32276,30146,29100
32312,30164,29098
32285,30175,29028
32240,30190,29061
32248,30204,29004
32292,30198,29056
32312,30191,29044
32324,30160,29020
32320,30161,28904
32309,30136,28997
32288,30144,28927
32304,30150,28997
32372,30169,28908
32420,30185,29006
32492,30196,29012
32524,30191,28932
32540,30180,28983
32552,30165,28974
32564,30158,28881
32592,30140,28964
32660,30144,28872
32744,30148,28958
32792,30165,28848
32862,30176,28929
32852,30185,28844
32840,30188,28908
32920,30182,28841
33028,30166,28901
33068,30150,28807
33128,30128,28917
33184,30137,28838
33168,30144,28922
33196,30164,28892
33260,30164,28804
33268,30180,28893
33296,30185,28833
33240,30180,28875
33220,30164,28887
33220,30148,28852
33288,30135,28745
33324,30132,28836
33328,30138,28752
33324,30151,28846
33308,30172,28794
33292,30183,28836
33328,30180,28836
33340,30173,28767
33384,30150,28791
33372,30140,28696
33376,30122,28784
33372,30125,28724
33456,30134,28804
33509,30140,28789
33512,30162,28685
33504,30172,28765
33500,30172,28746
33456,30169,28757
33416,30153,28768
33440,30137,28666
33484,30122,28742
33496,30120,28677
33509,30128,28759
33572,30149,28740
33518,30164,28754
33432,30169,28736
33396,30164,28735
33272,30169,28655
33264,30148,28729
33241,30140,28734
33260,30130,28604
33320,30117,28702
33444,30135,28628
33480,30140,28704
33428,30161,28651
33333,30168,28692
33204,30171,28617
33112,30164,28693
33056,30151,28692
33080,30133,28708
33120,30118,28678
33160,30120,28582
33160,30130,28679
33132,30137,28656
33132,30152,28697
33144,30157,28697
33101,30162,28628
33068,30156,28679
33061,30151,28686
33060,30124,28686
33088,30124,28629
33097,30108,28676
33100,30119,28597
33108,30139,28649
33080,30161,28612
33104,30169,28644
33120,30171,28606
33104,30149,28645
33092,30140,28586
33108,30124,28652
33124,30116,28644
33112,30116,28618
33136,30121,28664
33113,30133,28662
33060,30155,28575
33068,30160,28684
33064,30160,28673
33072,30152,28606
33096,30134,28652
33104,30124,28556
33137,30119,28637
33136,30112,28590
33152,30122,28648
33204,30140,28648
33236,30155,28643
33184,30164,28586
33160,30164,28644
33153,30154,28632
33136,30135,28601
33164,30129,28604
33176,30121,28524
33220,30104,28600
33260,30123,28616
33249,30137,28580
33192,30144,28609
33140,30156,28516
33100,30162,28584
33116,30150,28501
33108,30128,28580
33156,30116,28527
33152,30113,28556
33184,30113,28460
33196,30108,28546
33192,30132,28480
33184,30151,28524
33168,30156,28513
33148,30153,28508
33100,30143,28533
33112,30135,28480
33104,30121,28522
33121,30100,28425
33124,30101,28513
33144,30116,28471
33140,30125,28512
33108,30129,28416
33060,30156,28516
33044,30152,28469
33000,30134,28511
32992,30127,28460
32992,30114,28420
33048,30096,28472
33064,30103,28500
33008,30105,28436
32964,30127,28468
32976,30140,28391
33056,30148,28496
33068,30136,28482
33012,30132,28389
32976,30127,28460
32928,30116,28384
32884,30094,28480
32900,30098,28423
32928,30109,28454
32960,30121,28413
32976,30139,28444
32952,30141,28392
32992,30148,28452
33024,30136,28348
33064,30119,28423
33108,30113,28332
33080,30100,28419
33076,30095,28338
33084,30105,28408
33085,30121,28352
33096,30134,28397
33113,30140,28342
33092,30144,28388
33032,30141,28340
33008,30120,28389
33008,30106,28365
32976,30092,28404
33004,30101,28364
33044,30100,28372
33064,30119,28295
33068,30128,28371
33080,30146,28289
33076,30137,28352
33000,30137,28295
32984,30122,28359
32956,30105,28265
32980,30093,28351
32960,30093,28337
32928,30100,28352
32984,30117,28295
33082,30128,28328
33104,30140,28231
33100,30141,28308
33084,30132,28260
33028,30122,28316
32996,30097,28332
33036,30092,28300
32980,30092,28310
32916,30101,28292
32884,30121,28248
32852,30126,28278
32800,30141,28205
32729,30136,28301
32656,30143,28292
32536,30121,28180
32441,30108,28276
32232,30100,28191
31952,30104,28270
31621,30111,28278
31140,30129,28252
30532,30147,28213
29864,30172,28258
29316,30170,28220
28941,30174,28244
28692,30140,28256
28720,30143,28207
28864,30141,28233
28868,30144,28152
28960,30152,28243
29396,30164,28208
30700,30164,28200
32372,30146,28249
33964,30146,28221
35220,30128,28183
36232,30102,28228
36892,30076,28148
37164,30061,28221
37260,30066,28162
37120,30068,28217
36776,30084,28140
36268,30103,28214
35716,30121,28140
35248,30120,28221
34836,30111,28166
34368,30100,28220
34048,30094,28180
33792,30086,28212
33592,30086,28233
33460,30089,28118
33336,30112,28197
33192,30125,28108
33088,30135,28177
33016,30140,28114
32936,30124,28172
32912,30101,28105
32950,30100,28176
32984,30087,28118
32924,30081,28197
32956,30094,28180
32964,30097,28124
32873,30111,28178
32888,30129,28140
32864,30135,28164
32720,30116,28212
32720,30108,28180
32736,30097,28196
32764,30084,28119
32756,30074,28226
32728,30087,28229
32744,30104,28132
32768,30123,28225
32768,30135,28218
32737,30132,28245
32704,30127,28229
32680,30108,28254
32688,30087,28238
32644,30076,28182
32636,30077,28234
32688,30090,28153
32732,30096,28221
32696,30117,28148
32672,30125,28244
32648,30124,28190
32604,30109,28246
32592,30105,28211
32568,30086,28254
32504,30079,28200
32586,30076,28253
32664,30087,28188
32736,30087,28262
32740,30111,28205
32664,30129,28260
32548,30129,28204
32460,30120,28257
32426,30100,28273
32424,30089,28286
32448,30077,28204
32516,30077,28262
32576,30085,28184
32608,30100,28272
32596,30116,28196
32552,30120,28284
32488,30121,28236
32392,30124,28325
32364,30105,28306
32312,30087,28270
32352,30070,28313
32380,30076,28248
32361,30084,28344
32409,30101,28340
32372,30113,28252
32364,30126,28337
32328,30127,28306
32305,30116,28333
32284,30108,28290
32241,30095,28350
32248,30087,28284
32204,30083,28350
32196,30084,28356
32176,30105,28264
32176,30121,28336
32148,30135,28268
32092,30132,28348
32108,30127,28357
32134,30108,28316
32132,30090,28358
32092,30086,28263
32076,30081,28353
32064,30092,28337
32124,30086,28377
32126,30116,28324
32097,30134,28376
32072,30142,28334
32128,30129,28373
32152,30110,28277
32128,30089,28362
32160,30087,28294
32164,30087,28396
32196,30095,28401
32208,30108,28346
32233,30121,28399
32224,30130,28305
32244,30136,28399
32252,30125,28340
32308,30110,28429
32408,30093,28436
32430,30081,28428
32460,30081,28447
32440,30071,28405
32440,30085,28423
32434,30113,28368
32460,30126,28450
32508,30120,28456
32544,30111,28352
32576,30096,28452
32604,30086,28417
32696,30076,28429
32748,30080,28473
32832,30078,28393
32904,30087,28496
32936,30109,28460
32976,30118,28513
32976,30125,28516
32924,30119,28528
32928,30100,28476
33028,30084,28540
33132,30064,28541
33152,30052,28505
33128,30073,28548
33136,30087,28564
33172,30111,28548
33192,30124,28483
33200,30116,28588
33202,30108,28578
33285,30095,28477
33280,30080,28598
33280,30066,28605
33220,30068,28572
33236,30073,28613
33296,30087,28537
33332,30107,28612
33336,30109,28636
33308,30116,28561
33288,30109,28630
33288,30089,28609
33288,30077,28612
33268,30063,28676
33264,30064,28650
33264,30069,28606
33276,30087,28708
33244,30098,28660
33216,30113,28725
33228,30112,28705
33264,30098,28743
33308,30088,28686
33268,30073,28757
33280,30061,28657
33261,30061,28768
33216,30068,28740
33200,30084,28789
33144,30096,28748
33168,30109,28806
33168,30117,28807
33136,30092,28831
33140,30084,28752
33092,30068,28812
33076,30057,28724
33068,30046,28836
33040,30068,28740
33048,30076,28854
33044,30088,28772
33028,30103,28896
32996,30102,28904
32954,30099,28861
32964,30082,28900
32948,30060,28816
32944,30052,28913
32949,30056,28831
32988,30064,28932
32936,30070,28905
32896,30092,28975
32824,30104,28909
32796,30108,28984
32836,30095,28873
32908,30085,28976
32932,30063,28932
32918,30061,29025
32860,30055,29028
32900,30067,28984
32928,30069,29014
32948,30085,29028
32940,30099,29020
32908,30104,29085
32836,30096,28996
32804,30081,29097
32800,30068,29062
32808,30053,29151
32844,30053,29127
32888,30052,29158
32880,30073,29094
32832,30087,29188
32800,30104,29150
32832,30103,29116
32836,30096,29205
32816,30087,29153
32764,30066,29266
32768,30063,29234
32784,30057,29208
32804,30058,29239
32868,30070,29278
32936,30081,29255
32926,30096,29248
32912,30108,29324
32892,30095,29357
32892,30072,29269
32872,30068,29364
32852,30044,29339
32886,30055,29415
32912,30057,29409
32964,30074,29300
32956,30086,29447
32920,30096,29454
32864,30111,29411
32832,30095,29482
32800,30083,29499
32800,30068,29453
32768,30046,29524
32712,30050,29463
32732,30063,29513
32752,30076,29562
32757,30086,29480
32742,30093,29556
32712,30100,29554
32676,30093,29551
32640,30078,29612
32612,30075,29500
32616,30055,29640
32648,30048,29640
32662,30058,29676
32648,30076,29678
32684,30087,29700
32704,30100,29649
32720,30102,29692
32688,30095,29628
32696,30078,29764
32684,30056,29743
32672,30055,29660
32648,30048,29800
32672,30061,29760
32712,30068,29713
32728,30085,29845
32776,30093,29817
32825,30093,29775
32808,30093,29868
32796,30079,29852
32732,30063,29919
32712,30053,29937
32625,30044,29959
32580,30052,29949
32600,30074,29894
32548,30088,29952
32516,30092,29940
32480,30100,30047
32432,30097,30056
32452,30080,30053
32484,30065,30036
32464,30053,30088
32432,30045,30093
32442,30061,30142
32464,30066,30171
32444,30084,30108
32469,30095,30169
32436,30098,30092
32392,30092,30223
32340,30082,30158
32352,30060,30258
32356,30046,30268
32348,30044,30253
32396,30054,30299
32492,30070,30340
32548,30085,30297
32628,30095,30365
32620,30092,30344
32604,30089,30421
32616,30078,30417
32572,30061,30428
32564,30046,30508
32608,30044,30404
32644,30061,30572
32644,30068,30596
32684,30087,30628
32708,30088,30650
32736,30097,30672
32680,30086,30701
32633,30080,30573
32624,30063,30722
32592,30053,30622
32596,30044,30743
32624,30052,30661
32616,30069,30776
32604,30074,30701
32576,30092,30865
32484,30089,30903
32456,30089,30825
32444,30076,30933
32448,30057,30968
32464,30048,30972
32532,30045,30897
32560,30055,30967
32592,30057,30902
32608,30084,31053
32602,30094,31020
32600,30092,31120
32588,30070,31117
32604,30077,31054
32600,30050,31141
32556,30043,31095
32504,30029,31156
32416,30057,31205
32301,30065,31184
32112,30082,31269
31902,30103,31189
31612,30087,31332
31268,30095,31373
30848,30087,31284
30304,30074,31361
29729,30056,31310
29188,30076,31405
28797,30084,31350
28565,30087,31500
28552,30124,31537
28664,30134,31447
28684,30141,31544
28693,30133,31550
28808,30093,31640
29644,30092,31664
31160,30065,31569
32844,30052,31697
34272,30052,31652
35392,30044,31774
36232,30061,31756
36612,30065,31820
36624,30066,31872
36472,30058,31768
36216,30052,31868
35780,30036,31826
35308,30033,31940
34856,30020,31972
34500,30032,32006
34164,30047,32028
33800,30064,32048
33536,30087,32076
33304,30092,31981
33080,30081,32041
32885,30061,31988
32764,30059,32053
32680,30045,32128
32608,30039,32065
32584,30041,32215
32628,30053,32206
32604,30076,32258
32596,30078,32161
32560,30087,32192
32508,30084,32258
32468,30064,32215
32504,30038,32336
32544,30039,32405
32552,30041,32296
32566,30041,32421
32540,30061,32468
32576,30068,32366
32580,30085,32476
32568,30087,32484
32552,30069,32576
32484,30060,32592
32420,30047,32477
32432,30028,32634
32444,30031,32592
32448,30036,32574
32468,30048,32720
32436,30066,32653
32396,30087,32640
32385,30087,32772
32384,30078,32792
32332,30063,32676
32344,30048,32834
32324,30039,32832
32328,30039,32886
32360,30033,32786
32372,30052,32861
32388,30068,32958
32428,30079,32825
32416,30086,32976
32384,30079,32975
32348,30067,32941
32296,30047,32916
32280,30037,33072
32292,30032,33064
32256,30041,33076
32276,30052,33013
32288,30068,33100
32296,30085,33156
32264,30077,33084
32220,30079,33177
32200,30071,33268
32214,30049,33136
32228,30038,33234
32254,30037,33252
32254,30040,33348
32194,30052,33388
32176,30068,33239
32156,30078,33407
32142,30086,33440
32108,30081,33292
32072,30071,33456
32048,30051,33445
32072,30041,33328
32128,30043,33473
32164,30040,33501
32173,30055,33553
32200,30068,33496
32132,30086,33413
32088,30086,33509
32076,30078,33444
32064,30060,33511
32056,30052,33513
32012,30043,33629
31912,30029,33601
31880,30047,33661
31904,30057,33516
31916,30068,33653
31896,30086,33696
31940,30092,33542
31936,30074,33700
31866,30071,33713
31836,30045,33580
31836,30040,33743
31840,30038,33716
31916,30029,33637
32000,30056,33693
32045,30071,33775
32028,30087,33807
31968,30084,33845
31945,30087,33680
31916,30071,33820
31944,30058,33804
31964,30045,33740
32012,30041,33852
32064,30045,33756
32100,30053,33826
32076,30068,33772
32080,30087,33844
32076,30088,33798
32084,30087,33892
32165,30072,33828
32224,30055,33973
32240,30041,33988
32244,30039,33853
32308,30044,34030
32332,30052,33960
32369,30063,33942
32352,30082,33914
32352,30087,33989
32372,30078,34061
32420,30070,34102
32481,30054,34034
32548,30032,34055
32604,30032,34135
32696,30039,34156
32736,30054,34156
32760,30068,34170
32808,30074,34017
32884,30084,34176
32920,30077,34177
32912,30053,34064
32956,30043,34120
32972,30028,34079
33008,30021,34196
33076,30033,34188
33136,30041,34264
33160,30060,34239
33180,30079,34120
33172,30086,34272
33124,30069,34309
33048,30054,34161
32996,30040,34253
32992,30028,34348
33014,30025,34196
33028,30028,34324
33080,30046,34373
33173,30063,34237
33160,30079,34364
33116,30076,34436
33108,30068,34425
33025,30052,34452
33044,30033,34296
33056,30025,34441
33080,30023,34462
33072,30030,34480
33048,30041,34489
33049,30056,34356
33008,30071,34508
32992,30065,34556
33012,30065,34384
33056,30054,34532
33021,30036,34414
33013,30023,34488
33056,30020,34433
33016,30029,34532
33024,30043,34604
33032,30060,34628
33056,30073,34612
33021,30076,34493
32932,30069,34600
32848,30052,34533
32788,30032,34665
32800,30021,34724
32872,30026,34549
32932,30022,34677
32873,30041,34740
32824,30057,34584
32808,30071,34694
32800,30066,34644
32781,30063,34773
32788,30047,34743
32768,30037,34676
32773,30020,34665
32816,30016,34796
32872,30016,34753
32848,30044,34679
32836,30051,34793
32858,30056,34792
32820,30068,34708
32792,30064,34784
32746,30052,34839
32740,30037,34916
32728,30030,34823
32744,30008,34789
32796,30023,34940
32792,30036,34976
32824,30053,34801
32838,30064,34941
32853,30073,34848
32856,30061,34916
32848,30053,34854
32804,30034,35007
32824,30020,34868
32856,30023,34948
32916,30027,34888
32888,30032,34967
32852,30048,35028
32880,30062,35073
32880,30065,35108
32840,30060,34916
32856,30045,35108
32908,30028,35079
32876,30023,35121
32848,30016,35033
32792,30012,35068
32756,30033,35140
32768,30052,35140
32792,30070,35009
32780,30073,35112
32812,30056,35124
32824,30055,35183
32808,30016,35111
32756,30012,35150
32768,30016,35048
32822,30014,35125
32876,30036,35236
32884,30048,35077
32852,30063,35228
32836,30061,35160
32820,30056,35069
32832,30048,35148
32837,30032,35212
32860,30016,35266
32884,30012,35184
32904,30017,35220
32892,30037,35276
32864,30052,35322
32856,30060,35124
32860,30059,35246
32884,30061,35301
32884,30040,35149
32908,30024,35240
32928,30014,35204
32932,30015,35309
32928,30019,35194
32928,30028,35300
32960,30044,35190
32952,30052,35352
32896,30056,35348
32812,30061,35212
32768,30044,35357
32720,30024,35292
32686,30020,35274
32628,30012,35368
32634,30017,35334
32620,30036,35396
32624,30045,35342
32684,30060,35289
32644,30070,35409
32620,30052,35316
32609,30048,35425
32624,30029,35252
32666,30017,35335
32712,30012,35392
32736,30020,35268
32800,30031,35408
32816,30044,35478
32832,30060,35454
32876,30060,35468
32864,30053,35288
32832,30045,35429
32860,30031,35477
32849,30000,35478
32836,30018,35402
32888,30018,35308
32920,30021,35517
32880,30045,35500
32860,30059,35500
32820,30063,35493
32796,30070,35380
32812,30044,35468
32844,30029,35464
32876,30017,35517
32864,30013,35482
32900,30020,35516
32910,30030,35545
32926,30044,35541
32920,30067,35532
32908,30068,35392
32856,30048,35550
32880,30046,35384
32886,30031,35478
32908,30020,35498
32869,30017,35581
32848,30017,35609
32804,30028,35410
32768,30050,35566
32732,30060,35436
32692,30061,35528
32736,30060,35508
32770,30037,35613
32760,30028,35652
32756,30017,35446
32760,30004,35670
32764,30012,35632
32768,30020,35669
32744,30047,35480
32612,30049,35605
32473,30061,35581
32388,30060,35588
32292,30036,35526
32140,30030,35591
31848,30020,35524
31488,30017,35708
31104,30029,35684
30565,30039,35568
29964,30068,35680
29460,30087,35549
29076,30085,35729
28788,30087,35608
28796,30083,35556
29076,30065,35729
29141,30052,35708
29052,30056,35676
29172,30058,35680
29892,30063,35572
31345,30064,35728
32892,30060,35708
34220,30063,35559
35264,30050,35684
36104,30027,35546
36528,30000,35756
36576,29981,35731
36440,29983,35757
36248,29991,35541
35904,30001,35669
35520,30027,35548
35164,30036,35661
34772,30044,35556
34348,30036,35616
33992,30028,35540
33718,30024,35732
33508,30008,35676
33368,30000,35525
33256,30012,35684
33176,30024,35692
33092,30032,35724
33028,30040,35668
32936,30044,35524
32824,30045,35581
32772,30032,35489
32712,30012,35686
32708,29999,35655
32704,30007,35668
32685,30013,35639
32732,30023,35639
32772,30032,35488
32816,30037,35561
32820,30053,35485
32804,30041,35620
32744,30028,35568
32700,30023,35628
32673,30001,35679
32652,29997,35632
32686,30001,35620
32708,30020,35452
32752,30030,35604
32732,30044,35621
32676,30052,35640
32644,30044,35604
32628,30036,35629
32600,30017,35584
32600,30004,35544
32576,30005,35388
32576,30013,35448
32526,30022,35503
32540,30036,35369
32520,30048,35439
32510,30037,35500
32492,30054,35424
32448,30032,35326
32448,30014,35458
32474,30004,35512
32520,29993,35305
32553,30000,35369
32576,30012,35373
32592,30032,35453
32576,30044,35460
32584,30046,35273
32544,30048,35416
32540,30028,35420
32548,30016,35225
32576,30007,35281
32588,29996,35217
32628,30006,35348
32621,30010,35373
32592,30035,35196
32580,30044,35328
32512,30053,35228
32516,30043,35156
32465,30023,35279
32520,30013,35286
32590,29997,35109
32632,29998,35207
32592,30000,35089
32536,30013,35156
32436,30028,35255
32376,30052,35028
32348,30049,35103
32300,30052,35013
32316,30028,35063
32360,30013,34975
32396,29997,35036
32428,29998,34951
32404,30001,35044
32496,30010,34960
32510,30030,35039
32492,30040,35013
32485,30053,34864
32444,30045,34972
32356,30030,34852
32296,30016,34924
32316,29998,34965
32296,29996,34929
32260,30005,34927
32236,30018,34721
32236,30029,34772
32272,30047,34712
32280,30047,34808
32288,30045,34708
32280,30028,34758
32272,30004,34808
32264,29993,34768
32308,29992,34772
32364,30007,34596
32426,30004,34703
32540,30030,34668
32648,30029,34516
32669,30049,34577
32684,30044,34512
32736,30028,34532
32788,30012,34439
32760,30004,34592
32736,29984,34432
32720,30000,34477
32712,30010,34384
32733,30020,34504
32748,30041,34486
32720,30047,34484
32692,30041,34455
32668,30028,34280
32684,30008,34388
32792,29981,34383
32948,29988,34248
33004,29996,34311
32980,30015,34226
33024,30014,34310
33088,30026,34268
33140,30039,34310
33120,30029,34204
33148,30022,34292
33212,30004,34238
33248,29996,34244
33320,29991,34082
33380,29996,34232
33392,30009,34120
33364,30016,34048
33268,30030,34152
33204,30042,34172
33212,30044,33996
33292,30023,34135
33328,30005,34028
33360,29992,34093
33364,29983,33920
33444,29989,33975
33452,30004,34044
33428,30020,33881
33460,30029,33969
33520,30032,34008
33520,30030,33821
33500,30012,33872
33416,29997,33798
33348,29986,33873
33389,29976,33796
33408,29988,33861
33388,29988,33820
33340,30013,33714
33388,30028,33776
33396,30031,33764
33342,30030,33799
33320,30004,33717
33364,30000,33793
33352,29990,33748
33384,29985,33617
33372,29989,33684
33308,30001,33584
33248,30008,33717
33204,30032,33727
33164,30036,33543
33176,30037,33674
33232,30020,33685
33248,29997,33541
33280,29992,33573
33260,29983,33477
33292,29985,33614
33312,29997,33589
33320,30013,33588
33292,30029,33568
33268,30033,33561
33192,30032,33504
33204,30014,33388
33204,30000,33424
33224,29996,33353
33184,29992,33476
33160,29997,33467
33192,29999,33448
33244,30023,33286
33264,30030,33344
33268,30037,33327
33189,30043,33364
33128,30022,33208
33044,29996,33340
32992,29976,33351
33068,29982,33336
33148,29989,33312
33180,30001,33287
33232,30004,33287
33268,30028,33269
33244,30039,33213
33180,30039,33092
33128,30018,33178
33120,29993,33031
33096,29983,33116
33112,29980,33148
33124,29988,33144
33132,29988,33153
33156,30016,33120
33172,30020,33041
33180,30032,33057
33128,30026,32996
33148,30010,33052
33184,30000,33016
33253,29988,33020
33308,29969,32864
33392,29989,32956
33448,29992,32814
33396,30008,32873
33276,30034,32788
33196,30036,32884
33116,30021,32900
33068,30015,32809
33124,30001,32865
33216,29989,32717
33240,29981,32816
33228,29984,32797
33216,30000,32785
33232,30009,32630
33256,30028,32680
33186,30029,32736
33120,30022,32734
33145,30004,32708
33121,29992,32696
33084,29985,32548
33112,29983,32647
33144,29980,32500
33141,29984,32540
33164,30018,32446
33164,30022,32533
33148,30025,32455
33096,30022,32536
33101,30010,32527
33129,29992,32508
33152,29988,32487
33176,29973,32476
33188,29986,32448
33204,30001,32446
33236,30012,32432
33164,30017,32284
33120,30023,32321
33112,30020,32233
33100,30008,32350
33116,29988,32279
33096,29981,32325
33093,29968,32277
33136,29975,32252
33104,29988,32128
33101,29997,32191
33128,30018,32129
33128,30022,32213
33116,30020,32177
33092,30010,32077
33124,29984,32165
33084,29977,32156
33136,29977,32144
33216,29988,32121
33176,29985,32078
33080,30004,32084
32944,30021,32068
32844,30025,31944
32824,30018,31993
32768,30017,31861
32753,29996,31965
32792,29984,31948
32832,29972,31956
32908,29968,31932
32876,29988,31826
32892,30004,31897
32955,30020,31788
32944,30017,31864
32892,30020,31708
32920,30007,31748
32969,29985,31708
32984,29973,31788
32976,29969,31725
33004,29976,31623
33116,29988,31700
33210,30008,31684
33216,30028,31685
33221,30033,31666
33168,30018,31556
33176,30029,31636
33212,29992,31476
33244,29973,31574
33228,29969,31573
33216,29985,31557
33212,29996,31541
33148,30012,31479
33096,30015,31503
32980,30020,31360
32920,30020,31429
32924,30006,31344
32936,29980,31405
32944,29972,31300
33008,29971,31396
33084,29977,31356
33060,29993,31245
33100,30007,31290
33148,30017,31189
33104,30016,31268
33036,30018,31180
32956,30000,31295
32920,29990,31273
32889,29961,31256
32872,29961,31230
32908,29976,31136
32896,29985,31206
32908,29996,31198
32876,30017,31140
32788,30020,31148
32664,30020,31040
32552,30007,31118
32440,29990,31120
32268,29973,30980
32068,29982,31028
31720,29986,30944
31304,29996,31015
30808,30018,30885
30120,30044,30990
29488,30060,30860
29000,30049,30980
28790,30048,30960
28809,30031,30972
28984,30023,30893
29044,30010,30937
29052,30026,30932
29232,30012,30913
30092,30044,30901
31508,30041,30881
33152,30032,30820
34504,30016,30836
35588,29995,30824
36456,29964,30708
36956,29946,30752
37052,29940,30645
37040,29940,30751
36776,29959,30752
36296,29980,30628
35756,29994,30696
35356,29996,30711
35000,30006,30532
34568,29993,30628
34228,29984,30532
33968,29965,30609
33696,29959,30501
33492,29969,30558
33380,29980,30448
33292,29998,30554
33196,30000,30558
33128,30006,30393
32992,30004,30452
32880,29993,30468
32901,29972,30469
32936,29959,30386
32908,29959,30439
32888,29964,30415
32908,29975,30360
32936,29990,30428
32912,30004,30372
32884,30013,30278
32864,30003,30376
32864,29996,30335
32804,29974,30308
32762,29967,30364
32812,29959,30298
32864,29957,30222
32952,29972,30344
32988,29984,30320
33046,30007,30186
33028,30005,30320
32984,30002,30263
32900,29992,30212
32868,29974,30180
32860,29956,30244
32864,29949,30244
32844,29959,30096
32824,29972,30224
32780,29988,30180
32804,30000,30120
32716,30017,30096
32672,30004,30132
32644,29996,30072
32661,29977,30073
32704,29959,30085
32704,29954,29984
32696,29958,30116
32656,29976,30076
32608,29991,30083
32632,30004,30048
32664,30006,30001
32632,30009,30012
32700,29995,29926
32788,29967,30060
32816,29959,30025
32776,29959,29893
32704,29959,30016
32644,29976,29965
32648,29993,29945
32620,30009,29972
32556,30008,29948
32532,30009,29926
32512,29997,29961
32544,29973,29982
32588,29972,29892
32620,29956,29951
32628,29964,29892
32672,29972,29972
32644,29998,29964
32558,29996,29839
32544,30016,29913
32528,30004,29847
32504,29998,29935
32464,29980,29919
32408,29956,29925
32440,29957,29887
32504,29967,29792
32524,29976,29848
32468,29995,29765
32404,30004,29861
32384,30009,29836
32356,30008,29756
32320,29997,29788
32276,29981,29668
32272,29970,29784
32276,29966,29703
32308,29972,29777
32228,29991,29677
32281,30001,29724
32276,30011,29660
32224,30020,29736
32188,30016,29739
32192,30013,29720
32192,29991,29566
32308,29970,29652
32316,29964,29620
32356,29965,29684
32380,29975,29678
32412,29994,29665
32480,30012,29543
32548,30012,29621
32524,30009,29545
32480,29998,29632
32472,29985,29596
32480,29966,29521
32468,29964,29578
32420,29965,29486
32468,29977,29582
32500,29993,29501
32568,30009,29579
32712,30012,29501
32780,30004,29581
32788,29999,29564
32800,29979,29432
32812,29968,29568
32808,29952,29520
32832,29959,29453
32900,29964,29553
32936,29996,29500
33036,30002,29404
33112,30008,29522
33120,30006,29511
33152,30001,29428
33192,29976,29476
33200,29966,29408
33144,29950,29501
33157,29959,29458
33164,29972,29360
33188,29999,29469
33220,30009,29409
33257,29998,29464
33260,30008,29454
33252,29989,29319
33300,29972,29444
33345,29956,29405
33372,29956,29437
33396,29954,29348
33384,29968,29368
33404,29991,29420
33376,30004,29423
33320,30002,29374
33332,30002,29432
33292,29978,29318
33280,29973,29410
33280,29959,29414
33280,29952,29324
33316,29940,29329
33260,29969,29420
33232,29991,29394
33296,29998,29383
33300,29997,29436
33293,29992,29396
33278,29988,29303
33252,29969,29417
33232,29959,29425
33192,29945,29298
33204,29957,29398
33228,29973,29404
33232,29987,29352
33253,29990,29413
33204,30001,29436
33152,29999,29302
33128,29985,29412
33108,29967,29436
33081,29947,29295
33084,29944,29428
33064,29949,29408
33028,29959,29340
33041,29973,29309
33092,29997,29442
33028,29999,29399
33000,29992,29400
32994,29983,29348
32957,29964,29428
32964,29948,29447
32956,29946,29328
32968,29946,29423
32980,29959,29440
32968,29967,29326
33018,29984,29413
33044,29999,29397
33020,29984,29364
33012,29981,29340
32953,29964,29428
32911,29948,29388
32916,29941,29313
33016,29948,29349
33084,29958,29402
33084,29980,29397
33068,29988,29302
33000,29989,29428
33033,29997,29421
33008,29981,29354
33016,29970,29393
33020,29949,29333
32992,29950,29420
33036,29944,29388
33047,29959,29441
33044,29983,29436
33000,29991,29436
32988,29996,29427
33032,29993,29322
33092,29980,29411
33108,29964,29334
33160,29957,29429
33164,29957,29396
33152,29949,29319
33112,29959,29393
33024,29983,29325
32964,29988,29408
33000,29998,29364
33076,29996,29430
33080,29982,29439
33080,29967,29439
33088,29955,29433
33058,29942,29436
33040,29951,29425
33008,29959,29351
33012,29983,29393
33012,29989,29357
33064,29989,29342
33048,29988,29421
33044,29968,29430
33004,29965,29349
33028,29948,29412
33026,29940,29294
33024,29943,29415
33072,29959,29423
33072,29977,29308
33084,29990,29391
33020,29993,29332
32992,29991,29412
33012,29981,29396
32944,29968,29345
32944,29948,29376
32961,29949,29276
32976,29942,29410
33028,29957,29380
33068,29972,29296
33088,29988,29318
33044,29996,29359
32944,29984,29304
32948,29982,29398
32948,29959,29388
32958,29949,29282
32996,29941,29396
33016,29940,29373
33000,29957,29287
33017,29967,29401
32992,29990,29401
32932,29997,29292
32864,29991,29385
32792,29972,29394
32752,29972,29348
32728,29956,29372
32764,29947,29277
32764,29944,29377
32816,29957,29364
32812,29973,29340
32748,29988,29380
32684,30001,29380
32688,29985,29370
32716,29983,29385
32716,29967,29332
32756,29951,29372
32780,29945,29404
32820,29932,29442
32816,29959,29364
32820,29966,29393
32788,29982,29319
32744,29997,29412
32770,29998,29363
32812,29986,29373
32817,29966,29416
32832,29942,29333
32844,29945,29447
32852,29949,29444
32876,29957,29321
32880,29974,29447
32920,29985,29464
32924,29989,29401
32996,29996,29440
32992,29981,29349
32968,29966,29461
32968,29949,29357
32992,29941,29481
32973,29940,29456
32940,29959,29447
32924,29976,29480
32904,29988,29408
32840,29992,29524
32800,29999,29460
32800,29983,29492
32760,29969,29548
32760,29953,29436
32804,29940,29541
32808,29946,29476
32820,29957,29592
32828,29973,29604
32840,29984,29508
32832,29991,29588
32784,29989,29540
32769,29983,29580
32768,29967,29610
32768,29951,29596
32772,29940,29604
32800,29944,29636
32768,29959,29559
32740,29969,29692
32676,29988,29668
32548,29999,29660
32360,29988,29697
32136,29983,29660
31880,29966,29723
31556,29963,29649
31152,29953,29751
30696,29968,29752
30088,29989,29681
29556,30000,29763
29144,30025,29700
28812,30032,29804
28734,30033,29719
28852,30025,29832
28880,30020,29797
28890,29999,29865
29104,29996,29820
30124,29989,29886
31692,29977,29877
33328,29984,29801
34616,29994,29929
35608,29985,29932
36288,29982,29820
36636,29959,29957
36784,29944,29987
36840,29929,29871
36616,29924,29989
36176,29926,30001
35652,29937,30044
35088,29958,30036
34626,29979,29944
34152,29990,30008
33764,29988,30039
33480,29980,30005
33260,29967,30105
33117,29942,30106
33017,29936,30055
32964,29943,30092
32928,29965,30000
32872,29973,30112
32816,29991,30058
32776,29993,30132
32744,29984,30092
32712,29984,30155
32708,29965,30109
32708,29948,30225
32740,29945,30214
32728,29946,30164
32752,29957,30265
32756,29975,30252
32716,29985,30172
32644,29996,30289
32613,29986,30252
32584,29985,30320
32560,29968,30279
32564,29950,30372
32584,29948,30300
32552,29957,30405
32536,29959,30332
32557,29975,30452
32600,29993,30357
32588,29997,30484
32560,29996,30448
32504,29985,30518
32484,29969,30484
32460,29953,30564
32488,29946,30502
32504,29941,30584
32516,29959,30505
32504,29973,30655
32492,29993,30684
32492,29988,30626
32488,29997,30713
32442,29986,30633
32452,29964,30716
32388,29950,30632
32348,29937,30781
32328,29957,30756
32352,29944,30855
32350,29976,30852
32352,29994,30786
32352,29993,30927
32332,29996,30828
32332,29984,30910
32296,29969,30849
32276,29953,30978
32248,29944,30898
32256,29954,31044
32216,29965,31069
32256,29980,31020
32252,29989,31092
32224,29997,31005
32232,30003,31120
32216,29993,31064
32208,29979,31164
32168,29959,31092
32192,29940,31205
32208,29946,31175
32229,29967,31292
32132,29991,31204
32104,29993,31310
32100,30000,31226
32136,29996,31377
32116,29997,31385
32068,29976,31416
32030,29959,31449
32066,29952,31332
32124,29956,31466
32097,29955,31366
32060,29981,31463
32021,29996,31477
31924,30000,31531
31849,30000,31552
31792,29997,31412
31808,29980,31574
31776,29967,31568
31776,29946,31460
31856,29956,31612
31912,29965,31556
31968,29989,31585
32052,29982,31647
32056,29997,31684
31976,30005,31664
31888,29999,31649
31816,29981,31699
31832,29959,31796
31900,29959,31678
31960,29953,31783
31976,29965,31764
31996,29978,31860
32004,29997,31844
31953,30006,31751
31960,30001,31852
31988,29986,31784
32012,29975,31944
32092,29964,31945
32132,29956,31856
32180,29952,31972
32264,29959,32036
32288,29983,31916
32332,29990,32069
32408,30006,32110
32384,29998,31967
32384,29988,32125
32380,29959,32073
32408,29952,32135
32480,29945,32184
32528,29949,32245
32576,29959,32220
32620,29972,32285
32644,29989,32192
32688,29998,32303
32665,29991,32213
32652,29984,32344
32680,29968,32261
32744,29957,32398
32780,29941,32404
32804,29929,32493
32876,29948,32516
32968,29972,32425
32992,29984,32553
33000,29990,32476
32988,29989,32608
32940,29972,32524
32912,29959,32652
32930,29951,32604
32972,29933,32541
32968,29933,32705
33016,29948,32672
33044,29964,32764
33012,29984,32764
33006,29988,32807
32984,29975,32799
32952,29969,32733
32912,29957,32830
32908,29940,32753
32965,29932,32914
33032,29930,32940
33080,29947,32973
33092,29967,32913
33100,29977,32876
33049,29980,33056
32980,29985,33021
32928,29974,32940
32924,29953,33124
32940,29941,33076
33000,29921,33104
33028,29933,33044
33016,29947,33205
32940,29959,33197
32880,29974,33159
32872,29984,33269
32848,29983,33287
32852,29969,33180
32912,29940,33354
32996,29947,33362
33008,29933,33353
33009,29935,33276
32960,29944,33437
32900,29956,33453
32808,29974,33351
32756,29989,33503
32756,29988,33520
32777,29973,33484
32766,29948,33440
32760,29938,33594
32760,29933,33549
32752,29933,33639
32788,29943,33527
32812,29948,33695
32836,29975,33632
32856,29980,33647
32849,29976,33767
32804,29964,33745
32828,29949,33799
32789,29927,33829
32732,29941,33701
32728,29926,33848
32696,29948,33897
32716,29958,33764
32712,29978,33850
32732,29988,33810
32656,29984,33967
32640,29966,34000
32649,29953,33880
32668,29932,34004
32700,29932,34036
32780,29930,34100
32868,29940,34028
32869,29953,33974
32878,29971,34121
32916,29978,34132
32892,29981,34042
32868,29972,34164
32824,29957,34140
32756,29937,34208
32752,29932,34183
32712,29927,34279
32688,29945,34284
32700,29959,34320
32708,29972,34276
32764,29972,34316
32752,29981,34321
32692,29959,34384
32744,29948,34408
32776,29937,34412
32784,29920,34397
32788,29926,34473
32788,29937,34327
32772,29952,34480
32844,29968,34524
32884,29982,34452
32884,29973,34451
32856,29959,34512
32876,29949,34574
32916,29924,34596
32870,29920,34445
32845,29924,34580
32812,29937,34624
32828,29949,34501
32816,29956,34577
32796,29977,34653
32792,29972,34544
32780,29966,34689
32798,29948,34695
32756,29935,34596
32764,29935,34760
32752,29932,34709
32704,29937,34766
32620,29949,34660
32556,29971,34816
32552,29986,34774
32592,29980,34778
32668,29959,34711
32638,29954,34868
32632,29943,34928
32700,29921,34768
32744,29924,34932
32740,29940,34941
32736,29944,34972
32701,29976,34892
32700,29976,34937
32680,29977,35023
32696,29964,35003
32708,29954,34972
32800,29932,35040
32804,29920,34940
32804,29927,35101
32816,29937,35140
32788,29953,35044
32752,29973,34980
32728,29981,35149
32736,29976,35204
32740,29968,35047
32748,29951,35208
32800,29932,35128
32832,29924,35246
32884,29925,35252
32964,29938,35276
32956,29951,35132
32980,29962,35212
32936,29964,35333
32880,29969,35157
32784,29959,35316
32704,29955,35396
32669,29936,35225
32640,29935,35378
32672,29931,35309
32720,29935,35374
32688,29956,35444
32660,29967,35376
32680,29972,35352
32708,29973,35460
32696,29959,35525
32688,29949,35331
32660,29928,35453
32704,29927,35384
32764,29927,35460
32764,29935,35396
32733,29951,35525
32732,29967,35601
32744,29978,35428
32660,29959,35612
32585,29957,35527
32497,29929,35668
32364,29932,35468
32220,29916,35617
32064,29932,35688
31828,29940,35525
31470,29959,35657
31040,29981,35656
30489,29994,35577
29820,29999,35683
29280,29990,35604
28890,29964,35744
28612,29969,35784
28696,29969,35789
28968,29957,35824
29072,29981,35808
29021,29973,35828
29182,30006,35828
30084,30012,35868
31540,29986,35692
33068,29967,35860
34372,29942,35719
35364,29916,35836
36164,29896,35765
36596,29898,35913
36620,29901,35975
36480,29924,35780
36188,29937,35945
35772,29940,35881
35328,29949,35816
34949,29940,35972
34568,29928,35884
34156,29920,35950
33856,29906,35896
33656,29912,36007
33520,29921,35928
33352,29936,35878
33260,29953,36020
33120,29957,35988
32992,29958,35841
32908,29949,35972
32872,29932,36016
32836,29909,35865
32848,29904,35924
32868,29913,35976
32864,29923,36034
32892,29940,36076
32888,29947,35890
32893,29958,35951
32837,29959,36001
32760,29951,36068
32664,29935,36112
32604,29921,35900
32556,29910,36101
32524,29904,36049
32488,29927,36048
32513,29940,36118
32508,29953,36157
32532,29956,36006
32564,29959,36151
32596,29942,36103
32596,29936,36005
32672,29921,36156
32684,29909,36200
32644,29912,35977
32680,29927,36128
32704,29944,36197
32728,29945,36041
32684,29959,36072
32661,29959,36121
32656,29953,36150
32576,29940,36180
32525,29920,36012
32480,29914,36154
32494,29910,36200
32540,29919,36033
32524,29933,36180
32486,29949,36160
32436,29957,36221
32438,29959,36014
32408,29948,36097
32376,29935,36180
32396,29924,36208
32404,29910,36132
32372,29910,36056
32412,29916,36188
32528,29930,36172
32600,29943,36231
32628,29956,36160
32684,29959,36085
32612,29935,36225
32544,29927,36208
32500,29916,36084
32448,29906,36045
32420,29909,36172
32436,29922,36188
32432,29924,36230
32408,29945,36177
32396,29959,36080
32380,29959,36118
32360,29951,36048
32368,29935,36124
32300,29916,36168
32249,29911,36201
32224,29912,36229
32244,29919,36195
32252,29933,36189
32260,29948,36183
32288,29956,36215
32252,29967,35961
32220,29959,36152
32196,29924,35965
32192,29919,36183
32168,29908,35950
32168,29919,36120
32220,29924,35941
32240,29937,36061
32256,29953,35924
32212,29966,36012
32176,29951,35948
32133,29957,36065
32108,29941,36029
32096,29924,36053
32080,29917,36028
32088,29911,36068
32164,29922,36084
32176,29941,35876
32208,29959,35940
32212,29959,35961
32252,29969,36020
32280,29959,36025
32316,29940,35852
32304,29927,35984
32252,29915,35980
32236,29913,35813
32276,29920,35972
32348,29935,35780
32352,29952,35929
32352,29964,35808
32356,29953,35871
32364,29956,35969
32432,29932,35757
32500,29924,35820
32624,29902,35769
32716,29916,35844
32796,29921,35740
32880,29919,35798
32916,29943,35876
32940,29957,35684
32948,29952,35784
32932,29948,35661
32920,29921,35724
32892,29908,35662
32896,29909,35732
33004,29902,35748
33100,29913,35768
33134,29929,35732
33160,29948,35749
33128,29952,35776
33112,29953,35541
33112,29932,35673
33060,29924,35628
33040,29905,35679
33074,29903,35660
33124,29908,35636
33200,29916,35501
33248,29932,35668
33256,29946,35588
33300,29948,35572
33296,29956,35548
33264,29943,35420
33212,29926,35540
33184,29916,35396
33145,29897,35489
33188,29904,35408
33261,29908,35500
33304,29916,35392
33308,29936,35460
33272,29952,35448
33212,29953,35333
33204,29942,35473
33188,29924,35295
33176,29914,35470
33181,29892,35252
33184,29901,35324
33228,29909,35271
33216,29927,35297
33212,29940,35236
33188,29945,35335
33148,29949,35388
33172,29942,35182
33188,29928,35236
33180,29908,35153
33156,29905,35274
33129,29889,35276
33152,29917,35292
33160,29932,35284
33144,29936,35104
33136,29950,35206
33084,29951,35062
33100,29941,35172
33164,29928,35043
33180,29918,35168
33173,29900,35013
33140,29897,35061
33164,29906,34993
33164,29913,35052
33188,29937,35092
33216,29948,34938
33188,29948,35052
33192,29940,34922
33208,29925,35047
33200,29912,35052
33164,29900,34880
33116,29887,34961
33148,29903,34848
33124,29924,34924
33136,29933,34844
33104,29943,34957
33068,29940,34892
33072,29935,34808
33096,29924,34934
33156,29908,34969
33152,29892,34791
33140,29892,34904
33148,29900,34876
33184,29922,34888
33180,29939,34864
33156,29948,34884
33128,29936,34853
33106,29930,34844
33072,29921,34700
33124,29898,34886
33176,29900,34844
33200,29900,34695
33220,29904,34727
33208,29922,34644
33200,29940,34770
33136,29940,34630
33084,29936,34767
33072,29926,34784
33108,29911,34752
33080,29900,34720
33088,29892,34608
33104,29892,34716
33096,29896,34711
33108,29911,34535
33133,29926,34648
33144,29937,34670
33109,29942,34652
33108,29929,34652
33100,29920,34583
33100,29899,34488
33145,29887,34468
33192,29889,34492
33184,29895,34447
33180,29906,34536
33144,29920,34441
33081,29936,34494
33049,29943,34389
32980,29924,34479
32948,29910,34376
32936,29898,34480
32933,29894,34436
32896,29892,34463
32929,29896,34405
32992,29909,34288
32984,29917,34342
32992,29930,34270
32988,29939,34396
32960,29929,34233
32960,29914,34365
32948,29899,34215
32917,29888,34301
32996,29892,34352
33061,29890,34164
33029,29922,34279
32996,29932,34319
32948,29940,34125
32896,29944,34196
32908,29934,34098
32921,29916,34225
32928,29899,34231
32932,29891,34168
32992,29878,34207
33096,29896,34183
33164,29920,34044
33108,29932,34164
33068,29937,34016
32992,29934,34157
32900,29929,34121
32892,29917,34014
32944,29904,34020
32984,29886,33940
33056,29892,34039
33068,29897,33937
33068,29916,33988
33088,29927,33866
33080,29937,33941
33092,29942,33904
33120,29924,33973
33128,29913,33940
33144,29902,33937
33128,29893,33893
33140,29888,33913
33096,29900,33920
33092,29903,33765
33120,29928,33832
33120,29937,33748
33096,29940,33845
33056,29929,33841
33048,29912,33680
33032,29894,33765
32952,29886,33656
32832,29892,33770
32652,29903,33757
32504,29916,33604
32280,29932,33724
31960,29944,33697
31592,29950,33572
31060,29949,33628
30417,29938,33540
29896,29924,33604
29468,29929,33512
29152,29932,33605
29021,29940,33487
29112,29952,33581
29184,29980,33508
29136,29996,33556
29184,29990,33502
29753,29971,33541
31157,29928,33556
32768,29904,33519
34184,29884,33526
35300,29881,33356
36244,29880,33391
36865,29892,33448
37012,29904,33309
36944,29909,33348
36744,29911,33265
36416,29904,33384
36000,29893,33238
35600,29885,33317
35216,29871,33252
34840,29870,33338
34464,29887,33276
34172,29914,33172
33925,29917,33285
33724,29933,33140
33562,29940,33257
33476,29923,33081
33374,29905,33136
33240,29895,33036
33220,29881,33087
33216,29890,32982
33176,29902,33077
33192,29913,33100
33184,29926,32956
33136,29932,33061
33040,29934,32964
32980,29912,32954
32956,29911,33020
32892,29892,33012
32912,29888,32855
32928,29869,32940
32944,29890,32820
32997,29898,32952
32984,29916,32860
32992,29927,32817
32978,29928,32804
33020,29916,32835
33017,29907,32744
32924,29892,32841
32852,29887,32775
32840,29881,32841
32888,29889,32814
32916,29902,32700
32928,29917,32813
32948,29918,32770
32908,29929,32775
32888,29919,32616
32832,29901,32690
32788,29888,32635
32816,29881,32687
32808,29873,32676
32812,29882,32549
32768,29908,32656
32744,29922,32488
32750,29924,32598
32797,29926,32537
32828,29925,32464
32852,29903,32560
32820,29892,32468
32816,29876,32440
32876,29879,32513
32892,29887,32438
32880,29908,32352
32849,29916,32391
32800,29933,32350
32792,29924,32436
32748,29921,32364
32760,29912,32302
32708,29892,32391
32660,29886,32384
32669,29884,32368
32720,29880,32308
32728,29905,32199
32686,29912,32279
32648,29932,32150
32596,29937,32263
32588,29919,32276
32508,29909,32254
32536,29892,32193
32576,29888,32216
32580,29882,32148
32564,29893,32032
32540,29909,32146
32500,29924,32056
32476,29934,32122
32440,29945,32060
32416,29924,32081
32404,29912,32030
32420,29896,31876
32488,29877,32017
32571,29884,31996
32542,29894,31852
32489,29906,31879
32404,29921,31775
32304,29937,31884
32232,29943,31735
32200,29927,31831
32208,29916,31706
32182,29897,31836
32192,29890,31791
32228,29890,31781
32284,29896,31776
32368,29910,31743
32448,29933,31732
32464,29933,31708
32466,29936,31576
32484,29919,31633
32497,29912,31489
32508,29905,31580
32484,29893,31480
32536,29892,31528
32620,29904,31424
32652,29912,31543
32624,29929,31401
32568,29936,31476
32532,29940,31356
32501,29933,31476
32540,29921,31452
32572,29894,31471
32584,29889,31448
32656,29888,31434
32740,29892,31348
32821,29906,31400
32953,29929,31356
33056,29935,31361
33060,29928,31281
33036,29927,31340
33060,29908,31282
33060,29892,31174
33108,29888,31236
33192,29891,31120
33208,29900,31226
33228,29916,31136
33200,29925,31232
33184,29940,31132
33180,29938,31133
33184,29928,31159
33208,29916,31022
33196,29901,31132
33220,29888,31040
33348,29889,31128
33448,29886,31120
33468,29905,30983
33440,29920,31037
33440,29930,30948
33377,29925,31020
33272,29928,30936
33312,29905,31037
33340,29895,31037
33348,29884,30996
33404,29882,30894
33420,29892,30983
33444,29902,30885
33413,29913,30970
33400,29929,30860
33344,29936,30930
33304,29921,30944
33312,29909,30928
33316,29892,30823
33376,29881,30897
33364,29882,30812
33340,29885,30900
33328,29903,30889
33336,29919,30825
33308,29935,30820
33292,29929,30700
33264,29924,30817
33260,29905,30692
33285,29894,30768
33268,29895,30693
33312,29880,30772
33324,29887,30648
33329,29898,30764
33312,29927,30697
33256,29918,30737
33228,29928,30617
33188,29922,30709
33190,29912,30648
33172,29895,30692
33168,29884,30604
33192,29884,30705
33200,29888,30556
33196,29904,30705
33176,29908,30684
33168,29926,30576
33164,29925,30640
33172,29931,30516
33152,29908,30604
33168,29895,30502
33152,29875,30584
33112,29872,30533
33148,29885,30624
33184,29906,30616
33152,29927,30556
33116,29927,30599
33100,29924,30512
33136,29917,30572
33096,29900,30476
33020,29887,30548
32948,29874,30463
32948,29877,30544
33033,29882,30462
33076,29900,30484
33044,29919,30548
33052,29924,30524
33076,29925,30433
33060,29908,30489
33028,29903,30392
33036,29889,30516
32984,29877,30500
33023,29879,30436
32998,29884,30464
33068,29896,30383
33088,29919,30476
33077,29925,30407
33036,29927,30433
33012,29916,30436
33024,29904,30311
33056,29880,30407
33025,29873,30372
33020,29873,30439
33104,29880,30433
33082,29893,30409
33080,29915,30421
33084,29925,30311
33052,29925,30369
33041,29924,30278
33005,29904,30348
32968,29885,30268
32956,29878,30343
32964,29885,30244
33004,29880,30365
33044,29895,30367
33004,29916,30296
33012,29925,30316
32980,29924,30198
32952,29913,30284
32920,29904,30189
32904,29889,30277
32837,29879,30166
32832,29876,30277
32840,29887,30161
32864,29884,30268
32832,29909,30188
32828,29916,30250
32848,29916,30132
32920,29915,30244
32900,29897,30138
32884,29884,30247
32844,29875,30140
32820,29872,30215
32804,29889,30124
32840,29896,30239
32864,29918,30128
32948,29926,30169
32972,29924,30095
32968,29913,30162
32980,29900,30120
33012,29885,30164
33052,29880,30084
33072,29872,30157
33040,29884,30158
33052,29900,30087
33040,29919,30153
33060,29916,30033
33048,29921,30124
33068,29914,30066
33084,29905,30100
33105,29885,30049
33076,29881,30118
32996,29869,30129
32928,29885,30032
32884,29893,30084
32904,29910,30010
32928,29927,30094
32905,29925,30084
32860,29924,29951
32892,29905,30044
32852,29890,30077
32892,29874,29959
32952,29876,30029
32968,29876,30008
32980,29892,30020
32980,29908,30020
32980,29927,30053
32992,29927,29902
32948,29912,30024
32937,29893,29968
32960,29888,30012
32948,29877,29942
32976,29872,30010
32976,29883,29908
32936,29895,30000
32796,29908,29904
32684,29928,30040
32520,29932,30042
32286,29916,30041
32076,29892,30039
31784,29892,29952
31412,29892,30012
30996,29879,29996
30456,29893,30041
29884,29928,29990
29360,29925,29949
28996,29959,30030
28812,29959,29941
28904,29956,30016
29040,29925,29940
29044,29927,29988
29140,29922,29924
29690,29919,30000
31032,29913,29913
32656,29908,30016
34144,29914,29959
35284,29913,30014
36209,29911,29899
36816,29892,30004
37020,29879,29976
37049,29856,30028
36872,29853,30036
36480,29851,29886
36012,29863,30000
35520,29876,29948
35093,29892,29997
34648,29911,29945
34244,29913,30026
33884,29900,29895
33602,29892,29993
33384,29881,29905
33304,29870,29999
33276,29878,29908
33200,29877,30008
33092,29885,29960
33008,29907,29988
32924,29912,29881
32848,29920,29968
32792,29908,29862
32812,29895,29973
32796,29881,29926
32824,29863,29989
32861,29870,29996
32872,29869,29945
32884,29884,29936
32840,29908,29964
32780,29916,29894
32748,29917,30016
32712,29904,29998
32704,29896,29916
32696,29884,30020
32720,29869,30032
32800,29857,30036
32848,29869,29950
32820,29889,30001
32728,29902,29893
32620,29910,30000
32533,29924,29922
32484,29915,29992
32457,29893,29927
32500,29887,29994
32544,29873,29892
32592,29868,30012
32620,29877,29973
32612,29900,29956
32640,29907,29976
32576,29915,29904
32496,29917,30023
32440,29905,30020
32436,29892,30020
32452,29884,29957
32440,29861,30022
32404,29864,29900
32452,29877,29991
32496,29893,29901
32468,29908,30008
32424,29916,30017
32396,29925,29964
32420,29901,30004
32440,29896,29894
32500,29880,30052
32404,29874,30026
32372,29860,30057
32368,29876,30030
32340,29889,29972
32388,29908,30076
32296,29916,30075
32264,29919,30053
32144,29916,30076
32125,29904,30047
32108,29885,30087
32084,29876,30040
32112,29876,30096
32148,29888,30029
32160,29892,30097
32188,29913,30020
32184,29917,30068
32160,29925,30089
32120,29925,30085
32092,29895,30032
32036,29888,30076
32004,29884,29951
32016,29872,30055
32037,29889,29942
31996,29900,30082
31980,29926,30016
31952,29922,30092
31928,29927,30087
31892,29904,30056
31893,29896,30072
31928,29888,30042
31944,29870,30068
31956,29868,29940
31980,29877,30036
32016,29894,29952
31988,29921,30068
31940,29921,29956
31866,29927,30044
31864,29925,30004
31902,29909,29993
31936,29892,30045
31972,29876,29976
32045,29873,30020
32136,29879,29951
32232,29892,30020
32304,29914,29950
32300,29926,30054
32308,29912,30008
32284,29914,30020
32261,29903,30049
32256,29892,29989
32328,29876,30069
32344,29873,30018
32380,29887,29973
32420,29900,30047
32461,29910,30104
32485,29908,30036
32536,29921,30108
32564,29916,30086
32616,29901,30116
32684,29885,30125
32772,29877,30011
32826,29858,30100
32872,29874,30001
32824,29886,30092
32788,29905,30004
32836,29925,30137
32856,29920,30136
32880,29910,30080
32908,29898,30120
32976,29885,30037
33004,29871,30140
33072,29868,30124
33112,29872,30189
33116,29885,30198
33100,29904,30084
33136,29912,30172
33128,29913,30097
33129,29911,30196
33128,29889,30120
33116,29876,30196
33149,29860,30149
33156,29874,30165
33192,29877,30213
33196,29888,30193
33256,29905,30148
33260,29914,30241
33228,29917,30144
33232,29919,30293
33260,29901,30314
33264,29882,30325
33260,29878,30300
33248,29874,30220
33212,29872,30326
33168,29899,30304
33164,29911,30388
33128,29912,30388
33069,29916,30398
33024,29915,30372
33008,29893,30436
33000,29884,30452
33041,29868,30457
33008,29868,30385
33036,29876,30488
33064,29892,30477
33032,29908,30492
33052,29921,30416
33088,29912,30540
33072,29900,30575
33048,29893,30471
33076,29873,30550
33092,29868,30497
33080,29864,30608
33098,29874,30575
33080,29891,30678
33080,29909,30695
33048,29916,30598
32984,29917,30736
32928,29914,30756
32909,29900,30649
32904,29884,30785
32896,29860,30815
32900,29860,30830
32912,29872,30854
32873,29892,30862
32832,29906,30885
32752,29924,30861
32701,29927,30903
32664,29917,30844
32672,29905,30938
32692,29885,30880
32733,29876,30958
32776,29865,30909
32808,29887,31056
32812,29891,30996
32788,29904,31084
32820,29919,31044
32856,29923,31148
32872,29906,31184
32880,29895,31191
32920,29877,31239
32900,29868,31248
32868,29864,31295
32910,29879,31264
32940,29889,31284
32968,29910,31264
32952,29919,31383
32952,29913,31426
32888,29906,31446
32908,29900,31489
32940,29877,31457
32917,29865,31509
32860,29865,31448
32832,29877,31589
32824,29887,31628
32800,29908,31623
32832,29918,31680
32832,29918,31704
32828,29909,31728
32792,29898,31720
32784,29882,31768
32772,29868,31676
32837,29869,31808
32884,29873,31758
32878,29892,31871
32868,29906,31812
32808,29912,31902
32752,29924,31836
32760,29912,32014
32704,29901,32064
32752,29879,31948
32768,29871,32068
32745,29868,31997
32784,29873,32120
32744,29894,32096
32677,29908,32221
32660,29927,32186
32644,29920,32178
32576,29922,32319
32584,29896,32328
32596,29884,32228
32584,29876,32324
32576,29874,32276
32568,29881,32381
32596,29894,32348
32664,29913,32496
32692,29927,32536
32664,29925,32548
32628,29924,32605
32632,29900,32632
32640,29887,32588
32660,29877,32680
32657,29877,32704
32736,29880,32736
32780,29889,32768
32780,29909,32728
32780,29925,32667
32784,29924,32821
32748,29927,32808
32696,29904,32884
32680,29884,32886
32677,29876,32888
32714,29876,32948
32756,29884,32852
32781,29896,32945
32832,29911,32900
32812,29920,33052
32808,29925,33104
32784,29918,33020
32732,29900,33068
32648,29880,33095
32652,29872,33176
32641,29876,33132
32644,29880,33263
32660,29897,33300
32672,29919,33310
32696,29922,33343
32712,29924,33360
32720,29920,33396
32708,29902,33249
32672,29892,33405
32648,29872,33442
32624,29876,33348
32612,29880,33476
32640,29900,33420
32613,29917,33543
32608,29914,33481
32644,29922,33578
32624,29920,33540
32608,29901,33677
32580,29884,33620
32552,29876,33580
32532,29879,33752
32460,29883,33776
32352,29885,33819
32208,29919,33864
31905,29932,33877
31512,29933,33927
31092,29932,33937
30652,29926,33943
30088,29912,33836
29512,29893,33983
29048,29904,33892
28732,29918,33991
28536,29946,33948
28624,29956,34094
28760,29965,34164
28746,29953,34048
28792,29965,34202
29316,29924,34256
30644,29921,34113
32257,29878,34200
33764,29872,34183
34940,29868,34351
35876,29882,34410
36524,29887,34268
36672,29897,34400
36604,29902,34356
36432,29885,34487
36068,29892,34447
35648,29865,34461
35208,29864,34567
34800,29868,34634
34416,29868,34487
34052,29884,34641
33816,29903,34533
33652,29916,34636
33496,29920,34590
33268,29908,34740
33112,29889,34809
32968,29880,34823
32896,29869,34868
32800,29868,34868
32748,29868,34889
32684,29893,34917
32660,29906,34957
32596,29910,34974
32570,29920,35013
32512,29914,35012
32425,29889,35023
32464,29884,35040
32486,29873,34956
32540,29869,35065
32536,29878,34991
32500,29892,35134
32460,29901,35236
32448,29912,35100
32404,29919,35186
32396,29906,35137
32400,29893,35236
32341,29884,35192
32300,29869,35335
32300,29861,35237
32296,29876,35360
32292,29893,35316
32316,29901,35463
32332,29925,35541
32312,29914,35533
32330,29909,35496
32288,29892,35417
32248,29890,35544
32288,29875,35464
32280,29871,35548
32341,29878,35520
32424,29884,35631
32380,29915,35604
32328,29926,35716
32292,29916,35783
32324,29904,35781
32268,29896,35800
32280,29880,35639
32276,29872,35772
32212,29871,35674
32200,29875,35812
32240,29885,35831
32220,29912,35909
32192,29925,35896
32165,29915,35964
32138,29916,35968
32156,29898,36004
32148,29876,36064
32180,29877,36040
32228,29876,36040
32236,29879,36076
32264,29892,35942
32256,29916,36052
32236,29924,36000
32176,29931,36117
32012,29917,36020
31960,29906,36141
31885,29889,36118
31848,29877,36212
31892,29871,36103
31888,29879,36224
31896,29895,36152
31888,29916,36198
31828,29920,36189
31728,29926,36306
31724,29927,36285
31748,29901,36333
31816,29895,36236
31888,29878,36341
31932,29879,36260
31936,29884,36399
31968,29894,36404
31972,29916,36441
31988,29917,36473
31996,29931,36487
31904,29921,36402
31876,29905,36470
31868,29894,36519
31860,29874,36593
31840,29880,36368
31828,29887,36477
31852,29900,36537
31870,29912,36609
31892,29920,36567
31924,29921,36465
31932,29926,36702
31960,29903,36689
31988,29892,36681
31992,29876,36712
31988,29886,36756
31972,29884,36740
32016,29900,36804
32024,29909,36773
32124,29924,36836
32168,29932,36609
32260,29924,36736
32300,29904,36698
32304,29888,36812
32260,29872,36764
32224,29877,36884
32281,29881,36892
32300,29896,36900
32346,29916,36838
32388,29925,36857
32464,29924,36839
32496,29914,36984
32500,29911,37040
32576,29889,36836
32644,29876,36990
32648,29872,36981
32696,29885,37036
32769,29888,36948
32832,29905,37018
32860,29916,36902
32822,29924,37119
32844,29900,37148
32900,29900,37164
32904,29880,36959
32874,29871,37084
32904,29863,37188
32952,29873,37005
33012,29895,37168
33080,29895,37264
33104,29920,37031
33052,29917,37144
32992,29908,37268
32972,29900,37279
33004,29874,37328
33004,29861,37103
33056,29861,37204
33112,29879,37200
33172,29893,37298
33172,29904,37309
33132,29913,37344
33108,29916,37352
33064,29902,37255
33024,29897,37406
33020,29872,37447
33016,29860,37348
33020,29863,37452
33088,29868,37408
33120,29890,37341
33116,29896,37476
33072,29916,37529
33012,29914,37520
32986,29905,37529
32944,29887,37407
32889,29877,37543
32924,29860,37592
32976,29860,37438
33052,29876,37572
33112,29887,37476
33094,29896,37604
33044,29910,37684
33028,29914,37502
32992,29901,37632
32916,29892,37692
32884,29881,37509
32849,29868,37639
32904,29864,37652
32896,29870,37704
32888,29884,37673
32808,29903,37620
32776,29917,37708
32820,29917,37696
32796,29909,37732
32780,29884,37544
32824,29879,37740
32879,29869,37830
32904,29864,37695
32964,29873,37586
32980,29893,37788
33017,29911,37780
32956,29914,37824
32865,29915,37780
32768,29916,37825
32692,29889,37639
32740,29881,37844
32788,29866,37890
32840,29868,37888
32888,29869,37818
32917,29884,37844
32876,29897,37925
32828,29916,37948
32784,29919,37952
32740,29916,38005
32716,29901,37964
32668,29879,37880
32708,29868,38020
32797,29854,37792
32836,29872,37976
32892,29884,38020
32920,29900,37877
32980,29916,38032
32960,29917,37949
32892,29912,37972
32840,29892,38049
32862,29882,38096
32876,29868,37875
32852,29868,37973
32796,29879,38073
32776,29889,38093
32833,29900,38094
32848,29904,37967
32764,29916,38099
32704,29920,38071
32636,29907,38121
32608,29884,38030
32658,29868,38072
32721,29874,38151
32768,29884,38160
32816,29880,38160
32812,29908,38196
32748,29920,38176
32728,29922,38236
32692,29916,37952
32632,29905,38092
32578,29876,37981
32648,29876,38080
32636,29872,38060
32572,29872,38177
32576,29894,38256
32536,29913,37978
32488,29921,38152
32552,29920,38081
32560,29923,38124
32620,29901,38052
32680,29889,38137
32728,29876,38164
32786,29866,38231
32868,29884,38245
32940,29892,38005
32933,29904,38125
32884,29920,38225
32848,29920,38223
32840,29919,38148
32764,29904,38101
32724,29892,38232
32700,29881,38132
32720,29885,38244
32768,29880,38240
32780,29895,38272
32832,29914,38084
32864,29918,38233
32824,29933,38276
32732,29924,38013
32724,29903,38105
32720,29894,38082
32704,29885,38196
32660,29874,38209
32692,29884,38217
32672,29900,38278
32684,29919,38206
32712,29926,38271
32736,29932,38196
32720,29925,38144
32684,29900,38192
32680,29893,38244
32712,29878,37960
32741,29880,38076
32741,29882,38041
32713,29896,38141
32680,29904,38047
32697,29920,38161
32694,29912,38209
32576,29918,38151
32388,29906,38151
32248,29892,38146
32064,29880,38117
31808,29876,38135
31572,29896,38157
31368,29908,37895
31077,29925,38181
30716,29944,38104
30240,29949,38031
29656,29948,37883
29130,29944,38074
28744,29932,37880
28508,29927,38088
28576,29925,37852
28836,29911,38044
28820,29944,37840
28589,29973,38004
28708,29976,37920
29644,29967,38039
31272,29936,38062
32912,29920,38024
34233,29900,38052
35332,29876,38020
36200,29863,38032
36716,29862,37982
36796,29873,38023
36544,29889,37751
36256,29901,37893
35844,29909,37780
35388,29911,37900
35032,29886,37816
34716,29878,37921
34400,29865,37932
34104,29878,37892
33860,29876,37912
33668,29899,37863
33524,29904,37849
33396,29925,37656
33252,29930,37741
33092,29918,37590
32940,29911,37711
32862,29888,37628
32888,29873,37719
32936,29868,37683
32908,29880,37721
32897,29892,37724
32916,29913,37580
32924,29920,37676
32900,29922,37700
32856,29916,37432
32808,29903,37544
32752,29893,37501
32752,29877,37604
32736,29878,37548
32704,29880,37564
32724,29893,37549
32712,29915,37553
32664,29924,37509
32676,29926,37524
32636,29922,37561
32592,29904,37481
32616,29895,37416
32612,29884,37404
32688,29879,37420
32684,29885,37463
32664,29901,37180
32644,29914,37328
32612,29927,37352
32696,29924,37151
32780,29924,37247
32780,29911,37221
32788,29888,37255
32744,29892,37260
32728,29877,37004
32676,29879,37127
32712,29896,36989
32741,29912,37094
32712,29925,37077
32660,29935,37080
32592,29930,37036
32512,29897,36890
32452,29896,36985
32456,29884,37020
32496,29874,36781
32584,29892,36889
32628,29898,36948
32608,29912,36685
32608,29921,36772
32584,29940,36800
32568,29920,36801
32580,29911,36716
32568,29896,36693
32532,29888,36712
32536,29879,36629
32497,29892,36576
32484,29898,36644
32484,29923,36656
32468,29927,36396
32420,29940,36452
32384,29924,36390
32332,29917,36464
32344,29896,36474
32404,29885,36268
32456,29884,36312
32460,29889,36241
32436,29908,36348
32472,29924,36356
32472,29932,36292
32393,29932,36286
32324,29925,36228
32332,29917,36140
32384,29901,36021
32412,29887,36132
32444,29885,36130
32456,29893,35909
32416,29903,36037
32352,29924,36048
32349,29933,35980
32384,29940,35996
32404,29928,35757
32396,29922,35876
32352,29902,35844
32392,29892,35835
32408,29884,35839
32412,29897,35783
32433,29905,35788
32512,29921,35590
32580,29925,35720
32580,29946,35528
32580,29932,35636
32553,29922,35463
32528,29900,35552
32538,29892,35392
32552,29892,35453
32588,29903,35463
32656,29906,35487
32744,29920,35380
32768,29940,35277
32796,29935,35312
32844,29930,35236
32912,29917,35317
32973,29900,35348
32976,29885,35168
33040,29884,35288
33028,29898,35223
33032,29900,35089
33068,29924,35161
33073,29933,35046
33092,29937,35100
33060,29924,34973
33052,29915,35079
33104,29901,34916
33180,29899,35028
33192,29892,35036
33204,29885,35021
33228,29905,34987
33281,29926,34984
33308,29935,34752
33360,29935,34812
33360,29925,34768
33308,29917,34841
33356,29893,34852
33396,29887,34793
33424,29876,34755
33440,29893,34720
33468,29904,34567
33412,29916,34628
33344,29924,34506
33316,29938,34670
33324,29929,34469
33312,29920,34572
33268,29907,34420
33276,29889,34526
33346,29884,34514
33380,29879,34508
33432,29898,34471
33408,29918,34468
33344,29927,34428
33326,29936,34380
33396,29935,34365
33392,29915,34375
33372,29892,34186
33356,29886,34224
33418,29880,34220
33472,29876,34254
33464,29904,34152
33405,29921,34116
33400,29932,34164
33336,29933,34134
33348,29925,33996
33338,29909,34086
33300,29901,33932
33272,29886,34068
33255,29872,33992
33188,29895,33884
33252,29900,33983
33248,29918,33967
33248,29935,33954
33262,29943,33961
33256,29924,33769
33284,29908,33812
33300,29896,33716
33272,29893,33816
33304,29880,33830
33324,29885,33645
33300,29898,33761
33244,29910,33657
33208,29929,33740
33188,29940,33543
33156,29928,33679
33165,29910,33604
33156,29901,33542
33180,29888,33524
33240,29881,33552
33276,29894,33420
33296,29901,33508
33292,29918,33396
33256,29927,33509
33240,29935,33481
33234,29933,33448
33220,29918,33287
33240,29902,33340
33197,29888,33240
33224,29893,33308
33284,29895,33212
33260,29906,33305
33196,29912,33192
33160,29928,33287
33128,29934,33132
33128,29925,33205
33148,29913,33116
33184,29896,33231
33216,29892,33057
33208,29870,33112
33228,29887,32987
33276,29904,33132
33288,29910,33060
33248,29926,32934
33248,29941,33025
33236,29929,32976
33204,29916,33000
33228,29900,32988
33236,29882,32970
33228,29883,32956
33248,29894,32929
33268,29884,32932
33288,29919,32746
33312,29912,32841
33304,29932,32852
33240,29929,32676
33200,29914,32718
33192,29907,32679
33176,29889,32742
33144,29876,32680
33201,29884,32557
33248,29903,32676
33216,29918,32604
33176,29929,32476
33164,29928,32594
33100,29918,32591
33048,29906,32420
33032,29892,32519
33056,29881,32470
33064,29876,32502
33092,29881,32488
33100,29897,32340
33092,29908,32360
33084,29924,32295
33048,29933,32292
33068,29927,32298
33116,29908,32196
33096,29892,32300
33062,29870,32224
33090,29879,32276
33152,29881,32260
33136,29895,32252
33152,29909,32237
33128,29927,32208
33116,29927,32196
33116,29920,32036
33076,29909,32116
33092,29893,32029
33124,29886,32046
33160,29877,31940
33180,29884,32056
33256,29900,31906
33280,29921,31980
33252,29924,32024
33221,29928,32008
33188,29933,31983
33140,29908,31951
33156,29894,31847
33128,29881,31949
33064,29870,31910
33060,29890,31849
33088,29896,31878
33108,29916,31852
33132,29922,31863
33056,29929,31777
32984,29924,31656
32944,29909,31796
32944,29896,31645
32936,29880,31720
32948,29880,31613
32996,29884,31704
33056,29899,31638
33076,29914,31701
33076,29922,31593
33061,29924,31684
33020,29918,31660
33016,29908,31628
33012,29895,31535
33054,29876,31572
33038,29870,31445
33020,29876,31541
33004,29897,31428
33009,29902,31537
32848,29912,31516
32680,29932,31377
32444,29932,31407
32076,29909,31448
31661,29905,31469
31284,29895,31330
30912,29901,31408
30445,29904,31389
29881,29916,31300
29372,29941,31385
29024,29958,31307
28824,29959,31228
28878,29965,31328
29033,29948,31285
28964,29924,31228
28892,29929,31238
29264,29916,31145
30532,29906,31252
32236,29904,31268
33872,29912,31256
35108,29916,31230
36149,29913,31144
36856,29893,31201
37108,29881,31085
37124,29860,31194
36960,29855,31112
36610,29842,31033
36172,29857,31140
35776,29877,31100
35332,29893,31128
34944,29900,31118
34544,29906,30989
34188,29904,31038
33868,29897,30963
33693,29876,31001
33560,29875,30961
33444,29863,31036
33308,29872,31000
33204,29892,30872
33160,29897,30985
33164,29920,30941
33106,29927,30860
33072,29916,30868
33112,29901,30901
33144,29884,30786
33138,29879,30905
33080,29837,30884
32972,29872,30748
32872,29889,30868
32808,29903,30881
32808,29916,30766
32796,29915,30829
32788,29914,30836
32800,29896,30864
32812,29890,30864
32848,29868,30740
32860,29860,30813
32864,29871,30704
32885,29876,30836
32925,29899,30812
32940,29911,30708
32933,29914,30764
32932,29906,30644
32912,29900,30792
32868,29881,30785
32869,29868,30671
32872,29868,30700
32846,29864,30748
32840,29881,30607
32868,29894,30692
32868,29908,30712
32800,29910,30556
32800,29912,30688
32777,29892,30688
32748,29883,30572
32760,29860,30620
32756,29866,30524
32768,29864,30608
32736,29882,30516
32748,29896,30613
32736,29911,30517
32752,29909,30615
32760,29909,30484
32760,29896,30573
32776,29883,30477
32756,29865,30578
32756,29860,30488
32740,29864,30560
32720,29884,30468
32712,29900,30580
32676,29909,30538
32636,29916,30556
32608,29911,30496
32568,29897,30540
32500,29882,30406
32545,29868,30528
32504,29863,30437
32512,29866,30477
32512,29886,30414
32500,29903,30468
32448,29904,30437
32436,29909,30468
32408,29911,30341
32396,29900,30432
32340,29881,30305
32264,29861,30397
32246,29860,30269
32260,29868,30368
32304,29880,30292
32288,29896,30341
32320,29904,30205
32340,29916,30296
32368,29907,30262
32324,29897,30316
32313,29884,30288
32336,29863,30196
32324,29860,30262
32348,29868,30250
32388,29879,30144
32388,29895,30178
32376,29916,30140
32344,29917,30191
32300,29912,30125
32276,29895,30172
32296,29882,30152
32324,29862,30053
32352,29856,30128
32366,29860,30100
32412,29880,30105
32528,29896,30021
32592,29910,30069
32556,29915,29929
32572,29902,30039
32557,29897,29936
32552,29876,30008
32572,29863,29893
32612,29856,29981
32664,29860,29870
32692,29886,30000
32742,29895,29861
32800,29910,29948
32860,29897,29841
32860,29907,29961
32828,29893,29896
32848,29863,29969
32844,29863,29872
32909,29852,29931
32980,29852,29820
33060,29876,29900
33128,29885,29921
33192,29908,29880
33228,29909,29905
33260,29901,29830
33261,29891,29863
33312,29866,29728
33344,29860,29816
33336,29855,29720
33400,29854,29849
33436,29865,29838
33373,29880,29814
33336,29895,29828
33354,29900,29797
33376,29899,29801
33392,29880,29724
33412,29868,29767
33416,29857,29727
33465,29852,29764
33516,29852,29719
33516,29863,29680
33532,29884,29721
33564,29893,29724
33536,29894,29629
33488,29892,29669
33452,29876,29609
33476,29860,29701
33472,29852,29663
33464,29844,29560
33452,29852,29672
33472,29853,29666
33472,29872,29544
33488,29892,29612
33488,29892,29649
33504,29888,29508
33444,29877,29601
33440,29860,29636
33396,29845,29513
33408,29844,29628
33376,29852,29577
33376,29855,29552
33413,29872,29580
33400,29872,29593
33348,29892,29509
33244,29889,29573
33280,29884,29502
33236,29868,29540
33196,29852,29533
33300,29845,29573
33328,29844,29455
33352,29855,29525
33320,29872,29508
33324,29884,29549
33308,29901,29470
33256,29887,29444
33216,29876,29520
33184,29870,29462
33188,29844,29512
33236,29841,29529
33256,29852,29424
33260,29852,29472
33252,29876,29447
33244,29895,29396
33256,29897,29423
33240,29893,29476
33156,29877,29474
33124,29855,29408
33076,29841,29377
33064,29837,29468
33092,29847,29417
33080,29860,29416
33080,29868,29436
33092,29884,29404
33132,29893,29468
33176,29886,29468
33132,29873,29336
33100,29853,29468
33092,29844,29456
33120,29836,29329
33168,29844,29432
33156,29860,29412
33124,29861,29421
33113,29878,29425
33028,29895,29348
32997,29872,29444
33016,29868,29468
33088,29847,29335
33140,29847,29421
33172,29844,29405
33212,29842,29376
33198,29860,29459
33172,29863,29447
33156,29884,29344
33124,29882,29434
33184,29889,29429
33196,29860,29375
33212,29860,29425
33207,29841,29357
33144,29837,29413
33132,29837,29343
33104,29857,29408
33088,29865,29336
33092,29886,29433
33121,29886,29340
33149,29887,29422
33120,29865,29325
33076,29858,29412
33124,29840,29302
33189,29836,29400
33204,29847,29326
33208,29860,29421
33201,29872,29298
33120,29887,29380
33120,29889,29420
33092,29884,29300
33116,29871,29401
33104,29860,29415
33040,29847,29421
33032,29827,29396
33068,29836,29284
33076,29850,29381
33080,29874,29286
33084,29873,29388
33028,29880,29287
33004,29882,29369
32960,29868,29340
32960,29849,29405
32960,29836,29406
32976,29834,29383
33004,29838,29385
33000,29848,29269
32952,29866,29394
32928,29876,29388
32908,29884,29271
32928,29876,29380
32933,29869,29296
32964,29849,29377
33048,29840,29340
33132,29831,29386
33173,29836,29399
33176,29860,29389
33172,29881,29385
33164,29878,29343
33120,29885,29380
33132,29882,29295
33120,29869,29360
33153,29855,29264
33124,29824,29356
33080,29831,29260
33092,29831,29348
33088,29840,29266
33088,29862,29343
33056,29877,29252
33104,29882,29340
33052,29871,29248
33040,29860,29350
33072,29847,29308
33068,29828,29353
33042,29831,29260
33068,29828,29346
33084,29849,29313
33060,29860,29374
33056,29868,29379
33060,29873,29316
33016,29873,29349
32988,29863,29280
32984,29842,29326
33016,29812,29284
33092,29823,29330
33148,29824,29360
33140,29836,29248
33104,29854,29340
33021,29863,29232
32928,29873,29333
32916,29860,29241
32856,29860,29326
32850,29837,29240
32800,29831,29337
32716,29828,29240
32568,29829,29326
32436,29845,29284
32172,29866,29348
31804,29875,29365
31425,29884,29352
30796,29876,29364
30128,29884,29292
29536,29884,29368
29152,29871,29264
28936,29868,29340
28872,29871,29319
28964,29881,29376
29048,29903,29292
28988,29927,29372
29084,29927,29380
30036,29916,29364
31648,29884,29377
33388,29853,29357
34764,29821,29399
35904,29806,29396
36776,29802,29327
37236,29812,29370
37388,29825,29278
37276,29845,29369
36916,29840,29294
36396,29852,29388
35844,29831,29348
35372,29813,29413
34888,29818,29322
34492,29813,29374
34165,29820,29292
33920,29839,29376
33688,29860,29324
33476,29868,29397
33232,29876,29332
33104,29863,29388
33024,29854,29307
32976,29831,29369
32972,29829,29294
32972,29818,29372
32920,29823,29340
32948,29841,29388
32972,29847,29424
32964,29857,29408
32933,29864,29420
32880,29860,29398
32812,29853,29421
32760,29830,29319
32720,29820,29404
32716,29817,29329
32668,29820,29406
32669,29843,29367
32640,29852,29455
32600,29865,29460
32568,29864,29469
32564,29864,29464
32592,29849,29348
32576,29838,29461
32576,29823,29365
32656,29808,29444
32736,29814,29401
32744,29824,29439
32728,29846,29360
32701,29858,29460
32622,29860,29361
32581,29858,29444
32588,29847,29359
32548,29836,29440
32552,29817,29361
32556,29812,29449
32576,29817,29415
32616,29826,29492
32628,29844,29491
32632,29860,29432
32632,29862,29492
32616,29862,29488
32640,29847,29472
32640,29819,29446
32640,29812,29498
32596,29815,29508
32552,29812,29517
32480,29824,29452
32452,29842,29484
32456,29857,29415
32436,29852,29504
32444,29856,29408
32468,29840,29516
32416,29831,29415
32416,29816,29524
32408,29808,29431
32428,29806,29528
32420,29828,29452
32440,29844,29540
32452,29853,29481
32436,29861,29580
32340,29852,29525
32228,29840,29600
32172,29831,29596
32112,29815,29604
32089,29815,29575
32196,29812,29598
32268,29824,29556
32300,29844,29604
32232,29860,29589
32169,29861,29588
32164,29852,29575
32116,29844,29588
32096,29832,29548
32088,29817,29567
32112,29817,29481
32128,29804,29550
32116,29829,29511
32148,29848,29560
32156,29858,29453
32120,29863,29544
32092,29858,29540
32076,29848,29493
32032,29831,29530
32028,29810,29548
32042,29813,29476
32112,29812,29557
32148,29831,29420
32168,29840,29530
32160,29861,29407
32128,29871,29508
32084,29862,29416
32120,29847,29516
32174,29821,29422
32304,29808,29518
32360,29809,29489
32452,29812,29545
32452,29828,29428
32432,29839,29549
32380,29846,29566
32396,29860,29572
32448,29849,29572
32516,29848,29492
32528,29829,29535
32512,29813,29444
32564,29809,29556
32584,29812,29556
32608,29822,29596
32668,29838,29598
32712,29848,29463
32792,29855,29580
32800,29847,29575
32784,29831,29548
32842,29820,29614
32920,29804,29529
33044,29792,29613
33120,29807,29607
33048,29821,29567
33006,29825,29584
32980,29838,29533
32972,29845,29625
33004,29847,29572
33088,29830,29632
33092,29806,29557
33112,29804,29622
33160,29798,29551
33192,29807,29600
33196,29823,29540
33260,29834,29648
33276,29852,29649
33252,29852,29621
33280,29853,29652
33264,29836,29561
33268,29822,29652
33252,29804,29660
33326,29801,29661
33389,29802,29580
33384,29815,29638
33392,29829,29536
33344,29837,29630
33288,29845,29532
33256,29850,29636
33188,29836,29557
33200,29814,29649
33312,29801,29552
33336,29793,29668
33336,29789,29700
33325,29809,29692
33256,29830,29693
33208,29844,29700
33140,29849,29645
33092,29832,29708
33080,29816,29732
33084,29812,29701
33084,29792,29642
33132,29791,29701
33093,29801,29606
33076,29810,29716
33044,29826,29630
33044,29838,29714
33044,29837,29629
33048,29826,29728
33060,29822,29716
33089,29810,29782
33124,29789,29711
33116,29780,29773
33120,29793,29708
33112,29797,29789
33088,29820,29717
33021,29829,29767
32960,29847,29693
32900,29840,29769
32904,29828,29688
32945,29807,29789
32944,29793,29692
32992,29789,29788
33048,29796,29703
33040,29808,29800
32996,29824,29722
32952,29831,29834
32892,29831,29760
32888,29827,29844
32908,29821,29752
32925,29799,29850
32984,29792,29809
32980,29789,29823
33040,29787,29876
33017,29800,29825
33000,29819,29926
32968,29831,29840
32904,29836,29906
32956,29841,29832
32976,29822,29937
32949,29809,29885
32924,29792,29948
32944,29786,29895
32968,29790,29970
32993,29805,29844
33000,29810,29964
32980,29831,29889
32908,29838,29988
32792,29836,29943
32749,29825,30012
32768,29812,29990
32841,29796,30028
32888,29793,30018
32952,29788,30012
32992,29806,29900
32972,29814,30006
32940,29833,29897
32944,29838,30022
32897,29830,29922
32888,29814,30048
32836,29805,29924
32836,29782,30030
32868,29780,30090
32910,29788,30041
33000,29799,30073
33024,29816,29979
32992,29831,30076
32972,29831,30075
32948,29830,29977
32912,29818,30109
32848,29800,30095
32868,29789,29982
32901,29776,30065
32936,29785,30101
32961,29792,29972
32968,29817,30100
32916,29830,30041
32936,29834,30040
32960,29820,30096
32924,29817,30024
32857,29797,30134
32832,29786,30149
32792,29782,30122
32757,29780,30140
32780,29798,30028
32800,29801,30132
32836,29820,30060
32852,29824,30150
32772,29820,30135
32720,29816,30205
32684,29794,30188
32672,29790,30076
32724,29772,30190
32744,29784,30084
32784,29796,30188
32784,29812,30100
32744,29831,30204
32736,29831,30158
32612,29826,30262
32532,29816,30201
32544,29798,30280
32572,29791,30292
32608,29780,30250
32612,29784,30197
32648,29789,30297
32676,29819,30200
32692,29828,30278
32704,29832,30221
32712,29830,30303
32736,29812,30210
32740,29810,30309
32832,29780,30224
32868,29777,30340
32872,29782,30296
32888,29789,30379
32844,29813,30289
32796,29817,30376
32804,29826,30284
32768,29831,30390
32768,29812,30294
32776,29792,30424
32852,29789,30363
32920,29775,30465
32904,29780,30460
32808,29792,30388
32764,29806,30463
32732,29823,30392
32676,29829,30490
32632,29827,30421
32692,29815,30528
32720,29792,30559
32696,29780,30468
32664,29777,30545
32720,29774,30448
32792,29780,30567
32804,29801,30532
32776,29812,30620
32708,29825,30568
32640,29829,30618
32624,29812,30548
32652,29789,30663
32640,29781,30662
32676,29769,30697
32704,29770,30573
32641,29787,30680
32544,29805,30616
32480,29814,30717
32376,29824,30644
32262,29820,30798
32169,29804,30802
31952,29794,30745
31672,29789,30828
31325,29790,30739
30900,29791,30824
30365,29804,30838
29796,29836,30737
29276,29849,30865
28972,29861,30789
28720,29853,30912
28704,29845,30892
28777,29830,30961
28816,29815,30924
28890,29809,30916
29236,29812,30950
30492,29814,30906
32128,29820,30996
33636,29825,30976
34872,29812,30956
35888,29802,31038
36576,29785,31024
36845,29766,31141
36852,29755,31143
36716,29736,31020
36412,29745,31121
35924,29762,31046
35364,29777,31221
34900,29793,31188
34448,29805,31092
34004,29797,31249
33748,29798,31256
33496,29772,31192
33264,29768,31317
33100,29761,31324
32972,29766,31359
32852,29772,31321
32756,29792,31375
32689,29804,31260
32600,29815,31376
32588,29800,31301
32628,29792,31440
32704,29782,31444
32688,29769,31332
32652,29754,31422
32660,29756,31357
32644,29772,31500
32596,29776,31554
32549,29801,31444
32504,29796,31570
32524,29804,31618
32464,29795,31545
32480,29780,31626
32440,29767,31588
32428,29753,31718
32400,29764,31720
32460,29774,31749
32506,29788,31634
32456,29804,31724
32396,29804,31812
32388,29805,31833
32420,29792,31888
32424,29776,31844
32384,29760,31772
32376,29755,31927
32384,29756,31958
32368,29765,31845
32372,29784,32007
32376,29798,32028
32381,29804,31902
32312,29797,32076
32292,29787,32032
32280,29780,32135
32320,29760,32000
32312,29749,32169
32384,29759,32192
32464,29767,32097
32425,29781,32164
32408,29796,32119
32373,29802,32218
32293,29796,32270
32264,29785,32217
32288,29776,32336
32308,29759,32290
32340,29749,32425
32292,29752,32321
32276,29767,32384
32253,29784,32422
32236,29800,32512
32237,29805,32516
32228,29797,32392
32196,29793,32580
32212,29780,32536
32232,29757,32485
32224,29756,32576
32152,29760,32518
32108,29760,32616
32088,29789,32548
32116,29796,32700
32048,29814,32616
32016,29807,32710
32012,29793,32610
31956,29779,32697
31960,29748,32692
31974,29752,32805
32024,29757,32816
31994,29769,32831
31916,29791,32737
31844,29801,32820
31824,29805,32732
31776,29807,32816
31782,29789,32728
31804,29783,32888
31868,29760,32929
31896,29750,32796
31909,29760,32852
31905,29769,32816
31921,29788,32960
31896,29804,32902
31948,29808,32916
31965,29806,32857
31962,29784,32940
31936,29776,32873
31933,29762,32946
31908,29760,32900
31932,29764,32992
31996,29772,32929
32004,29785,33061
32052,29799,33020
32092,29808,33133
32076,29813,33057
32100,29801,33013
32148,29780,33120
32196,29762,33047
32240,29756,33184
32268,29760,33250
32240,29776,33112
32244,29788,33252
32228,29801,33281
32256,29812,33273
32284,29799,33332
32284,29796,33340
32352,29772,33373
32376,29762,33240
32492,29752,33340
32616,29754,33254
32688,29772,33431
32748,29782,33456
32768,29788,33332
32772,29800,33392
32800,29796,33360
32836,29781,33516
32860,29767,33484
32888,29753,33404
32900,29746,33518
32945,29746,33582
32960,29754,33569
32976,29772,33465
33008,29791,33564
33000,29799,33500
33032,29784,33574
33028,29775,33541
33064,29761,33721
33064,29748,33567
33076,29750,33727
33044,29748,33600
33088,29762,33701
33152,29779,33764
33220,29797,33788
33252,29797,33834
33228,29804,33832
33192,29785,33799
33120,29761,33858
33088,29753,33848
33088,29744,33882
33041,29741,33800
33060,29752,33917
33080,29764,33916
33044,29789,33924
33012,29796,33816
33028,29784,33926
33036,29776,33860
33066,29752,33992
33048,29752,34040
33064,29741,34068
33140,29746,34060
33156,29756,33976
33132,29764,34031
33086,29786,33965
32976,29792,34113
32924,29791,34104
32892,29776,33999
32856,29760,34107
32896,29736,34029
32912,29740,34201
32928,29744,34053
32952,29748,34173
32932,29768,34204
32864,29782,34257
32793,29788,34204
32744,29788,34127
32744,29772,34212
32741,29769,34156
32768,29744,34301
32760,29737,34322
32756,29748,34345
32756,29758,34352
32724,29773,34276
32740,29791,34325
32748,29793,34232
32733,29786,34364
32788,29774,34254
32800,29763,34400
32800,29740,34468
32832,29734,34288
32868,29732,34424
32876,29750,34439
32856,29767,34480
32784,29776,34532
32736,29789,34351
32732,29776,34489
32736,29780,34496
32728,29760,34404
32776,29736,34530
32832,29729,34497
32896,29734,34564
32892,29750,34457
32893,29767,34600
32892,29780,34567
32872,29786,34476
32833,29784,34557
32772,29769,34652
32748,29754,34660
32732,29740,34617
32708,29738,34584
32728,29737,34679
32757,29748,34710
32816,29767,34549
32856,29782,34689
32820,29780,34695
32796,29781,34727
32814,29768,34768
32848,29760,34604
32848,29739,34668
32852,29730,34633
32856,29737,34749
32832,29748,34652
32780,29764,34732
32736,29790,34766
32681,29792,34684
32700,29780,34783
32704,29772,34753
32724,29756,34836
32748,29745,34820
32740,29734,34884
32800,29736,34919
32812,29749,34736
32765,29772,34855
32762,29776,34796
32748,29785,34926
32684,29783,34972
32676,29767,34789
32624,29759,34872
32664,29741,34806
32696,29734,34910
32740,29736,35020
32680,29746,35018
32676,29767,35048
32672,29776,34861
32640,29781,34972
32584,29780,34900
32504,29770,34964
32420,29762,34928
32424,29736,35084
32536,29725,35136
32608,29736,34961
32672,29742,35044
32748,29765,34997
32748,29772,35105
32696,29784,35161
32644,29780,35180
32612,29768,35102
32644,29754,35060
32680,29743,35160
32736,29730,35196
32756,29727,35252
32820,29746,35217
32876,29752,35268
32928,29766,35317
32916,29776,35140
32940,29776,35328
32980,29758,35164
32917,29740,35324
32848,29736,35344
32824,29728,35376
32836,29729,35366
32825,29741,35220
32864,29756,35342
32892,29771,35232
32832,29776,35312
32752,29782,35260
32696,29762,35316
32652,29750,35277
32676,29734,35429
32704,29722,35377
32752,29724,35330
32788,29739,35472
32750,29753,35502
32708,29767,35324
32764,29776,35445
32800,29769,35364
32784,29747,35479
32748,29746,35401
32760,29724,35511
32760,29727,35408
32852,29720,35537
32873,29736,35551
32871,29744,35588
32824,29762,35580
32752,29777,35452
32624,29774,35508
32516,29757,35574
32436,29742,35508
32312,29735,35672
32232,29727,35624
32122,29734,35634
31944,29744,35679
31700,29764,35733
31360,29775,35714
30904,29792,35726
30252,29790,35577
29588,29785,35728
29124,29780,35786
28740,29764,35779
28644,29764,35788
28844,29772,35645
29057,29782,35797
29048,29808,35846
29020,29804,35839
29500,29813,35889
30804,29792,35680
32360,29778,35824
33720,29750,35877
34800,29734,35896
35708,29703,35855
36360,29703,35969
36620,29713,35759
36556,29735,35928
36280,29749,35950
35920,29748,35793
35524,29751,35895
35132,29746,35948
34776,29736,36005
34380,29725,35928
34088,29716,35884
33820,29712,35991
33616,29729,36048
33464,29750,36058
33304,29762,36047
33140,29766,35928
32996,29768,36042
32812,29756,36071
32700,29736,35904
32640,29733,36000
32596,29721,36005
32596,29728,36108
32580,29736,36013
32632,29753,36143
32652,29765,35976
32664,29773,36141
32644,29773,36056
32568,29754,36100
32533,29744,36180
32524,29729,36093
32544,29718,36212
32580,29725,36024
32680,29732,36188
32738,29750,36278
32660,29765,36064
32608,29772,36216
32556,29765,36306
32502,29756,36293
32408,29748,36284
32492,29724,36248
32484,29723,36296
32496,29721,36244
32485,29727,36381
32562,29748,36164
32592,29760,36344
32600,29770,36393
32592,29764,36356
32532,29760,36312
32536,29737,36208
32516,29720,36372
32513,29713,36333
32484,29722,36388
32416,29729,36194
32348,29745,36344
32348,29766,36424
32324,29777,36269
32272,29768,36400
32261,29755,36304
32276,29746,36436
32260,29722,36261
32276,29717,36413
32304,29721,36373
32352,29727,36466
32376,29745,36273
32416,29758,36423
32446,29765,36372
32376,29769,36452
32296,29753,36328
32240,29742,36428
32196,29730,36412
32176,29718,36293
32172,29726,36407
32188,29732,36437
32200,29754,36296
32200,29764,36436
32221,29768,36412
32220,29768,36284
32216,29756,36417
32222,29742,36415
32256,29724,36224
32264,29717,36359
32309,29706,36222
32309,29726,36359
32252,29748,36312
32228,29769,36367
32260,29772,36256
32288,29760,36316
32324,29756,36164
32296,29741,36376
32272,29725,36181
32228,29720,36303
32176,29717,36340
32132,29733,36121
32120,29750,36194
32184,29767,36172
32244,29769,36280
32228,29766,36251
32216,29760,36116
32188,29745,36220
32141,29732,36201
32080,29724,36212
32072,29727,36103
32156,29727,36223
32216,29749,36247
32268,29769,36027
32272,29764,36212
32228,29761,36010
32240,29764,36148
32300,29732,36199
32368,29724,35965
32404,29716,36124
32417,29720,36160
32434,29733,35960
32444,29744,36063
32464,29759,36065
32405,29768,36089
32448,29767,35965
32452,29760,36029
32476,29737,35908
32496,29725,36052
32520,29720,35961
32560,29709,35878
32604,29735,35988
32644,29743,36018
32684,29758,35813
32720,29765,35968
32796,29761,35932
32896,29752,35972
32976,29738,35790
33037,29720,35919
33092,29714,35856
33124,29709,35858
33192,29726,35700
33268,29744,35844
33288,29740,35876
33260,29765,35685
33204,29764,35822
33164,29753,35756
33152,29726,35604
33096,29719,35744
33072,29703,35724
33132,29715,35752
33172,29720,35770
33176,29737,35548
33196,29759,35705
33236,29767,35602
33260,29757,35693
33264,29759,35511
33252,29730,35632
33297,29722,35661
33316,29703,35607
33293,29708,35508
33272,29724,35487
33284,29738,35576
33289,29748,35584
33228,29757,35373
33180,29758,35412
33152,29753,35432
33136,29730,35463
33089,29710,35505
33100,29703,35293
33196,29713,35417
33224,29703,35366
33204,29734,35417
33180,29749,35445
33124,29758,35388
33108,29752,35404
33164,29744,35204
33228,29722,35247
33264,29717,35176
33198,29702,35296
33196,29703,35256
33194,29703,35279
33236,29734,35296
33268,29744,35093
33252,29756,35228
33224,29754,35061
33184,29743,35214
33116,29724,35012
33056,29712,35119
33024,29701,35004
32992,29700,35112
32992,29703,35148
33052,29727,34942
33064,29739,34989
33116,29746,34916
33081,29736,35010
33092,29734,35068
33176,29732,34852
33156,29703,34894
33108,29700,34940
33096,29700,34964
33104,29703,34982
33136,29720,34948
33152,29751,34929
33148,29746,34909
33136,29744,34919
33108,29732,34884
33112,29723,34886
33152,29693,34702
33152,29703,34736
33152,29703,34652
33144,29692,34772
33120,29726,34708
33128,29740,34757
33160,29762,34695
33148,29754,34612
33064,29741,34694
32993,29711,34668
32960,29703,34548
32968,29687,34644
33008,29696,34644
33028,29698,34578
33124,29727,34633
33132,29744,34540
33125,29744,34515
33092,29744,34588
33084,29740,34575
33089,29719,34545
33060,29700,34460
33092,29694,34502
33124,29697,34372
33104,29703,34407
33108,29716,34311
33160,29741,34414
33184,29752,34384
33164,29754,34407
33164,29738,34301
33144,29719,34333
33172,29701,34352
33228,29703,34296
33216,29703,34265
33176,29714,34292
33104,29718,34269
33050,29734,34108
32964,29748,34200
32876,29746,34204
32876,29740,34191
32924,29717,34216
32948,29703,34026
32928,29698,34080
32928,29697,34008
32974,29702,34123
33012,29722,34140
33004,29740,33968
32968,29737,34017
32936,29742,33903
32868,29736,34036
32857,29719,33927
32868,29703,34004
32868,29696,34013
32912,29697,33811
32894,29708,33868
32932,29718,33866
33004,29740,33916
32992,29745,33924
33008,29744,33728
32996,29736,33790
32964,29717,33705
32968,29703,33757
32972,29695,33656
33029,29698,33742
33064,29703,33700
33144,29720,33609
33164,29746,33705
33164,29752,33726
33144,29741,33550
33140,29742,33623
33120,29716,33512
33093,29700,33608
33082,29693,33461
33088,29692,33564
33057,29702,33460
33012,29727,33476
32968,29735,33401
33032,29746,33453
33052,29740,33377
33057,29729,33480
33076,29720,33508
33024,29701,33324
33008,29697,33463
33056,29693,33420
33060,29703,33466
33076,29718,33263
33049,29736,33300
33008,29745,33356
33056,29735,33369
33104,29729,33204
33124,29713,33317
33098,29698,33356
33100,29692,33169
33172,29692,33273
33160,29703,33181
33124,29703,33263
33018,29728,33268
32820,29736,33254
32602,29736,33230
32424,29736,33092
32132,29728,33198
31841,29705,33045
31527,29703,33120
31089,29719,33024
30468,29732,33060
29868,29732,32996
29432,29764,33121
29101,29784,33054
28976,29789,32936
29112,29776,33070
29242,29740,32972
29192,29749,32972
29213,29744,33016
29828,29730,32952
31236,29732,32845
32876,29728,32980
34304,29734,32940
35400,29735,32788
36300,29721,32903
36936,29700,32925
37116,29685,32911
37072,29668,32868
36872,29663,32734
36528,29664,32836
36052,29679,32872
35568,29701,32676
35124,29716,32711
34672,29726,32775
34268,29732,32788
34000,29729,32630
33808,29701,32741
33664,29696,32724
33520,29692,32582
33444,29684,32660
33384,29696,32596
33312,29711,32653
33208,29721,32612
33140,29728,32644
33080,29736,32640
33040,29710,32500
32984,29703,32508
32992,29692,32554
32996,29678,32557
32968,29676,32516
33005,29684,32390
32996,29703,32477
32904,29724,32431
32896,29730,32468
32868,29732,32464
32884,29716,32365
32864,29703,32393
32864,29688,32452
32844,29676,32366
32724,29692,32288
32764,29688,32352
32772,29713,32228
32768,29721,32352
32748,29738,32263
32752,29736,32241
32784,29722,32262
32824,29703,32169
32848,29684,32268
32901,29677,32292
32900,29680,32116
32868,29685,32116
32880,29710,32227
32800,29725,32149
32764,29735,32048
32773,29729,32143
32804,29725,32132
32813,29700,32006
32788,29688,32007
32776,29671,32070
32768,29684,31993
32778,29693,32004
32736,29709,32001
32660,29725,31943
32660,29738,31972
32640,29734,31892
32608,29729,32001
32576,29703,31941
32596,29684,31826
32628,29676,31956
32680,29682,31944
32692,29690,31768
32648,29710,31900
32600,29726,31912
32552,29728,31772
32516,29735,31813
32536,29725,31705
32584,29703,31792
32564,29696,31696
32544,29684,31751
32572,29686,31695
32568,29686,31782
32564,29705,31721
32540,29725,31584
32500,29732,31680
32416,29737,31638
32374,29720,31588
32381,29711,31615
32424,29695,31532
32424,29676,31581
32392,29685,31476
32340,29692,31518
32320,29714,31407
32296,29729,31524
32256,29741,31481
32200,29737,31381
32244,29733,31468
32276,29703,31432
32344,29699,31429
32360,29684,31404
32312,29692,31304
32328,29701,31382
32304,29711,31268
32244,29732,31349
32244,29737,31328
32268,29733,31301
32284,29727,31281
32324,29706,31261
32356,29697,31113
32444,29684,31192
32512,29685,31168
32540,29690,31098
32516,29712,31148
32520,29725,31025
32473,29730,31116
32476,29736,31109
32540,29724,31005
32584,29708,31056
32612,29676,30993
32604,29682,30974
32701,29680,30977
32748,29695,30949
32792,29703,30916
32824,29717,30962
32800,29725,30983
32864,29732,30820
32912,29717,30904
32948,29701,30932
32964,29680,30800
32972,29677,30895
33052,29678,30888
33128,29684,30759
33180,29703,30849
33144,29717,30845
33168,29726,30768
33224,29728,30831
33224,29724,30733
33256,29703,30746
33244,29684,30741
33296,29677,30688
33344,29679,30713
33408,29692,30598
33456,29699,30713
33464,29714,30725
33460,29720,30609
33444,29720,30645
33452,29702,30554
33440,29700,30663
33425,29687,30663
33412,29676,30517
33366,29680,30614
33372,29687,30619
33348,29703,30516
33384,29716,30549
33416,29727,30487
33448,29718,30584
33452,29716,30524
33480,29697,30558
33480,29684,30436
33436,29679,30476
33424,29671,30484
33420,29693,30492
33390,29698,30368
33404,29713,30496
33364,29714,30493
33390,29725,30420
33372,29711,30446
33364,29692,30474
33380,29685,30328
33400,29674,30444
33400,29671,30428
33460,29682,30392
33440,29701,30324
33476,29717,30404
33465,29719,30301
33408,29726,30396
33288,29716,30381
33180,29684,30404
33152,29688,30348
33212,29680,30351
33264,29677,30334
33332,29681,30321
33320,29693,30323
33260,29716,30260
33184,29725,30280
33192,29725,30308
33176,29712,30268
33214,29696,30267
