ECG,EDA,RR
32861,44599,28031
32896,44636,27825
32867,44631,27850
32840,44639,27980
32828,44573,28013
32800,44631,28120
32776,44612,27871
32776,44637,28015
32768,44651,27989
32804,44577,28167
32828,44623,27890
32776,44616,27911
32788,44599,28044
32820,44615,28037
32822,44591,28164
32805,44610,28029
32702,44596,28039
32720,44611,28063
33016,44621,28127
33176,44615,28132
33020,44607,28001
32972,44583,28085
32988,44607,28133
32928,44587,28236
32936,44524,28215
32950,44599,28018
33081,44573,28129
33068,44607,28178
33044,44533,28174
32932,44583,28032
32904,44580,28107
32812,44567,28180
32741,44597,28153
32780,44514,28325
32840,44567,28057
33012,44591,28197
33120,44537,28213
33100,44573,28156
32964,44593,28178
32900,44516,28167
32952,44564,28349
32988,44577,28082
33024,44551,28180
33017,44551,28185
32868,44551,28287
32768,44499,28145
32880,44551,28224
33012,44548,28188
33012,44548,28291
32997,44505,28098
32958,44548,28227
32894,44547,28262
32865,44486,28100
32865,44527,28204
32860,44543,28252
32850,44530,28327
32864,44540,28189
32860,44505,28181
32784,44541,28294
32752,44539,28080
32780,44551,28212
32748,44505,28183
32576,44519,28260
32549,44453,28071
32720,44536,28129
32772,44527,28153
32754,44526,28193
32881,44543,28188
32821,44490,28068
32784,44531,28063
32846,44509,28166
32988,44513,28127
32992,44519,28210
32872,44519,28246
32857,44514,28117
32996,44510,28023
33054,44500,28109
33030,44525,28101
33000,44535,28060
33029,44514,28142
33052,44494,28014
33052,44519,27984
33116,44439,28068
33260,44507,28045
33348,44498,28098
33420,44436,28055
33444,44487,27908
33468,44513,28009
33460,44432,27982
33476,44498,28053
33568,44496,28065
33508,44421,27892
33253,44479,28004
33084,44484,27941
33084,44463,28003
33084,44471,27849
33119,44493,27895
33120,44421,27914
33124,44474,27935
33140,44494,28031
33120,44407,27801
33194,44467,27851
33256,44456,27925
33132,44475,27879
32983,44451,27895
33188,44469,28014
33373,44445,27764
33293,44487,27857
33144,44420,27847
33128,44452,27889
33148,44473,27973
33172,44412,27798
33109,44423,27866
33048,44391,27871
33088,44439,27821
33156,44455,27715
33132,44391,27844
33156,44446,27804
33231,44471,27956
33320,44453,27791
33096,44453,27686
33004,44452,27801
33048,44383,27776
32976,44423,27808
33079,44449,27916
33120,44375,27662
33133,44437,27757
33037,44410,27779
32788,44463,27772
32481,44447,27903
32108,44423,27639
31770,44451,27759
31533,44372,27726
31485,44436,27727
31528,44413,27821
31644,44391,27886
32012,44451,27680
32496,44453,27660
33084,44441,27725
33900,44473,27703
35380,44453,27727
37456,44399,27780
39692,44423,27868
42400,44413,27590
45352,44420,27662
48072,44395,27716
50424,44388,27770
52092,44388,27679
53012,44387,27677
52832,44384,27727
51508,44389,27692
49408,44388,27852
46840,44404,27594
44076,44390,27689
40996,44420,27788
37926,44376,27823
35768,44420,27593
34456,44412,27701
33509,44423,27714
32808,44415,27809
32176,44423,27620
31560,44404,27759
31152,44404,27728
30872,44332,27893
30752,44372,27654
30696,44351,27749
30600,44399,27812
30416,44423,27692
30274,44372,27759
30212,44399,27802
30156,44380,27648
30008,44399,27701
29988,44399,27700
30032,44389,27733
29909,44332,27679
29916,44319,27803
29984,44391,27580
30079,44423,27717
30049,44357,27689
30080,44399,27769
30068,44406,27593
29976,44317,27731
30110,44380,27796
30189,44399,27788
30232,44338,27655
30269,44391,27727
30280,44365,27798
30358,44393,27905
30440,44332,27690
30456,44413,27728
30460,44397,27783
30449,44417,27809
30434,44407,27869
30460,44327,27911
30496,44383,27775
30553,44311,27898
30620,44412,27884
30636,44325,27997
30676,44399,27816
30708,44341,27969
30788,44387,28131
30896,44337,27955
30900,44387,28004
30816,44404,28137
30696,44333,27994
30696,44372,28068
30820,44333,28103
30860,44396,28116
30932,44414,28143
30912,44405,28105
30901,44381,28204
31008,44404,28213
31148,44388,28196
31121,44367,28205
31078,44352,28292
31144,44389,28289
31132,44380,28191
31156,44377,28328
31268,44356,28333
31320,44389,28514
31237,44333,28271
31072,44372,28384
31065,44308,28393
31220,44373,28460
31308,44356,28449
31348,44358,28406
31332,44374,28471
31372,44295,28500
31516,44375,28633
31596,44350,28436
31564,44367,28512
31544,44358,28516
31564,44359,28636
31652,44336,28509
31588,44359,28463
31624,44295,28493
31820,44359,28657
31956,44295,28423
31956,44343,28475
31936,44369,28525
32028,44343,28524
32024,44361,28663
31920,44295,28432
32004,44311,28479
32100,44335,28480
32184,44327,28582
32273,44351,28639
32400,44365,28488
32376,44335,28382
32472,44290,28436
32568,44359,28470
32528,44333,28471
32520,44332,28545
32540,44293,28486
32652,44346,28328
32753,44284,28445
32716,44325,28492
32724,44349,28359
32762,44303,28335
32808,44351,28410
32824,44327,28452
32888,44354,28283
32882,44329,28399
32924,44311,28391
33012,44294,28374
33023,44327,28303
33068,44277,28375
33140,44326,28391
33078,44343,28311
33020,44325,28333
33024,44351,28349
33025,44271,28412
33048,44339,28196
33124,44311,28303
33076,44290,28270
32833,44337,28360
32697,44269,28309
32577,44348,28190
32480,44323,28279
32504,44327,28249
32452,44335,28263
32372,44316,28356
32292,44318,28240
32289,44252,28133
32292,44295,28230
32249,44287,28188
32204,44319,28237
32048,44313,28287
32064,44327,28084
32060,44260,28189
31937,44295,28188
31877,44315,28324
31916,44295,28063
31932,44285,28151
31948,44316,28143
31877,44249,28288
31832,44284,28025
31869,44317,28141
31984,44311,28106
31944,44279,28157
31848,44295,28153
31889,44279,28122
31876,44271,28082
31828,44292,28162
31784,44215,28076
31868,44271,28008
31960,44260,28081
31968,44263,28070
32040,44277,28234
31958,44263,27957
31894,44271,28085
31926,44215,28051
32020,44261,28103
32048,44261,27991
31936,44199,28051
31980,44271,28014
32052,44239,28167
32110,44235,27953
32172,44267,28039
32236,44263,28071
32149,44227,28097
32172,44253,27933
32112,44229,28039
32144,44199,28193
32306,44237,27935
32301,44223,28045
32288,44269,28025
32313,44261,28185
32268,44247,27921
32354,44263,28023
32364,44253,28015
32300,44236,28157
32238,44245,27971
32312,44249,27933
32344,44195,27988
32292,44236,28050
32420,44225,28012
32512,44249,28177
32476,44245,27916
32388,44183,28031
32352,44210,28012
32376,44226,28135
32372,44215,28015
32356,44239,28054
32484,44205,28091
32524,44221,27916
32448,44167,28039
32400,44167,28017
32433,44237,28157
32484,44191,28015
32484,44196,28053
32524,44220,27948
32510,44239,28034
32420,44229,27940
32340,44191,28055
32428,44167,28109
32536,44207,27959
32648,44213,28037
32652,44182,28139
32704,44218,27922
32613,44229,28025
32532,44143,28167
32636,44197,27964
32709,44207,28000
32654,44143,28156
32617,44202,27895
32673,44199,27988
32696,44207,27999
32756,44221,28132
32744,44212,27895
32724,44191,27970
32736,44207,27997
32760,44181,28122
32792,44197,27855
32756,44189,27879
32713,44167,27964
32708,44215,27951
32776,44151,28093
32800,44201,27841
32912,44193,27869
32889,44207,27975
32698,44135,27927
32708,44199,27920
32744,44183,27961
32840,44189,28063
32808,44132,27839
32772,44167,27952
32784,44205,27929
32788,44165,27978
32780,44191,27986
32796,44201,27861
32808,44127,27925
32812,44180,27957
32790,44165,28096
32800,44196,27820
32896,44147,27892
32904,44179,27939
32812,44205,27975
32692,44193,27954
32630,44183,27815
32669,44204,27935
32756,44124,27900
32836,44157,28020
32754,44183,27908
32738,44144,27823
32788,44177,27876
32852,44140,27941
32860,44128,28008
32933,44167,27981
32900,44183,27845
32870,44119,27968
32867,44167,27972
32832,44157,27927
32732,44161,27965
32768,44167,28020
32869,44101,28073
32900,44109,28076
32925,44167,28117
32942,44135,27863
32884,44185,27909
32944,44100,27962
32956,44101,27900
32836,44164,27927
32824,44151,27973
32844,44167,28000
32868,44117,27973
32884,44167,27987
32796,44161,28044
32780,44167,28145
32852,44177,28097
32936,44103,28117
32960,44149,28059
32876,44137,28070
32801,44105,27901
32772,44167,27941
32790,44167,27988
32876,44103,28023
32932,44158,28036
32916,44151,28031
32976,44167,28100
33032,44095,28184
33016,44140,27927
33016,44143,28025
32996,44133,28037
32908,44085,28017
32829,44149,28119
32866,44164,27965
32985,44119,27977
32986,44165,28048
32852,44142,28039
32893,44167,28159
32940,44157,27924
32973,44137,27993
32980,44156,28009
32968,44087,28133
33006,44143,27938
33008,44127,28013
33036,44151,28125
33044,44167,28013
33028,44149,27976
33000,44167,28007
32964,44156,28159
32916,44127,27930
32854,44087,28026
32912,44125,27968
33068,44159,28007
33076,44092,28037
32992,44151,28036
32900,44161,28003
33012,44125,28055
33036,44167,28175
33024,44147,27925
32964,44138,28031
32944,44133,28039
32804,44164,28005
32764,44119,28159
32968,44135,27910
32932,44112,28037
32872,44156,28021
32940,44146,28018
33020,44091,28166
32962,44156,28101
32889,44068,27911
32928,44137,27935
32940,44125,27993
32913,44153,28031
32944,44159,28041
32964,44087,28107
32872,44141,28007
32876,44132,27971
32954,44161,27989
32954,44083,28041
32821,44122,28019
32768,44139,28167
32817,44076,27911
32852,44131,27979
32816,44101,28058
32886,44167,28014
32773,44079,28034
32600,44149,28129
32568,44143,28074
32605,44125,28143
32708,44159,27980
32749,44135,28045
32804,44125,28108
32788,44158,27996
32800,44151,28083
32860,44111,28077
32952,44095,28142
33028,44135,27983
33012,44161,28102
33016,44143,28091
33084,44114,28047
33020,44103,28060
32924,44138,28075
32952,44159,28177
33024,44121,28039
33080,44141,28100
33124,44143,28133
33369,44148,28180
33557,44144,28110
33504,44127,28180
33273,44127,28012
33196,44141,28139
33156,44131,28269
33172,44156,28130
33152,44153,28162
33133,44167,28111
33169,44092,28100
33172,44133,28183
33144,44086,28044
33108,44145,28140
33192,44105,28135
33144,44108,28191
33128,44140,28309
33126,44157,28114
33120,44088,28159
33116,44134,28207
33141,44095,28101
33190,44133,28164
33172,44151,28237
33176,44151,28161
33224,44119,28187
33204,44132,28188
33060,44151,28255
33061,44143,28223
33144,44167,28107
33168,44108,28180
33172,44167,28183
33184,44141,28337
33208,44180,28167
33148,44115,28131
33092,44165,28220
33128,44167,28303
33116,44093,28106
33068,44161,28201
33068,44151,28205
33108,44183,28269
33164,44177,28213
33168,44167,28102
33262,44127,28231
33153,44163,28269
32944,44165,28151
32840,44164,28224
32580,44183,28186
32258,44189,28325
31941,44175,28235
31712,44197,28128
31620,44185,28189
31717,44215,28216
31742,44188,28178
32124,44205,28182
32673,44135,28252
33096,44180,28124
33640,44189,28119
34917,44196,28153
36877,44204,28185
39052,44238,28164
41760,44196,28278
44733,44205,28053
47193,44213,28144
49228,44209,28141
50772,44196,28252
51836,44189,28164
51976,44205,28082
50932,44204,28133
49124,44232,28285
46732,44245,28102
44028,44263,28132
41068,44268,28184
38096,44251,28173
36044,44285,28175
34604,44261,28066
33608,44199,28167
32820,44253,28156
32136,44261,28178
31633,44280,28197
31328,44250,28104
31150,44295,28128
30977,44289,28177
30784,44295,28177
30688,44309,28104
30620,44289,28133
30440,44279,28181
30356,44295,28036
30326,44295,28106
30356,44335,28252
30327,44244,28121
30266,44333,27980
30172,44302,28057
30104,44340,28053
30152,44263,28060
30308,44327,28153
30521,44279,27981
30472,44287,28031
30277,44335,28037
30184,44327,28183
30256,44367,28035
30272,44317,27925
30372,44367,28046
30380,44391,28044
30388,44372,28116
30348,44359,27905
30368,44319,28039
30420,44376,28071
30472,44407,27973
30544,44399,28009
30609,44359,28007
30708,44359,28176
30704,44405,27924
30721,44421,28063
30823,44373,28120
30764,44413,28132
30688,44433,27997
30596,44407,28093
30736,44431,28071
30956,44439,27985
31152,44423,28105
31044,44439,28278
30914,44471,28038
30892,44391,28121
30880,44452,28153
30904,44474,28228
30981,44463,28345
31036,44407,28175
31068,44477,28134
31048,44489,28236
31100,44470,28260
31228,44487,28375
31224,44523,28157
31160,44455,28165
31100,44511,28229
31106,44482,28319
31280,44517,28337
31412,44445,28462
31408,44524,28404
31372,44519,28218
31360,44551,28279
31409,44487,28361
31504,44551,28332
31576,44540,28340
31544,44532,28357
31465,44573,28417
31460,44517,28535
31584,44551,28357
31620,44549,28292
31612,44607,28348
31624,44518,28419
31668,44574,28474
31752,44543,28288
31796,44596,28404
31772,44615,28415
31684,44539,28396
31748,44615,28535
31876,44599,28271
31952,44551,28377
31992,44633,28371
32080,44631,28327
32192,44663,28265
32261,44661,28362
32304,44677,28324
32365,44677,28385
32373,44677,28306
32484,44623,28293
32620,44701,28311
32628,44693,28329
32608,44660,28151
32636,44639,28284
32724,44701,28331
32820,44732,28131
32840,44718,28212
32820,44671,28352
32862,44703,28080
32928,44732,28204
32997,44695,28215
32985,44709,28141
33004,44759,28111
33048,44744,28149
33104,44789,28232
33268,44772,28115
33453,44748,28112
33288,44783,28271
33040,44767,27989
32952,44764,28078
33004,44789,28085
33120,44786,28145
33109,44775,28091
33098,44791,28147
33072,44821,27991
32990,44807,28045
32968,44791,28204
32924,44757,27953
32884,44805,28014
32799,44807,28181
32724,44828,27911
32608,44807,28009
32532,44788,28167
32458,44850,27886
32396,44860,28005
32356,44790,28023
32297,44855,27933
32212,44869,27958
32120,44847,28015
32084,44831,27863
32024,44855,27945
32032,44885,27931
32092,44879,27980
32072,44903,28066
32000,44892,27941
32060,44908,28063
32056,44825,27860
32040,44887,27919
32020,44911,28036
31972,44839,27844
31900,44900,27903
31896,44919,27905
31884,44924,27851
31855,44919,27899
31784,44943,28044
31956,44935,27812
32120,44903,27858
32100,44951,27936
31952,44862,27877
31852,44919,27877
31860,44956,27930
31926,44935,27753
31997,44965,27849
32016,44967,27948
31984,44948,27739
32070,44973,27839
32137,44965,27969
32133,44981,27861
32120,44895,27844
32140,44964,27907
32264,44989,27721
32292,44930,27835
32252,44989,27935
32116,44977,27703
32108,44949,27828
32192,44999,27972
32268,44949,27778
32312,44996,27831
32244,45023,27952
32224,44975,27784
32260,44989,27849
32302,44999,27799
32360,45021,27848
32412,45007,27882
32453,45033,27842
32420,44964,27705
32424,45031,27768
32365,45025,27817
32304,45017,27834
32320,45043,27919
32368,45047,27716
32429,44975,27815
32424,45055,27833
32384,45055,27804
32406,45050,27874
32380,45072,27953
32352,45078,27825
32348,45085,27718
32404,45019,27677
32484,45063,27748
32544,45063,27782
32415,45055,27934
32364,45087,27782
32448,45117,27812
32400,45028,27783
32500,45095,27725
32576,45085,27807
32580,45116,27827
32556,45111,27800
32557,45093,27655
32625,45093,27684
32516,45132,27798
32520,45136,27759
32572,45127,27797
32553,45108,27804
32585,45156,27623
32620,45151,27737
32581,45143,27720
32600,45123,27812
32656,45153,27721
32631,45063,27743
32632,45151,27854
32665,45097,27645
32688,45093,27692
32636,45140,27749
32676,45167,27599
32784,45167,27665
32817,45143,27815
32704,45165,27628
32613,45133,27655
32680,45149,27639
32672,45164,27810
32688,45100,27536
32820,45159,27652
32865,45182,27701
32800,45180,27566
32652,45151,27617
32640,45165,27643
32692,45167,27741
32724,45175,27620
32708,45115,27515
32665,45167,27549
32712,45191,27633
32744,45133,27621
32772,45191,27636
32812,45159,27672
32780,45133,27745
32708,45187,27780
32624,45167,27802
32612,45191,27604
32708,45144,27537
32720,45191,27550
32740,45191,27633
32700,45215,27686
32644,45137,27666
32733,45205,27655
32860,45183,27689
32788,45215,27743
32716,45191,27727
32844,45183,27724
32820,45166,27687
32768,45213,27623
32716,45204,27749
32680,45212,27789
32804,45141,27744
32860,45191,27637
32848,45161,27716
32808,45207,27809
32760,45191,27776
32740,45155,27965
32784,45125,27694
32772,45191,27761
32788,45221,27868
32716,45173,27841
32761,45205,27852
32776,45205,27891
32752,45143,28028
32828,45209,27774
32880,45191,27902
32849,45155,27916
32796,45137,27930
32800,45191,28061
32912,45221,27889
32944,45191,27851
32845,45191,27953
32728,45173,27980
32662,45207,28005
32704,45183,28149
32698,45175,27940
32668,45191,28028
32732,45153,28048
32704,45213,28036
32729,45191,28075
32820,45200,28191
32736,45191,28181
32703,45185,28229
32740,45204,28092
32744,45199,28065
32812,45187,28021
32860,45201,28109
32913,45191,28167
32864,45189,28159
32688,45167,28226
32665,45221,28281
32914,45201,28179
32880,45191,28073
32756,45143,28210
32716,45183,28219
32754,45191,28273
32728,45159,28388
32716,45181,28196
32648,45172,28260
32608,45191,28297
32692,45209,28354
32881,45185,28242
32920,45191,28260
32880,45204,28313
32840,45141,28367
32850,45175,28212
32804,45191,28285
32768,45191,28327
32720,45183,28481
32744,45207,28223
32812,45185,28295
32912,45173,28353
33004,45173,28500
32944,45183,28444
32814,45188,28437
32712,45165,28284
32806,45191,28308
32832,45119,28407
32788,45183,28397
32820,45174,28491
32840,45212,28551
32869,45129,28365
32892,45183,28303
33004,45175,28381
33112,45191,28390
33010,45181,28541
32734,45159,28293
32676,45140,28444
32817,45172,28477
32912,45204,28410
32852,45183,28357
32916,45185,28463
32884,45191,28445
32816,45189,28417
32836,45165,28452
32848,45189,28437
32824,45175,28561
32702,45164,28502
32624,45151,28423
32725,45191,28319
32721,45118,28396
32689,45181,28463
32617,45172,28467
32621,45175,28428
32614,45096,28525
32548,45151,28319
32417,45148,28456
32432,45159,28429
32692,45168,28566
32808,45111,28419
32824,45165,28329
32824,45191,28461
32853,45173,28519
32924,45165,28324
32846,45108,28450
32800,45114,28507
32908,45092,28372
33000,45135,28444
32960,45085,28464
33012,45094,28341
32976,45150,28423
32916,45089,28517
32870,45063,28375
32989,45116,28447
33112,45123,28434
33212,45135,28559
33241,45130,28327
33240,45124,28475
33240,45063,28484
33157,45055,28457
33149,45108,28476
33148,45077,28492
33044,45104,28338
33006,45056,28461
32956,45087,28553
32892,45103,28357
32972,45119,28487
33248,45093,28625
33220,45101,28367
33038,45100,28467
32888,45115,28629
32980,45049,28411
32942,45079,28469
32980,45115,28541
33000,45087,28519
32968,45087,28436
33157,45006,28511
33161,45063,28512
33008,45063,28655
33016,45023,28544
33104,45063,28423
33084,45063,28543
33044,45063,28499
32928,45061,28559
32900,45063,28672
33056,44994,28524
33036,45047,28409
33010,45055,28500
33024,44989,28532
33032,45039,28541
33116,45051,28676
33184,45009,28487
33092,45035,28511
33016,45055,28517
32988,44967,28562
32996,45025,28678
33056,44999,28519
32932,45036,28453
32754,44956,28434
32474,45017,28493
32196,45019,28547
31826,45036,28557
31596,45031,28580
31568,44999,28661
31716,45031,28572
31772,44981,28409
32041,45001,28484
32484,44989,28561
33017,45028,28504
33728,45012,28660
34928,44997,28550
36768,45019,28504
38892,44964,28419
41294,44988,28492
43988,44988,28549
46600,44972,28536
48800,44950,28663
50340,44949,28401
51252,44949,28439
51324,44959,28538
50228,44966,28540
48368,44965,28495
46084,44973,28567
43480,44968,28661
40708,44973,28645
37888,44957,28541
35820,44981,28452
34352,44951,28535
33422,44975,28497
32748,44957,28532
32188,44913,28669
31680,44967,28456
31316,44951,28507
31082,44927,28550
30838,44895,28521
30822,44924,28638
30829,44934,28676
30704,44932,28415
30565,44935,28541
30452,44863,28499
30416,44919,28528
30394,44951,28540
30320,44919,28504
30300,44935,28485
30268,44911,28550
30278,44916,28332
30308,44871,28357
30260,44900,28447
30296,44893,28397
30365,44900,28423
30404,44908,28481
30392,44895,28489
30336,44917,28268
30408,44897,28373
30450,44879,28375
30424,44892,28357
30512,44877,28366
30564,44807,28437
30536,44879,28477
30564,44868,28309
30576,44887,28277
30576,44799,28343
30652,44869,28303
30664,44851,28303
30560,44871,28317
30544,44861,28305
30656,44769,28301
30677,44836,28335
30752,44871,28423
30837,44767,28209
30881,44850,28219
30904,44833,28251
30864,44855,28351
30945,44769,28352
31116,44831,28333
31148,44802,28399
30960,44815,28465
30942,44831,28482
31034,44823,28516
31088,44735,28455
31232,44807,28342
31380,44807,28343
31364,44721,28423
31292,44781,28397
31276,44804,28449
31374,44790,28495
31368,44767,28300
31380,44793,28324
31344,44739,28356
31362,44708,28349
31412,44711,28359
31478,44765,28317
31554,44761,28324
31544,44783,28329
31504,44711,28399
31512,44759,28462
31541,44743,28449
31580,44764,28449
31612,44692,28433
31703,44749,28493
31812,44761,28602
31886,44743,28444
31900,44750,28484
31844,44754,28527
31788,44663,28554
31874,44719,28364
31966,44731,28455
31956,44724,28503
31940,44737,28437
32036,44733,28391
32112,44711,28434
32188,44703,28396
32240,44655,28420
32248,44717,28297
32302,44673,28399
32249,44711,28370
32324,44643,28417
32432,44671,28514
32513,44711,28344
32648,44697,28250
32632,44719,28356
32640,44651,28313
32660,44687,28436
32750,44711,28245
32804,44652,28269
32801,44679,28275
32904,44694,28333
32953,44637,28413
32844,44693,28233
32948,44702,28161
33133,44703,28200
33220,44676,28246
33172,44646,28263
33124,44669,28335
33106,44655,28295
33177,44621,28231
33364,44655,28161
33396,44623,28116
33312,44611,28217
33228,44664,28219
33268,44655,28198
33160,44661,28185
33076,44599,28181
33048,44647,28198
33024,44601,28210
32964,44643,28277
32884,44599,28317
32758,44614,28154
32686,44639,28044
32616,44564,28102
32596,44612,28167
32524,44637,28130
32412,44583,28125
32296,44604,28223
32156,44549,28295
32093,44538,28028
32160,44580,28103
32140,44598,28116
32040,44583,28277
31972,44596,28039
31832,44588,28156
31800,44596,28160
31908,44581,28101
31864,44551,28111
31929,44583,28110
31864,44477,28124
31764,44547,28228
31772,44551,28014
31822,44477,28143
31788,44540,28117
31796,44519,28179
31852,44550,28187
31880,44471,28300
31820,44519,28122
31773,44477,28037
31712,44504,28103
31660,44447,28053
31848,44494,28167
31764,44487,28159
31837,44502,28197
31836,44423,28308
31852,44487,28044
31840,44480,28191
31860,44412,28204
31884,44461,28166
31892,44469,28103
31888,44391,28192
31952,44460,28148
31972,44440,28155
32130,44447,28167
32268,44455,28185
32316,44407,28288
32113,44437,28054
31868,44438,28156
31740,44359,28179
31856,44417,28156
31912,44423,28231
31980,44385,28247
32112,44409,28082
32168,44423,28212
32049,44365,28183
32068,44407,28297
32104,44418,28165
32116,44389,28101
32124,44381,28213
32116,44399,28175
32148,44319,28231
32244,44370,28232
32277,44358,28070
32280,44404,28183
32292,44317,28182
32328,44367,28167
32314,44356,28137
32304,44343,28125
32293,44367,28124
32324,44321,28180
32414,44324,28226
32440,44351,28069
32424,44353,27982
32436,44279,28021
32400,44327,28109
32416,44341,28057
32480,44279,28183
32448,44309,28134
32389,44260,27952
32504,44236,28071
32590,44277,28101
32564,44247,28011
32554,44295,27938
32549,44310,28015
32592,44295,28002
32666,44303,28024
32597,44268,27984
32604,44282,28132
32594,44247,27941
32621,44279,27879
32664,44208,27983
32668,44255,27974
32680,44276,28098
32672,44228,27975
32732,44263,27839
32735,44260,27930
32748,44228,27900
32713,44239,28031
32696,44219,27886
32596,44243,27777
32550,44191,27892
32620,44227,27865
32616,44235,28036
32664,44167,27757
32716,44223,27873
32708,44180,27847
32756,44205,28003
32880,44204,27751
32900,44183,27871
32764,44207,27854
32688,44181,27920
32646,44167,27757
32598,44199,27804
32669,44141,27881
32738,44180,27871
32608,44165,27985
32660,44167,27756
32672,44167,27810
32740,44157,27876
32821,44127,27871
32808,44103,27924
32736,44142,28042
32644,44149,27778
32684,44131,27904
32780,44111,27970
32804,44148,27895
32760,44163,27906
32748,44076,27902
32806,44133,27962
32800,44149,27879
32748,44086,27955
32748,44112,27936
32773,44129,28101
32782,44055,27847
32828,44112,27954
32854,44127,27964
32877,44039,28054
32808,44103,28046
32692,44081,27894
32722,44105,28037
32696,44087,28100
32724,44088,27999
32772,44069,27945
32740,44071,28071
32752,44103,28148
32764,44079,27974
32712,44039,28100
32688,44023,28161
32821,44039,28135
32820,44013,28077
32848,43991,28102
32800,44025,28245
32804,44055,28159
32766,44039,28140
32685,44034,28199
32720,44052,28188
32694,43973,28284
32700,44029,28307
32718,43996,28153
32777,44031,28232
32736,43956,28217
32684,44012,28236
32685,43991,28390
32828,44013,28389
32848,44004,28165
32846,43984,28295
32812,44015,28281
32764,43981,28393
32764,43969,28308
32704,43925,28319
32808,43983,28311
33005,43988,28324
33116,43975,28336
32968,43990,28431
32720,43967,28508
32668,43983,28273
32748,43911,28314
32784,43963,28393
32816,43927,28388
32824,43971,28396
32852,43892,28503
32836,43940,28361
32840,43959,28437
32860,43941,28538
32900,43966,28356
32809,43899,28467
32856,43935,28479
32992,43948,28436
32964,43925,28492
32897,43943,28511
32772,43853,28463
32700,43911,28491
32853,43935,28486
32916,43932,28615
32985,43911,28471
32928,43928,28551
32832,43916,28567
32752,43895,28587
32816,43911,28521
32892,43895,28596
32917,43909,28554
32876,43894,28601
32846,43867,28637
32828,43843,28593
32784,43868,28588
32796,43843,28632
32756,43871,28629
32896,43879,28785
32960,43869,28549
32805,43844,28662
32760,43799,28737
32776,43825,28580
32844,43869,28666
32908,43853,28653
32876,43847,28729
32860,43860,28657
32860,43824,28703
32864,43838,28745
32846,43821,28722
32909,43829,28714
32912,43807,28869
32884,43827,28657
32900,43820,28725
32913,43823,28640
32845,43765,28696
33016,43815,28742
33068,43767,28879
32888,43773,28664
32752,43783,28766
32800,43801,28773
32871,43783,28738
32829,43767,28788
32816,43735,28929
32842,43783,28697
32876,43748,28760
32836,43775,28889
32714,43799,28718
32624,43757,28793
32533,43719,28722
32563,43751,28833
32825,43783,28823
32824,43775,28726
32733,43757,28843
32708,43781,28972
32760,43771,28799
32796,43759,28831
32724,43722,28866
32660,43740,28853
32820,43700,28996
32888,43735,28792
32820,43751,28847
32826,43746,29005
32926,43671,28841
33073,43679,28896
33112,43715,28933
33124,43743,28837
33116,43684,28919
33092,43716,28943
33216,43693,28881
33348,43719,28901
33381,43701,28919
33372,43705,28828
33356,43693,28902
33336,43679,28980
33300,43711,28837
33360,43695,28923
33250,43687,29079
33236,43670,28929
33160,43671,28943
33056,43615,28965
33016,43655,28902
33036,43677,28911
32997,43655,29054
33076,43677,28872
33108,43655,28919
33038,43643,29031
33127,43655,28901
33354,43641,28961
33264,43623,28909
33048,43637,29034
32964,43638,29087
33020,43631,28911
32933,43623,28860
33008,43607,28900
33084,43639,28944
32965,43564,28917
32964,43612,28976
33038,43572,29062
32989,43612,28871
32904,43602,28902
32836,43605,28898
32944,43544,28935
33004,43588,29031
32933,43620,28805
32937,43596,28868
32996,43558,28909
32976,43605,28866
32952,43591,28903
33004,43566,29003
33087,43581,28833
33060,43591,28761
32996,43579,28764
32852,43577,28806
32620,43567,28839
32441,43591,28841
32156,43524,28863
31808,43573,28715
31657,43549,28811
31720,43575,28901
31888,43479,28695
32032,43527,28785
32476,43508,28738
32796,43565,28881
33392,43559,28781
34336,43556,28649
35696,43537,28751
37468,43557,28716
39580,43524,28715
41997,43526,28814
44544,43510,28836
46808,43503,28660
48696,43484,28633
49960,43486,28648
50508,43479,28678
50164,43485,28781
48741,43492,28754
46748,43485,28543
44504,43495,28553
41848,43484,28626
38868,43500,28584
36526,43503,28642
35268,43500,28671
34208,43463,28532
33348,43483,28549
32581,43494,28712
32064,43433,28487
31653,43415,28576
31324,43460,28628
31005,43484,28583
30904,43433,28502
31020,43469,28564
30946,43460,28532
30789,43444,28505
30754,43479,28556
30724,43471,28556
30676,43415,28620
30568,43461,28489
30340,43429,28463
30256,43455,28429
30368,43391,28508
30396,43431,28471
30400,43399,28370
30376,43445,28371
30416,43434,28457
30472,43398,28389
30472,43363,28433
30432,43415,28270
30496,43441,28380
30660,43375,28377
30642,43399,28382
30608,43415,28257
30676,43420,28324
30687,43409,28317
30676,43431,28403
30721,43408,28268
30748,43391,28303
30812,43367,28284
30880,43393,28455
30872,43399,28219
30840,43393,28311
30816,43404,28419
30908,43391,28295
30852,43399,28308
30888,43399,28480
30980,43399,28327
31032,43397,28340
31037,43329,28436
31090,43324,28337
31156,43367,28344
31194,43351,28409
31232,43381,28436
31306,43367,28428
31338,43383,28559
31296,43367,28369
31248,43380,28430
31212,43372,28484
31416,43373,28487
31296,43356,28519
31329,43359,28445
31416,43343,28487
31404,43301,28646
31428,43271,28499
31428,43287,28549
31408,43341,28487
31500,43349,28572
31601,43308,28575
31636,43319,28737
31612,43326,28539
31632,43324,28645
31656,43341,28653
31628,43331,28748
31676,43327,28615
31700,43326,28631
31780,43311,28764
31824,43317,28734
31908,43327,28607
31972,43309,28676
31988,43322,28695
32033,43300,28703
32048,43319,28830
32060,43239,28774
32120,43303,28805
32070,43327,28644
32152,43311,28669
32344,43319,28853
32460,43259,28621
32420,43303,28629
32364,43301,28679
32400,43295,28679
32448,43300,28717
32460,43300,28632
32520,43271,28697
32748,43301,28639
32812,43235,28672
32776,43284,28569
32820,43300,28613
32896,43241,28663
33192,43284,28615
33344,43271,28644
33225,43285,28739
32928,43271,28565
32944,43271,28620
32964,43259,28588
33088,43305,28732
33184,43252,28500
33300,43271,28589
33313,43293,28644
33220,43223,28708
33176,43271,28548
33264,43287,28575
33424,43271,28532
33474,43271,28657
33404,43229,28583
33352,43271,28474
33372,43287,28516
33388,43269,28521
33357,43245,28572
33268,43203,28621
33173,43236,28423
33168,43259,28540
33098,43247,28491
32985,43247,28623
32916,43207,28600
32908,43253,28410
32813,43261,28483
32772,43261,28463
32768,43228,28505
32620,43208,28493
32388,43236,28414
32352,43223,28500
32321,43233,28467
32276,43236,28623
32216,43212,28405
32252,43215,28463
32188,43234,28456
32128,43221,28519
32020,43231,28588
31952,43219,28457
32004,43207,28397
31952,43189,28471
31724,43188,28429
31661,43143,28421
31945,43191,28570
32060,43216,28463
31956,43207,28388
31756,43183,28439
31798,43175,28503
31972,43186,28490
31996,43177,28377
31980,43119,28479
31940,43159,28470
31860,43189,28555
31792,43183,28416
31868,43141,28445
31892,43151,28600
31952,43175,28552
32016,43159,28377
31860,43164,28478
31828,43095,28465
31952,43143,28623
31916,43157,28407
31984,43143,28471
32089,43164,28495
32088,43160,28502
32184,43167,28613
32268,43153,28413
32152,43157,28479
31940,43103,28493
31884,43134,28644
31878,43078,28442
31960,43073,28499
32096,43079,28667
32080,43079,28448
32090,43127,28525
32332,43077,28637
32340,43135,28532
32152,43099,28623
32048,43109,28511
32132,43069,28589
32192,43124,28489
32097,43076,28591
32125,43101,28639
32128,43069,28519
32140,43111,28583
32173,43132,28708
32245,43116,28575
32300,43079,28661
32272,43087,28593
32276,43063,28593
32296,43095,28612
32208,43117,28636
32236,43108,28718
32396,43111,28598
32408,43053,28609
32462,43093,28744
32400,43123,28619
32400,43102,28647
32374,43111,28647
32396,43015,28667
32324,43085,28662
32361,43100,28703
32464,43031,28679
32448,43076,28679
32412,43097,28700
32444,43044,28708
32542,43081,28704
32534,43087,28711
32500,43079,28748
32552,43077,28799
32600,43068,28661
32556,43078,28719
32529,43015,28820
32624,43065,28679
32692,43099,28723
32632,43079,28761
32496,43052,28763
32417,42993,28868
32442,43047,28698
32610,43063,28740
32644,43005,28823
32688,43031,28773
32624,43069,28876
32552,43044,28771
32572,43060,28799
32724,43005,28700
32903,43044,28755
32774,43047,28747
32560,42991,28917
32545,43015,28740
32605,43037,28754
32760,43028,28921
32784,43013,28721
32728,43039,28749
32700,42983,28838
32688,43015,28706
32684,43046,28739
32704,43033,28855
32732,43007,28689
32632,42997,28756
32636,43013,28741
32740,42981,28860
32750,42971,28711
32660,43015,28685
32693,43008,28707
32775,43031,28740
32836,43015,28853
32764,42989,28675
32712,43013,28764
32772,42999,28756
32714,42983,28873
32672,43009,28663
32701,42959,28735
32864,43001,28752
33096,42975,28733
33021,42962,28796
32896,43005,28671
32748,43007,28754
32692,42949,28742
32752,42983,28866
32828,42989,28647
32950,42965,28724
32892,42975,28705
32672,43007,28801
32696,42951,28770
32805,42985,28734
33047,43007,28716
33080,42980,28759
32897,43000,28679
32830,42948,28703
32849,42981,28783
32784,42971,28635
32754,42989,28716
32832,42935,28705
32840,42978,28836
32700,43002,28703
32660,42991,28677
32760,42948,28828
32804,42934,28679
32840,42965,28690
32850,42980,28679
32884,42916,28687
32816,42967,28707
32744,42991,28606
32814,42993,28693
32927,42947,28679
32838,42927,28762
32740,42959,28695
32756,42925,28686
32820,42974,28785
32616,42959,28617
32548,42980,28655
32796,42965,28643
32968,42971,28757
32973,42997,28584
32972,42983,28687
32896,42964,28662
32792,42988,28801
32632,42979,28593
32600,42951,28671
32718,42925,28748
32844,42964,28735
32884,42983,28649
32972,42979,28639
33034,42961,28644
32988,42977,28768
32852,42911,28741
32716,42955,28620
32876,42956,28642
32816,42951,28743
32596,42932,28728
32617,42937,28620
32700,42967,28703
32844,42937,28655
32800,42983,28791
32870,42975,28746
32920,42940,28653
32840,42908,28679
32828,42941,28770
32717,42953,28803
32678,42886,28647
32770,42927,28747
32840,42946,28727
32885,42959,28711
33037,42917,28743
33188,42943,28892
33116,42951,28678
32884,42885,28698
32860,42932,28767
32800,42874,28765
32768,42935,28807
32712,42871,28892
32724,42919,28871
32820,42900,28823
32836,42873,28783
32816,42919,28853
32837,42940,28811
32840,42876,28844
32760,42916,28917
32806,42893,29007
32888,42920,28807
32920,42863,28906
32776,42916,28889
32732,42911,28916
32842,42926,29059
32828,42869,28854
32852,42927,28929
32756,42911,28935
32569,42930,28951
32440,42857,29103
32496,42895,28903
32580,42878,28987
32648,42916,28995
32588,42927,29126
32524,42879,29012
32632,42911,28958
32760,42937,29037
32752,42917,28996
32576,42903,29134
32508,42909,29063
32589,42908,29005
32644,42903,29044
32672,42927,29052
32792,42871,29036
32832,42919,29109
32884,42893,29217
32924,42887,29015
32936,42911,29071
32950,42914,29124
32952,42903,29083
32912,42847,29094
32924,42887,29245
32932,42918,29057
33088,42863,29129
33192,42900,29141
33249,42882,29156
33254,42887,29174
33288,42909,29140
33310,42855,29191
33200,42887,29309
33132,42895,29121
33232,42900,29167
33308,42900,29200
33152,42869,29223
33148,42919,29327
33140,42861,29319
33056,42885,29159
32985,42900,29245
33008,42879,29212
33006,42869,29279
32885,42887,29269
32864,42845,29183
32964,42879,29263
32996,42887,29262
33072,42861,29249
33080,42901,29362
32961,42878,29311
32816,42887,29223
32864,42843,29319
32888,42863,29292
32893,42845,29445
32957,42869,29286
33004,42892,29335
33156,42884,29334
33217,42852,29348
33192,42837,29388
33012,42865,29337
32954,42887,29423
32936,42887,29309
32960,42876,29348
32976,42887,29519
32944,42887,29333
32868,42887,29375
32932,42887,29516
32936,42868,29343
32960,42823,29434
32992,42887,29412
32686,42851,29532
32365,42871,29372
32053,42823,29425
31752,42877,29556
31576,42836,29400
31584,42886,29471
31756,42887,29464
31916,42830,29516
32320,42876,29459
32772,42900,29446
33220,42885,29600
33948,42887,29441
35308,42887,29482
37168,42887,29533
39184,42869,29615
41425,42884,29433
43824,42862,29513
46176,42871,29479
48228,42871,29596
49488,42854,29469
50052,42859,29478
49756,42852,29493
48500,42846,29593
46584,42852,29530
44488,42868,29479
42100,42872,29487
39312,42876,29492
36904,42860,29641
35420,42879,29471
34236,42896,29544
33365,42848,29533
32840,42876,29582
32152,42853,29689
31580,42855,29513
31317,42868,29567
31157,42855,29609
31020,42887,29605
30912,42825,29583
30743,42877,29717
30608,42871,29743
30641,42863,29754
30656,42887,29639
30512,42806,29596
30508,42855,29621
30696,42879,29610
30784,42871,29724
30500,42811,29748
30314,42875,29556
30408,42887,29629
30452,42886,29620
30380,42829,29595
30413,42788,29599
30524,42865,29685
30597,42852,29702
30590,42877,29588
30552,42847,29641
30524,42872,29601
30672,42850,29744
30624,42857,29586
30680,42863,29656
30741,42875,29623
30796,42823,29732
30728,42863,29693
30640,42805,29605
30744,42823,29672
31120,42852,29639
31136,42879,29757
30938,42881,29819
31036,42872,29670
31317,42860,29703
31325,42879,29794
31178,42863,29736
30920,42871,29716
30988,42871,29760
31220,42867,29766
31360,42853,29822
31180,42823,29940
30988,42885,29831
30996,42815,29805
31114,42860,29824
31316,42887,29985
31380,42799,29823
31398,42791,29836
31436,42868,29852
31508,42855,29884
31404,42884,29895
31224,42821,29941
31212,42887,30063
31393,42887,29894
31708,42855,29929
31776,42868,29926
31644,42856,29975
31596,42882,29948
31629,42803,30011
31653,42861,30093
31628,42884,29974
31652,42855,29916
31696,42887,29962
31776,42857,29935
31856,42874,30021
31972,42868,30000
31820,42848,29933
31716,42871,29989
31788,42801,29946
31854,42855,30093
31918,42871,29954
31956,42813,29913
31992,42853,29973
32060,42842,29911
32050,42871,30004
32024,42877,30049
32089,42847,29869
32280,42871,29919
32288,42853,29967
32260,42869,29929
32364,42863,29849
32492,42871,29846
32620,42836,29818
32692,42869,29929
32860,42849,29885
32978,42871,29754
32856,42855,29756
32720,42871,29859
32748,42799,29716
32852,42847,29745
32926,42869,29703
32996,42868,29826
33060,42847,29655
33048,42880,29679
33048,42869,29679
33068,42831,29729
33112,42870,29641
33220,42866,29615
33228,42877,29734
33164,42871,29545
33208,42878,29604
33280,42879,29555
33204,42847,29561
33204,42823,29503
33264,42863,29644
33252,42877,29468
33280,42848,29473
33341,42867,29620
33524,42852,29414
33592,42868,29483
33500,42855,29439
33117,42851,29540
33021,42846,29399
32948,42855,29417
32792,42863,29415
32745,42799,29504
32661,42825,29361
32495,42861,29390
32524,42829,29469
32472,42829,29314
32300,42847,29356
32112,42821,29447
32236,42821,29256
32336,42847,29331
32280,42851,29323
32164,42775,29268
32068,42823,29308
31956,42844,29276
31896,42833,29341
32000,42798,29264
31922,42780,29318
31752,42780,29191
31776,42778,29239
31952,42807,29383
32032,42783,29184
32068,42815,29221
31936,42787,29271
31794,42812,29263
31624,42783,29316
31616,42796,29173
31730,42759,29205
31831,42804,29247
31772,42777,29236
31732,42823,29205
31900,42793,29307
32009,42759,29175
31945,42789,29204
31908,42759,29368
31916,42788,29202
32124,42746,29214
32356,42756,29314
32280,42751,29242
32104,42807,29197
31912,42805,29273
31816,42823,29359
31796,42815,29180
31772,42791,29221
31812,42804,29381
32128,42793,29200
32233,42725,29231
32076,42735,29404
31840,42788,29271
31840,42812,29340
31992,42799,29243
32076,42777,29283
31992,42797,29439
32044,42775,29287
32024,42813,29337
32104,42731,29420
32192,42785,29402
32241,42757,29358
32188,42759,29364
32176,42792,29519
32229,42797,29390
32324,42799,29420
32356,42807,29531
32301,42725,29393
32208,42768,29453
32184,42807,29519
32216,42791,29419
32181,42800,29510
32220,42789,29544
32256,42823,29461
32244,42810,29556
32188,42782,29573
32144,42770,29518
32152,42779,29608
32304,42797,29574
32414,42756,29660
32480,42783,29695
32620,42805,29594
32692,42803,29676
32595,42789,29645
32409,42800,29807
32532,42759,29663
32820,42799,29697
32613,42799,29807
32244,42777,29767
32216,42797,29763
32264,42783,29838
32214,42807,29792
32284,42788,29797
32480,42801,29927
32500,42758,29959
32488,42743,29847
32432,42719,29860
32476,42759,29975
32544,42790,29984
32456,42772,29911
32372,42757,29935
32572,42759,30045
32548,42789,30111
32596,42783,29940
32765,42812,30016
32694,42789,30016
32566,42791,30177
32624,42781,30027
32716,42759,30099
32625,42783,30084
32656,42759,30253
32776,42754,30164
32776,42759,30126
32654,42781,30203
32562,42781,30236
32528,42759,30205
32508,42791,30364
32545,42759,30228
32533,42735,30299
32624,42779,30325
32721,42711,30357
32846,42758,30504
32744,42758,30356
32512,42788,30441
32652,42723,30435
32756,42759,30528
32588,42780,30598
32582,42729,30498
32560,42773,30525
32608,42743,30577
32776,42754,30612
32950,42784,30612
32892,42759,30681
32625,42771,30754
32492,42775,30672
32596,42778,30746
32620,42759,30745
32670,42745,30856
32685,42772,30887
32652,42725,30799
32568,42735,30870
32673,42773,30862
32700,42781,31021
32652,42789,30892
32688,42791,30975
32764,42735,30967
32765,42759,31087
32728,42790,30996
32733,42781,31027
32676,42756,31141
32816,42743,31028
32828,42786,31077
32676,42780,31128
32580,42780,31148
32814,42775,31183
32956,42796,31165
32784,42743,31178
32688,42775,31232
32612,42759,31319
32610,42777,31207
32740,42759,31238
32808,42783,31276
32833,42773,31262
32792,42793,31390
32648,42791,31269
32606,42791,31301
32696,42779,31423
32744,42775,31320
32712,42717,31335
32625,42743,31447
32624,42711,31343
32624,42759,31364
32709,42743,31493
32664,42759,31361
32740,42781,31382
32664,42759,31509
32600,42751,31415
32716,42713,31422
32784,42757,31413
32780,42751,31516
32732,42759,31461
32688,42774,31426
32876,42714,31475
33173,42759,31439
33184,42783,31545
33008,42723,31437
32772,42754,31475
32620,42759,31502
32688,42721,31557
32628,42747,31456
32496,42745,31461
32628,42757,31524
32748,42747,31549
32688,42727,31469
32660,42759,31452
32716,42727,31569
32728,42727,31437
32744,42700,31438
32696,42743,31460
32593,42751,31442
32716,42759,31546
32748,42745,31444
32784,42759,31439
32910,42719,31479
32900,42759,31525
32842,42741,31398
32613,42751,31433
32452,42692,31395
32584,42738,31425
32676,42759,31400
32696,42759,31400
32660,42756,31463
32604,42775,31364
32560,42759,31361
32492,42757,31395
32530,42778,31367
32532,42772,31316
32544,42748,31292
32432,42775,31380
32320,42751,31261
32540,42735,31236
32556,42697,31301
32468,42743,31239
32733,42759,31255
33030,42759,31214
32881,42735,31184
32620,42724,31140
32420,42741,31251
32520,42759,31127
32588,42748,31109
32672,42759,31177
32793,42742,31073
32836,42725,31042
32884,42759,31078
32788,42737,30979
32764,42759,30999
32724,42749,30997
32764,42719,31007
32864,42711,30913
32976,42741,30908
33204,42727,30852
33238,42757,30968
33264,42755,30794
33240,42731,30819
33140,42757,30802
33021,42743,30806
32960,42716,30735
32961,42716,30692
32948,42727,30775
32884,42729,30726
32788,42676,30661
32873,42727,30599
32960,42751,30717
32908,42693,30526
32890,42733,30564
32676,42749,30573
32704,42733,30527
32776,42745,30487
32916,42724,30536
32860,42684,30396
32880,42670,30378
32912,42713,30497
33038,42743,30353
33132,42720,30328
32956,42727,30301
32848,42694,30341
33032,42727,30279
33145,42711,30228
32997,42724,30271
32856,42740,30293
32833,42682,30311
32868,42725,30122
32928,42711,30165
32928,42748,30100
33180,42689,30170
33276,42732,30025
33136,42715,30084
32844,42724,30132
32760,42715,30150
32748,42741,30025
32862,42685,29951
32916,42732,29935
32878,42751,30076
32668,42700,29896
32408,42751,29877
32025,42713,29950
31764,42759,29972
31646,42692,29800
31596,42724,29844
31716,42743,29783
32060,42703,29896
32576,42735,29765
32926,42752,29751
33242,42751,29725
33772,42733,29727
34868,42759,29689
36621,42743,29684
38680,42727,29621
40812,42735,29584
43216,42724,29680
45536,42716,29522
47492,42708,29580
48572,42709,29537
49300,42710,29653
49248,42709,29474
48044,42708,29471
46317,42729,29605
44364,42727,29414
42152,42717,29415
39344,42719,29413
36700,42727,29442
35040,42724,29428
34050,42711,29336
33360,42742,29368
32713,42752,29491
32160,42743,29303
31904,42727,29356
31772,42743,29487
31560,42749,29303
31168,42732,29315
30908,42715,29466
30924,42727,29333
30920,42720,29437
30900,42729,29305
30896,42725,29305
30696,42703,29191
30717,42728,29267
30796,42689,29212
30552,42697,29306
30405,42695,29122
30408,42735,29188
30428,42717,29241
30532,42702,29055
30637,42727,29124
30764,42653,29191
30632,42713,29063
30630,42719,29091
30504,42653,29077
30536,42693,29009
30594,42703,29046
30572,42711,29001
30726,42681,29039
30864,42733,28957
30852,42669,28951
30932,42717,29006
31040,42721,28873
31000,42693,28957
30953,42708,28956
30944,42687,28895
31108,42695,28925
31188,42711,28909
31121,42690,29006
31194,42727,28858
31192,42663,28875
31146,42714,28953
31268,42724,28907
31616,42711,28971
31721,42725,28840
31432,42717,28917
31112,42727,29051
31212,42717,28919
31333,42704,28957
31356,42728,28972
31340,42687,28877
31364,42725,28918
31312,42687,29036
31240,42735,28913
31192,42655,28974
31292,42711,28935
31366,42706,29035
31504,42701,28884
31509,42727,28972
31556,42732,28968
31516,42665,29008
31536,42713,28887
31792,42733,28959
31940,42655,29023
31796,42702,29081
31589,42689,28987
31524,42655,28871
31609,42717,28887
31785,42687,28956
31940,42708,28898
32064,42695,28951
32066,42687,29061
32128,42711,28849
32332,42653,28906
32200,42684,28880
32009,42677,28917
31968,42663,29023
32112,42655,28809
32252,42687,28872
32216,42698,28881
32257,42663,28821
32480,42685,28959
32655,42679,28876
32718,42660,28785
32608,42683,28751
32480,42677,28750
32368,42663,28751
32512,42663,28777
32521,42687,28855
32676,42685,28615
32788,42679,28679
32778,42679,28627
32832,42663,28769
32804,42619,28629
32857,42665,28540
33016,42644,28583
33230,42679,28533
33384,42612,28504
33174,42671,28519
32920,42644,28543
33088,42695,28369
33312,42685,28448
33348,42653,28450
33340,42613,28317
33336,42660,28352
33312,42669,28336
33210,42623,28460
33180,42663,28427
33236,42690,28252
33274,42631,28316
33276,42684,28258
33485,42676,28268
33553,42663,28257
33584,42695,28375
33532,42631,28287
33360,42677,28189
33160,42668,28107
33142,42687,28134
33104,42671,28183
33054,42681,28176
32948,42701,28089
32837,42676,28143
32916,42686,28092
32728,42692,28102
32636,42679,28068
32760,42671,28051
32655,42687,28123
32500,42686,28116
32613,42716,27975
32581,42694,28039
32420,42687,28085
32192,42725,28002
32108,42727,27903
32026,42649,27936
32142,42687,27988
32217,42702,27959
32300,42649,28085
32172,42685,27845
31892,42703,27878
31798,42668,27904
31868,42696,27950
32088,42647,28033
31900,42647,27796
31924,42683,27845
32024,42709,27873
32054,42703,27903
31972,42712,27859
31824,42703,27783
31796,42724,27811
31948,42705,27837
32007,42703,27919
32124,42727,27813
32156,42661,27741
32228,42701,27743
32122,42695,27789
32125,42713,27815
32316,42696,27797
32436,42717,27841
32133,42721,27789
31944,42713,27798
32092,42749,27887
32172,42709,27908
32176,42727,27685
32172,42668,27721
32188,42689,27788
32104,42727,27836
32161,42743,27841
32412,42709,27726
32585,42700,27728
32564,42756,27775
32320,42757,27783
32136,42741,27863
32133,42783,27834
32192,42735,27853
32184,42759,27898
32160,42759,27953
32225,42754,27943
32360,42757,27927
32480,42748,27986
32332,42796,28015
32348,42735,27817
32461,42783,27924
32416,42775,27936
32496,42783,27911
32544,42798,27911
32348,42731,28074
32437,42780,27863
32552,42797,27975
32557,42789,28011
32688,42796,27984
32724,42796,27991
32556,42783,27967
32341,42814,27980
32420,42801,28132
32444,42785,28167
32456,42777,28061
32655,42783,28084
32732,42821,28079
32584,42772,27993
32766,42823,28067
32980,42821,28089
32988,42831,28085
32892,42786,28241
32825,42823,28023
32900,42823,28025
32724,42811,28101
32484,42831,28150
32512,42831,28144
32584,42820,28285
32604,42823,28292
32624,42812,28155
32612,42853,28119
32632,42783,28196
32832,42832,28181
32900,42817,28351
32789,42814,28167
32812,42796,28199
32912,42851,28229
32816,42851,28282
32552,42841,28242
32534,42869,28261
32576,42869,28239
32653,42869,28294
32688,42850,28362
32704,42876,28204
32576,42880,28271
32644,42887,28317
32604,42820,28290
32592,42880,28332
32660,42887,28473
32708,42887,28317
32752,42921,28345
32760,42919,28386
32602,42924,28358
32592,42919,28420
32664,42877,28548
32752,42919,28349
32780,42908,28405
32744,42908,28495
32704,42940,28531
32608,42885,28439
32452,42894,28499
32369,42939,28540
32484,42924,28707
32524,42917,28672
32624,42949,28620
32604,42881,28657
32644,42949,28733
32748,42943,28842
32812,42932,28721
32848,42979,28863
32824,42960,28933
32824,42935,28924
32873,42973,28923
32828,42975,29022
32712,42950,29214
32540,42985,29063
32474,42975,29164
32620,42973,29364
32698,43012,29245
32680,43011,29378
32808,42989,29417
32684,43015,29542
32550,42955,29553
32672,43012,29630
32900,42996,29720
32889,43015,29796
32744,43037,29959
32704,42975,30052
32832,43039,29981
32748,43061,30100
32661,42991,30181
32724,43051,30394
32729,43061,30305
32694,42995,30438
32632,43055,30559
32608,43047,30700
32650,43071,30758
32660,43043,30765
32704,43083,30861
32829,43088,31076
32844,43029,31030
32844,43079,31150
32750,43093,31315
32716,43093,31293
32536,43087,31441
32460,43113,31576
32564,43076,31580
32765,43104,31721
32748,43090,31911
32580,43131,31915
32580,43143,32025
32640,43138,32113
32729,43123,32161
32824,43142,32303
32798,43079,32385
32689,43140,32550
32696,43119,32565
32772,43143,32673
32780,43162,32839
32768,43152,32866
32681,43188,32959
32684,43127,33108
32672,43173,33189
32634,43140,33241
32660,43183,33349
32632,43127,33429
32792,43183,33577
32808,43212,33671
32724,43143,33703
32716,43206,33817
32836,43194,33911
32941,43164,34004
32975,43212,34092
32996,43226,34180
32940,43157,34287
33014,43231,34352
32897,43231,34453
32684,43229,34551
32717,43265,34642
32712,43269,34749
32613,43253,34811
32528,43268,34917
32536,43261,34999
32584,43271,35103
32656,43269,35197
32556,43263,35289
32720,43260,35357
32796,43299,35455
32720,43245,35549
32552,43292,35625
32536,43316,35725
32510,43255,35820
32417,43309,35891
32500,43300,35975
32621,43316,36081
32636,43301,36177
32740,43261,36244
32813,43335,36303
32972,43333,36420
33000,43359,36519
32869,43301,36575
32844,43351,36685
32904,43336,36781
32766,43360,36833
32748,43358,36908
32864,43319,37012
33036,43367,37103
33276,43359,37127
33317,43337,37255
33276,43380,37345
33216,43399,37425
33156,43389,37511
33140,43399,37540
33082,43334,37649
33124,43380,37732
32972,43391,37815
32988,43380,37895
33048,43349,37932
33080,43399,38055
33108,43424,38053
33180,43423,38189
33433,43399,38275
33561,43425,38287
33180,43385,38374
32666,43415,38486
32664,43436,38586
32908,43383,38557
32961,43437,38708
32921,43460,38759
33013,43407,38804
33021,43445,38933
32964,43468,38983
32896,43459,39022
32900,43455,39140
32878,43453,39169
33028,43465,39303
33140,43399,39372
33124,43455,39340
33332,43493,39510
33388,43487,39596
33340,43487,39559
33076,43490,39635
32936,43500,39773
32896,43433,39841
32912,43469,39796
32988,43485,39972
32993,43501,40062
32913,43485,40015
32844,43479,40177
32821,43500,40248
32800,43467,40308
32816,43513,40269
32440,43511,40421
32081,43527,40519
31758,43512,40450
31672,43527,40596
31792,43527,40628
32148,43516,40753
32524,43495,40820
33081,43558,40748
33750,43548,40935
34520,43568,40975
35313,43575,40967
36480,43548,41127
38068,43577,41135
39804,43581,41188
41740,43575,41170
43665,43596,41323
45676,43607,41411
47232,43605,41314
47900,43612,41479
47816,43611,41460
46941,43621,41607
44960,43635,41652
42733,43652,41591
40740,43655,41735
38621,43684,41769
36261,43671,41889
34348,43660,41933
33264,43639,41856
32636,43680,42040
32296,43669,42110
32144,43679,41991
31876,43709,42199
31641,43631,42279
31528,43687,42173
31520,43719,42348
31449,43711,42396
31444,43716,42343
31402,43684,42477
31360,43708,42533
31341,43725,42604
31268,43724,42607
31244,43730,42599
31260,43687,42727
31156,43727,42759
31172,43687,42678
31090,43733,42696
30902,43680,42853
30926,43740,42852
31256,43753,42936
31589,43726,42805
31444,43756,42989
31166,43749,43015
31048,43761,43036
31062,43767,42951
31072,43727,43124
31168,43783,43175
31188,43732,43179
31118,43783,43248
30981,43796,43127
31157,43727,43172
31222,43783,43300
31220,43800,43377
31220,43740,43271
31168,43783,43271
31320,43783,43445
31424,43813,43460
31273,43741,43555
31348,43801,43460
31540,43748,43441
31600,43777,43655
31596,43815,43692
31669,43793,43700
31554,43783,43756
31492,43828,43827
31672,43751,43831
31869,43809,43758
31853,43836,43759
31744,43841,43954
31812,43845,43957
31868,43822,43985
31752,43847,43895
31713,43825,44071
31625,43799,44087
31628,43845,44134
31732,43836,44002
31892,43828,44189
32000,43871,44175
31876,43863,44247
31780,43847,44261
31780,43860,44149
31996,43783,44167
32210,43828,44293
32332,43853,44359
32224,43847,44231
32000,43845,44241
31972,43807,44389
32012,43807,44365
32176,43863,44423
32269,43853,44367
32294,43877,44271
32448,43866,44279
32396,43797,44294
32321,43829,44436
32300,43855,44399
32328,43831,44453
32452,43884,44308
32453,43812,44453
32401,43863,44436
32562,43820,44423
32660,43829,44273
32732,43871,44428
32841,43847,44396
32836,43863,44364
32677,43799,44423
32640,43867,44321
32718,43879,44253
32958,43869,44342
33056,43847,44383
32813,43860,44263
32856,43871,44216
33105,43848,44212
33428,43879,44321
33572,43799,44293
33268,43853,44315
32936,43841,44249
32748,43879,44158
32860,43879,44278
33064,43872,44250
33353,43887,44252
33581,43874,44201
33700,43815,44095
33760,43831,44244
33568,43869,44220
33331,43868,44215
33224,43819,44116
33262,43868,44217
33389,43879,44164
33464,43892,44223
33428,43869,44077
33604,43863,44199
33760,43869,44169
33844,43847,44167
33684,43811,44164
33276,43852,44067
32980,43887,44142
32816,43879,44196
32809,43861,44084
32812,43892,44035
32756,43874,44161
32501,43848,44159
32416,43879,44136
32452,43783,44007
32527,43855,44158
32660,43842,44113
32580,43855,44148
32100,43849,43999
31792,43828,44124
31864,43863,44081
31664,43857,44151
31414,43839,43972
31436,43855,44064
31400,43840,44039
31182,43835,43944
31252,43847,44076
31553,43819,44016
31764,43853,44007
31776,43835,43879
31648,43865,44007
31512,43796,44003
31200,43861,43973
31008,43828,43823
31005,43813,43975
31136,43840,43908
31304,43771,43909
31324,43831,43925
31364,43796,43884
31404,43808,43884
31565,43847,43725
31616,43829,43847
31424,43783,43855
31208,43823,43719
31256,43783,43846
31352,43756,43821
31589,43805,43796
31608,43804,43698
31461,43810,43623
31517,43843,43748
31640,43824,43756
31520,43831,43630
31416,43823,43708
31564,43821,43757
31696,43741,43663
31844,43783,43591
31832,43813,43753
31700,43807,43720
31444,43783,43767
31296,43829,43645
31476,43815,43645
31664,43807,43783
31792,43761,43781
31804,43759,43813
31764,43797,43778
31680,43783,43661
31921,43815,43832
32024,43795,43854
32165,43783,43852
32270,43802,43775
32256,43783,43885
32153,43815,43932
31932,43729,43831
31872,43783,43823
32024,43766,44001
31935,43783,44033
31948,43775,44029
32032,43783,44089
32064,43773,44077
32097,43803,43992
31920,43799,44131
31921,43781,44215
32104,43796,44121
32600,43777,44276
32632,43753,44260
32185,43780,44345
31808,43717,44261
31974,43775,44245
32416,43763,44288
32596,43765,44463
32273,43709,44484
32128,43740,44539
32276,43765,44489
32244,43742,44423
31902,43764,44617
31856,43719,44647
32176,43732,44551
32584,43748,44724
32656,43743,44721
32644,43724,44719
32336,43741,44669
31848,43684,44852
31812,43727,44839
32128,43735,44878
32337,43719,44943
32420,43695,44935
32344,43724,44965
32256,43719,44902
32369,43703,45017
32368,43699,45036
32292,43708,45110
32462,43719,45119
32657,43700,45153
32624,43678,45057
32440,43715,45220
32300,43683,45273
32104,43681,45156
31996,43671,45328
32416,43669,45387
32712,43697,45245
32733,43639,45423
32500,43677,45485
32216,43700,45372
31908,43679,45533
31928,43684,45568
32212,43670,45453
32246,43639,45636
32277,43631,45692
32356,43655,45562
32404,43621,45709
32156,43665,45764
32016,43679,45815
32196,43655,45839
32226,43631,45791
32176,43600,45903
32260,43637,45980
32192,43633,46004
32396,43628,46020
32650,43619,45908
32756,43638,46062
32788,43653,46125
32788,43631,46013
32589,43635,46165
32538,43557,46228
32516,43605,46116
32238,43623,46279
32320,43607,46321
32620,43617,46361
32508,43593,46343
32320,43616,46324
32116,43615,46447
32084,43617,46479
32020,43555,46420
32176,43581,46369
32352,43591,46535
32514,43575,46589
32534,43582,46599
32304,43573,46633
32169,43584,46547
32328,43573,46665
32508,43604,46656
32696,43578,46724
32644,43586,46612
32609,43572,46748
32212,43567,46711
32040,43571,46679
32285,43548,46796
32268,43562,46766
32048,43557,46765
31984,43575,46843
31880,43561,46852
31918,43572,46808
32000,43567,46876
32124,43561,46911
32340,43503,46727
32684,43527,46889
32665,43517,46919
32312,43526,46933
32156,43516,46884
32189,43541,46916
32204,43557,46781
32336,43527,46918
32101,43556,46874
32085,43541,46956
32213,43541,46949
32244,43527,46957
32356,43491,46912
32500,43471,46842
32604,43527,46943
32636,43527,46940
32784,43467,46785
32864,43510,46911
32812,43527,46959
32804,43466,46781
32828,43511,46901
32644,43444,46933
32524,43490,46953
32766,43484,46949
33016,43487,46945
32982,43520,46901
32788,43461,46948
32570,43479,46788
32716,43495,46911
32808,43476,46935
32612,43450,46847
32452,43452,46734
32500,43468,46871
32668,43477,46911
32760,43463,46855
32852,43461,46711
32920,43463,46830
32956,43463,46823
32920,43483,46871
32868,43405,46828
32902,43437,46855
32861,43428,46803
32776,43440,46837
32846,43453,46796
32868,43383,46703
32848,43420,46809
32840,43383,46797
32912,43428,46719
32928,43445,46789
32868,43421,46727
32888,43415,46658
32934,43415,46756
33016,43428,46707
32996,43431,46756
32964,43420,46689
32984,43421,46577
32850,43373,46703
32592,43415,46636
32300,43412,46621
32000,43413,46660
31992,43413,46592
32000,43413,46617
32096,43396,46429
32316,43383,46553
32868,43366,46548
33332,43391,46369
33796,43413,46485
34392,43399,46436
35184,43399,46365
36220,43384,46405
37792,43399,46337
39924,43340,46324
41776,43369,46133
43454,43381,46241
45048,43373,46233
46228,43377,46031
46948,43367,46141
47088,43373,46113
46198,43366,45901
43952,43358,46024
41028,43372,45996
38500,43358,45956
36377,43319,45937
34524,43355,45887
33340,43317,45872
32692,43364,45831
32412,43343,45757
32428,43300,45767
32428,43324,45743
32064,43335,45703
31612,43315,45668
31277,43317,45479
31228,43303,45551
31257,43311,45549
31104,43316,45526
31076,43252,45477
31200,43303,45396
31266,43297,45271
31104,43245,45344
31020,43223,45297
31040,43260,45124
31198,43295,45223
31168,43271,45175
31160,43247,44988
31212,43226,45087
31257,43271,44999
31228,43260,44871
31181,43258,44783
31076,43271,44839
31070,43207,44839
31192,43209,44645
31268,43194,44707
31289,43231,44703
31257,43215,44679
31306,43231,44614
31424,43251,44612
31520,43231,44437
31346,43236,44501
31269,43220,44468
31316,43215,44502
31450,43207,44441
31681,43188,44471
31856,43143,44444
31868,43199,44396
31785,43217,44354
31766,43200,44397
31604,43223,44404
31530,43197,44236
31612,43140,44343
31732,43165,44333
31732,43175,44167
31780,43151,44321
31884,43189,44261
31792,43172,44221
31796,43143,44111
31908,43111,44249
31893,43154,44260
31888,43156,44165
31901,43143,44228
31952,43156,44223
31988,43130,44028
31988,43111,44196
31880,43099,44167
31964,43125,44034
32164,43142,44159
32080,43142,44111
32236,43069,44122
32408,43126,43948
32200,43124,44065
31944,43053,44063
32044,43101,44066
32140,43087,43910
32112,43071,44029
32116,43060,43963
32172,43097,43976
32324,43099,43804
32328,43099,43897
32316,43106,43860
32420,43092,43743
32534,43079,43844
32468,43086,43836
32356,43079,43655
32376,43060,43607
32413,43083,43751
32472,43008,43676
32572,43077,43706
32580,43054,43593
32622,43077,43438
32831,43031,43421
32824,43053,43527
32868,43031,43448
32832,43055,43436
32844,43047,43240
32876,43055,43351
32905,43036,43261
33036,43055,43168
33156,42977,43191
33180,43029,43130
33116,43047,42988
33256,43015,43070
33432,43003,43023
33376,43015,42992
33161,43013,42905
33109,43005,42749
33128,42967,42685
33141,43037,42805
33224,43014,42751
33356,42960,42692
33396,43015,42615
33480,42999,42581
33445,42981,42577
33392,43007,42509
33380,42975,42292
33400,42991,42417
33400,42999,42322
33488,42973,42319
33480,43005,42237
33356,42997,42045
33185,42927,42021
33066,42981,42110
33216,42980,42053
33288,42919,41877
33284,42967,41968
33180,42959,41919
32904,42989,41855
32782,42917,41673
32628,42956,41759
32636,42980,41729
32560,42887,41633
32334,42951,41479
32161,42935,41591
32080,42935,41508
32096,42933,41524
32032,42932,41364
32028,42941,41309
32132,42948,41375
32160,42873,41305
32116,42914,41292
32061,42924,41140
32005,42854,41038
31817,42884,41153
31740,42915,41127
31652,42842,41012
31540,42892,41043
31492,42887,40967
31684,42915,40978
31774,42860,40871
31816,42895,40759
31833,42884,40823
31808,42887,40773
31830,42869,40782
31989,42877,40613
31948,42847,40669
31776,42847,40637
31664,42860,40631
31720,42879,40482
31712,42839,40512
31648,42844,40497
31760,42860,40381
31872,42838,40404
31902,42831,40389
31892,42783,40245
31892,42808,40307
31850,42823,40301
31869,42759,40156
32048,42799,40206
32109,42807,40189
32108,42811,40071
32001,42806,40141
31816,42724,40105
31840,42759,40002
31884,42799,40052
31972,42782,40053
32180,42759,39911
32300,42797,39986
32208,42716,39957
32040,42759,39926
32020,42782,39807
32004,42751,39900
31984,42704,39879
32068,42747,39753
32040,42741,39800
32096,42727,39796
32188,42742,39659
32169,42740,39637
32228,42741,39716
32372,42703,39671
32308,42725,39676
32193,42711,39663
32221,42685,39567
32250,42714,39503
32260,42705,39599
32276,42723,39599
32284,42707,39462
32372,42687,39559
32440,42717,39503
32421,42687,39510
32366,42687,39509
32352,42652,39447
32408,42660,39340
32488,42671,39453
32594,42643,39401
32740,42620,39387
32624,42671,39276
32464,42653,39375
32452,42684,39349
32485,42615,39311
32460,42660,39319
32437,42631,39303
32428,42663,39228
32456,42580,39175
32536,42622,39271
32476,42644,39237
32368,42581,39231
32308,42631,39164
32460,42627,39116
32522,42655,39128
32568,42581,39227
32534,42623,39175
32642,42627,39205
32685,42557,39104
32488,42599,39068
32304,42627,39128
32404,42605,39125
32688,42618,39020
32720,42559,39108
32744,42597,39117
32656,42615,38988
32588,42605,39065
32417,42605,39020
32420,42583,39061
32364,42599,39034
32456,42574,39047
32472,42565,39007
32526,42583,39045
32544,42605,39036
32623,42581,38919
32676,42589,39004
32613,42573,38981
32564,42569,38948
32660,42559,38997
32600,42559,38894
32572,42541,38980
32590,42565,38951
32740,42548,38983
32776,42548,38983
32752,42540,38918
32770,42527,38970
32821,42533,38864
32720,42479,38940
32676,42525,38877
32772,42469,38949
32896,42503,38919
32876,42485,38945
32664,42535,38935
32640,42519,38941
32596,42533,38919
32480,42503,38919
32472,42489,38884
32576,42501,38801
32564,42503,38901
32593,42495,38884
32676,42462,38823
32736,42446,38880
32812,42487,38864
32918,42473,38788
32896,42487,38789
32746,42503,38825
32732,42485,38751
32764,42487,38828
32680,42469,38827
32536,42479,38725
32450,42476,38791
32484,42446,38800
32596,42431,38684
32526,42453,38780
32377,42447,38796
32312,42456,38688
32242,42484,38773
32220,42447,38775
32352,42439,38660
32540,42436,38767
32652,42449,38748
32680,42455,38740
32609,42442,38614
32592,42471,38703
32648,42452,38713
32602,42463,38623
32672,42448,38673
32808,42423,38647
32732,42389,38679
32566,42418,38661
32574,42439,38559
32674,42431,38623
32753,42430,38613
32829,42418,38620
32924,42438,38599
33060,42412,38495
33176,42415,38572
33208,42405,38564
33224,42375,38495
33200,42343,38545
33184,42375,38525
33105,42391,38480
33068,42375,38535
32976,42357,38453
32892,42380,38448
32932,42364,38488
32980,42359,38385
32909,42371,38463
32752,42349,38383
32744,42305,38447
32768,42343,38449
32890,42306,38318
33044,42356,38417
33026,42371,38407
33012,42359,38293
32982,42360,38367
32924,42340,38353
32984,42349,38279
33088,42327,38312
33164,42337,38271
33086,42308,38297
33044,42260,38255
33044,42328,38263
33036,42319,38223
33006,42303,38263
32964,42311,38252
32944,42293,38137
32948,42303,38197
33004,42275,38135
33104,42300,38189
32976,42292,38182
32920,42279,38091
32940,42276,38113
32980,42293,38048
32972,42239,38092
32912,42298,37996
32942,42269,38068
32980,42239,37972
33020,42261,38039
33012,42247,38039
32996,42247,37932
32768,42215,37990
32309,42265,37983
31912,42285,37910
31640,42274,37948
31460,42278,37915
31504,42247,37941
31648,42247,37959
31964,42244,37871
32448,42247,37917
32932,42203,37820
33588,42233,37895
34676,42221,37894
36438,42247,37792
38661,42247,37852
41190,42230,37847
43724,42225,37745
46320,42212,37808
48678,42189,37735
50424,42185,37799
51260,42189,37797
51172,42191,37719
49986,42191,37751
47912,42213,37671
45536,42215,37743
42904,42205,37724
40126,42228,37639
37232,42221,37685
35185,42231,37675
34128,42204,37692
33373,42215,37676
32801,42205,37607
32340,42226,37621
32072,42211,37559
31732,42223,37617
31434,42204,37605
31200,42210,37511
31045,42207,37564
30942,42135,37548
30652,42156,37468
30532,42183,37503
30521,42200,37463
30504,42199,37473
30445,42201,37428
30384,42196,37415
30436,42189,37335
30388,42150,37342
30452,42119,37247
30596,42163,37291
30592,42185,37241
30504,42101,37229
30404,42166,37165
30524,42178,37087
30620,42119,37119
30612,42183,37095
30424,42159,37041
30364,42111,36975
30472,42164,37012
30580,42166,36989
30636,42172,36933
30580,42132,36895
30669,42183,36928
30830,42154,36895
30824,42135,36878
30708,42101,36804
30728,42100,36839
30712,42165,36760
30808,42157,36813
30780,42149,36781
30772,42136,36799
30908,42149,36767
30980,42103,36740
31046,42095,36764
31084,42132,36711
31114,42159,36751
31264,42119,36705
31342,42105,36740
31321,42119,36724
31238,42087,36733
31228,42135,36724
31225,42145,36700
31209,42077,36689
31176,42133,36706
31184,42159,36692
31257,42084,36650
31320,42159,36697
31290,42125,36641
31296,42144,36675
31364,42125,36609
31456,42135,36648
31456,42119,36613
31464,42143,36647
31476,42077,36636
31604,42111,36565
31708,42092,36607
31796,42131,36606
31756,42127,36530
31644,42111,36560
31784,42117,36543
31744,42111,36495
31492,42117,36527
31624,42109,36497
31872,42127,36496
31976,42119,36473
31973,42089,36469
32032,42092,36385
32012,42085,36403
31984,42079,36404
31966,42095,36308
31936,42095,36341
31928,42086,36316
32136,42065,36246
32328,42093,36264
32180,42105,36212
32060,42093,36198
32080,42095,36177
32088,42074,36121
32052,42065,36100
32200,42070,36087
32332,42056,36079
32448,42095,36001
32569,42095,36005
32635,42075,35975
32668,42101,35956
32672,42031,35903
32632,42069,35879
32549,42093,35861
32585,42068,35842
32680,42077,35808
32741,42013,35788
32784,42060,35733
32764,42039,35731
32752,42071,35700
32844,42097,35673
32932,42084,35649
32972,42087,35628
32968,42068,35557
32924,42069,35570
32996,42071,35540
32952,42047,35512
32929,42035,35487
32846,42054,35457
32992,42055,35430
33072,42055,35414
33020,42083,35381
32892,42028,35340
32792,42052,35335
32812,42063,35308
32864,41991,35285
32826,42028,35257
32792,42047,35216
32789,42019,35215
32709,42041,35189
32558,42053,35173
32442,42013,35133
32493,42032,35109
32624,42047,35092
32508,41991,35065
32405,42004,35024
32500,42005,35007
32388,42031,34993
32172,42015,34963
31937,41987,34944
32005,42031,34927
32132,42041,34892
32200,42031,34856
32196,42023,34841
32136,42031,34818
32056,42023,34793
31992,42023,34783
31924,41977,34748
31950,41991,34731
32136,42031,34692
32236,42015,34673
32144,42029,34666
31996,41967,34607
31924,42011,34601
31936,42021,34597
32044,41943,34565
32032,41979,34543
32092,41991,34537
32108,42015,34501
32140,41991,34481
32140,42019,34476
32140,41991,34439
32188,42009,34417
32172,41986,34402
32209,41991,34373
32200,41945,34361
32124,41959,34337
32132,41939,34311
32212,41975,34297
32180,41971,34284
32228,41973,34262
32232,41991,34252
32188,41988,34241
32224,41972,34229
32224,41915,34225
32104,41952,34207
32093,41969,34190
32152,41956,34193
32304,41961,34168
32349,41951,34158
32284,41943,34163
32268,41900,34141
32380,41932,34137
32512,41953,34127
32524,41935,34115
32620,41935,34103
32662,41881,34081
32642,41911,34082
32589,41881,34049
32444,41919,34051
32232,41903,34026
32192,41924,34017
32316,41912,34010
32396,41916,34007
32404,41924,33981
32366,41909,33957
32417,41927,33951
32698,41916,33957
32748,41943,33919
32756,41933,33914
32780,41917,33892
32712,41908,33903
32496,41863,33863
32524,41908,33856
32573,41917,33852
32496,41905,33828
32504,41908,33817
32560,41863,33813
32612,41897,33783
32677,41927,33778
32748,41855,33769
32724,41916,33751
32740,41879,33738
32732,41857,33716
32812,41895,33719
32812,41863,33724
32796,41900,33671
32720,41895,33671
32708,41911,33671
32774,41919,33639
32885,41893,33639
32868,41855,33620
32820,41893,33639
32780,41892,33588
32788,41863,33589
32924,41903,33582
32921,41895,33588
32888,41846,33581
32948,41889,33554
32893,41913,33543
32872,41911,33543
32984,41903,33521
33004,41903,33525
32916,41840,33543
32844,41890,33515
32904,41901,33511
33044,41839,33505
33068,41870,33522
32948,41897,33479
32952,41894,33480
32993,41895,33508
32970,41847,33469
32884,41884,33471
32852,41901,33493
32836,41876,33463
32754,41897,33476
32720,41876,33447
32776,41892,33453
32888,41886,33441
32940,41895,33435
32978,41837,33429
32988,41877,33425
32920,41901,33407
32852,41863,33404
32720,41885,33423
32620,41818,33384
32532,41863,33401
32402,41873,33380
32375,41855,33411
32500,41863,33367
32556,41879,33368
32628,41863,33375
32648,41879,33366
32674,41863,33375
32792,41863,33335
32776,41861,33348
32493,41863,33361
32544,41857,33337
32712,41843,33333
32789,41825,33309
32756,41839,33320
32688,41823,33338
32752,41857,33287
32856,41857,33300
32892,41807,33303
32912,41847,33303
32860,41837,33263
32900,41863,33277
32940,41853,33260
33032,41852,33255
33156,41806,33276
33216,41830,33239
33236,41800,33242
33289,41831,33207
33296,41803,33206
33304,41815,33223
33184,41783,33204
33124,41828,33214
33140,41839,33167
33263,41829,33169
33425,41849,33195
33545,41845,33139
33384,41855,33131
33152,41831,33159
33084,41837,33109
33044,41821,33116
33016,41793,33107
33024,41815,33095
33132,41831,33084
33204,41836,33100
33248,41833,33047
33220,41804,33031
33232,41816,33047
33245,41788,33031
33184,41783,33047
33261,41794,32989
33324,41792,32997
33316,41799,33012
33278,41757,32965
33285,41809,32951
33304,41771,32941
33304,41806,32937
33180,41783,32929
33036,41799,32900
33000,41773,32909
33032,41797,32914
33032,41823,32871
33068,41788,32879
33146,41815,32852
33236,41798,32845
33301,41820,32837
33296,41811,32848
33196,41796,32799
33105,41813,32805
33109,41807,32812
32996,41773,32794
32764,41734,32799
32456,41781,32823
32204,41753,32770
31860,41796,32775
31653,41831,32775
31574,41769,32756
31652,41799,32755
31812,41815,32764
32249,41801,32763
32692,41777,32730
33406,41799,32763
34495,41790,32724
36194,41818,32725
38360,41804,32752
40814,41785,32688
43500,41791,32708
46220,41775,32693
48804,41759,32741
50868,41744,32660
52012,41735,32676
52384,41745,32701
51588,41757,32642
49664,41764,32669
47276,41772,32647
44588,41804,32691
41704,41807,32623
38560,41799,32623
36120,41799,32661
34624,41812,32612
33624,41800,32615
32980,41785,32653
32504,41811,32584
32101,41817,32613
31756,41783,32594
31413,41799,32646
31136,41757,32580
31088,41797,32584
31072,41756,32623
30964,41797,32533
30680,41820,32564
30524,41807,32583
30456,41815,32535
30284,41799,32551
30252,41798,32485
30264,41804,32479
30265,41831,32504
30216,41813,32447
30254,41815,32421
30201,41815,32415
30212,41823,32381
30230,41732,32423
30225,41797,32349
30264,41767,32351
30398,41807,32365
30552,41814,32335
30688,41816,32321
30736,41831,32324
30612,41807,32316
30588,41816,32349
30644,41788,32291
30676,41775,32317
30664,41789,32245
30688,41735,32244
30629,41795,32257
30609,41775,32243
30725,41801,32229
30828,41810,32287
30844,41791,32221
30960,41800,32212
30944,41781,32285
30890,41749,32209
30908,41799,32220
30952,41813,32260
30992,41785,32251
31190,41735,32303
31180,41773,32225
31104,41804,32254
30976,41748,32308
31068,41733,32236
31253,41767,32256
31228,41797,32262
31248,41791,32315
31312,41773,32327
31271,41799,32253
31341,41767,32280
31456,41767,32279
31460,41791,32301
31432,41773,32284
31358,41784,32263
31424,41771,32311
31532,41735,32263
31524,41753,32279
31517,41759,32301
31516,41767,32263
31684,41764,32262
31737,41791,32287
31700,41757,32255
31636,41783,32224
31649,41760,32288
31684,41757,32207
31718,41753,32219
31702,41735,32201
31700,41732,32212
31797,41775,32192
31885,41751,32181
31948,41765,32186
31892,41711,32135
31836,41725,32108
32133,41765,32128
32204,41765,32057
32142,41767,32047
32010,41772,32103
32140,41759,32019
32225,41771,32025
32140,41757,31972
32172,41767,32005
32257,41777,31913
32320,41751,31897
32376,41767,31901
32328,41751,31875
32364,41767,31871
32520,41763,31831
32613,41778,31812
32568,41759,31835
32493,41713,31735
32574,41759,31745
32581,41731,31764
32640,41759,31713
32704,41765,31678
32764,41709,31641
32816,41748,31708
32864,41748,31613
32932,41743,31582
33001,41778,31649
33148,41765,31543
33048,41779,31529
32892,41732,31595
32869,41757,31463
32960,41735,31471
32990,41757,31453
33020,41755,31508
32996,41735,31417
32992,41743,31404
33098,41754,31348
32976,41775,31357
33078,41717,31400
33096,41735,31303
32864,41703,31350
32628,41757,31269
32516,41693,31239
32437,41733,31300
32356,41733,31239
32480,41735,31217
32501,41765,31229
32468,41757,31188
32468,41713,31157
32384,41703,31149
32284,41731,31129
32316,41723,31193
32276,41732,31095
32260,41679,31108
32206,41721,31031
32012,41681,31017
32104,41733,31104
32057,41767,31006
32024,41687,30961
32064,41729,31061
31992,41735,30932
31916,41687,30956
31968,41716,30979
31960,41707,30887
31928,41735,30902
31952,41733,30871
32005,41735,30943
32217,41686,30872
32316,41723,30836
32264,41735,30906
32048,41718,30838
31956,41697,30831
32048,41687,30876
32124,41703,30784
32140,41729,30768
32156,41675,30843
32116,41719,30752
32028,41735,30724
31966,41728,30767
32188,41701,30736
32293,41673,30756
32305,41697,30674
32108,41687,30692
32064,41695,30767
32080,41725,30673
32172,41725,30652
32192,41681,30774
32184,41669,30664
32241,41709,30676
32348,41733,30639
32238,41719,30652
32164,41719,30751
32245,41663,30655
32296,41683,30660
32308,41663,30685
32380,41703,30668
32608,41725,30698
32653,41719,30629
32404,41697,30670
32096,41660,30676
32188,41693,30613
32184,41644,30629
32188,41682,30611
32230,41647,30629
32272,41703,30724
32284,41725,30637
32308,41711,30700
32280,41727,30597
32304,41668,30638
32337,41703,30629
32352,41684,30722
32420,41687,30589
32444,41695,30622
32412,41711,30691
32420,41653,30585
32576,41685,30615
32556,41653,30695
32444,41703,30673
32380,41711,30579
32432,41711,30598
32476,41669,30678
32508,41696,30620
32400,41661,30657
32428,41659,30568
32372,41687,30612
32430,41703,30613
32448,41660,30667
32492,41703,30569
32488,41711,30588
32534,41699,30679
32568,41669,30668
32592,41686,30632
32686,41669,30572
32636,41668,30587
32592,41701,30675
32658,41685,30573
32642,41699,30609
32604,41695,30698
32718,41710,30613
32756,41687,30692
32604,41703,30631
32542,41679,30694
32644,41692,30590
32624,41679,30604
32736,41703,30644
32864,41687,30631
32736,41700,30727
32608,41695,30604
32768,41693,30615
32847,41663,30714
32748,41675,30610
32484,41676,30645
32523,41673,30721
32496,41655,30653
32550,41629,30663
32632,41671,30682
32620,41685,30712
32604,41655,30659
32612,41664,30661
32616,41617,30591
32641,41644,30668
32656,41607,30763
32677,41652,30641
32709,41615,30655
32736,41655,30724
32800,41679,30676
32848,41661,30664
32812,41695,30783
32776,41657,30655
32725,41648,30719
32748,41673,30696
32668,41616,30772
32654,41661,30676
32644,41663,30693
32697,41671,30767
32712,41673,30763
32760,41647,30727
32740,41676,30712
32660,41663,30735
32648,41644,30743
32624,41663,30727
32696,41591,30823
32718,41636,30721
32720,41655,30741
32714,41591,30837
32696,41639,30743
32700,41647,30727
32728,41651,30742
32644,41627,30749
32524,41593,30727
32532,41628,30780
32464,41645,30855
32476,41639,30757
32468,41625,30785
32425,41645,30870
32417,41605,30752
32478,41645,30812
32525,41625,30794
32468,41647,30895
32321,41647,30769
32420,41639,30827
32452,41581,30780
32512,41613,30823
32504,41645,30773
32496,41637,30791
32527,41627,30898
32676,41647,30806
32800,41645,30844
32820,41623,30774
32856,41652,30809
32826,41607,30895
32749,41623,30807
32660,41637,30804
32716,41631,30908
32737,41629,30825
32796,41654,30832
32869,41645,30784
33064,41629,30800
33268,41655,30894
33212,41632,30810
32944,41652,30889
32900,41631,30828
33012,41628,30900
32993,41639,30813
32952,41593,30860
32876,41583,30799
32736,41639,30809
32813,41655,30785
33044,41625,30804
32980,41639,30902
32884,41591,30804
32908,41607,30805
32908,41637,30915
32961,41620,30812
32964,41602,30819
32920,41582,30863
32925,41623,30844
33098,41639,30903
33261,41631,30832
33222,41637,30892
33052,41620,30820
32984,41620,30876
33012,41607,30840
32860,41628,30840
32760,41623,30936
32884,41607,30850
32928,41651,30844
32996,41636,30941
33089,41628,30879
33053,41607,30961
32990,41601,30865
32933,41575,30909
32924,41604,30837
32937,41628,30855
32932,41617,30959
32900,41607,30855
32920,41597,30886
33041,41625,30861
33052,41605,30905
32916,41616,30941
32876,41565,30901
32764,41591,30890
32508,41606,30931
32200,41607,30893
31922,41549,30964
31688,41606,30846
31629,41623,30887
31676,41564,30885
31705,41607,30884
31948,41588,30853
32477,41599,30854
32985,41620,30892
33568,41623,30837
34702,41577,30852
36488,41607,30942
38532,41637,30874
40976,41620,30911
43569,41620,30831
46260,41604,30864
48656,41597,30873
50368,41583,30863
51424,41580,30858
51692,41575,30943
50632,41593,30821
48349,41604,30868
45796,41600,30956
43280,41631,30868
40564,41621,30951
37684,41646,30844
35740,41607,30884
34422,41615,30935
33484,41633,30861
32864,41599,30876
32317,41619,30980
31920,41629,30908
31600,41573,30951
31261,41615,30884
30848,41594,30881
30732,41623,30871
30800,41628,30909
30748,41567,30903
30640,41607,30804
30580,41633,30855
30504,41564,30927
30400,41607,30865
30472,41645,30909
30396,41629,30823
30452,41647,30855
30544,41623,30782
30532,41637,30849
30369,41613,30756
30280,41629,30748
30396,41572,30775
30480,41607,30765
30424,41629,30824
30417,41615,30749
30460,41619,30769
30496,41567,30697
30593,41618,30705
30569,41627,30809
30568,41633,30687
30568,41565,30705
30664,41607,30784
30788,41631,30701
30852,41623,30753
30772,41635,30671
30868,41559,30673
30868,41607,30699
30937,41637,30692
31092,41617,30783
31084,41599,30656
30936,41575,30679
30700,41602,30751
30633,41629,30722
30816,41575,30778
31024,41615,30701
31064,41639,30724
30972,41639,30839
31032,41620,30777
31236,41631,30807
31220,41615,30780
31076,41625,30884
31140,41619,30812
31304,41637,30866
31316,41601,30889
31220,41629,30855
31232,41643,30895
31318,41582,30849
31411,41607,30885
31338,41575,30876
31204,41602,30924
31252,41631,30863
31428,41607,30903
31504,41636,30910
31556,41621,30930
31532,41627,30900
31532,41589,30932
31428,41627,30973
31524,41599,30977
31540,41588,30952
31636,41599,31043
31584,41613,30964
31540,41623,31032
31700,41633,30965
31782,41607,30983
31780,41625,30937
31788,41631,31012
31752,41641,30940
31769,41616,31018
31873,41625,30927
32092,41617,30978
32172,41575,30884
32080,41567,30892
31926,41607,30839
31992,41641,30860
32084,41639,30916
32113,41612,30826
32304,41639,30812
32305,41607,30819
32365,41623,30757
32412,41607,30764
32404,41629,30788
32388,41573,30743
32424,41607,30710
32500,41607,30788
32560,41625,30653
32636,41607,30657
32628,41644,30639
32644,41608,30607
32636,41607,30628
32640,41621,30598
32676,41625,30552
32716,41633,30587
32668,41631,30573
32696,41589,30516
32748,41621,30519
32924,41655,30591
32908,41636,30511
32832,41639,30495
32741,41577,30435
32756,41623,30447
32916,41599,30540
32972,41604,30409
32932,41621,30413
33108,41607,30428
33196,41647,30391
33040,41637,30420
32914,41647,30325
32887,41581,30301
32878,41621,30391
32737,41599,30297
32576,41575,30375
32444,41607,30235
32480,41621,30241
32439,41607,30169
32421,41607,30204
32336,41607,30205
32212,41599,30223
32196,41617,30132
32172,41623,30126
32152,41588,30063
32096,41614,30095
32216,41599,30153
32345,41607,30020
32404,41617,30007
32236,41559,30108
31924,41596,29959
31864,41631,29964
32048,41618,30057
32096,41591,29897
32028,41612,29935
31928,41597,29996
31844,41583,29848
31896,41607,29894
31925,41534,29880
31960,41589,29905
31928,41607,29837
31904,41543,29812
31914,41591,29871
31972,41600,29797
31988,41575,29764
32088,41588,29887
32136,41567,29735
32102,41588,29742
32012,41573,29791
31932,41583,29733
31982,41581,29830
31968,41546,29681
32008,41546,29717
32078,41573,29821
32060,41543,29719
32104,41529,29715
32108,41569,29687
32164,41585,29671
32088,41588,29687
32104,41575,29773
32212,41583,29663
32272,41597,29703
32260,41575,29756
32276,41591,29657
32298,41535,29665
32337,41565,29701
32324,41580,29816
32248,41580,29677
32316,41557,29687
32353,41527,29813
32388,41573,29671
32253,41599,29687
32204,41583,29816
32193,41570,29679
32256,41532,29718
32296,41557,29768
32288,41583,29660
32304,41551,29722
32492,41575,29697
32500,41541,29807
32476,41601,29693
32422,41583,29700
32332,41564,29830
32320,41543,29736
32440,41556,29849
32484,41583,29708
32532,41575,29727
32548,41565,29857
32608,41583,29751
32686,41549,29735
32708,41572,29881
32758,41567,29768
32713,41568,29863
32621,41583,29807
32644,41523,29815
32598,41548,29775
32476,41533,29805
32452,41569,29948
32664,41555,29836
32608,41545,29943
32608,41564,29869
32864,41549,29927
32948,41569,29851
32836,41588,29868
32612,41575,29929
32557,41557,29927
32592,41569,29916
32636,41559,30005
32688,41575,29959
32728,41563,30003
32684,41535,29965
32663,41589,29985
32681,41529,29991
32714,41565,30118
32801,41550,30047
32766,41557,30037
32669,41516,30020
32772,41540,30065
32780,41532,30049
32745,41560,30084
32773,41567,30081
32836,41567,30109
32856,41556,30141
32744,41564,30215
32676,41543,30169
32722,41479,30279
32708,41559,30175
32660,41548,30174
32660,41573,30215
32696,41563,30316
32724,41575,30265
32752,41570,30297
32760,41525,30239
32680,41564,30279
32672,41559,30348
32704,41501,30333
32728,41530,30422
32756,41555,30311
32976,41544,30343
33089,41551,30440
32864,41511,30343
32648,41551,30390
32688,41557,30388
32797,41504,30525
32848,41542,30421
32864,41551,30450
32732,41540,30418
32784,41556,30455
32788,41530,30442
32724,41575,30509
32629,41556,30583
32712,41565,30512
32869,41551,30542
32924,41559,30567
32836,41548,30541
32740,41549,30660
32764,41495,30548
32840,41535,30567
32876,41564,30676
32892,41543,30604
33056,41575,30607
33100,41559,30719
33048,41509,30617
32980,41517,30633
33032,41511,30671
32841,41556,30653
32780,41533,30783
32748,41565,30677
32712,41553,30708
32838,41532,30810
32932,41527,30700
32912,41549,30751
32924,41567,30789
32872,41508,30779
32832,41536,30778
32800,41543,30807
32844,41549,30831
32940,41551,30804
32996,41565,30844
32912,41544,30766
32917,41567,30820
32900,41567,30809
32934,41559,30911
32890,41511,30812
32828,41540,30833
32728,41563,30876
32596,41540,30817
32744,41571,30862
32948,41543,30932
33088,41519,30851
32873,41548,30862
32716,41573,30929
32732,41561,30837
32712,41550,30855
32712,41543,30844
32628,41559,30885
32493,41479,30916
32377,41527,30919
32325,41556,30885
32464,41547,30872
32744,41549,30966
32785,41500,30889
32836,41535,30871
32708,41552,30963
32668,41526,30879
32648,41541,30879
32584,41543,30953
32685,41511,30910
32852,41479,30956
32844,41530,30876
32912,41556,30895
32964,41549,30916
32976,41519,30914
32884,41523,30901
32900,41538,30967
32976,41535,30903
32938,41478,30914
32969,41535,30964
33184,41551,30871
33284,41548,30863
33172,41532,30943
33132,41556,30841
33396,41509,30888
33553,41527,30917
33358,41550,30879
33124,41535,30884
33078,41543,30922
33029,41478,30839
32924,41519,30869
32920,41554,30906
33188,41549,30923
33328,41524,30878
33078,41497,30905
32901,41529,30897
32832,41511,30862
32825,41532,30846
32992,41469,30927
32994,41511,30861
33032,41541,30884
33032,41479,30832
32901,41508,30855
32828,41540,30860
32776,41538,30860
32797,41519,30948
32904,41524,30873
32964,41516,30852
32880,41495,30937
32872,41479,30885
32984,41508,30885
32964,41535,30940
33023,41479,30869
33060,41519,30877
33093,41473,30961
33053,41465,30876
33109,41511,30871
33132,41496,30938
33165,41516,30957
33212,41463,30876
33140,41503,30893
33052,41511,30941
33044,41519,30961
32953,41539,30918
32812,41475,30947
32741,41509,30889
32702,41517,30902
32480,41516,31004
32264,41503,30912
32000,41535,30941
31744,41479,30991
31830,41513,30973
32032,41499,30941
32232,41525,30929
32633,41479,30965
33166,41535,31034
33888,41517,30924
35036,41527,30961
36544,41532,30939
38340,41528,30999
40480,41501,31044
42855,41524,31004
45244,41505,30960
47376,41514,30941
48912,41500,31018
49908,41500,30949
50100,41479,30942
49096,41497,31013
46984,41503,30961
44756,41519,30935
42492,41513,31052
39776,41542,30938
37080,41525,30969
35217,41545,31046
34060,41559,30941
33244,41525,30969
32748,41519,31056
32297,41543,30950
31862,41479,30996
31511,41524,31007
31336,41551,31033
31214,41559,31000
31232,41528,31005
31182,41559,31036
31084,41501,31083
31004,41535,30973
30972,41543,30997
30913,41511,30964
30816,41521,31023
30636,41539,31045
30464,41533,30988
30536,41543,30911
30593,41532,30916
30584,41525,30922
30632,41565,30881
30480,41476,30949
30428,41525,30861
30556,41551,30866
30536,41537,30839
30652,41509,30921
30700,41539,30806
30768,41555,30825
30904,41537,30804
30852,41559,30894
30784,41479,30816
30736,41543,30768
30784,41517,30777
30836,41537,30759
30892,41527,30846
30912,41505,30717
30857,41524,30745
30940,41537,30719
31008,41503,30829
31028,41471,30723
31009,41518,30727
31024,41540,30823
31036,41523,30709
31096,41531,30772
31104,41479,30737
31140,41511,30855
31280,41534,30750
31400,41528,30787
31360,41509,30831
31348,41507,30764
31316,41527,30820
31217,41543,30868
31213,41517,30887
31332,41513,30807
31365,41497,30854
31392,41511,30836
31412,41538,30948
31388,41501,30836
31308,41508,30866
31372,41541,30900
31648,41539,30920
31690,41549,30924
31520,41479,30855
31428,41532,30860
31516,41517,30956
31528,41548,30910
31636,41559,30852
31660,41535,30885
31732,41573,30852
31800,41571,30949
31936,41539,30919
32020,41554,30829
31924,41541,30828
31727,41527,30920
31636,41563,30805
31781,41479,30807
31852,41551,30847
31900,41542,30820
31928,41565,30753
31861,41535,30738
31922,41573,30748
31936,41551,30702
32052,41572,30796
32140,41559,30648
32220,41539,30676
32256,41567,30673
32284,41564,30698
32332,41559,30580
32376,41588,30600
32372,41575,30613
32342,41550,30604
32348,41583,30500
32416,41560,30483
32500,41527,30575
32536,41508,30427
32516,41559,30454
32560,41573,30479
32681,41540,30471
32692,41580,30395
32760,41535,30342
32796,41567,30300
32790,41593,30319
32801,41581,30327
32917,41551,30239
33084,41542,30275
32888,41575,30212
32750,41565,30314
32800,41596,30159
33001,41615,30185
33092,41599,30132
33057,41620,30154
32868,41543,30215
32772,41591,30073
32676,41588,30073
32788,41615,30052
32932,41549,30057
33024,41607,30063
33042,41625,30010
32904,41573,29960
32703,41615,30049
32561,41637,29932
32572,41564,29909
32512,41601,30009
32412,41607,29908
32356,41557,29878
32213,41602,29916
32212,41615,29794
32204,41607,29820
32185,41625,29812
32217,41564,29865
32164,41620,29717
32204,41631,29761
32224,41573,29759
32132,41606,29791
32036,41628,29710
32036,41623,29692
32080,41604,29700
32000,41604,29658
31896,41627,29599
31991,41605,29703
31964,41645,29703
31936,41559,29535
31940,41607,29573
31848,41631,29660
31832,41621,29484
32004,41599,29537
32260,41639,29479
32144,41623,29608
31988,41607,29429
31908,41575,29476
31924,41613,29475
31936,41607,29551
31924,41607,29380
31960,41607,29413
31996,41599,29381
32024,41629,29474
31988,41575,29314
31956,41637,29367
31998,41588,29325
32184,41607,29444
32292,41639,29273
32204,41620,29332
31960,41639,29289
32140,41591,29411
32184,41629,29266
31958,41623,29326
31808,41657,29312
31958,41655,29336
32112,41649,29284
32040,41671,29264
32088,41607,29404
32200,41655,29406
32302,41639,29252
32194,41655,29308
32170,41598,29263
32166,41648,29383
32270,41639,29319
32332,41681,29228
32344,41623,29261
32284,41681,29267
32272,41663,29252
32316,41687,29329
32310,41622,29287
32352,41661,29248
32356,41691,29258
32380,41636,29319
32518,41681,29201
32601,41695,29213
32437,41691,29308
32332,41703,29224
32324,41697,29204
32368,41671,29300
32360,41673,29217
32364,41687,29191
32378,41664,29313
32356,41701,29211
32416,41701,29191
32448,41695,29222
32508,41719,29191
32493,41685,29290
32478,41717,29284
32592,41695,29212
32580,41735,29185
32468,41719,29319
32464,41711,29154
32496,41735,29215
32629,41727,29309
32716,41716,29155
32792,41751,29177
32776,41731,29274
32724,41735,29215
32629,41735,29316
32654,41751,29206
32576,41732,29221
32654,41757,29141
32820,41759,29213
32848,41771,29287
32652,41771,29138
32676,41779,29165
32688,41716,29260
32552,41765,29189
32496,41787,29156
32508,41719,29310
32612,41767,29196
32630,41758,29161
32660,41793,29181
32733,41797,29239
32740,41788,29298
32700,41767,29143
32665,41806,29156
32540,41809,29191
32596,41759,29212
32620,41804,29175
32670,41815,29287
32737,41805,29210
32728,41788,29189
32822,41814,29316
32813,41831,29145
32788,41820,29205
32790,41852,29235
32788,41796,29145
32766,41839,29212
32808,41861,29188
32748,41823,29314
32612,41855,29132
32600,41847,29209
32690,41878,29196
32724,41863,29203
32716,41885,29188
32772,41847,29184
32792,41881,29295
32820,41887,29185
32868,41877,29176
32864,41854,29192
32681,41887,29188
32488,41829,29156
32573,41885,29230
32829,41879,29265
32944,41901,29188
32900,41887,29129
32796,41863,29248
32753,41884,29172
32712,41903,29279
32748,41895,29116
32752,41915,29165
32836,41904,29277
32788,41900,29177
32801,41909,29173
32796,41911,29287
32724,41943,29126
32748,41932,29122
32784,41911,29276
32748,41928,29097
32720,41879,29132
32760,41919,29244
32791,41949,29087
32772,41943,29103
32884,41911,29263
33000,41935,29103
32944,41957,29110
32716,41966,29108
32548,41910,29135
32624,41945,29117
32612,41975,29121
32676,41964,29125
32796,41988,29232
32888,41987,29063
32846,42007,29073
32871,41991,29180
33057,41988,29078
33024,42012,29093
32836,41955,29097
32677,41989,29093
32761,42006,29091
32884,41991,29207
32820,42015,29054
32888,42015,29055
32948,42027,29063
33036,41980,29082
33159,42037,29053
33116,42021,29149
32884,42029,29089
32716,42029,29191
32776,42051,29000
32736,41991,29071
32668,42039,29132
32590,42041,28995
32580,42063,29015
32664,42035,29124
32684,42039,28983
32756,42063,29040
32704,42093,29157
32564,42076,29037
32520,42092,29112
32436,42037,28997
32438,42087,29015
32549,42082,29101
32480,42095,28984
32376,42087,28975
32332,42102,29002
32485,42118,29052
32693,42059,28943
32756,42118,29013
32560,42119,28956
32525,42068,29076
32764,42119,28974
32864,42151,28989
32896,42143,29004
32932,42167,28983
32881,42167,28952
32756,42149,29036
32762,42170,28902
32912,42159,28961
32960,42172,28900
33016,42175,28918
32976,42183,28882
33096,42173,28924
33152,42185,28874
33226,42183,28908
33316,42143,29006
33152,42197,28876
33061,42197,28905
32916,42180,28999
32826,42173,28945
32916,42151,29034
32968,42166,28926
33044,42162,28940
33096,42207,28914
33132,42236,28885
33116,42229,28887
33064,42232,29005
33044,42228,28876
32952,42212,28864
32924,42205,28885
32972,42239,28871
33034,42244,28886
32980,42196,28788
32920,42245,28836
32968,42287,28893
33216,42271,28768
33192,42247,28788
33025,42271,28933
32940,42263,28749
32908,42247,28821
32956,42277,28852
32984,42236,28821
32957,42270,28777
33124,42292,28758
33189,42242,28836
32988,42288,28727
32792,42278,28787
32776,42271,28820
32853,42272,28718
33032,42302,28749
33184,42295,28884
33084,42279,28752
32932,42319,28759
32932,42291,28914
32772,42294,28747
32568,42335,28772
32304,42309,28820
31956,42306,28775
31640,42335,28758
31560,42262,28903
31684,42322,28757
31662,42343,28772
31904,42291,28835
32560,42334,28807
33024,42359,28857
33636,42327,28731
34632,42373,28775
36124,42361,28844
38104,42357,28816
40348,42351,28909
42856,42343,28752
45576,42353,28765
47948,42356,28828
49644,42351,28811
50828,42354,28887
51136,42361,28753
50192,42363,28799
48280,42375,28896
46016,42381,28813
43608,42383,28889
40980,42404,28735
38053,42413,28759
35912,42412,28919
34560,42424,28769
33652,42393,28796
33144,42433,28728
32600,42421,28801
31996,42421,28764
31396,42436,28931
31124,42365,28790
30924,42435,28829
30768,42435,28735
30792,42467,28807
30931,42450,28780
30980,42463,28859
30784,42457,28724
30512,42447,28750
30432,42446,28751
30412,42423,28720
30428,42423,28806
30324,42471,28783
30305,42460,28673
30304,42468,28725
30196,42469,28679
30228,42503,28662
30376,42493,28759
30473,42489,28640
30534,42487,28647
30637,42484,28636
30560,42497,28799
30460,42439,28591
30560,42467,28612
30588,42503,28748
30572,42503,28655
30520,42495,28645
30676,42533,28621
31008,42503,28647
30894,42479,28651
30756,42517,28646
30776,42503,28647
30702,42487,28772
30781,42527,28605
30796,42519,28636
30828,42503,28812
30892,42469,28685
30865,42523,28741
30888,42547,28633
30960,42539,28748
30952,42500,28833
30897,42501,28688
30832,42503,28752
30890,42535,28748
31084,42524,28764
31197,42546,28908
31201,42517,28844
31196,42535,28907
31181,42549,28777
31109,42491,28837
31125,42525,28807
31168,42477,28893
31136,42556,28882
31240,42551,29025
31412,42575,28943
31576,42565,29077
31588,42559,28929
31484,42583,28927
31372,42500,29095
31436,42552,28913
31468,42572,28975
31480,42555,28913
31533,42583,28988
31476,42564,29138
31484,42588,29015
31636,42503,29103
31844,42566,29004
31808,42591,29023
31584,42575,28941
31524,42572,29020
31649,42575,29073
31684,42591,29037
31724,42559,29052
31888,42583,28949
32068,42604,29025
32088,42605,28988
31988,42615,29076
31905,42597,28975
31894,42623,29012
31874,42561,28989
31918,42601,29044
32030,42581,28929
32132,42607,28940
32224,42558,29078
32328,42614,28859
32284,42583,28879
32304,42567,29030
32380,42613,28900
32452,42629,28857
32632,42626,28982
32712,42621,28789
32508,42599,28821
32356,42581,28807
32412,42627,28827
32526,42637,28935
32601,42591,28781
32636,42631,28820
32756,42629,28679
32772,42657,28752
32700,42653,28865
32661,42616,28679
32740,42647,28679
32824,42661,28844
32768,42613,28617
32840,42647,28679
32996,42637,28644
32925,42668,28789
32888,42673,28622
32904,42660,28647
32912,42631,28623
32996,42655,28727
32878,42647,28544
32748,42629,28564
32656,42669,28703
32721,42596,28517
32732,42660,28563
32732,42652,28527
32718,42679,28655
32645,42607,28453
32556,42645,28481
32452,42662,28479
32324,42607,28481
32240,42647,28452
32188,42628,28591
32248,42661,28453
32320,42597,28421
32268,42631,28566
32045,42631,28341
31932,42669,28399
31976,42596,28428
31896,42631,28452
31896,42639,28305
31912,42647,28380
31908,42631,28444
31912,42628,28285
31905,42660,28374
31960,42581,28333
31880,42631,28369
31844,42644,28349
31986,42631,28433
32096,42619,28260
32060,42639,28339
31936,42631,28405
31840,42638,28292
31860,42631,28305
31881,42613,28366
31924,42607,28241
31976,42638,28260
32044,42644,28341
32140,42575,28274
32188,42620,28249
32204,42630,28347
32202,42575,28198
32241,42620,28230
32228,42655,28261
32180,42582,28199
32050,42620,28236
32160,42641,28302
32312,42599,28180
32148,42631,28268
31877,42579,28295
31892,42569,28178
31972,42605,28232
32068,42631,28375
32129,42591,28190
32248,42613,28262
32286,42631,28329
32269,42625,28204
32236,42631,28311
32208,42559,28343
32260,42615,28415
32212,42591,28273
32169,42631,28300
32174,42599,28445
32252,42601,28248
32365,42625,28326
32364,42614,28423
32248,42579,28329
32213,42567,28371
32344,42599,28295
32392,42598,28367
32340,42593,28489
32444,42580,28364
32576,42588,28374
32469,42598,28548
32272,42612,28455
32324,42581,28444
32412,42607,28553
32589,42579,28459
32584,42599,28484
32497,42581,28423
32429,42599,28483
32500,42532,28655
32432,42588,28517
32464,42567,28516
32636,42605,28613
32655,42537,28482
32468,42584,28585
32420,42612,28714
32460,42574,28551
32460,42591,28614
32326,42575,28770
32436,42538,28580
32632,42579,28652
32580,42591,28583
32468,42519,28673
32448,42575,28820
32441,42591,28679
32437,42574,28704
32473,42561,28871
32540,42583,28756
32648,42567,28822
32836,42551,28717
32936,42588,28758
32764,42578,28928
32533,42591,28807
32496,42588,28807
32572,42569,28973
32556,42535,28788
32584,42580,28889
32564,42551,28887
32530,42549,28993
32569,42543,28841
32598,42564,28911
32594,42549,29077
32765,42536,28896
32877,42559,28959
32729,42499,29061
32452,42535,28943
32580,42519,28989
32772,42540,29045
32792,42486,29077
32740,42524,29002
32796,42503,29054
32760,42537,29153
32604,42547,29039
32712,42535,29092
33016,42503,29085
32925,42479,29117
32704,42503,29133
32833,42503,29158
32773,42479,29181
32628,42503,29158
32492,42499,29140
32532,42532,29314
32560,42460,29133
32644,42503,29175
32644,42473,29310
32637,42471,29237
32634,42495,29325
32684,42503,29234
32724,42476,29325
32740,42488,29181
32696,42503,29254
32744,42448,29377
32848,42503,29220
32789,42496,29308
32736,42503,29351
32838,42495,29245
33104,42493,29327
32988,42479,29304
32788,42463,29436
32772,42501,29304
32764,42437,29343
32748,42477,29332
32928,42469,29297
32968,42483,29343
32804,42479,29393
32620,42468,29389
32656,42485,29469
32752,42455,29352
32829,42468,29373
32968,42471,29533
32804,42407,29392
32669,42466,29447
32672,42433,29391
32820,42484,29405
32924,42415,29476
32856,42447,29430
32828,42467,29553
32857,42445,29466
32713,42455,29590
32590,42395,29492
32648,42431,29586
32769,42439,29446
32940,42407,29474
32880,42429,29590
32852,42436,29506
32876,42439,29486
32876,42375,29532
32774,42420,29532
32772,42427,29537
32912,42364,29537
33017,42415,29532
32944,42402,29526
32776,42375,29583
32712,42404,29532
32720,42397,29526
32884,42423,29656
32868,42407,29506
32764,42374,29526
32753,42412,29619
32724,42348,29573
32656,42397,29556
32624,42385,29538
32604,42363,29580
32596,42390,29567
32889,42415,29693
33064,42386,29610
32800,42397,29698
32472,42375,29599
32412,42367,29644
32480,42393,29559
32424,42356,29581
32373,42375,29727
32500,42393,29605
32640,42371,29685
32684,42389,29612
32700,42369,29669
32576,42367,29578
32604,42360,29591
32652,42335,29719
32788,42327,29630
32860,42349,29709
32776,42357,29591
32837,42314,29613
32912,42341,29669
32757,42357,29643
32750,42341,29740
32832,42349,29655
32896,42327,29764
32912,42347,29637
32920,42331,29663
33008,42310,29668
33152,42335,29716
33248,42325,29613
33224,42334,29685
33101,42327,29605
32992,42311,29674
32933,42310,29793
32932,42296,29681
32888,42279,29695
32932,42247,29621
33036,42293,29685
33028,42311,29791
32996,42287,29699
33294,42271,29798
33420,42239,29668
33180,42284,29662
32869,42287,29748
32912,42239,29719
32972,42246,29745
33036,42241,29665
33060,42247,29702
33096,42271,29667
33104,42256,29703
33056,42239,29676
33025,42263,29767
32929,42236,29686
32928,42247,29703
32996,42220,29849
33080,42215,29748
33052,42231,29751
33037,42199,29709
33024,42229,29771
33100,42239,29809
33224,42183,29700
33116,42223,29775
32848,42215,29815
32760,42157,29736
32924,42195,29736
33028,42213,29863
32972,42165,29764
32946,42185,29836
32848,42211,29730
32900,42199,29734
32737,42220,29869
32393,42183,29770
32105,42192,29737
31884,42202,29868
31704,42199,29742
31732,42183,29750
31830,42167,29889
31976,42135,29743
32442,42185,29759
32892,42183,29823
33500,42214,29753
34436,42213,29736
35684,42168,29860
37452,42183,29717
39488,42167,29778
41837,42156,29830
44308,42167,29780
46636,42148,29772
48548,42139,29828
49729,42143,29719
50172,42136,29728
49780,42140,29869
48192,42135,29700
46080,42141,29721
43860,42140,29831
41432,42133,29758
38800,42148,29873
36533,42145,29727
35016,42169,29717
33952,42149,29860
33312,42150,29709
32728,42167,29725
32198,42149,29697
31724,42147,29735
31508,42135,29760
31505,42117,29756
31361,42151,29874
31220,42143,29739
31048,42108,29796
30829,42079,29723
30648,42135,29737
30628,42149,29875
30600,42072,29752
30476,42111,29729
30396,42135,29789
30456,42111,29743
30613,42092,29844
30760,42055,29725
30716,42109,29776
30530,42141,29674
30376,42119,29701
30544,42073,29692
30692,42111,29689
30572,42055,29668
30582,42095,29714
30660,42086,29661
30692,42039,29703
30648,42081,29780
30716,42108,29637
30860,42109,29673
31116,42103,29747
31024,42022,29695
30765,42078,29655
30660,42055,29776
30750,42082,29636
30924,42033,29688
31012,42062,29658
31020,42047,29822
31020,42081,29661
31038,42007,29728
31072,42055,29792
31108,42083,29696
31168,42055,29726
31164,42047,29855
31229,42050,29759
31185,42023,29901
31200,41991,29810
31205,42020,29915
31253,42045,29831
31280,42031,29959
31344,42047,29831
31364,42047,29855
31440,42037,29849
31521,41980,29892
31453,42031,29862
31316,42010,29914
31328,42009,30035
31512,41991,29966
31580,41991,30062
31584,42020,29970
31616,41991,29945
31568,41990,29973
31511,42007,29963
31556,42019,30068
31633,41980,30045
31769,41983,30158
31837,41991,30025
32000,41966,30076
31980,41991,30143
32009,41933,30053
32097,41972,30095
31976,41930,30068
31740,41961,30113
31733,41908,30079
31812,41939,30156
31777,41908,30085
31760,41975,30148
32073,41959,30095
32288,41983,30101
32308,41979,30191
32124,41983,30111
32028,41924,30205
32072,41924,30101
32157,41967,30138
32268,41935,30094
32264,41932,30159
32246,41943,30049
32396,41916,30078
32500,41933,30001
32420,41957,30037
32472,41956,30124
32569,41957,30021
32584,41935,30103
32672,41873,30001
32816,41903,30068
32791,41900,29975
32744,41905,30055
32828,41899,29959
32862,41911,30030
32865,41903,29935
32888,41917,30007
32952,41879,29870
32956,41901,29905
32958,41861,29844
33036,41885,29855
33041,41889,29844
33038,41873,29860
33076,41839,29796
33056,41874,29836
32992,41903,29789
32985,41901,29825
33000,41884,29798
33056,41888,29860
33068,41879,29769
32996,41876,29897
32848,41863,29787
32936,41863,29831
32944,41847,29735
32756,41876,29716
32592,41863,29776
32528,41883,29718
32564,41853,29828
32656,41807,29717
32528,41852,29751
32424,41839,29647
32398,41847,29630
32294,41836,29643
32112,41843,29604
32080,41828,29646
32180,41809,29733
32150,41761,29607
32098,41815,29591
32032,41763,29552
32088,41783,29575
32106,41733,29625
32064,41775,29578
31936,41804,29628
31985,41794,29527
32034,41801,29551
32069,41785,29475
32049,41795,29475
31975,41780,29472
31980,41780,29463
31964,41764,29510
31930,41765,29455
31952,41749,29554
32165,41756,29439
32260,41724,29479
32182,41695,29394
31984,41759,29343
31912,41735,29345
32032,41735,29348
32084,41709,29329
32154,41711,29461
32176,41711,29333
32085,41703,29425
32060,41685,29289
32140,41692,29295
32288,41679,29256
32292,41701,29332
32164,41685,29240
32200,41693,29277
32381,41639,29393
32400,41653,29294
32420,41661,29369
32348,41647,29292
32172,41669,29309
32004,41642,29237
32092,41639,29311
32208,41652,29263
32357,41669,29333
32304,41639,29279
32216,41654,29423
32224,41607,29256
32372,41607,29327
32396,41636,29381
32542,41607,29277
32533,41615,29319
32480,41637,29395
32386,41626,29293
32376,41603,29340
32344,41629,29332
32353,41558,29433
32349,41599,29295
32316,41577,29358
32361,41590,29322
32484,41591,29424
32552,41583,29313
32500,41589,29375
32444,41524,29498
32472,41573,29346
32676,41580,29391
32668,41561,29415
32498,41547,29478
32428,41556,29429
32485,41551,29535
32525,41562,29407
32505,41554,29397
32608,41553,29544
32528,41537,29465
32508,41554,29492
32580,41533,29429
32580,41549,29447
32544,41479,29494
32576,41511,29457
32597,41535,29539
32552,41512,29495
32700,41533,29492
32736,41469,29438
32620,41517,29509
32632,41517,29600
32721,41459,29489
32768,41503,29551
32677,41515,29476
32842,41479,29506
32932,41479,29615
32808,41503,29503
32576,41453,29527
32614,41461,29525
32692,41501,29585
32744,41479,29606
32760,41475,29668
32788,41479,29575
32688,41435,29590
32736,41447,29702
32836,41471,29597
32792,41453,29652
32807,41437,29660
32792,41428,29613
32644,41457,29677
32858,41415,29668
33205,41455,29769
33143,41420,29700
32808,41447,29764
32605,41396,29793
32644,41415,29692
32672,41423,29737
32637,41423,29717
32800,41420,29745
32805,41373,29881
32802,41414,29748
32797,41412,29797
32824,41368,29796
32770,41401,29865
32749,41362,29804
32784,41371,29849
32792,41379,29912
32812,41396,29926
32756,41383,29900
32700,41383,29945
32712,41379,29959
32860,41374,29941
32848,41351,29965
32760,41339,29975
32760,41348,29973
33016,41311,30041
33121,41341,29983
32829,41371,29988
32529,41358,30055
32516,41351,30116
32660,41364,30023
32712,41296,30041
32708,41327,30167
32732,41293,30074
32770,41319,30108
32812,41323,30136
32880,41319,30133
32952,41341,30214
32983,41327,30124
32968,41316,30124
32716,41281,30111
32644,41319,30169
32616,41325,30215
32658,41315,30157
32620,41279,30223
32540,41247,30255
32644,41277,30177
32812,41303,30203
32797,41295,30340
32929,41278,30224
32918,41319,30225
32752,41309,30343
32592,41271,30235
32696,41303,30289
32721,41223,30321
32733,41268,30250
32820,41276,30287
32864,41247,30407
32748,41275,30291
32736,41263,30301
32952,41268,30425
33048,41255,30298
32828,41233,30335
32716,41255,30407
32840,41205,30319
32968,41215,30353
33016,41223,30329
32860,41223,30349
32740,41223,30449
32628,41245,30357
32763,41191,30423
32956,41217,30420
33028,41241,30372
32840,41219,30480
32572,41205,30398
32549,41223,30405
32688,41204,30415
32752,41197,30439
32817,41223,30441
32768,41167,30445
32782,41211,30463
32812,41191,30445
32864,41201,30551
32840,41158,30429
32720,41191,30485
32672,41180,30532
32664,41189,30452
32652,41168,30499
32572,41143,30465
32581,41185,30583
32557,41183,30464
32580,41151,30507
32644,41161,30589
32700,41127,30470
32668,41171,30516
32567,41164,30518
32576,41162,30508
32676,41175,30549
32754,41153,30525
32804,41172,30614
32908,41175,30487
33020,41159,30529
32972,41191,30519
32880,41131,30573
32880,41149,30535
32850,41175,30608
32886,41157,30534
33176,41183,30599
33272,41173,30503
33136,41149,30519
33040,41168,30479
33164,41151,30508
33269,41167,30575
33317,41159,30537
33221,41151,30599
33220,41151,30532
33112,41136,30609
32984,41109,30551
32934,41141,30631
32948,41127,30522
32992,41095,30569
32996,41134,30509
33040,41151,30529
33024,41141,30638
33076,41129,30534
33180,41111,30524
33164,41110,30606
33132,41085,30554
33140,41143,30615
33140,41148,30532
33138,41145,30543
33168,41125,30628
33176,41148,30599
32984,41103,30551
32960,41127,30545
33044,41087,30615
33048,41117,30535
33068,41116,30586
33084,41111,30617
33128,41131,30543
33100,41124,30586
33053,41111,30583
32988,41135,30664
33080,41119,30544
33276,41095,30577
33268,41121,30646
33192,41067,30541
33260,41095,30567
33260,41091,30643
32989,41103,30569
32769,41092,30543
32824,41095,30629
33012,41111,30548
32896,41094,30535
32460,41087,30622
32008,41111,30532
31704,41095,30528
31574,41084,30588
31552,41103,30551
31661,41074,30604
31924,41085,30576
32218,41095,30552
32749,41117,30575
33176,41087,30551
33604,41095,30504
34504,41086,30527
36044,41092,30604
37952,41104,30484
40140,41093,30524
42532,41095,30495
44992,41092,30564
47229,41076,30548
48812,41062,30464
49840,41061,30464
50205,41049,30565
49272,41055,30453
47328,41060,30447
45304,41077,30500
43096,41073,30415
40472,41103,30466
37724,41101,30451
35728,41088,30536
34454,41105,30430
33612,41095,30453
33108,41076,30471
32492,41079,30404
31925,41078,30452
31532,41071,30412
31520,41095,30507
31308,41060,30523
30984,41081,30396
30997,41056,30432
30996,41076,30434
30848,41076,30399
30824,40998,30420
30856,41044,30492
30776,41063,30358
30588,41071,30379
30476,41012,30385
30448,41049,30406
30485,41069,30284
30484,41061,30320
30456,41061,30399
30416,40991,30260
30412,41031,30255
30492,41044,30359
30636,41036,30214
30609,41019,30252
30588,41055,30259
30624,41029,30183
30722,41039,30215
30848,41026,30289
30948,40998,30181
30968,41013,30153
31016,40948,30237
30997,40991,30127
30900,41007,30140
30884,40951,30223
31052,40999,30092
31141,40983,30133
31088,41028,30113
31008,41005,30205
31024,40987,30112
30972,40991,30108
31020,40953,30196
31144,40967,30122
31188,40985,30100
31124,40996,30162
31128,40983,30083
31204,40967,30143
31200,40996,30138
31285,40983,30181
31308,40958,30164
31304,40967,30189
31284,40945,30189
31212,40962,30169
31109,40942,30231
31173,40976,30148
31448,40914,30177
31604,40967,30276
31596,40948,30207
31553,40967,30173
31520,40964,30209
31348,40956,30247
31368,40927,30178
31380,40929,30181
31400,40951,30294
31520,40929,30175
31804,40967,30215
31844,40939,30186
31728,40900,30295
31704,40947,30226
31804,40924,30196
31736,40950,30200
31889,40938,30281
32048,40925,30164
32000,40946,30206
31880,40887,30171
31928,40935,30271
31960,40928,30147
31916,40937,30159
31888,40937,30243
32036,40908,30135
32084,40911,30129
32100,40882,30232
32114,40915,30106
32216,40903,30118
32316,40927,30157
32436,40877,30069
32420,40921,30063
32388,40903,30047
32424,40924,30069
32464,40885,30102
32513,40903,29991
32520,40917,29969
32548,40869,30052
32560,40915,30002
32660,40903,29904
32704,40893,29898
32708,40921,29924
32848,40871,29865
32900,40903,29937
32828,40915,29937
32829,40909,29883
32900,40892,29830
32904,40885,29780
32988,40839,29766
33042,40903,29792
33116,40900,29759
33096,40919,29827
33064,40868,29709
32940,40900,29741
32956,40885,29715
33096,40901,29711
33166,40839,29788
33018,40887,29779
32892,40876,29766
32852,40871,29755
32988,40901,29739
33004,40911,29612
33028,40890,29605
32960,40879,29623
32684,40895,29588
32452,40829,29671
32553,40869,29681
32656,40852,29598
32554,40853,29524
32620,40886,29531
32485,40835,29601
32436,40873,29551
32356,40861,29484
32240,40875,29513
32104,40823,29473
32140,40837,29540
32097,40853,29431
31928,40839,29434
31814,40833,29413
31940,40828,29494
32020,40853,29381
31996,40847,29412
32036,40839,29437
32016,40853,29429
31952,40785,29359
31940,40835,29348
31952,40807,29397
32004,40839,29359
32032,40820,29324
32048,40813,29293
32060,40839,29393
32076,40775,29263
32012,40813,29274
32045,40839,29377
32272,40784,29241
32224,40791,29260
31970,40815,29367
31809,40805,29220
31836,40791,29217
31944,40813,29348
32064,40756,29188
32068,40799,29229
31960,40823,29209
31902,40804,29293
31948,40765,29223
32060,40783,29190
32364,40780,29318
32378,40767,29319
32372,40789,29182
32280,40783,29233
32196,40767,29207
32164,40756,29343
32052,40781,29212
32080,40775,29221
32109,40783,29295
32103,40762,29252
32140,40778,29259
32204,40759,29231
32260,40791,29252
32229,40727,29337
32144,40775,29236
32244,40791,29298
32308,40783,29389
32264,40761,29274
32253,40783,29260
32196,40711,29351
32204,40765,29387
32288,40743,29256
32260,40760,29306
32292,40748,29279
32344,40763,29399
32376,40775,29276
32420,40727,29274
32386,40757,29387
32376,40743,29361
32448,40767,29269
32472,40692,29310
32512,40741,29287
32680,40711,29415
32577,40741,29276
32464,40765,29316
32412,40749,29295
32436,40764,29369
32564,40765,29422
32516,40757,29285
32380,40737,29329
32316,40741,29343
32264,40753,29319
32374,40711,29447
32492,40737,29309
32500,40749,29357
32609,40771,29365
32660,40700,29353
32586,40741,29356
32456,40727,29491
32484,40711,29359
32616,40743,29369
32704,40743,29393
32612,40729,29401
32504,40733,29479
32448,40706,29527
32716,40763,29404
32768,40755,29472
32581,40740,29473
32336,40735,29489
32520,40679,29573
32568,40711,29467
32570,40747,29527
32409,40727,29540
32469,40735,29607
32704,40685,29548
32584,40711,29541
32538,40741,29686
32652,40724,29570
32612,40697,29599
32464,40677,29703
32514,40703,29604
32448,40711,29657
32473,40700,29765
32580,40687,29754
32596,40727,29680
32589,40733,29732
32624,40710,29743
32705,40692,29855
32716,40692,29749
32632,40708,29780
32572,40692,29808
32636,40678,29892
32608,40709,29901
32492,40703,29868
32612,40687,29863
32676,40711,29996
32684,40653,29890
32608,40701,29940
32664,40665,29973
32684,40663,30030
32588,40686,30033
32392,40692,30042
32453,40633,30049
32552,40677,30159
32545,40703,30081
32588,40693,30109
32730,40694,30236
32644,40700,30124
32516,40687,30199
32790,40664,30199
33008,40685,30301
32880,40637,30208
32686,40673,30281
32576,40685,30361
32488,40639,30278
32512,40692,30338
32576,40676,30343
32600,40703,30444
32596,40685,30372
32532,40653,30414
32677,40645,30458
32696,40668,30437
32496,40693,30500
32457,40684,30499
32576,40695,30478
32516,40653,30591
32532,40687,30613
32681,40671,30549
32580,40663,30583
32436,40685,30658
32552,40628,30634
32636,40667,30634
32604,40652,30647
32692,40685,30725
32768,40663,30695
32750,40702,30775
32638,40693,30719
32552,40660,30756
32552,40684,30831
32600,40628,30780
32697,40663,30828
32716,40637,30900
32681,40668,30845
32668,40655,30895
32812,40683,30864
32893,40673,30894
32866,40679,30957
32644,40623,30959
32624,40650,31037
32692,40663,30983
32728,40599,30996
32936,40637,31097
32952,40665,31041
32792,40649,31103
32720,40685,31060
32765,40677,31091
32728,40652,31187
32637,40685,31120
32612,40620,31156
32605,40638,31151
32660,40667,31199
32544,40612,31252
32544,40642,31209
32600,40665,31239
32621,40660,31327
32616,40649,31287
32700,40653,31345
32605,40653,31303
32341,40668,31335
32296,40663,31356
32437,40661,31367
32592,40664,31447
32596,40645,31407
32492,40685,31423
32512,40671,31492
32718,40655,31476
32828,40631,31535
32869,40655,31505
32800,40677,31563
32769,40655,31532
32860,40664,31551
32808,40671,31612
32908,40679,31607
32996,40635,31621
33092,40655,31689
33184,40677,31711
33257,40657,31671
33340,40656,31703
33364,40661,31715
33335,40647,31783
33368,40649,31790
33252,40636,31776
33080,40666,31815
33176,40620,31826
33229,40659,31893
33165,40663,31863
32944,40631,31911
32844,40647,31947
32913,40625,31981
33002,40645,31972
33104,40583,31995
33129,40631,32061
33384,40615,32047
33376,40639,32085
32953,40649,32103
32692,40644,32115
32836,40632,32183
32968,40599,32188
33000,40621,32247
33001,40637,32235
33028,40629,32268
33057,40604,32295
33076,40612,32324
33052,40628,32389
33164,40653,32383
33232,40649,32421
33152,40629,32421
32988,40638,32487
32940,40628,32537
32936,40637,32527
32948,40623,32571
33012,40580,32625
33160,40629,32637
33196,40631,32678
33116,40621,32738
33072,40647,32738
33100,40591,32795
33052,40615,32835
32992,40639,32841
32868,40629,32887
32516,40604,32947
32214,40617,32961
32092,40629,32974
31980,40615,33031
31796,40643,33071
31960,40631,33087
32300,40607,33133
32592,40579,33172
33020,40615,33189
33608,40631,33238
34324,40623,33270
35392,40608,33303
36860,40628,33332
38637,40621,33369
40612,40620,33403
42524,40615,33433
44492,40600,33463
46212,40605,33496
47432,40594,33519
47936,40591,33553
47680,40583,33589
46232,40599,33609
44260,40608,33658
42240,40619,33689
40308,40650,33719
38008,40644,33755
35680,40617,33784
34260,40639,33826
33436,40621,33857
32890,40639,33908
32556,40628,33909
32292,40633,33982
32056,40612,33989
31832,40637,34044
31769,40615,34087
31684,40615,34124
31492,40583,34175
31452,40614,34183
31372,40647,34237
31246,40629,34246
31164,40612,34304
31300,40635,34341
31169,40580,34356
31151,40628,34366
31232,40621,34412
31104,40591,34413
31012,40645,34463
31040,40645,34475
31248,40629,34504
31360,40626,34544
31424,40599,34548
31316,40563,34567
31244,40623,34615
31092,40623,34612
30996,40628,34676
31008,40603,34718
30973,40604,34717
31108,40571,34775
30988,40581,34776
30960,40615,34838
31088,40607,34884
31168,40615,34884
31244,40559,34929
31248,40621,34925
31324,40621,35015
31566,40591,35047
31692,40578,35037
31641,40620,35117
31541,40590,35173
31584,40557,35157
31561,40589,35239
31561,40550,35245
31516,40627,35329
31628,40607,35324
31796,40625,35423
31756,40605,35436
31736,40565,35508
31749,40597,35511
31764,40611,35591
31804,40615,35611
31820,40607,35687
31900,40615,35732
31788,40599,35773
31760,40583,35805
31894,40583,35847
32132,40583,35895
32160,40609,35863
32116,40631,35964
32036,40623,35981
32072,40583,35972
31984,40623,36071
31848,40604,36115
31800,40607,36055
31920,40578,36150
32160,40607,36189
32429,40599,36216
32616,40613,36244
32540,40581,36213
32316,40604,36285
32180,40576,36252
32241,40617,36320
32380,40607,36295
32380,40623,36349
32289,40615,36319
32276,40629,36330
32420,40574,36388
32552,40631,36337
32561,40622,36415
32576,40626,36385
32664,40599,36424
33004,40615,36388
33064,40621,36453
32845,40630,36471
32794,40623,36470
32871,40642,36452
33012,40623,36379
33004,40615,36455
32888,40623,36433
32888,40628,36471
32884,40622,36473
32878,40628,36390
32892,40623,36444
32882,40637,36389
33016,40637,36397
33120,40659,36420
33236,40646,36431
33340,40652,36373
33308,40652,36415
33316,40653,36377
33396,40623,36409
33548,40636,36337
33616,40639,36405
33604,40635,36407
33526,40652,36327
33508,40647,36399
33244,40665,36413
33172,40639,36409
33367,40609,36410
33444,40661,36316
33480,40640,36393
33510,40647,36407
33424,40651,36319
33120,40669,36384
33068,40647,36335
33088,40663,36404
33157,40620,36402
33136,40671,36335
33080,40672,36390
32960,40644,36325
32791,40621,36397
32666,40660,36332
32548,40662,36399
32532,40671,36408
32541,40659,36359
32633,40678,36413
32572,40655,36341
32313,40673,36395
32176,40659,36381
32224,40671,36359
32361,40614,36407
32228,40659,36355
31916,40648,36412
31824,40668,36426
31913,40655,36359
32000,40669,36410
32076,40641,36383
32036,40612,36431
31816,40676,36421
31796,40663,36383
31824,40665,36424
31820,40636,36394
31732,40669,36447
31585,40645,36460
31540,40667,36390
31752,40657,36468
31872,40671,36471
31904,40663,36439
31956,40655,36411
31788,40657,36484
31672,40641,36478
31589,40628,36485
31556,40621,36479
31748,40620,36516
31884,40612,36508
32000,40655,36468
32101,40676,36444
32037,40671,36523
32012,40647,36519
32096,40663,36548
32184,40658,36487
32116,40671,36548
32064,40647,36492
32232,40663,36580
32269,40659,36608
31964,40647,36532
31660,40675,36615
31704,40687,36620
31972,40661,36613
31964,40679,36673
31901,40666,36604
31952,40679,36704
32064,40668,36705
32064,40679,36759
32140,40679,36764
32260,40690,36700
32368,40679,36806
32406,40693,36844
32341,40679,36804
32164,40687,36889
32188,40676,36829
32460,40687,36932
32448,40673,36975
32174,40695,36908
32132,40677,36999
32212,40647,36974
32337,40676,37073
32356,40679,37103
32495,40684,37035
32366,40649,37140
32408,40671,37188
32584,40679,37141
32713,40679,37236
32784,40705,37284
32760,40695,37204
32872,40703,37297
32836,40698,37246
32624,40706,37351
32358,40699,37297
32484,40688,37383
32656,40679,37332
32696,40703,37444
32704,40694,37487
32526,40656,37415
32376,40645,37527
32480,40679,37554
32677,40708,37487
32816,40703,37583
32848,40695,37501
32772,40653,37615
32526,40679,37653
32401,40663,37583
32292,40676,37669
32301,40663,37700
32420,40689,37732
32442,40711,37758
32544,40727,37671
32416,40711,37772
32417,40728,37700
32520,40711,37816
32696,40729,37797
32724,40703,37887
32620,40711,37893
32512,40698,37805
32504,40740,37935
32500,40733,37959
32568,40709,37916
32644,40693,37999
32628,40733,38005
32672,40725,37929
32548,40676,38060
32356,40700,38109
32312,40685,38017
32613,40711,38132
32738,40677,38167
32600,40727,38108
32509,40711,38213
32588,40711,38236
32892,40741,38271
32932,40698,38247
32704,40735,38199
32422,40740,38297
32344,40711,38313
32292,40745,38284
32489,40743,38364
32684,40751,38342
32654,40741,38427
32561,40767,38432
32561,40740,38396
32538,40751,38501
32452,40743,38481
32485,40711,38479
32544,40685,38452
32560,40743,38543
32474,40698,38507
32424,40743,38482
32472,40766,38613
32549,40756,38624
32516,40756,38508
32564,40744,38653
32612,40733,38647
32576,40687,38593
32500,40727,38695
32456,40711,38700
32544,40754,38735
32524,40749,38748
32436,40773,38652
32412,40751,38751
32452,40701,38677
32532,40765,38772
32632,40748,38731
32508,40756,38817
32420,40749,38831
32488,40761,38855
32480,40767,38842
32487,40764,38741
32460,40781,38847
32452,40767,38887
32384,40783,38791
32324,40773,38892
32416,40775,38773
32616,40764,38885
32568,40773,38901
32420,40775,38785
32336,40733,38933
32292,40743,38940
32264,40774,38828
32100,40773,38941
32049,40783,38919
32028,40791,38941
32173,40775,38975
32229,40719,38951
32080,40775,38853
31900,40791,38940
32172,40804,38881
32492,40807,38980
32584,40791,38953
32477,40792,38903
32284,40807,38980
32164,40781,38988
32152,40799,38919
32116,40783,38983
32124,40792,38975
32078,40781,38852
32302,40799,38967
32522,40787,38953
32464,40791,38967
32436,40791,38930
32532,40783,38821
32600,40807,38925
32592,40797,38951
32636,40764,38791
32629,40756,38919
32484,40789,38919
32389,40769,38772
32400,40799,38880
32416,40783,38869
32484,40799,38871
32522,40765,38877
32600,40780,38860
32560,40812,38849
32350,40804,38724
32316,40759,38792
32484,40796,38808
32652,40767,38680
32831,40800,38749
32777,40789,38775
32705,40801,38605
32668,40823,38697
32645,40789,38671
32524,40759,38705
32597,40799,38645
32601,40815,38644
32580,40807,38548
32548,40829,38593
32492,40809,38619
32484,40828,38479
32596,40787,38565
32740,40800,38556
32760,40763,38419
32632,40799,38508
32508,40772,38500
32456,40791,38479
32656,40758,38428
32908,40807,38383
32832,40788,38405
32577,40821,38381
32452,40782,38262
32532,40815,38342
32600,40813,38327
32624,40807,38183
32525,40827,38276
32328,40823,38276
32100,40839,38159
31757,40827,38196
31496,40785,38089
31517,40853,38151
31758,40829,38052
31922,40791,38109
32244,40829,37990
32868,40785,38076
33432,40813,38077
33949,40839,37975
35080,40847,37999
36514,40839,37908
38328,40847,37991
40348,40815,37945
42116,40836,37894
43888,40824,37928
45648,40823,37873
46960,40822,37788
47576,40813,37861
47216,40831,37851
45792,40836,37763
43412,40850,37783
40975,40857,37730
38604,40876,37788
36214,40868,37748
34302,40863,37648
33064,40863,37711
32388,40839,37687
32150,40813,37599
32148,40863,37655
32068,40860,37629
31824,40869,37639
31620,40871,37627
31460,40885,37541
31342,40861,37607
31144,40815,37508
31024,40839,37531
31018,40801,37473
30988,40839,37450
30920,40801,37463
30823,40876,37405
30812,40877,37367
30804,40887,37381
30988,40877,37348
31012,40877,37266
30880,40863,37271
