ECG,EDA,RR
52484,38373,29463
51652,38380,29457
49924,38397,29421
47652,38399,29395
44988,38407,29418
41948,38420,29428
38840,38429,29403
36552,38439,29427
34932,38435,29465
33728,38445,29410
32844,38453,29444
32121,38453,29425
31572,38444,29429
31192,38463,29424
30920,38463,29468
30732,38416,29527
30605,38436,29452
30480,38436,29458
30380,38439,29471
30292,38448,29453
30236,38455,29435
30160,38451,29484
30048,38457,29469
29984,38469,29467
29976,38407,29412
29956,38445,29423
29904,38460,29405
29910,38471,29378
29908,38471,29423
29927,38479,29447
29925,38478,29363
29960,38455,29364
29980,38407,29351
29984,38421,29380
30036,38471,29351
30062,38448,29342
30069,38440,29342
30104,38453,29365
30128,38447,29393
30168,38445,29401
30236,38475,29345
30273,38485,29372
30320,38476,29359
30360,38425,29324
30385,38433,29351
30412,38474,29340
30449,38470,29326
30492,38436,29337
30524,38484,29351
30565,38452,29356
30624,38437,29361
30724,38492,29364
30812,38479,29364
30784,38469,29380
30812,38447,29387
30836,38486,29404
30832,38473,29439
30832,38487,29439
30852,38469,29455
30878,38481,29455
30888,38485,29468
30937,38508,29460
30988,38463,29459
31017,38471,29534
31060,38507,29551
31073,38507,29556
31032,38456,29556
31072,38500,29566
31164,38495,29575
31152,38487,29575
31182,38519,29552
31226,38469,29513
31264,38489,29543
31252,38517,29560
31261,38519,29570
31309,38471,29571
31365,38501,29577
31401,38515,29573
31412,38495,29556
31448,38523,29600
31488,38527,29633
31540,38519,29624
31592,38535,29632
31641,38532,29623
31652,38487,29577
31684,38511,29600
31692,38533,29617
31728,38540,29615
31792,38547,29585
31836,38551,29599
31844,38507,29612
31888,38548,29607
31952,38535,29604
32020,38511,29557
32036,38551,29603
32036,38551,29567
32124,38544,29527
32165,38535,29508
32240,38561,29505
32293,38565,29493
32356,38559,29473
32428,38559,29494
32477,38573,29454
32532,38586,29433
32616,38565,29423
32637,38574,29405
32637,38559,29394
32665,38563,29388
32730,38568,29425
32768,38599,29360
32800,38565,29352
32864,38598,29364
32896,38591,29345
32933,38580,29310
32952,38597,29301
32941,38599,29330
32988,38575,29352
33004,38573,29343
33041,38589,29335
33089,38590,29287
33108,38617,29222
33068,38595,29221
33072,38575,29251
33048,38615,29263
33033,38607,29249
32981,38591,29209
32917,38623,29144
32896,38612,29129
32847,38585,29119
32772,38619,29106
32713,38612,29103
32640,38645,29116
32570,38636,29086
32461,38628,29100
32348,38613,29073
32280,38599,29044
32225,38639,29038
32160,38598,29043
32112,38631,29031
32097,38629,29021
32092,38649,29018
32088,38659,29002
32005,38623,28991
31973,38640,28961
31962,38633,28935
31937,38613,28966
31897,38631,28921
31896,38651,28911
31877,38644,28957
31888,38661,28988
31872,38653,28972
31880,38647,28976
31892,38647,28927
31889,38647,28874
31874,38613,28881
31872,38653,28930
31864,38612,28919
31888,38644,28901
31896,38636,28911
31908,38663,28896
31938,38663,28904
31961,38615,28917
31988,38663,28900
32008,38652,28865
31988,38655,28819
32008,38647,28814
32036,38639,28820
32088,38662,28817
32112,38663,28794
32096,38679,28783
32093,38663,28860
32124,38662,28870
32168,38637,28815
32212,38629,28780
32229,38677,28823
32188,38679,28812
32172,38663,28806
32192,38676,28814
32232,38663,28812
32252,38686,28881
32300,38687,28908
32340,38679,28917
32332,38677,28860
32329,38663,28849
32293,38693,28855
32308,38683,28857
32340,38676,28863
32356,38699,28874
32366,38699,28896
32388,38695,28917
32436,38701,28910
32442,38696,28896
32413,38688,28897
32388,38705,28911
32396,38700,28926
32441,38653,28929
32448,38695,28956
32440,38702,28953
32436,38690,28961
32448,38719,28972
32468,38694,28975
32497,38695,28991
32512,38719,28993
32524,38703,28983
32510,38708,28987
32520,38719,28997
32512,38685,29011
32504,38716,29020
32542,38716,29072
32584,38723,29045
32600,38718,29053
32630,38703,29057
32656,38740,29095
32661,38743,29105
32705,38707,29113
32640,38714,29105
32640,38724,29125
32676,38740,29147
32724,38708,29151
32732,38692,29147
32740,38733,29161
32720,38741,29185
32725,38733,29204
32733,38724,29191
32748,38740,29201
32708,38741,29191
32712,38701,29212
32696,38740,29220
32669,38731,29230
32704,38735,29230
32704,38743,29333
32692,38744,29337
32672,38757,29343
32652,38759,29348
32669,38727,29332
32668,38759,29300
32657,38750,29330
32649,38767,29319
32676,38764,29317
32689,38764,29394
32744,38773,29407
32708,38736,29353
32712,38743,29381
32720,38775,29397
32716,38769,29399
32718,38767,29396
32740,38765,29415
32744,38762,29404
32756,38765,29472
32764,38756,29497
32784,38789,29515
32784,38799,29540
32777,38791,29471
32789,38791,29492
32740,38791,29509
32736,38789,29515
32728,38743,29520
32728,38791,29534
32760,38791,29541
32776,38791,29541
32812,38791,29548
32824,38815,29545
32829,38820,29559
32826,38791,29575
32805,38764,29567
32792,38791,29571
32764,38791,29580
32816,38791,29586
32844,38791,29604
32844,38791,29691
32824,38791,29680
32817,38823,29644
32812,38823,29642
32832,38815,29652
32852,38815,29677
32820,38820,29683
32869,38804,29671
32896,38791,29697
32860,38791,29688
32872,38796,29769
32868,38829,29775
32904,38837,29792
32908,38829,29773
32880,38829,29757
32852,38829,29783
32858,38808,29797
32896,38787,29792
32876,38768,29787
32868,38817,29817
32873,38820,29871
32876,38807,29887
32896,38812,29857
32904,38823,29839
32892,38815,29857
32908,38823,29863
32896,38831,29880
32865,38827,29862
32884,38831,29926
32884,38821,29940
32876,38839,29948
32897,38838,29908
32904,38807,29916
32928,38797,29929
32886,38837,29922
32889,38847,29943
32916,38838,29982
32881,38828,29981
32859,38786,29980
32904,38823,29949
32912,38840,29967
32928,38812,29980
32908,38847,29980
32897,38829,29989
32864,38828,29972
32864,38812,29976
32872,38836,29983
32866,38855,29988
32888,38837,30019
32893,38836,29975
32900,38837,29991
32892,38833,30000
32904,38839,30039
32933,38855,30042
32936,38857,30087
32902,38847,30092
32925,38854,30088
32944,38791,30082
32940,38846,30093
32920,38847,30101
32932,38847,30081
32960,38845,30113
32952,38861,30108
32940,38870,30116
32964,38863,30120
32948,38855,30099
32952,38839,30117
32972,38828,30138
32928,38863,30149
32960,38833,30133
32964,38861,30117
32981,38863,30101
33005,38857,30143
32990,38872,30116
32932,38855,30100
32912,38863,30121
32860,38851,30129
32840,38853,30132
32816,38846,30118
32792,38852,30156
32808,38860,30198
32808,38859,30196
32792,38879,30203
32809,38845,30164
32860,38875,30148
32832,38851,30174
32784,38887,30167
32732,38874,30162
32740,38875,30181
32758,38863,30177
32772,38863,30189
32808,38884,30206
32805,38889,30200
32820,38841,30231
32849,38883,30239
32888,38863,30247
32924,38855,30245
32909,38881,30241
32967,38831,30189
33016,38876,30204
33082,38872,30202
33168,38874,30228
33192,38863,30206
33181,38903,30205
33172,38855,30245
33156,38879,30275
33173,38879,30236
33180,38869,30243
33188,38862,30255
33184,38866,30249
33180,38871,30245
33140,38875,30231
33168,38857,30269
33172,38887,30304
33166,38887,30307
33142,38864,30315
33156,38862,30277
33104,38863,30277
33105,38855,30265
33060,38858,30281
33037,38868,30288
33016,38895,30293
32976,38865,30293
32956,38887,30287
32950,38869,30287
32924,38893,30287
32924,38876,30288
32917,38836,30300
32929,38868,30292
32956,38863,30303
32985,38855,30305
32960,38895,30309
32964,38895,30311
32964,38877,30311
32984,38885,30301
32936,38893,30295
32937,38884,30295
32897,38875,30292
32864,38869,30311
32876,38887,30335
32900,38901,30350
32889,38900,30324
32880,38893,30335
32858,38885,30335
32854,38879,30324
32840,38887,30292
32840,38889,30295
32836,38855,30293
32824,38887,30286
32836,38881,30289
32830,38879,30294
32732,38911,30300
32472,38917,30300
32196,38911,30297
31864,38919,30292
31596,38902,30332
31438,38903,30286
31488,38895,30288
31552,38908,30292
31788,38893,30263
32264,38903,30301
32732,38919,30308
33365,38905,30277
34364,38919,30284
35965,38907,30276
37936,38893,30265
40256,38887,30257
42708,38869,30264
45160,38856,30256
47504,38852,30285
49389,38855,30292
50720,38845,30289
51316,38858,30314
50684,38852,30292
49064,38854,30263
46976,38860,30277
44548,38868,30253
41761,38876,30311
38758,38889,30295
36504,38903,30260
34952,38895,30273
33836,38900,30245
33000,38886,30275
32272,38887,30308
31736,38885,30282
31344,38882,30260
31048,38902,30265
30896,38905,30271
30792,38883,30271
30712,38852,30285
30656,38897,30252
30568,38908,30289
30440,38903,30257
30380,38863,30262
30264,38903,30249
30176,38892,30223
30109,38901,30269
30092,38901,30228
30080,38905,30197
30096,38879,30172
30116,38885,30205
30120,38887,30183
30144,38903,30149
30176,38879,30117
30188,38895,30135
30216,38845,30160
30230,38835,30143
30225,38881,30103
30264,38841,30087
30324,38861,30062
30365,38893,30095
30420,38919,30071
30482,38871,30044
30488,38868,30031
30496,38901,29997
30512,38908,30000
30536,38901,30021
30600,38897,30059
30637,38893,30000
30696,38836,30007
30776,38893,30001
30844,38885,30006
30865,38877,30004
30881,38877,30012
30928,38885,30029
30956,38868,30033
30889,38844,30028
30908,38901,30022
30982,38896,30017
30996,38855,30020
31040,38903,30095
31088,38903,30053
31132,38895,30063
31160,38903,30051
31180,38900,30071
31197,38862,30068
31208,38884,30103
31260,38823,30119
31304,38876,30127
31332,38870,30095
31332,38876,30103
31352,38903,30087
31401,38897,30068
31445,38863,30079
31477,38885,30068
31472,38875,30081
31517,38860,30079
31526,38855,30060
31564,38890,30103
31580,38841,30087
31604,38892,30121
31672,38880,30135
31694,38877,30118
31740,38901,30100
31792,38874,30090
31832,38875,30053
31880,38871,30118
31932,38871,30060
31973,38879,30045
32008,38837,30066
32076,38873,30052
32084,38864,30021
32142,38897,30083
32180,38897,30020
32229,38884,29994
32268,38838,29996
32302,38879,29983
32344,38879,29941
32388,38876,29943
32420,38879,29962
32456,38864,29959
32526,38901,29945
32603,38901,29911
32654,38855,29900
32692,38877,29855
32720,38895,29823
32780,38839,29816
32780,38845,29772
32836,38837,29830
32884,38875,29807
32940,38887,29739
32980,38876,29721
32988,38867,29716
33020,38893,29712
33072,38901,29687
33092,38868,29648
33085,38862,29666
33112,38832,29703
33113,38876,29636
33140,38883,29605
33156,38879,29619
33181,38876,29592
33216,38899,29597
33208,38891,29561
33181,38837,29543
33159,38855,29562
33104,38841,29601
33096,38843,29541
33032,38879,29521
32996,38875,29493
32932,38864,29498
32864,38885,29492
32796,38879,29455
32704,38873,29519
32612,38862,29516
32485,38832,29487
32408,38876,29463
32305,38865,29405
32212,38870,29410
32157,38875,29365
32086,38879,29441
32080,38847,29357
32064,38869,29345
32008,38857,29353
31985,38845,29336
31948,38831,29324
31900,38851,29308
31828,38837,29295
31780,38853,29284
31761,38843,29295
31744,38839,29340
31748,38851,29316
31789,38843,29221
31792,38791,29212
31762,38822,29227
31752,38807,29263
31773,38826,29292
31768,38828,29279
31745,38783,29280
31760,38780,29280
31776,38812,29237
31832,38805,29200
31844,38802,29180
31852,38815,29202
31868,38790,29188
31866,38780,29183
31860,38759,29149
31864,38789,29129
31914,38798,29134
31936,38801,29108
31925,38761,29110
31976,38799,29111
32020,38791,29149
32041,38789,29159
32044,38791,29134
32020,38772,29119
32016,38788,29129
32096,38769,29153
32088,38760,29151
32132,38749,29146
32173,38767,29159
32206,38785,29180
32256,38773,29173
32244,38789,29174
32225,38759,29191
32224,38771,29175
32224,38767,29180
32253,38767,29175
32268,38757,29201
32304,38767,29236
32337,38764,29220
32320,38756,29226
32285,38763,29223
32292,38788,29196
32332,38774,29219
32324,38767,29228
32340,38759,29225
32345,38748,29244
32360,38724,29285
32380,38766,29291
32396,38767,29259
32383,38773,29273
32376,38771,29265
32381,38758,29272
32396,38757,29281
32408,38743,29287
32400,38739,29325
32390,38724,29324
32378,38747,29318
32389,38749,29351
32396,38729,29420
32424,38719,29408
32416,38759,29390
32439,38756,29417
32448,38711,29405
32448,38727,29430
32432,38717,29469
32413,38684,29497
32421,38729,29458
32452,38722,29447
32492,38727,29471
32508,38722,29492
32540,38726,29505
32540,38691,29511
32556,38727,29500
32586,38707,29508
32562,38694,29555
32552,38693,29614
32549,38684,29628
32556,38724,29614
32580,38727,29590
32580,38723,29583
32636,38703,29599
32620,38677,29605
32600,38711,29614
32616,38705,29625
32604,38695,29633
32616,38694,29660
32600,38693,29684
32605,38727,29699
32654,38717,29703
32672,38722,29715
32656,38724,29703
32644,38721,29749
32644,38715,29792
32644,38652,29757
32656,38703,29761
32636,38691,29789
32648,38684,29789
32652,38679,29793
32660,38689,29868
32668,38704,29878
32712,38693,29836
32709,38703,29863
32692,38701,29860
32696,38692,29887
32704,38687,29935
32725,38676,29886
32712,38679,29909
32748,38628,29916
32765,38682,29929
32789,38663,29943
32800,38657,29956
32776,38684,29978
32804,38633,29981
32772,38663,29991
32733,38644,30000
32726,38649,30023
32724,38660,30013
32752,38639,30048
32768,38663,30100
32773,38612,30108
32816,38652,30117
32800,38637,30143
32784,38645,30133
32756,38646,30160
32724,38639,30160
32725,38594,30176
32752,38635,30188
32756,38631,30177
32780,38620,30188
32808,38621,30213
32829,38623,30205
32824,38636,30214
32844,38621,30223
32790,38623,30255
32783,38605,30272
32796,38626,30288
32800,38628,30292
32816,38589,30332
32828,38590,30367
32856,38584,30391
32844,38620,30389
32870,38607,30404
32872,38591,30409
32860,38615,30432
32852,38569,30445
32820,38598,30441
32821,38592,30431
32824,38591,30439
32848,38589,30447
32844,38623,30452
32846,38615,30453
32850,38612,30468
32824,38589,30468
32821,38583,30493
32860,38593,30516
32848,38607,30526
32824,38589,30521
32838,38591,30560
32889,38585,30569
32857,38573,30575
32848,38581,30575
32842,38597,30573
32868,38596,30565
32876,38586,30566
32864,38551,30577
32852,38567,30592
32896,38550,30599
32902,38567,30594
32869,38587,30595
32860,38588,30599
32833,38561,30615
32876,38549,30597
32864,38580,30621
32849,38559,30612
32864,38535,30639
32900,38567,30655
32917,38565,30653
32917,38557,30660
32869,38581,30658
32828,38580,30648
32821,38550,30668
32812,38557,30639
32814,38566,30652
32812,38567,30666
32776,38559,30669
32768,38534,30696
32782,38516,30716
32808,38519,30681
32796,38519,30705
32813,38517,30693
32817,38511,30745
32776,38550,30719
32776,38505,30747
32760,38535,30764
32720,38521,30776
32720,38535,30785
32772,38532,30804
32836,38535,30829
32896,38505,30861
32954,38497,30885
32964,38519,30919
33020,38519,30925
33042,38503,30945
33093,38517,30957
33180,38519,30973
33184,38464,30999
33177,38495,31014
33196,38501,31069
33212,38501,31068
33238,38501,31099
33224,38517,31097
33172,38508,31132
33132,38493,31169
33112,38487,31191
33108,38474,31200
33132,38477,31215
33112,38468,31234
33132,38477,31252
33175,38492,31263
33216,38509,31282
33226,38503,31301
33176,38503,31306
33112,38463,31317
33024,38455,31333
32944,38463,31373
32906,38473,31373
32904,38449,31391
32888,38465,31403
32936,38447,31399
32984,38484,31415
32996,38455,31434
32984,38461,31444
32952,38471,31447
32961,38466,31449
32960,38457,31447
32920,38452,31453
32892,38453,31477
32873,38455,31483
32893,38447,31470
32948,38441,31475
32941,38473,31473
32932,38473,31456
32928,38453,31455
32917,38454,31471
32914,38447,31468
33080,38439,31452
33284,38452,31445
33388,38469,31433
33180,38461,31422
32956,38437,31399
33024,38471,31398
33120,38423,31405
33032,38452,31383
32868,38430,31367
32700,38429,31357
32512,38401,31335
32276,38447,31315
31926,38405,31295
31636,38447,31276
31505,38435,31263
31608,38439,31263
31745,38455,31238
31964,38439,31215
32420,38396,31190
32854,38407,31167
33460,38407,31140
34456,38438,31116
36044,38437,31071
38032,38437,31083
40300,38428,31069
42620,38421,31029
44984,38407,31001
47144,38393,30969
48880,38389,30942
50060,38372,30924
50556,38369,30915
49860,38373,30899
48108,38395,30857
46032,38403,30825
43700,38400,30797
40928,38421,30787
38064,38425,30752
36000,38417,30727
34560,38407,30685
33541,38407,30684
32780,38407,30670
32124,38430,30663
31626,38436,30639
31292,38383,30599
31100,38425,30587
30992,38421,30552
30864,38407,30513
30761,38424,30487
30680,38407,30450
30584,38367,30429
30500,38407,30407
30434,38407,30372
30348,38401,30332
30317,38407,30319
30325,38407,30308
30312,38405,30240
30292,38397,30212
30264,38429,30181
30241,38407,30127
30264,38407,30091
30265,38375,30021
30324,38397,30034
30353,38391,30012
30358,38421,29997
30381,38369,29956
30404,38407,29931
30452,38399,29903
30477,38385,29839
30480,38381,29793
30492,38399,29763
30508,38405,29731
30565,38367,29697
30629,38391,29665
30704,38386,29639
30734,38372,29599
30776,38407,29572
30816,38373,29557
30848,38391,29549
30841,38365,29533
30820,38359,29509
30845,38375,29477
30893,38390,29461
30924,38351,29447
30944,38391,29428
31008,38391,29423
31044,38358,29427
31056,38397,29412
31068,38350,29395
31088,38372,29393
31104,38375,29367
31093,38340,29363
31129,38372,29356
31180,38375,29327
31245,38378,29333
31264,38389,29324
31300,38380,29316
31312,38367,29299
31344,38357,29282
31348,38365,29279
31376,38373,29313
31404,38324,29335
31428,38375,29320
31496,38358,29287
31560,38341,29262
31580,38343,29261
31588,38380,29241
31604,38365,29249
31652,38359,29253
31676,38380,29251
31696,38333,29261
31725,38359,29263
31764,38365,29255
31808,38343,29256
31833,38375,29244
31856,38366,29253
31900,38357,29229
31928,38381,29217
31932,38331,29220
31965,38367,29205
31980,38348,29243
32016,38364,29260
32072,38327,29260
32120,38348,29261
32176,38345,29222
32228,38380,29222
32292,38361,29223
32380,38359,29211
32392,38345,29177
32408,38365,29161
32460,38326,29128
32484,38349,29110
32528,38343,29087
32624,38343,29079
32684,38367,29063
32744,38373,29020
32796,38333,28977
32848,38359,28993
32900,38335,29014
32897,38351,28990
32920,38303,28956
32961,38340,28941
32984,38343,28935
33020,38354,28926
33052,38312,28924
33040,38342,28900
33064,38329,28905
33065,38343,28913
33060,38333,28911
33065,38336,28893
33068,38339,28879
33080,38295,28848
33089,38329,28843
33136,38325,28842
33144,38343,28836
33054,38317,28831
32993,38342,28823
32944,38327,28815
32888,38336,28837
32801,38301,28839
32728,38325,28837
32644,38311,28823
32580,38277,28801
32508,38338,28794
32404,38287,28780
32352,38324,28755
32288,38327,28855
32245,38321,28837
32156,38316,28775
32092,38308,28796
32028,38317,28788
31992,38279,28777
31956,38311,28756
31948,38292,28761
31934,38324,28742
31909,38301,28742
31904,38318,28730
31885,38297,28735
31876,38279,28724
31832,38311,28719
31792,38301,28709
31788,38295,28711
31791,38279,28719
31802,38310,28724
31813,38308,28719
31840,38290,28720
31880,38293,28704
31896,38260,28691
31884,38309,28701
31876,38301,28743
31840,38277,28756
31852,38266,28673
31848,38279,28679
31892,38287,28676
31960,38273,28668
31969,38295,28668
31940,38287,28663
31966,38276,28657
31980,38279,28661
32032,38287,28656
32036,38233,28652
32032,38279,28703
32048,38271,28748
32116,38260,28770
32132,38295,28759
32136,38287,28750
32160,38247,28743
32176,38295,28712
32188,38279,28710
32156,38261,28735
32160,38279,28743
32180,38228,28770
32200,38261,28805
32224,38253,28760
32240,38253,28773
32252,38275,28780
32269,38271,28799
32320,38219,28813
32325,38266,28824
32320,38247,28830
32332,38231,28846
32296,38257,28848
32304,38212,28861
32292,38252,28884
32333,38247,28911
32362,38263,28908
32361,38271,28935
32372,38260,28967
32384,38245,28964
32392,38229,28963
32392,38215,28993
32369,38248,28998
32421,38210,29017
32440,38245,29040
32472,38239,29050
32482,38229,29084
32492,38252,29110
32496,38245,29117
32502,38237,29143
32532,38214,29159
32544,38236,29175
32549,38229,29207
32533,38191,29263
32544,38226,29285
32549,38217,29313
32564,38239,29343
32576,38190,29354
32552,38199,29326
32576,38223,29351
32560,38207,29380
32568,38228,29422
32584,38179,29469
32596,38220,29463
32609,38205,29495
32605,38229,29540
32649,38245,29554
32669,38188,29565
32653,38215,29581
32700,38231,29597
32672,38229,29622
32636,38212,29638
32615,38197,29549
32572,38220,29626
32628,38211,29666
32628,38205,29689
32644,38235,29709
32668,38228,29737
32677,38208,29745
32676,38231,29774
32688,38213,29831
32670,38191,29855
32644,38221,29857
32640,38209,29909
32630,38215,29927
32660,38194,29935
32704,38191,29943
32692,38214,29989
32679,38201,30012
32710,38206,30037
32744,38208,30020
32700,38167,30040
32685,38189,30073
32700,38183,30087
32692,38215,30103
32700,38215,30121
32717,38175,30149
32736,38207,30158
32724,38189,30183
32700,38189,30215
32684,38182,30254
32681,38197,30276
32696,38195,30300
32693,38165,30309
32704,38188,30315
32716,38183,30344
32759,38187,30343
32774,38207,30361
32774,38164,30382
32776,38181,30408
32736,38191,30425
32772,38203,30449
32776,38167,30476
32785,38177,30486
32797,38173,30506
32788,38193,30532
32812,38151,30546
32820,38179,30566
32822,38197,30580
32801,38151,30596
32808,38173,30633
32784,38151,30644
32776,38180,30660
32773,38181,30693
32783,38151,30725
32800,38170,30727
32824,38182,30749
32828,38191,30735
32832,38183,30756
32814,38160,30794
32812,38151,30813
32822,38168,30831
32820,38170,30852
32836,38165,30868
32864,38165,30887
32880,38180,30897
32884,38181,30908
32884,38177,30913
32886,38151,30951
32877,38173,30983
32840,38169,30999
32848,38151,31010
32840,38180,31039
32900,38133,31052
32885,38163,31079
32856,38179,31072
32854,38128,31102
32832,38169,31111
32868,38135,31140
32828,38171,31148
32832,38125,31160
32812,38151,31184
32772,38147,31197
32748,38171,31210
32692,38137,31226
32684,38151,31239
32732,38151,31253
32768,38135,31268
32744,38172,31291
32752,38159,31301
32724,38151,31316
32704,38141,31329
32679,38125,31347
32724,38150,31353
32757,38103,31356
32772,38138,31372
32763,38151,31370
32772,38151,31395
32814,38151,31416
32833,38100,31439
32876,38132,31440
32902,38117,31459
32897,38116,31468
32932,38134,31487
33012,38141,31508
33088,38103,31502
33166,38140,31527
33214,38117,31535
33180,38134,31547
33197,38119,31577
33154,38131,31573
33113,38077,31590
33072,38095,31617
33112,38124,31637
33140,38124,31647
33160,38127,31663
33156,38127,31671
33168,38119,31694
33164,38127,31697
33148,38093,31703
33156,38111,31716
33178,38087,31740
33152,38127,31740
33101,38087,31764
33060,38125,31767
33028,38119,31780
32988,38117,31790
32916,38121,31809
32913,38112,31829
32943,38121,31836
32920,38095,31836
32925,38108,31849
32916,38095,31861
32920,38108,31901
32944,38085,31908
32972,38116,31921
32978,38101,31944
32965,38119,31952
32928,38119,31963
32950,38123,31970
32965,38067,31981
32936,38097,32007
32904,38086,32012
32884,38115,32020
32908,38119,32038
32936,38119,32054
32952,38077,32065
32928,38111,32077
32940,38095,32084
32944,38113,32093
32926,38102,32080
32903,38108,32089
32897,38055,32105
32852,38087,32113
32864,38087,32136
32832,38110,32155
32709,38095,32149
32547,38111,32176
32248,38106,32193
31936,38095,32207
31692,38092,32217
31556,38108,32214
31628,38069,32228
31748,38056,32249
31984,38100,32231
32508,38101,32239
33028,38105,32275
33636,38101,32300
34576,38099,32294
36036,38095,32311
37900,38081,32323
40084,38084,32324
42276,38078,32317
44444,38083,32321
46536,38069,32331
48172,38063,32361
49284,38063,32375
49756,38065,32397
49028,38063,32415
47244,38060,32421
45216,38071,32436
42984,38072,32427
40360,38076,32417
37669,38093,32422
35784,38093,32469
34508,38086,32484
33576,38117,32476
32904,38112,32500
32261,38085,32479
31784,38077,32501
31436,38119,32542
31244,38094,32559
31088,38093,32549
31020,38111,32571
30996,38119,32583
30956,38063,32565
30868,38121,32609
30786,38077,32620
30697,38069,32628
30640,38108,32621
30580,38095,32638
30528,38085,32604
30528,38103,32640
30512,38108,32617
30468,38109,32647
30478,38103,32638
30484,38088,32635
30538,38116,32629
30548,38061,32639
30564,38095,32594
30556,38066,32595
30572,38101,32590
30612,38103,32588
30660,38081,32580
30718,38104,32605
30724,38086,32631
30755,38084,32620
30770,38100,32623
30793,38109,32589
30838,38101,32590
30854,38082,32577
30854,38071,32574
30943,38079,32593
30954,38103,32584
30972,38104,32589
30997,38095,32609
31030,38054,32601
31061,38067,32629
31116,38055,32671
31164,38089,32671
31169,38087,32668
31168,38083,32701
31216,38068,32726
31280,38101,32729
31324,38100,32737
31324,38101,32759
31300,38085,32775
31360,38103,32791
31372,38082,32811
31394,38103,32822
31432,38109,32831
31460,38064,32845
31432,38063,32860
31478,38094,32898
31520,38087,32876
31542,38076,32867
31572,38067,32895
31580,38067,32927
31580,38113,32965
31597,38082,32961
31636,38101,32948
31654,38093,32946
31668,38063,32967
31704,38050,33026
31736,38055,33047
31800,38103,33047
31796,38103,33057
31839,38065,33067
31904,38085,33069
31938,38101,33092
31936,38087,33077
32016,38071,33099
32068,38071,33100
32102,38091,33120
32168,38095,33127
32212,38077,33141
32212,38103,33132
32240,38101,33137
32296,38095,33116
32333,38093,33129
32348,38103,33086
32381,38093,33095
32436,38081,33126
32508,38098,33111
32584,38096,33103
32648,38098,33100
32714,38089,33087
32758,38104,33084
32788,38101,33072
32848,38107,33054
32900,38097,33054
32902,38101,33055
32960,38095,33030
32996,38087,33023
33032,38063,32974
33076,38101,32949
33133,38111,32943
33192,38108,32931
33188,38095,32908
33168,38103,32941
33172,38087,32932
33200,38063,32928
33189,38097,32909
33204,38100,32903
33241,38057,32884
33208,38075,32868
33232,38111,32853
33244,38095,32853
33200,38103,32839
33176,38099,32807
33157,38099,32763
33116,38069,32759
33040,38099,32751
32988,38061,32741
32940,38092,32771
32876,38087,32751
32796,38084,32741
32709,38109,32729
32624,38076,32719
32553,38100,32708
32436,38087,32696
32360,38071,32677
32284,38092,32664
32216,38055,32663
32172,38093,32636
32096,38093,32633
32060,38096,32623
32012,38111,32619
31960,38097,32590
31937,38089,32597
31904,38069,32575
31876,38087,32562
31852,38087,32524
31844,38073,32519
31854,38101,32516
31876,38053,32526
31845,38095,32499
31854,38092,32493
31844,38084,32462
31804,38081,32445
31812,38065,32428
31800,38087,32447
31809,38087,32428
31838,38071,32421
31876,38095,32413
31889,38093,32420
31892,38077,32399
31885,38092,32386
31886,38096,32391
31865,38087,32377
31872,38068,32340
31901,38082,32321
31924,38087,32331
31924,38039,32302
31938,38071,32297
32000,38071,32289
32028,38092,32295
32040,38087,32316
32005,38064,32311
32032,38086,32322
32084,38055,32321
32060,38060,32321
32052,38052,32319
32076,38063,32321
32113,38031,32325
32136,38057,32333
32124,38040,32329
32152,38071,32332
32144,38052,32340
32190,38023,32343
32164,38050,32345
32204,38013,32349
32209,37997,32345
32216,38031,32349
32236,38035,32343
32264,38017,32346
32292,38044,32352
32316,38045,32351
32300,38005,32359
32292,38023,32343
32305,38001,32346
32342,37989,32349
32317,37977,32380
32312,37991,32391
32336,38004,32399
32369,38027,32398
32388,38032,32414
32388,38029,32386
32396,38031,32390
32396,37981,32399
32372,38007,32425
32396,37999,32439
32397,37995,32460
32381,37991,32481
32402,37989,32484
32412,37991,32493
32432,38019,32508
32468,38023,32517
32484,38013,32519
32488,37967,32535
32481,37991,32541
32476,37981,32553
32484,37999,32568
32476,37989,32567
32477,37991,32543
32508,37989,32546
32556,37999,32571
32568,37999,32620
32556,37996,32621
32560,37953,32625
32545,37973,32640
32516,37964,32652
32513,37989,32625
32532,37967,32628
32543,37989,32632
32564,37981,32646
32568,37967,32695
32548,37998,32705
32560,37959,32727
32544,37959,32731
32538,37975,32749
32540,37967,32756
32564,37983,32754
32564,37989,32730
32578,37955,32738
32550,37972,32745
32568,38007,32745
32584,38001,32763
32556,37969,32775
32556,37947,32815
32544,37991,32807
32564,37975,32827
32568,37967,32851
32570,37964,32866
32580,37999,32856
32588,38007,32872
32624,37965,32847
32672,38007,32839
32640,37997,32887
32645,37989,32903
32628,37967,32909
32636,37999,32921
32609,37957,32916
32612,37993,32919
32644,37991,32927
32668,37991,32945
32660,37985,32956
32672,37983,32915
32652,37999,32911
32628,37997,32905
32636,37958,32948
32640,37991,32937
32633,37968,32941
32664,37936,32950
32672,37994,32959
32676,37997,32968
32680,37953,32996
32664,37985,33005
32664,37983,32997
32648,37997,33005
32669,37991,33017
32703,37961,33011
32696,37981,33020
32692,37979,33022
32709,37996,33008
32704,37991,33021
32688,38013,33022
32680,38005,33016
32676,37991,33028
32678,37985,32988
32669,37999,32991
32656,38005,33000
32692,38000,33053
32728,37983,33045
32716,37975,33031
32728,38003,33041
32712,37988,33049
32716,38012,33045
32716,38023,33039
32724,38015,33052
32700,37969,33021
32700,37993,33012
32684,37991,33012
32692,38015,33021
32712,38021,33007
32736,37999,33055
32724,38023,33062
32740,38015,33052
32728,38023,33044
32704,38023,33060
32704,38023,33062
32660,38015,33053
32644,37988,33060
32625,38004,33057
32684,38004,33050
32672,38042,33044
32652,38004,33049
32656,38039,33051
32708,38023,33059
32736,38013,33045
32688,38037,33034
32718,38033,33040
32733,38033,33031
32761,38046,33031
32820,37997,33017
32900,38005,33031
32996,38045,33031
33064,38037,32975
33065,38004,32983
33040,38023,32999
33012,38035,33009
33036,38022,33012
33104,38023,33006
33080,38015,32995
33061,38012,32999
33040,38043,32993
33032,38039,32989
33049,38005,32981
33047,38023,32973
33028,38021,32967
33046,38000,32963
33028,38023,32929
33036,38015,32960
33020,37999,32915
32989,37993,32881
32924,38023,32903
32890,38013,32880
32892,38051,32871
32884,38037,32875
32840,37999,32892
32804,38023,32893
32782,38015,32876
32796,38033,32843
32824,38037,32863
32852,38023,32852
32857,38023,32875
32876,38047,32853
32876,38037,32842
32853,38028,32834
32836,38023,32824
32812,38031,32830
32820,38036,32821
32828,38039,32788
32836,37993,32812
32904,38035,32806
32880,38029,32804
32872,38041,32791
32880,38037,32775
32864,37999,32764
32824,38021,32761
32776,38012,32756
32773,38036,32737
32802,38014,32729
32824,38023,32741
32848,38031,32723
32849,38023,32676
32766,38036,32654
32632,38023,32653
32432,38053,32655
32068,38011,32657
31728,38033,32647
31525,38023,32633
31484,38015,32621
31604,38045,32613
31796,38045,32613
32213,38042,32607
32712,38037,32586
33244,38031,32572
33956,38037,32573
35085,38045,32568
36700,38005,32572
38708,38005,32601
40864,38005,32580
42888,38007,32542
44916,38004,32545
46693,37992,32577
47941,38000,32535
48672,38007,32512
48572,38004,32489
47240,37999,32535
45316,38018,32527
43312,38015,32493
41052,38016,32469
38460,38037,32471
36164,38023,32449
34732,38053,32464
33732,38047,32448
32988,38060,32453
32408,38063,32453
31909,38015,32424
31496,38012,32455
31269,38047,32455
31120,38039,32452
31060,38055,32443
31052,38064,32423
30992,38061,32388
30932,38023,32415
30844,38074,32407
30768,38017,32405
30713,38047,32380
30660,38037,32380
30648,38043,32357
30632,38057,32351
30638,37997,32327
30708,38053,32309
30696,38044,32291
30692,38057,32284
30668,38071,32260
30662,38039,32247
30668,38047,32237
30676,38032,32212
30676,38023,32186
30700,38063,32177
30736,38049,32167
30800,38041,32157
30853,38039,32130
30852,38076,32108
30880,38017,32077
30908,38047,32041
30936,38052,32049
30948,37999,32037
31004,38036,32015
31046,38061,32007
31016,38004,31993
31036,38045,31978
31072,38069,31973
31118,38039,31967
31164,38059,31957
31164,38063,31925
31184,38057,31924
31188,38045,31932
31200,38069,31926
31273,38007,31948
31345,38039,31943
31404,38071,31937
31420,38019,31943
31436,38055,31943
31469,38038,31931
31460,38049,31939
31468,38055,31942
31458,38045,31943
31470,38037,31961
31509,38061,31967
31560,38061,31960
31605,38064,31948
31596,38019,31953
31620,38051,31949
31652,38063,31954
31684,38063,31954
31700,38063,31952
31713,38039,31952
31772,38023,31962
31818,38055,31949
31852,38023,31949
31864,38055,31972
31888,38033,31972
31948,38069,31964
32011,38047,31959
32032,38061,31961
32064,38046,31961
32068,38041,31933
32092,38036,31938
32164,38033,31941
32224,38038,31946
32292,38044,31944
32296,38043,31929
32348,38047,31925
32384,38053,31911
32412,38043,31887
32460,38055,31871
32496,38049,31881
32540,38068,31868
32552,38022,31847
32580,38069,31842
32660,38057,31814
32741,38079,31789
32820,38082,31763
32852,38055,31764
32868,38079,31745
32860,38036,31719
32940,38067,31703
33040,38057,31687
33044,38055,31655
33028,38052,31639
33040,38085,31620
33100,38087,31601
33142,38053,31568
33156,38079,31559
33173,38067,31533
33240,38087,31512
33248,38038,31494
33226,38057,31476
33236,38087,31454
33287,38047,31436
33280,38087,31407
33309,38066,31381
33324,38103,31361
33312,38101,31355
33312,38093,31335
33376,38073,31284
33332,38090,31311
33224,38091,31295
33212,38087,31276
33174,38080,31263
33132,38065,31247
33036,38098,31237
32948,38107,31222
32860,38075,31202
32805,38095,31194
32726,38075,31181
32640,38063,31167
32572,38065,31151
32474,38087,31137
32420,38052,31119
32396,38071,31119
32344,38085,31100
32300,38099,31085
32237,38039,31068
32176,38075,31049
32160,38073,31029
32140,38059,31012
32108,38077,30969
32054,38036,30975
32040,38063,30969
32056,38087,30957
32052,38076,30941
32036,38055,30919
32000,38053,30899
31948,38071,30881
31944,38071,30859
31960,38017,30861
31982,38065,30823
31980,38052,30823
32020,38051,30804
32036,38068,30779
32025,38081,30761
32004,38044,30743
32040,38071,30703
32057,38053,30687
32052,38065,30665
32066,38065,30647
32040,38012,30621
32013,38055,30580
31984,38069,30564
32045,38046,30537
32098,38045,30518
32124,38055,30509
32160,38052,30499
32184,38065,30495
32216,38061,30476
32192,38012,30465
32180,38055,30455
32165,38045,30449
32176,38037,30436
32216,38077,30420
32289,38023,30412
32292,38063,30385
32328,38055,30413
32312,38047,30391
32365,38062,30380
32286,38049,30367
32273,38023,30355
32356,38039,30291
32328,38039,30316
32268,38056,30305
32313,38073,30295
32404,38055,30298
32424,38061,30282
32441,38057,30268
32392,38047,30268
32368,38057,30260
32340,38033,30257
32377,38055,30248
32388,38055,30265
32460,38055,30255
32428,38055,30245
32420,38071,30202
32444,38077,30255
32432,38031,30271
32416,38054,30277
32420,38050,30269
32448,38047,30255
32448,38033,30261
32432,38047,30224
32504,38039,30291
32548,38045,30263
32585,38055,30256
32564,38023,30260
32532,38065,30266
32552,38062,30301
32540,38071,30262
32568,38069,30276
32600,38063,30265
32606,38079,30281
32628,38076,30294
32628,38079,30279
32664,38084,30279
32664,38081,30277
32668,38060,30267
32654,38057,30268
32672,38055,30254
32660,38071,30254
32708,38079,30251
32756,38077,30300
32744,38083,30276
32705,38087,30278
32676,38051,30279
32645,38067,30242
32684,38049,30254
32720,38071,30245
32720,38053,30244
32724,38077,30244
32724,38061,30247
32744,38063,30238
32744,38052,30236
32760,38076,30230
32792,38079,30241
32780,38043,30265
32780,38023,30231
32776,38061,30239
32818,38044,30231
32776,38036,30205
32769,38055,30212
32756,38057,30245
32768,38022,30225
32788,38054,30215
32821,38047,30213
32825,38063,30214
32808,38071,30202
32800,38023,30197
32766,38047,30198
32744,38031,30215
32780,38051,30225
32812,38055,30214
32824,38047,30199
32824,38017,30197
32828,38067,30200
32812,38047,30193
32812,38063,30188
32812,38051,30188
32829,38047,30175
32849,38039,30193
32840,38039,30191
32804,38052,30204
32792,38049,30178
32817,38051,30150
32836,38068,30161
32804,38022,30148
32824,38044,30143
32761,38047,30135
32740,38033,30125
32744,38015,30129
32793,38039,30113
32800,38055,30116
32796,38052,30108
32768,38051,30103
32772,38045,30096
32760,38063,30082
32758,38011,30082
32761,38049,30084
32782,38033,30081
32808,38045,30071
32794,38037,30084
32788,38047,30073
32764,38031,30047
32740,38048,30035
32729,38054,30035
32716,38023,30013
32672,38052,29993
32692,38031,29995
32745,38030,30020
32704,38035,29969
32676,38037,29969
32728,38052,29974
32696,38039,29959
32701,38052,29951
32664,38039,29941
32669,38057,29933
32692,38023,29925
32652,38048,29913
32600,38037,29913
32641,38023,29896
32657,38011,29894
32712,38053,29892
32808,38023,29880
32854,38036,29875
32856,38061,29899
32896,38021,29907
32961,38033,29879
33028,38045,29886
33060,38055,29886
33061,38009,29877
33096,38031,29863
33124,38041,29853
33128,38055,29854
33168,38020,29843
33168,38043,29793
33172,38057,29788
33120,38009,29785
33098,38037,29805
33116,38012,29790
33090,38036,29788
33097,38033,29783
33182,38023,29776
33164,38043,29767
33136,38044,29759
33148,38036,29756
33137,38036,29751
33028,38051,29752
32980,38037,29744
32948,38021,29740
32880,38032,29729
32844,38010,29737
32877,38023,29735
32904,38044,29731
32937,38015,29748
32912,38037,29727
32886,38053,29724
32864,38023,29717
32860,38037,29732
32866,38031,29733
32888,38047,29727
32840,38007,29728
32862,38040,29733
32872,38036,29725
32904,38069,29719
32940,38049,29727
32945,38055,29724
32901,38036,29725
32816,38060,29724
32756,38063,29695
32772,38009,29688
32816,38033,29653
32824,38055,29687
32856,38055,29711
32856,38023,29719
32868,38045,29720
32888,38061,29682
32902,38012,29697
32798,38041,29701
32685,38023,29700
32474,38047,29708
32200,38020,29690
31936,38036,29710
31698,38039,29695
31616,38047,29703
31748,38039,29703
31980,38055,29697
32280,38063,29693
32748,38053,29687
33280,38047,29696
33934,38036,29729
35044,38015,29751
36680,38017,29746
38568,38023,29736
40640,38036,29740
42644,38037,29725
44624,38023,29718
46436,38015,29729
47684,38015,29690
48436,38006,29714
48508,38007,29710
47296,38006,29703
45440,38022,29694
43520,38033,29751
41372,38032,29713
38830,38052,29692
36521,38052,29703
35028,38060,29703
34040,38052,29711
33308,38018,29722
32678,38055,29714
32192,38069,29709
31760,38063,29713
31492,38056,29716
31310,38057,29731
31200,38055,29767
31184,38052,29733
31056,38072,29743
31012,38045,29749
30952,38061,29748
30900,38045,29756
30816,38067,29751
30788,38071,29762
30764,38023,29749
30772,38023,29742
30764,38069,29748
30720,38057,29741
30742,38062,29734
30760,38047,29716
30812,38055,29719
30784,38033,29693
30780,38055,29685
30756,38061,29710
30860,38031,29687
30920,38023,29686
30964,38057,29665
30968,38023,29676
31005,38065,29682
31012,38069,29677
31020,38039,29667
31028,38029,29653
31060,38053,29652
31148,38013,29640
31168,38055,29624
31192,38045,29612
31248,38060,29606
31288,38039,29564
31328,38017,29620
31413,38040,29605
31416,38039,29590
31392,38057,29551
31360,38049,29571
31388,38055,29591
31412,38023,29580
31456,38047,29578
31472,38054,29575
31492,38068,29594
31500,38013,29604
31512,38039,29647
31596,38054,29663
31617,38015,29653
31573,38044,29671
31646,38051,29674
31608,38071,29629
31685,38075,29631
31716,38071,29617
31712,38061,29678
31748,38068,29703
31796,38045,29717
31812,38063,29695
31820,38048,29715
31836,38064,29738
31892,38081,29738
31925,38079,29751
31941,38068,29719
31972,38065,29716
32020,38087,29722
32032,38055,29733
32068,38078,29742
32128,38063,29733
32137,38087,29748
32132,38079,29757
32176,38073,29757
32228,38065,29769
32285,38101,29772
32340,38057,29774
32365,38075,29785
32376,38069,29776
32416,38048,29764
32440,38091,29789
32496,38087,29813
32514,38044,29799
32572,38044,29765
32616,38087,29769
32648,38096,29764
32688,38060,29761
32742,38084,29741
32800,38079,29740
32808,38087,29727
32872,38079,29716
32892,38063,29703
32932,38085,29692
33004,38092,29671
33024,38095,29636
33036,38055,29673
33116,38093,29679
33150,38093,29641
33180,38087,29617
33212,38105,29580
33220,38053,29572
33225,38095,29577
33268,38097,29533
33320,38087,29564
33344,38089,29575
33340,38081,29557
33344,38109,29552
33356,38107,29539
33364,38079,29517
33352,38063,29509
33325,38087,29485
33284,38086,29456
33256,38088,29477
33248,38079,29470
33220,38076,29452
33156,38101,29447
33128,38100,29396
33068,38101,29360
32996,38080,29357
32948,38060,29353
32840,38103,29334
32736,38081,29313
32629,38081,29355
32592,38093,29349
32576,38094,29341
32504,38095,29329
32393,38079,29300
32352,38114,29278
32277,38093,29292
32160,38080,29260
32148,38076,29247
32100,38037,29263
32068,38061,29228
32048,38089,29197
32046,38041,29137
32016,38068,29145
31952,38085,29118
31956,38047,29121
31940,38065,29111
31936,38077,29101
31918,38066,29072
31892,38053,29061
31852,38055,29038
31888,38023,29093
31912,38053,29041
31944,38085,29008
31984,38068,29011
31985,38047,28994
31976,38023,29035
31994,38045,28892
32032,38053,28927
32012,38053,28927
32044,38045,28932
32072,38036,28913
32116,38063,28879
32125,38055,28869
32106,38039,28902
32144,38067,28916
32156,38055,28895
32160,38039,28836
32128,38053,28828
32124,38041,28837
32164,38023,28860
32210,38045,28841
32281,38052,28871
32336,38047,28868
32300,38023,28854
32292,38059,28851
32348,38019,28848
32312,38023,28863
32300,38031,28893
32325,38023,28845
32356,38023,28783
32364,38022,28791
32408,38054,28799
32405,38023,28796
32432,38017,28771
32408,38004,28760
32412,38037,28745
32400,38023,28777
32392,38031,28736
32440,38037,28766
32488,38045,28817
32508,38007,28766
32501,38035,28772
32537,38023,28796
32526,38047,28799
32530,38001,28788
32538,38037,28728
32548,38022,28709
32549,38013,28724
32552,38011,28725
32572,37997,28698
32608,38032,28695
32604,38020,28771
32636,38031,28748
32637,38018,28761
32625,38012,28781
32676,38023,28759
32636,38020,28760
32600,38015,28796
32608,38005,28791
32600,38016,28775
32640,38023,28746
32660,37977,28735
32671,38023,28719
32676,38013,28721
32696,38031,28742
32700,37987,28737
32704,37999,28757
32692,38019,28804
32696,37999,28801
32697,37996,28809
32704,37991,28831
32696,37975,28796
32744,37999,28756
32728,37989,28767
32708,37991,28800
32724,38007,28780
32698,37995,28783
32676,38015,28844
32668,37997,28839
32664,37981,28796
32680,37999,28807
32681,37983,28839
32716,37986,28836
32726,38015,28879
32768,37959,28908
32772,37983,28875
32740,37983,28855
32720,37996,28874
32692,37983,28837
32680,37957,28872
32712,37981,28873
32720,37981,28931
32732,37980,28975
32740,37986,28944
32733,37985,28975
32744,37999,28989
32768,37981,28958
32740,37949,28977
32764,37956,29020
32757,37957,29012
32770,37978,29028
32765,37988,29022
32764,37991,28999
32800,37978,29031
32816,37967,29041
32824,37964,29039
32782,37970,28991
32796,37951,29012
32812,37981,29028
32769,37981,29028
32772,37980,29002
32744,37952,29023
32748,37936,29025
32752,37967,29030
32756,37967,29030
32762,37989,29038
32752,37972,29055
32740,37959,29030
32744,37951,29029
32752,37929,29021
32736,37975,29050
32729,37980,29082
32709,37947,29111
32708,37959,29091
32704,37963,29060
32700,37951,29050
32694,37978,29036
32681,37925,29044
32678,37951,29058
32670,37948,29027
32660,37949,29031
32669,37981,29025
32644,37959,29029
32632,37947,29036
32648,37959,29024
32661,37959,29036
32648,37969,29027
32636,37932,29017
32637,37927,29007
32665,37962,28997
32688,37959,28988
32764,37959,28976
32797,37974,28980
32828,37949,28975
32868,37963,28967
32933,37948,28964
33004,37943,29055
33037,37941,29016
33052,37934,28970
33044,37943,28997
33088,37950,28961
33133,37949,29009
33176,37943,29044
33192,37977,29002
33152,37964,28971
33096,37921,28980
33108,37951,28999
33120,37955,28985
33150,37942,28991
33144,37951,28989
33168,37941,28984
33161,37967,28990
33188,37953,28993
33176,37965,28993
33140,37955,28989
33064,37964,28993
32992,37951,28998
32940,37951,28982
32912,37951,28998
32894,37935,28996
32868,37959,28986
32908,37925,28999
32929,37959,28998
32917,37959,28984
32924,37949,28977
32920,37942,29039
32908,37936,29060
32904,37951,29052
32892,37963,29034
32920,37931,29033
32876,37957,28991
32872,37943,28993
32905,37945,29002
32908,37966,29001
32932,37973,29013
32927,37928,29021
32886,37958,29005
32856,37935,29012
32857,37957,29020
32840,37954,29020
32890,37934,29027
32904,37949,29023
32904,37949,29022
32888,37950,29025
32900,37959,29009
32916,37967,29018
32876,37959,29028
32793,37949,29021
32588,37938,29016
32352,37971,29009
32062,37962,29013
31824,37961,29038
31724,37983,29045
31768,37941,29081
31913,37974,29084
32193,37961,29068
32656,37951,29039
33101,37967,29036
33628,37980,29072
34557,37947,29071
35974,37964,29039
37808,37967,29066
39880,37961,29078
41884,37970,29028
43876,37958,29017
45788,37952,29031
47172,37955,29025
48076,37948,29015
48384,37954,29004
47592,37959,29008
45872,37975,29007
44000,37991,29007
41992,37997,29020
39576,38013,29028
37124,38020,29025
35448,38017,29050
34324,38030,29021
33508,38023,29045
32912,37999,29073
32388,37999,29012
31992,38031,29031
31702,38061,29058
31516,38047,29048
31342,38044,29053
31262,38061,29052
31188,38016,29073
31108,38043,29111
31064,38052,29148
31044,38060,29150
30952,38048,29153
30936,38069,29159
30890,38059,29084
30847,38065,29096
30829,38055,29100
30820,38085,29092
30796,38076,29087
30825,38020,29084
30828,38067,29063
30828,38018,29063
30854,38020,29103
30892,38012,29063
30912,38023,29031
30913,38063,29030
30937,38079,29047
30944,38043,29080
30940,38029,29020
30942,38020,29019
30978,38069,29007
30996,38055,28993
31036,38061,28980
31108,38070,29038
31160,38081,29057
31201,38047,29021
31228,38023,28980
31286,38071,28999
31340,38047,29013
31386,38047,29022
31396,38063,29028
31320,38023,29021
31232,38036,29021
31264,38023,29078
31310,38045,29097
31312,38036,29064
31348,38030,29112
31352,38020,29097
31400,38023,29199
31404,38023,29144
31412,38039,29189
31408,38020,29181
31465,38045,29280
31480,38045,29266
31511,38054,29265
31554,38055,29295
31572,38020,29341
31592,38057,29404
31612,38055,29359
31609,38053,29406
31661,38014,29399
31712,37997,29471
31780,38020,29478
31816,37997,29493
31832,38012,29532
31829,38037,29588
31913,38023,29621
31981,38045,29632
32052,38047,29637
32096,38051,29668
32148,38019,29700
32128,38020,29766
32092,38045,29754
31996,38056,29789
32022,38057,29821
32060,38023,29844
32100,38053,29900
32180,38047,29956
32217,38036,29964
32280,38039,29981
32332,38047,30012
32412,38047,30039
32480,38049,30058
32516,38041,30085
32544,38061,30105
32578,38053,30152
32564,38049,30204
32596,38049,30199
32640,38052,30231
32686,38047,30260
32769,38033,30279
32820,37998,30293
32856,38039,30321
32886,38036,30380
32887,38037,30377
32904,38052,30399
32973,38061,30423
33040,38015,30448
33086,38049,30471
33092,38031,30503
33020,38023,30519
32952,38045,30565
32973,38047,30603
33029,38055,30625
33088,38063,30653
33128,38053,30685
33149,38023,30724
33073,38028,30741
32996,38052,30784
32944,38047,30812
32924,38052,30839
32960,38041,30901
32965,38055,30953
32996,38055,30983
32972,38055,31032
32908,38052,31078
32868,38053,31108
32785,38049,31157
32650,38047,31199
32564,38045,31245
32464,38044,31292
32348,38041,31345
32292,38023,31396
32246,38030,31432
32206,38066,31487
32164,38031,31539
32101,38063,31583
32064,38039,31643
32016,38055,31695
31936,38057,31743
31872,38061,31788
31832,38055,31841
31790,38039,31879
31812,38023,31923
31816,38005,31969
31760,38049,32054
31776,38023,32116
31764,38047,32162
31752,38033,32230
31788,38029,32276
31808,38023,32321
31776,38023,32380
31772,38023,32432
31778,38017,32487
31804,38017,32541
31816,38047,32604
31832,38055,32665
31760,38005,32717
31772,37991,32744
31752,38015,32807
31768,38023,32861
31808,38015,32887
31864,38007,32943
31894,38005,33044
31941,38015,33111
31973,38001,33159
31952,38037,33223
31981,38016,33273
32000,38023,33343
32017,38021,33413
32028,38013,33405
32004,38004,33508
32028,38005,33604
32046,38023,33668
32140,38030,33726
32200,37988,33788
32272,38023,33836
32357,38015,33908
32364,38031,33976
32344,37975,34034
32308,38015,34038
32224,38004,34095
32240,37999,34159
32292,37989,34193
32293,38035,34231
32320,37997,34285
32364,38023,34349
32408,38015,34385
32425,37997,34471
32453,38023,34573
32516,38020,34663
32584,37973,34727
32594,38004,34765
32504,38023,34829
32464,38039,34880
32469,38028,34948
32540,38023,34997
32615,38006,35039
32560,38023,35105
32520,38023,35182
32504,38023,35167
32466,38023,35189
32424,37998,35252
32481,38023,35367
32586,38023,35473
32620,38023,35502
32648,38039,35558
32672,38005,35620
32652,38014,35695
32648,38037,35749
32644,37991,35793
32724,38013,35844
32772,38011,35911
32752,38031,35950
32728,38043,36019
32724,37991,36081
32688,38015,36045
32662,38023,36074
32688,38015,36112
32702,38009,36239
32775,38022,36331
32776,38023,36401
32760,38023,36408
32748,38023,36485
32764,37991,36532
32708,38030,36605
32672,38023,36543
32664,38015,36562
32692,38036,36647
32708,38023,36695
32744,38015,36703
32784,38013,36736
32858,38022,36790
32961,38037,36836
32959,37999,36911
32869,38023,36981
32768,38028,37058
32729,38021,37165
32738,38038,37152
32808,38026,37216
32857,38004,37289
32882,38023,37237
32924,38011,37241
32904,38013,37383
32880,37997,37489
32876,38031,37504
32904,38033,37532
32909,38023,37592
32893,38019,37657
32916,37999,37592
32888,38002,37607
32876,38035,37649
32908,38020,37767
32940,37991,37811
32980,38029,37875
33013,38023,37967
33036,38023,37999
32960,38009,38045
32940,38023,38068
32961,38023,38134
32892,38020,38219
32780,37999,38263
32764,38020,38172
32832,38013,38207
32848,38005,38260
32891,38004,38287
32921,38023,38388
32916,38031,38516
32872,38026,38567
32812,37989,38620
32762,38009,38661
32792,37993,38709
32800,38023,38750
32876,38012,38791
32924,38023,38840
32940,38011,38873
32972,38007,38907
33032,38031,38964
33036,38005,38993
32968,38005,38982
32972,37988,39007
33020,38018,39039
33008,38023,39092
33172,37981,39183
33221,38023,39234
33277,38013,39126
33332,38036,39311
33272,38007,39355
33184,38023,39384
33120,38003,39431
33200,38007,39303
33284,37991,39359
33288,37999,39420
33292,38023,39431
33292,38023,39466
33156,38019,39503
33144,38007,39541
33176,38037,39583
33144,37999,39625
33193,38023,39719
33228,38007,39789
33145,37993,39815
33072,37991,39866
33068,38012,39909
33044,38022,39994
32936,38001,40065
32888,37991,40111
32988,38023,40144
33076,38007,40095
33105,37999,40149
33021,37988,40188
33012,38009,40248
33057,37985,40275
33092,38007,40332
33160,38021,40223
33154,38011,40261
33096,38013,40285
33020,38007,40397
32788,38022,40485
32828,38015,40553
32928,37999,40613
32902,37993,40636
32878,37991,40575
32880,38023,40604
32865,38007,40679
32905,38013,40785
32920,38005,40812
32928,37999,40743
32984,38015,40807
32996,38017,40841
32933,37977,40899
32868,37999,40892
32823,38005,40955
32885,38014,41012
32856,37983,41055
32593,38023,41084
32312,38005,41119
32097,38020,41151
31932,38023,40967
31980,37993,41025
32124,37974,41039
32514,38007,41071
33056,37993,41105
33640,38005,41182
34304,38023,41279
35020,38031,41365
35948,38018,41439
37208,38013,41476
38752,38005,41501
40508,38004,41513
42176,38004,41519
43632,37991,41457
45100,37993,41487
46180,38004,41545
46696,37999,41599
46449,38001,41621
44956,38022,41679
42732,38023,41488
40236,38030,41551
37964,38023,41575
35797,38049,41612
34086,38029,41674
32797,38053,41715
32157,38023,41895
31902,38047,41930
31792,38035,41948
31728,38052,41938
31619,38067,41888
31520,38009,41985
31532,38034,41959
31544,38045,41988
31512,38015,41991
31424,37999,42087
31444,38033,42103
31480,38030,42150
31480,38020,42180
31472,38055,42200
31292,38018,42229
31280,38023,42239
31356,38039,42196
31414,37989,42199
31396,38016,42231
31265,38005,42341
31254,38017,42370
31336,38037,42332
31469,38023,42340
31529,38047,42401
31516,38055,42429
31389,38004,42444
31268,38036,42455
31344,38037,42277
31480,38029,42256
31616,38045,42263
31706,38023,42276
31732,38055,42271
31560,38002,42265
31424,38041,42492
31392,38043,42460
31440,38041,42452
31520,38023,42503
31620,38047,42492
31844,38023,42519
32000,38033,42589
31998,38023,42660
31936,38045,42684
31909,38036,42477
31820,38057,42726
31903,38045,42719
31964,38023,42684
31862,38049,42796
31872,38032,42852
31900,38023,42808
31948,38047,42788
32017,38043,42857
32086,38038,42863
32192,38055,42746
32289,38053,42788
32328,38047,42988
32264,38044,42980
32217,38047,42974
32244,38023,43050
32282,38036,43095
32317,38045,43108
32436,38044,43128
32480,38020,43143
32489,38023,43158
32512,38049,43173
32458,38067,43159
32592,38053,43143
32344,38023,43133
32064,38052,43143
32032,38021,43151
32245,38044,43156
32438,38039,43165
32580,38065,43172
32688,38063,43248
32654,38023,43271
32532,38052,43271
32560,38035,43294
32572,38061,43103
32644,38052,43065
32828,38020,43094
32984,38023,43292
33014,38052,43295
33056,38047,43191
33104,38048,43262
33242,38055,43269
33388,38043,43036
33292,38071,43255
33086,38055,43255
33081,38041,43237
33080,38036,43223
33092,38055,42991
33226,38067,42983
33292,38055,42999
33480,38031,43190
33484,38068,43191
33380,38063,43191
33365,38041,43173
33460,38046,42941
33400,38061,42951
33496,38045,42972
33500,38060,43039
33664,38053,43135
33668,38047,43135
33668,38081,43113
33661,38074,43008
33528,38055,42991
33412,38052,42972
33444,38069,43015
33536,38057,43045
33584,38052,43123
33700,38054,43111
33804,38055,43029
33612,38076,43093
33668,38069,42997
33552,38033,43076
33416,38071,42885
33296,38059,42863
33086,38044,42876
33056,38057,42880
33144,38068,43007
33236,38020,42948
33032,38055,42961
32860,38046,42967
32520,38054,42994
32472,38075,42919
32380,38072,42960
32221,38023,42870
32257,38047,42847
32064,38076,43084
31946,38012,43077
31776,38055,43061
31652,38051,43076
31680,38039,43080
31624,38073,43084
31632,38055,43093
31656,38012,42855
31704,38052,42861
31662,38053,43066
31720,38045,43012
31676,38041,43015
31682,38023,43072
31717,38061,43047
31688,38059,43075
31836,38047,43087
31856,38054,43078
31756,38041,42884
31720,38028,43092
31593,38023,43063
31464,38041,43104
31504,38047,43007
31648,38013,43080
31884,37997,42850
32004,38055,42996
32129,38055,43085
31876,38005,43087
31624,38005,42972
31666,38007,43071
31680,38037,43066
31624,38023,42831
31733,38018,42857
31836,38043,42886
31996,38045,42901
32146,38037,43015
32148,38031,43116
31992,38031,43111
31904,38052,43045
31944,38045,43079
31892,37991,43111
31856,38023,43143
31968,38015,43143
32076,38045,42936
32260,38052,42983
32492,38049,43200
32468,38022,43143
32328,38055,43211
32012,38041,43010
31932,38012,42996
32096,38045,43076
32280,38035,43249
32276,37997,43280
32096,38045,43236
32244,38031,43271
32348,38049,43304
32304,38055,43373
32186,38044,43396
32164,38023,43421
32247,38047,43238
32384,38017,43239
32536,38023,43270
32564,38015,43361
32496,38047,43509
32448,38023,43565
32396,38045,43607
32421,38031,43581
32464,38055,43572
32569,38028,43631
32580,38041,43695
32692,38023,43556
32685,38036,43747
32609,38033,43717
32300,38023,43783
32288,38023,43631
32421,38023,43685
32552,38055,43733
32542,38050,43879
32372,38019,43927
32376,38023,43887
32452,38037,43963
32436,38017,44023
32428,38014,44039
32456,38031,43845
32608,38049,43887
32576,38036,44035
32600,38007,44167
32737,38039,44207
32736,38023,44188
32660,37999,44181
32516,38037,44228
32325,38033,44315
32388,38015,44145
32564,38031,44167
32668,38023,44188
32692,38023,44261
32756,38045,44325
32796,38047,44468
32728,37999,44484
32520,38035,44524
32180,38015,44565
32140,37999,44600
32264,38039,44645
32332,38015,44696
32454,38039,44735
32556,38031,44729
32510,38011,44755
32509,38020,44804
32392,38039,44829
32224,38020,44841
32164,38039,44862
32268,38041,44910
32412,37988,44999
32536,38035,44826
32558,38023,44887
32612,38023,45093
32652,38023,45063
32468,38063,45087
32521,38052,45159
32712,38037,45216
32832,38047,45253
32960,38055,45282
32877,38004,45121
32917,38039,45132
32825,38022,45181
32756,38064,45165
32828,38036,45191
32973,38055,45252
33084,38039,45365
33156,38029,45492
33045,38047,45525
33076,38047,45543
33044,38007,45495
33132,38047,45559
33161,38047,45615
33132,38043,45410
33169,38036,45542
33124,38039,45663
33012,38030,45687
32873,38052,45645
32740,38045,45676
32792,38012,45749
32896,38005,45547
33048,38043,45607
33140,38023,45575
33112,38047,45684
33124,38057,45830
33037,38062,45764
32972,38011,45805
32928,38047,45853
32876,38039,45737
32916,38000,45887
32904,38039,45827
32897,38039,45897
32920,38038,45703
33004,38037,45770
33112,38031,45916
33036,38031,45895
32816,38020,45908
32856,38045,45936
32904,38049,45791
32977,38033,45957
33028,38044,45869
33040,38034,45916
33024,38020,45943
32992,38017,45807
32900,38052,45924
32964,38052,45911
33028,38036,45925
33080,38044,45725
33012,38049,45775
32856,38018,45927
32673,38041,45831
32316,38044,45908
32008,38052,45779
31852,38043,45901
31892,38044,45827
32108,38055,45873
32480,38060,45831
32966,38013,45671
33600,38041,45733
34284,38023,45823
35040,38052,45765
36080,38047,45735
37420,38023,45772
39220,38053,45597
41304,38039,45743
43120,38031,45724
44708,38032,45672
46244,38023,45657
47400,38023,45596
48016,38012,45631
47708,38018,45624
46088,38033,45417
43477,38036,45559
40696,38045,45550
38096,38079,45531
35625,38081,45301
33908,38085,45273
32924,38067,45262
32380,38023,45353
32176,38065,45255
32095,38063,45356
32020,38033,45343
31876,38035,45294
31589,38063,45104
31408,38052,45063
31344,38023,45085
31328,38066,45140
31376,38037,45175
31404,38047,45127
31392,38039,45063
31277,38037,45063
31192,38028,44805
31164,38033,44847
31184,38037,44935
31181,38039,44831
31196,38063,44769
31253,38055,44793
31272,38063,44732
31228,38004,44679
31188,38045,44437
31128,38035,44379
31040,38038,44494
31048,38039,44420
31188,38039,44383
31268,38036,44127
31349,38037,44135
31396,38029,44199
31368,38039,44153
31316,38045,44039
31284,38041,44039
31292,38024,43813
31304,37999,43894
31360,38047,43922
31492,38047,43796
31616,38045,43847
31636,38037,43588
31630,38052,43561
31589,38060,43636
31552,38047,43694
31544,38045,43669
31564,38023,43588
31533,38044,43628
31584,38053,43367
31692,38049,43439
31776,38013,43413
31709,38057,43508
31704,38047,43507
31728,38039,43423
31766,38015,43485
31741,38063,43325
31772,38047,43271
31776,38060,43348
31812,38055,43412
31836,38065,43244
31877,38063,43335
31928,38068,43295
31984,38049,43333
31928,38020,43053
31946,38041,43143
31976,38047,43252
31996,38039,43186
32036,38041,43174
32104,38035,43164
32145,38071,43125
32168,38055,42877
32132,38050,42887
32088,38052,43015
32125,38057,42957
32220,38044,42904
32304,38063,42940
32464,38069,42909
32536,38070,42663
32540,38023,42804
32424,38068,42799
32277,38063,42682
32332,38068,42717
32460,38063,42460
32544,38077,42405
32616,38029,42375
32680,38023,42453
32680,38063,42503
32589,38049,42436
32564,38063,42365
32664,38084,42356
32728,38071,42311
32768,38083,42041
32776,38071,41985
32777,38055,41965
32776,38069,42086
32767,38074,42084
32876,38076,41981
32944,38078,41951
32956,38045,41692
33005,38077,41676
33009,38063,41731
33004,38074,41764
33064,38074,41735
33082,38059,41555
33086,38084,41577
33064,38087,41347
33040,38081,41326
33068,38086,41397
33124,38047,41401
33129,38085,41308
33173,38079,41308
33121,38081,41210
33096,38092,40996
33066,38084,41111
33072,38068,41109
33064,38069,40999
32940,38057,40988
32860,38089,40753
32872,38085,40711
32816,38099,40674
32624,38087,40720
32496,38078,40769
32392,38082,40663
32306,38067,40649
32233,38087,40422
32175,38095,40471
32125,38033,40537
31981,38078,40391
31840,38081,40381
31728,38075,40348
31641,38103,40314
31639,38069,40091
31584,38057,40095
31537,38070,40124
31488,38087,40131
31445,38085,40103
31410,38080,40002
31424,38061,39997
31420,38047,39853
31404,38069,39881
31304,38044,39855
31356,38060,39756
31344,38039,39693
31321,38039,39718
31329,38079,39539
31304,38057,39495
31324,38043,39577
31389,38087,39583
31424,38082,39519
31436,38069,39401
31392,38077,39415
31316,38065,39230
31298,38079,39212
31300,38093,39319
31328,38084,39193
31413,38033,39215
31464,38071,39191
31532,38062,39004
31544,38078,39108
31516,38071,39006
31552,38092,38958
31532,38068,38965
31556,38080,38959
31598,38079,38783
31589,38064,38749
31612,38053,38810
31628,38083,38783
31652,38091,38767
31668,38039,38781
31728,38093,38609
31685,38087,38679
31684,38083,38678
31780,38094,38595
31784,38099,38611
31716,38087,38447
31733,38041,38429
31794,38080,38535
31844,38077,38500
31924,38103,38428
31976,38064,38381
31944,38101,38396
31945,38085,38388
31929,38069,38221
31968,38093,38202
31992,38091,38312
32024,38086,38203
32068,38095,38244
32144,38089,38095
32208,38055,38143
32230,38087,38138
32268,38068,38132
32245,38093,38133
32280,38087,38107
32252,38077,38078
32296,38055,38013
32260,38077,37962
32188,38063,37964
32164,38074,37961
32213,38071,37959
32188,38064,37819
32208,38086,37784
32233,38087,37816
32209,38053,37884
32276,38073,37799
32318,38059,37805
32292,38045,37825
32268,38068,37663
32304,38075,37692
32317,38036,37686
32306,38071,37759
32340,38057,37716
32360,38079,37645
32404,38075,37652
32453,38055,37651
32369,38045,37652
32408,38063,37511
32480,38023,37493
32480,38047,37529
32500,38038,37571
32416,38081,37569
32292,38070,37493
32388,38045,37478
32456,38070,37487
32420,38068,37491
32432,38047,37484
32444,38071,37458
32416,38015,37316
32408,38060,37306
32420,38045,37332
32466,38079,37375
32448,38079,37362
32392,38069,37341
32396,38051,37356
32437,38068,37231
32448,38053,37233
32480,38055,37312
32488,38059,37302
32476,38063,37151
32450,38052,37236
32416,38052,37286
32388,38068,37219
32400,38079,37253
32342,38035,37123
32264,38061,37101
32204,38047,37183
32152,38033,37204
32133,38077,37149
32164,38077,37137
32188,38061,37153
32238,38061,37166
32256,38053,37023
32253,38084,37019
32273,38042,37036
32300,38070,37116
32273,38051,37094
32232,38043,37045
32284,38070,37067
32341,38079,36957
32412,38037,36941
32448,38079,37029
32476,38065,37029
32528,38087,37006
32592,38035,36992
32560,38054,36983
32528,38068,36996
32549,38055,36871
32524,38063,36993
32592,38060,36943
32712,38065,36992
32841,38076,36851
32956,38038,36895
32992,38064,36967
33004,38055,36930
32936,38055,36904
32828,38063,36920
32724,38063,36935
32680,38050,36807
32728,38039,36910
32778,38020,36882
32788,38060,36885
32814,38045,36903
32852,38047,36752
32844,38052,36863
32857,38060,36821
32828,38052,36835
32832,38005,36839
32869,38023,36743
32852,38005,36777
32840,38015,36815
32856,38055,36784
32848,38060,36815
32892,38045,36678
32857,38032,36733
32897,38015,36775
32956,38044,36737
32980,38052,36761
32956,38035,36767
32888,38039,36756
32890,38036,36644
32892,38044,36599
32917,38044,36583
32980,38055,36585
32972,38051,36588
32900,38016,36556
32852,38020,36527
32780,38023,36613
32760,38047,36640
32749,38050,36615
32732,38023,36593
32784,38042,36604
32832,38031,36499
32782,38061,36463
32581,38023,36428
32289,38039,36449
31924,38025,36460
31584,38053,36518
31400,38001,36517
31420,38039,36456
31565,38033,36462
31812,38055,36471
32260,38056,36368
32784,38060,36329
33344,38044,36317
34220,38069,36366
35732,38044,36405
37708,38036,36372
40060,38023,36375
42604,38012,36359
45028,38018,36226
47452,38010,36334
49472,38000,36294
50820,38001,36309
51300,37996,36170
50576,38005,36296
48504,38009,36253
45928,38005,36244
43300,38022,36173
40604,38036,36135
37732,38067,36127
35542,38024,36165
34268,38071,36216
33428,38055,36167
32928,38055,36197
32488,38039,36076
32072,38061,36057
31720,38054,36116
31409,38023,36165
31236,38043,36114
31124,38061,36063
30932,38057,36026
30752,38061,36103
30708,38053,36089
30664,38031,35972
30620,38068,36015
30584,38037,36020
30541,38055,36052
30448,38031,35986
30444,38055,35997
30428,38077,35863
30440,38034,35853
30460,38071,35924
30522,38055,35860
30540,38055,35835
30488,38071,35839
30504,38060,35730
30528,38053,35653
30528,38039,35709
30588,38021,35716
30633,38079,35654
30648,38079,35671
30697,38052,35573
30764,38062,35503
30764,38061,35504
30756,38055,35588
30740,38045,35532
30764,38039,35553
30808,38035,35455
30844,38039,35485
30920,38063,35524
31002,38069,35494
31034,38053,35506
31060,38039,35527
31101,38058,35535
31084,38039,35541
31057,38068,35463
31096,38058,35423
31156,38055,35471
31213,38041,35527
31172,38039,35559
31200,38061,35551
31244,38065,35564
31269,38047,35578
31246,38020,35520
31356,38012,35493
31436,38020,35612
31463,38036,35583
31480,38031,35599
31472,38043,35508
31440,38042,35516
31452,38037,35621
31484,38041,35580
31564,38063,35609
31660,38069,35540
31684,38054,35508
31694,38037,35552
31694,38057,35600
31680,38052,35581
31704,38060,35600
31748,38076,35484
31728,38071,35557
31732,38071,35576
31748,38055,35534
31736,38055,35559
31749,38047,35441
31792,38042,35493
31808,38039,35492
31828,38045,35478
31833,38069,35493
31861,38071,35372
31916,38085,35365
31969,38071,35447
32006,38073,35426
32066,38064,35367
32132,38055,35357
32172,38079,35333
32220,38073,35335
32244,38068,35314
32206,38049,35228
32220,38055,35183
32308,38087,35125
32321,38049,35100
32264,38071,35170
32244,38063,35146
32268,38071,35145
32340,38071,35121
32385,38075,35077
32481,38041,35047
32472,38067,35041
32508,38051,35033
32532,38080,34948
32548,38095,34875
32480,38092,34932
32484,38047,34928
32544,38063,34908
32592,38079,34890
32621,38065,34861
32653,38071,34812
32632,38064,34798
32652,38060,34791
32724,38083,34775
32772,38055,34676
32824,38047,34610
32736,38062,34596
32676,38044,34628
32581,38066,34629
32600,38068,34589
32612,38071,34572
32644,38023,34556
32629,38069,34543
32588,38065,34533
32532,38057,34407
32428,38079,34397
32312,38079,34431
32237,38029,34436
32152,38055,34406
32080,38041,34359
32056,38055,34335
32060,38031,34311
32072,38015,34285
32012,38061,34264
31980,38047,34258
31997,38047,34246
31973,38060,34214
31932,38052,34191
31948,38031,34176
31872,38055,34088
31832,38053,34041
31766,38047,34025
31752,38038,33992
31736,38063,33980
31740,38019,33957
31772,38049,33953
31824,38005,33918
31838,38045,33910
31870,38037,33903
31900,38019,33940
31900,38029,33935
31944,38038,33917
32000,37991,33878
32034,38034,33856
32061,38023,33834
32028,38015,33816
32008,38045,33799
31957,38021,33791
31976,38004,33765
31946,38023,33763
31973,38012,33725
32052,38023,33661
32072,38023,33724
32100,38041,33693
32108,38023,33681
32121,38012,33671
32136,38035,33662
32136,38012,33671
32161,37990,33677
32236,38023,33671
32309,38007,33661
32312,37996,33660
32252,37999,33636
32160,38018,33612
32152,38013,33593
32164,38021,33629
32124,38031,33612
32117,38023,33605
32165,38023,33598
32210,38011,33593
32229,37996,33594
32272,38020,33588
32300,37997,33573
32340,38019,33567
32332,38006,33578
32356,38005,33585
32405,38023,33532
32425,37968,33521
32412,38004,33517
32368,37999,33470
32320,38015,33472
32372,38023,33469
32404,37993,33474
32456,38023,33476
32484,38013,33502
32508,38015,33511
32484,38023,33511
32432,37999,33520
32440,38004,33510
32535,38004,33495
32596,37993,33500
32645,38009,33503
32580,38017,33505
32504,37987,33506
32460,38012,33451
32444,38005,33431
32452,38015,33449
32465,37991,33488
32484,37996,33487
32512,37987,33484
32573,37999,33484
32608,37965,33471
32628,37997,33468
32574,37975,33455
32556,37979,33469
32560,37991,33475
32534,38014,33466
32520,37999,33461
32532,37998,33467
32548,37991,33441
32580,37977,33447
32604,38001,33453
32580,37965,33463
32588,37988,33455
32661,37975,33456
32676,38004,33457
32686,37999,33471
32672,37951,33393
32604,37959,33444
32580,37959,33459
32528,37956,33411
32497,37999,33425
32452,37980,33456
32448,37980,33484
32472,37979,33465
32490,37997,33440
32476,38001,33415
32396,37973,33415
32335,37985,33416
32308,37956,33439
32272,37996,33463
32208,37991,33444
32184,37980,33492
32240,38001,33497
32340,38005,33484
32361,37959,33487
32341,37988,33500
32353,37991,33493
32420,37985,33500
32488,37961,33503
32516,37989,33468
32589,37993,33453
32640,38011,33495
32680,37959,33507
32732,37997,33498
32748,37989,33492
32728,37989,33511
32704,37975,33444
32734,37991,33437
32816,37991,33509
32904,37976,33501
32953,37983,33505
32996,37982,33495
33064,37999,33500
33093,37973,33501
33032,37991,33513
32984,37980,33504
33013,37981,33511
33024,37975,33526
32989,37983,33492
32968,37941,33462
32952,37965,33448
33024,37973,33492
33052,37948,33517
33045,37981,33524
33013,37988,33517
32977,37956,33519
32943,37973,33531
32952,37955,33536
32980,37966,33490
33000,37933,33460
33016,37959,33463
33040,37983,33476
33088,37943,33501
33096,37983,33519
33096,37973,33500
33070,37961,33519
33060,37983,33479
33049,37932,33452
33056,37957,33453
33080,37969,33485
33093,37970,33519
33076,37970,33516
33028,37959,33501
33032,37981,33486
33028,37980,33479
33032,37951,33477
33076,37977,33474
33100,37926,33460
33096,37955,33469
33064,37964,33465
32980,37927,33457
32920,37959,33439
32892,37951,33449
32828,37973,33443
32704,37983,33397
32448,37972,33380
32116,37969,33404
31770,37915,33422
31500,37923,33392
31416,37948,33373
31560,37959,33375
31781,37951,33377
32148,37961,33361
32724,37949,33360
33268,37979,33343
34084,37980,33356
35480,37964,33279
37448,37948,33306
39828,37934,33340
42412,37924,33317
44952,37925,33308
47496,37916,33314
49680,37916,33264
51208,37911,33245
51908,37900,33233
51452,37917,33213
49560,37919,33230
47196,37915,33228
44672,37924,33255
41916,37932,33241
38830,37940,33270
36300,37955,33268
34736,37969,33261
33677,37963,33250
32977,37959,33255
32396,37973,33255
31896,37953,33263
31478,37943,33255
31185,37973,33241
31001,37953,33223
30860,37954,33225
30760,37947,33225
30684,37959,33185
30613,37967,33191
30541,37957,33205
30500,37949,33218
30444,37962,33216
30385,37951,33206
30332,37948,33192
30308,37937,33172
30296,37922,33157
30252,37911,33149
30269,37940,33142
30208,37975,33101
30177,37917,33074
30193,37947,33077
30268,37927,33076
30312,37917,33060
30324,37949,33044
30324,37948,33019
30376,37927,33004
30461,37949,32985
30480,37959,32962
30488,37923,32944
30532,37940,32935
30554,37927,32911
30556,37957,32910
30596,37935,32899
30636,37925,32893
30684,37945,32889
30743,37946,32895
30756,37943,32900
30812,37943,32895
30840,37910,32876
30864,37941,32859
30902,37953,32850
30928,37916,32901
30910,37924,32921
30928,37947,32929
30960,37895,32926
30993,37924,32940
31049,37957,32951
31116,37946,32972
31136,37939,32977
31159,37932,32997
31208,37943,33004
31188,37929,33026
31200,37951,32999
31189,37913,33051
31205,37927,33053
31260,37945,33071
31264,37895,33068
31292,37940,33076
31393,37925,33095
31452,37959,33089
31468,37895,33095
31510,37927,33103
31520,37945,33106
31524,37895,33098
31528,37942,33111
31552,37922,33123
31590,37951,33116
31572,37951,33123
31612,37949,33134
31685,37951,33100
31660,37924,33093
31612,37949,33089
31610,37942,33078
31637,37893,33049
31709,37929,33052
31796,37925,33052
31818,37957,33043
31876,37955,33051
31908,37942,33031
31993,37959,33028
32057,37950,32998
32105,37933,32993
32109,37951,32976
32078,37911,32982
32100,37940,32961
32124,37925,32949
32176,37943,32964
32212,37956,32936
32252,37951,32903
32268,37961,32876
32308,37959,32890
32352,37935,32890
32428,37927,32883
32472,37943,32862
32496,37927,32859
32492,37949,32836
32484,37942,32812
32504,37935,32804
32524,37959,32792
32540,37957,32736
32516,37940,32721
32560,37932,32709
32572,37942,32727
32628,37927,32724
32624,37939,32698
32620,37927,32671
32645,37955,32660
32708,37919,32655
32748,37948,32581
32692,37945,32595
32684,37957,32565
32661,37911,32573
32612,37929,32577
32564,37913,32562
32512,37941,32538
32492,37900,32529
32372,37951,32484
32292,37932,32461
32230,37914,32469
32168,37951,32461
32084,37943,32452
32004,37914,32431
31962,37919,32415
31932,37924,32398
31881,37907,32390
31844,37935,32358
31832,37894,32348
31744,37927,32335
31692,37916,32321
31694,37939,32287
31692,37935,32256
31688,37919,32271
31689,37923,32263
31665,37915,32245
31664,37909,32230
31668,37895,32212
31684,37933,32174
31740,37895,32141
31764,37920,32152
31785,37895,32161
31752,37921,32143
31701,37890,32132
31696,37895,32108
31712,37895,32097
31741,37885,32087
31752,37911,32077
31791,37895,32062
31804,37887,32052
31812,37914,32044
31808,37895,32029
31828,37873,32015
31816,37895,31996
31836,37884,31999
31892,37885,31983
31940,37861,31981
31952,37877,31959
31989,37895,31943
31985,37895,31919
31992,37895,31925
31996,37895,31939
32000,37881,31940
31972,37895,31948
31992,37895,31896
31980,37879,31935
32004,37869,31933
32048,37879,31935
32096,37868,31936
32121,37895,31929
32164,37892,31935
32177,37911,31937
32196,37853,31921
32172,37876,31926
32184,37887,31931
32180,37870,31925
32220,37885,31925
32232,37852,31917
32248,37871,31924
32276,37895,31922
32332,37876,31919
32325,37879,31918
32316,37858,31911
32292,37884,31914
32288,37876,31915
32284,37861,31916
32284,37884,31917
32308,37851,31913
32308,37887,31917
32340,37870,31918
32389,37871,31891
32369,37891,31884
32365,37877,31902
32368,37882,31917
32404,37863,31924
32428,37871,31927
32448,37879,31931
32487,37839,31935
32524,37857,31935
32557,37884,31932
32557,37879,31944
32568,37860,31948
32600,37873,31951
32572,37846,31956
32576,37863,31952
32548,37856,31967
32559,37863,31924
32605,37862,31966
32612,37877,31968
32654,37859,31969
32677,37860,31974
32661,37879,31975
32660,37847,31983
32720,37852,31981
32740,37843,31981
32720,37861,31995
32716,37869,31965
32688,37860,31967
32716,37855,31968
32726,37847,31966
32712,37860,31990
32708,37869,32012
32705,37863,32018
32721,37837,32016
32648,37863,32013
32664,37833,32029
32690,37849,32030
32724,37845,32036
32742,37833,32039
32732,37867,32019
32724,37831,32013
32740,37868,32029
32780,37857,32051
32796,37836,32066
32812,37853,32060
32833,37860,32069
32848,37825,32071
32840,37817,32036
32804,37846,32048
32820,37853,32054
32862,37828,32063
32872,37847,32091
32848,37861,32089
32892,37823,32103
32904,37831,32102
32960,37846,32111
32952,37855,32109
32892,37829,32096
32868,37842,32085
32809,37868,32077
32756,37861,32077
32800,37862,32100
32780,37828,32123
32716,37853,32132
32700,37842,32131
32664,37836,32135
32637,37853,32127
32637,37807,32129
32640,37845,32132
32636,37859,32140
32604,37834,32148
32564,37853,32146
32500,37863,32143
32448,37831,32143
32452,37849,32159
32464,37855,32165
32464,37831,32153
32492,37847,32162
32508,37869,32160
32550,37827,32148
32568,37861,32167
32588,37831,32173
32620,37850,32173
32645,37861,32170
32624,37840,32175
32626,37844,32165
32692,37854,32167
32788,37853,32169
32844,37831,32158
32848,37861,32161
32862,37855,32161
32856,37861,32158
32881,37853,32167
32884,37857,32167
32940,37837,32165
33020,37855,32167
33068,37844,32167
33088,37857,32142
33089,37858,32112
33090,37841,32124
33070,37863,32156
33045,37818,32157
33008,37858,32113
32984,37855,32124
32948,37823,32095
32964,37855,32116
32940,37815,32093
32964,37846,32092
32990,37855,32091
33012,37855,32092
33036,37839,32099
33104,37836,32081
33093,37852,32079
33032,37818,32087
33000,37829,32101
33017,37847,32095
32976,37836,32089
32968,37835,32084
33012,37841,32079
33022,37812,32087
33060,37837,32072
33078,37831,32053
33060,37833,32041
33088,37847,32068
33076,37843,32050
33060,37823,32052
33088,37843,32044
33084,37799,32044
33048,37835,32031
33088,37843,32033
33071,37847,32015
33080,37822,32006
33072,37828,32002
33032,37823,31990
32980,37831,31997
32973,37836,31991
32988,37819,31983
32946,37831,31977
32856,37828,31970
32704,37860,31964
32448,37806,31967
32117,37843,31957
31844,37809,31940
31622,37835,31940
31576,37839,31929
31648,37827,31924
31760,37851,31920
32149,37847,31912
32688,37829,31916
33280,37857,31908
34108,37847,31905
35428,37861,31900
37364,37856,31900
39640,37825,31887
42198,37815,31887
44765,37801,31884
47228,37799,31880
49388,37789,31872
50892,37807,31869
51628,37804,31872
51368,37798,31879
49693,37804,31869
47400,37807,31868
44876,37818,31845
42164,37823,31847
39172,37840,31841
36532,37829,31825
34944,37847,31815
33833,37837,31823
33096,37847,31815
32508,37829,31821
32004,37854,31832
31598,37865,31818
31304,37860,31823
31084,37843,31839
30996,37815,31844
30869,37837,31839
30770,37809,31817
30708,37861,31798
30644,37799,31794
30604,37845,31781
30581,37829,31777
30520,37828,31751
30416,37832,31765
30368,37820,31720
30396,37847,31701
30424,37789,31679
30428,37831,31669
30420,37833,31669
30436,37829,31655
30460,37854,31634
30496,37844,31615
30484,37831,31596
30444,37844,31584
30465,37839,31559
30472,37837,31532
30522,37828,31529
30596,37857,31516
30644,37807,31494
30706,37847,31481
30784,37836,31469
30833,37833,31485
30784,37859,31475
30744,37831,31470
30790,37837,31468
30850,37826,31461
30893,37839,31454
30928,37855,31471
30908,37819,31453
30965,37857,31449
31016,37860,31460
31052,37835,31478
31081,37857,31508
31068,37831,31504
31125,37813,31516
31194,37824,31532
31176,37855,31541
31156,37809,31544
31100,37839,31568
31168,37841,31575
31208,37845,31589
31240,37865,31589
31257,37818,31594
31297,37845,31607
31324,37831,31629
31328,37812,31623
31352,37847,31654
31388,37855,31676
31428,37862,31679
31465,37868,31677
31509,37847,31692
31516,37823,31695
31528,37851,31703
31540,37845,31705
31557,37859,31713
31620,37845,31708
31609,37839,31717
31676,37861,31719
31712,37814,31727
31724,37861,31724
31752,37847,31727
31768,37867,31735
31760,37863,31711
31810,37833,31697
31814,37853,31700
31861,37861,31717
31908,37853,31709
31936,37837,31679
32013,37863,31666
32028,37861,31656
32084,37844,31660
32060,37860,31653
32072,37855,31654
32124,37823,31638
32152,37847,31623
32198,37836,31605
32240,37823,31599
32312,37844,31577
32396,37859,31572
32476,37852,31550
32529,37845,31545
32544,37855,31533
32592,37871,31516
32644,37850,31503
32652,37842,31489
32732,37831,31495
32714,37831,31493
32668,37851,31481
32677,37863,31461
32676,37831,31453
32705,37869,31424
32729,37863,31417
32756,37861,31418
32757,37853,31401
32813,37839,31391
32864,37844,31362
32856,37835,31362
32896,37837,31372
32928,37839,31348
32888,37847,31335
32840,37861,31322
32824,37861,31300
32804,37863,31299
32752,37815,31272
32724,37840,31269
32696,37833,31273
32649,37828,31264
32576,37848,31239
32504,37863,31230
32454,37861,31193
32404,37820,31193
32368,37861,31197
32296,37849,31193
32260,37830,31175
32169,37852,31167
32072,37807,31152
32024,37836,31141
31997,37828,31117
32016,37831,31122
32016,37849,31109
32012,37860,31101
31981,37812,31093
31992,37820,31084
31912,37839,31063
31880,37831,31055
31866,37820,31055
31857,37814,31046
31900,37820,31039
31885,37831,31023
31872,37839,31015
31864,37789,30992
31868,37828,30983
31900,37805,30981
31900,37831,30982
31912,37829,30977
31916,37823,30974
31956,37831,30914
31992,37829,30968
32048,37823,30962
32016,37788,30951
32006,37821,30943
32009,37807,30933
32016,37805,30919
32008,37827,30916
32000,37822,30921
32008,37829,30910
32032,37767,30909
32073,37783,30905
32134,37826,30882
32136,37821,30895
32152,37813,30905
32164,37815,30909
32160,37807,30864
32176,37799,30911
32208,37796,30903
32208,37791,30914
32252,37815,30892
32276,37813,30917
32321,37786,30927
32300,37821,30915
32308,37811,30924
32356,37796,30908
32348,37799,30930
32332,37807,30927
32352,37813,30933
32336,37814,30927
32366,37812,30932
32431,37815,30938
32453,37815,30941
32452,37809,30935
32472,37819,30943
32484,37827,30946
32456,37767,30953
32480,37804,30953
32492,37793,30951
32460,37791,30951
32476,37781,30951
32512,37803,30970
32510,37818,30980
32544,37794,30980
32540,37814,30991
32524,37812,30983
32492,37799,30989
32526,37807,30996
32504,37807,31011
32505,37807,31023
32524,37797,31032
32548,37767,31028
32622,37773,31040
32672,37810,31042
32686,37807,31047
32709,37789,31046
32693,37822,31047
32692,37765,31058
32712,37799,31076
32730,37783,31041
32716,37807,31076
32718,37781,31107
32705,37804,31095
32776,37799,31095
32814,37799,31100
32788,37796,31116
32725,37807,31120
32700,37791,31126
32700,37804,31127
32737,37789,31142
32760,37805,31141
32806,37799,31161
32872,37803,31167
32894,37797,31177
32882,37805,31188
32836,37812,31194
32804,37799,31200
32760,37793,31213
32745,37767,31215
32716,37805,31230
32768,37755,31231
32868,37791,31239
32856,37804,31260
32886,37802,31275
32924,37797,31283
32928,37791,31271
32925,37801,31277
32953,37796,31281
32956,37775,31293
32964,37767,31295
32956,37799,31313
32974,37775,31324
32940,37792,31325
32944,37789,31335
32948,37807,31340
32925,37775,31334
32918,37765,31359
32942,37795,31366
32952,37789,31364
32916,37797,31380
32936,37755,31375
32968,37789,31367
32997,37767,31381
33028,37781,31401
33056,37807,31408
33068,37796,31414
33048,37791,31409
33014,37767,31431
32984,37791,31430
32960,37757,31439
32901,37773,31448
32924,37767,31453
32952,37799,31457
32988,37759,31445
33004,37799,31447
32998,37781,31461
32956,37795,31471
32924,37753,31471
32904,37781,31473
32944,37756,31495
32956,37789,31505
32972,37745,31519
32964,37788,31536
32972,37775,31533
32972,37767,31541
32996,37767,31549
33024,37779,31561
33013,37783,31552
33002,37735,31559
32976,37767,31570
32980,37759,31581
32976,37787,31585
32984,37782,31580
32992,37767,31577
32992,37797,31575
33028,37748,31588
33032,37778,31596
33052,37765,31596
33101,37774,31588
33096,37775,31597
33032,37764,31597
32992,37767,31637
32968,37767,31637
32904,37791,31637
32892,37747,31637
32900,37778,31644
32904,37741,31657
32932,37783,31631
32940,37767,31619
32946,37767,31629
32952,37772,31631
32964,37767,31622
32965,37783,31652
32940,37791,31660
32884,37767,31668
32825,37793,31663
32742,37788,31642
32684,37767,31644
32648,37789,31639
32597,37775,31651
32548,37767,31646
32560,37785,31661
32577,37765,31661
32628,37785,31673
32612,37775,31660
32613,37801,31668
32608,37784,31669
32596,37767,31674
32623,37785,31645
32656,37749,31641
32704,37757,31650
32756,37785,31647
32784,37767,31639
32832,37799,31631
32872,37797,31644
32900,37781,31644
32941,37767,31660
32916,37778,31652
32896,37797,31649
32884,37789,31661
32904,37775,31653
32960,37759,31623
33044,37785,31633
33116,37778,31636
33168,37805,31628
33216,37804,31630
33208,37791,31628
33192,37767,31636
33176,37778,31623
33132,37797,31623
33064,37766,31623
33054,37767,31622
33088,37767,31625
33085,37796,31623
33092,37791,31623
33060,37796,31623
33052,37767,31644
33037,37787,31640
33024,37767,31645
33018,37743,31644
33060,37777,31638
33092,37733,31647
33117,37765,31639
33164,37764,31643
33149,37783,31612
33129,37741,31623
33136,37757,31619
33176,37767,31605
33184,37775,31604
33136,37734,31606
33048,37767,31612
33058,37751,31620
33064,37781,31621
33080,37774,31620
33084,37752,31623
33088,37748,31612
33060,37783,31593
33048,37730,31573
33044,37756,31583
33020,37742,31591
33024,37757,31574
33020,37751,31585
33080,37767,31585
33104,37767,31584
33080,37765,31572
33076,37755,31572
33008,37765,31565
32826,37740,31573
32580,37775,31565
32292,37762,31562
32020,37759,31535
31812,37733,31554
31756,37751,31548
31848,37735,31557
31964,37767,31550
32300,37783,31551
32832,37775,31540
33376,37748,31553
34100,37767,31538
35296,37765,31528
37072,37759,31524
39140,37759,31514
41460,37749,31509
43868,37744,31528
46200,37741,31527
48324,37735,31525
49868,37721,31525
50717,37710,31519
50644,37727,31519
49276,37719,31524
47141,37735,31517
44828,37743,31517
42256,37745,31513
39408,37767,31493
36808,37789,31487
35136,37777,31495
33984,37781,31484
33246,37781,31512
32728,37777,31505
32238,37729,31511
31896,37751,31498
31617,37789,31522
31400,37743,31513
31220,37767,31495
31098,37796,31505
30992,37791,31481
30911,37767,31486
30812,37789,31495
30758,37732,31485
30676,37767,31466
30616,37791,31452
30573,37740,31436
30580,37781,31425
30567,37793,31406
30552,37785,31389
30568,37767,31365
30554,37796,31347
30548,37781,31324
30548,37759,31312
30564,37781,31294
30597,37748,31300
30628,37767,31295
30666,37796,31284
30668,37798,31273
30705,37767,31261
30732,37789,31251
30740,37781,31239
30756,37759,31225
30772,37793,31215
30806,37735,31213
30837,37767,31207
30860,37765,31215
30896,37777,31207
30972,37789,31199
30984,37795,31198
30990,37764,31207
31008,37780,31231
31012,37751,31236
31044,37777,31255
31040,37757,31263
31070,37741,31260
31136,37765,31284
31152,37767,31309
31180,37778,31318
31220,37767,31335
31268,37786,31341
31271,37761,31361
31276,37767,31383
31304,37767,31407
31326,37764,31413
31354,37779,31420
31376,37767,31438
31437,37735,31461
31492,37737,31469
31560,37775,31476
31596,37763,31493
31596,37789,31495
31588,37773,31504
31525,37761,31515
31517,37780,31533
31546,37751,31535
31568,37775,31543
31618,37767,31543
31664,37799,31561
31726,37789,31559
31800,37780,31572
31829,37783,31572
31856,37775,31573
31888,37769,31583
31894,37746,31575
31892,37765,31584
31924,37780,31575
31968,37773,31580
31984,37777,31566
31992,37793,31562
31997,37799,31563
32032,37747,31553
32058,37767,31543
32108,37789,31535
32128,37767,31525
32172,37767,31518
32266,37788,31511
32288,37788,31495
32328,37767,31483
32368,37797,31465
32400,37783,31448
32468,37756,31444
32496,37791,31421
32496,37767,31408
32580,37765,31404
32568,37788,31384
32640,37789,31353
32696,37781,31349
32700,37775,31340
32720,37801,31332
32790,37775,31327
32805,37791,31301
32822,37799,31285
32820,37759,31253
32848,37780,31253
32869,37775,31239
32925,37799,31233
32952,37803,31225
32966,37799,31204
32960,37791,31191
32964,37802,31174
32960,37815,31168
32960,37767,31161
32948,37788,31157
32968,37783,31143
32988,37783,31128
32989,37805,31108
32976,37801,31103
32940,37813,31084
32876,37799,31060
32804,37778,31058
32748,37807,31055
32652,37799,31042
32557,37783,31029
32487,37789,31023
32424,37799,31007
32372,37797,30989
32312,37783,30988
32288,37807,30967
32280,37759,30956
32236,37793,30947
32152,37767,30940
32077,37789,30929
32037,37785,30906
32017,37767,30902
32000,37778,30895
31988,37791,30882
32012,37747,30870
32000,37767,30855
32021,37797,30847
32012,37781,30839
31973,37778,30826
31894,37765,30807
31888,37767,30799
31904,37789,30785
31916,37735,30780
31960,37775,30767
31993,37780,30752
31993,37775,30727
31984,37783,30721
32004,37783,30715
32025,37767,30700
32044,37781,30692
32064,37739,30666
32052,37764,30657
32096,37783,30632
32132,37767,30631
32164,37774,30623
32172,37787,30614
32216,37767,30598
32206,37783,30584
32204,37764,30581
32222,37787,30573
32269,37737,30569
32276,37767,30557
32296,37767,30559
32312,37759,30546
32332,37757,30541
32360,37783,30535
32396,37783,30516
32392,37783,30513
32392,37732,30525
32367,37766,30524
32392,37765,30504
32404,37740,30513
32420,37767,30500
32440,37753,30500
32412,37767,30489
32468,37756,30493
32472,37783,30484
32448,37782,30479
32437,37759,30470
32420,37749,30461
32432,37767,30442
32468,37767,30447
32464,37748,30430
32516,37767,30436
32540,37727,30430
32568,37767,30418
32570,37756,30406
32576,37748,30396
32552,37767,30391
32528,37767,30389
32527,37759,30386
32505,37719,30383
32548,37763,30373
32586,37748,30373
32628,37780,30364
32656,37737,30351
32664,37751,30349
32645,37767,30349
32652,37761,30332
32660,37743,30341
32676,37764,30332
32660,37751,30327
32688,37743,30324
32712,37765,30316
32720,37767,30309
32756,37767,30295
32760,37759,30304
32774,37767,30308
32802,37735,30314
32808,37727,30293
32802,37747,30276
32808,37739,30279
32824,37759,30277
32796,37764,30264
32788,37756,30271
32812,37758,30285
32816,37751,30277
32832,37759,30260
32864,37763,30253
32850,37729,30244
32916,37751,30245
32928,37735,30263
32920,37747,30254
32936,37717,30260
32920,37750,30255
32941,37728,30260
32933,37728,30254
32940,37744,30249
32896,37727,30255
32920,37745,30244
32886,37694,30229
32872,37733,30223
32884,37718,30216
32884,37749,30228
32932,37749,30221
32948,37741,30223
32972,37746,30214
32964,37742,30215
32961,37733,30215
32964,37748,30215
32956,37735,30215
32957,37727,30215
32972,37746,30215
33044,37749,30204
33085,37735,30201
33076,37759,30215
33044,37762,30209
32992,37735,30214
32996,37713,30228
32977,37737,30225
32952,37725,30236
32964,37757,30253
32960,37717,30250
32972,37748,30245
33020,37735,30244
33034,37764,30260
33008,37765,30258
33012,37749,30261
33004,37754,30271
32997,37741,30284
32996,37730,30284
32960,37748,30300
32967,37747,30308
32982,37751,30316
32993,37740,30334
33032,37749,30335
33036,37765,30340
33024,37751,30343
33025,37757,30349
33049,37724,30357
33060,37735,30335
33020,37727,30359
32992,37735,30375
33020,37759,30373
33013,37749,30392
33032,37743,30388
33064,37734,30401
33049,37747,30400
33044,37759,30410
33008,37748,30429
33030,37727,30437
33004,37745,30437
32952,37749,30440
32972,37735,30445
33012,37759,30454
33024,37743,30445
33056,37725,30452
33052,37741,30462
33052,37751,30479
33048,37732,30476
33032,37751,30485
33048,37733,30492
33072,37740,30495
33098,37735,30492
33096,37751,30503
33108,37743,30505
33072,37767,30502
33114,37745,30526
33093,37741,30532
33044,37735,30533
33020,37759,30529
33008,37716,30540
33012,37751,30547
33040,37740,30559
33024,37759,30551
33024,37764,30557
33028,37729,30573
33020,37749,30583
33025,37751,30593
33000,37740,30588
32961,37748,30583
32977,37735,30596
33000,37734,30599
32988,37763,30602
33017,37763,30603
33010,37743,30612
33004,37749,30615
33004,37751,30616
32968,37767,30621
32961,37709,30625
32910,37748,30626
32860,37741,30612
32797,37765,30628
32752,37755,30621
32749,37755,30639
32730,37781,30648
32744,37777,30649
32760,37754,30655
32740,37759,30647
32730,37767,30652
32732,37748,30644
32738,37767,30645
32780,37747,30637
32820,37767,30660
32853,37756,30668
32900,37743,30685
32928,37781,30677
32980,37733,30679
32996,37766,30671
33036,37746,30676
33060,37719,30682
33017,37751,30677
33004,37775,30679
33020,37767,30681
33036,37757,30683
33092,37788,30686
33156,37780,30682
33248,37761,30684
33292,37780,30685
33348,37759,30688
33352,37759,30676
33364,37767,30676
33376,37749,30690
33350,37749,30678
33292,37753,30677
33232,37759,30679
33216,37775,30672
33228,37765,30670
33198,37758,30668
33212,37716,30673
33228,37733,30676
33200,37735,30674
33204,37741,30668
33253,37731,30665
33237,37759,30671
33196,37751,30672
33196,37735,30673
33200,37751,30679
33172,37708,30668
33172,37734,30679
33161,37725,30679
33172,37719,30685
33172,37743,30684
33168,37725,30681
33180,37734,30685
33164,37750,30687
33144,37740,30691
33127,37741,30680
33144,37708,30663
33159,37721,30664
33120,37735,30669
33093,37693,30653
33100,37714,30673
33152,37709,30671
33124,37731,30661
33080,37749,30660
33084,37732,30652
33106,37727,30639
33096,37708,30652
33088,37735,30657
33020,37723,30648
32932,37703,30648
32704,37730,30653
32478,37730,30645
32172,37725,30652
31885,37722,30629
31696,37755,30636
31730,37717,30636
31884,37719,30636
32100,37741,30643
32576,37698,30629
33068,37719,30632
33684,37735,30639
34652,37751,30628
36176,37721,30634
38117,37718,30645
40364,37727,30629
42748,37711,30616
45156,37700,30604
47428,37686,30621
49248,37677,30623
50468,37676,30596
50952,37671,30620
50260,37676,30621
48484,37701,30620
46316,37703,30620
43916,37714,30629
41160,37719,30624
38192,37716,30632
36072,37727,30623
34720,37731,30605
33700,37743,30607
33036,37732,30628
32436,37743,30623
31936,37719,30634
31554,37746,30633
31328,37721,30636
31132,37733,30644
31016,37735,30641
30912,37719,30638
30832,37743,30629
30721,37695,30626
30692,37724,30617
30608,37759,30605
30560,37705,30591
30536,37747,30577
30500,37717,30572
30480,37765,30553
30476,37692,30543
30464,37729,30519
30441,37737,30511
30468,37691,30490
30480,37724,30471
30528,37743,30467
30560,37703,30444
30588,37740,30397
30600,37732,30436
30596,37751,30428
30621,37707,30429
30656,37735,30401
30664,37743,30384
30688,37692,30372
30725,37714,30375
30788,37749,30373
30816,37740,30375
30817,37727,30369
30848,37751,30361
30880,37735,30375
30912,37727,30376
30948,37740,30380
30940,37698,30391
30996,37735,30421
31050,37717,30426
31036,37741,30454
31020,37738,30457
31064,37736,30475
31080,37727,30487
31032,37751,30501
31048,37711,30520
31085,37735,30524
31104,37709,30536
31140,37743,30544
31204,37685,30564
31234,37727,30583
31292,37751,30585
31310,37700,30592
31317,37735,30615
31340,37732,30638
31364,37735,30647
31400,37731,30663
31405,37716,30668
31428,37715,30673
31501,37712,30687
31528,37748,30693
31556,37700,30700
31597,37733,30710
31620,37751,30718
31632,37751,30725
31632,37734,30727
31624,37725,30748
31652,37714,30744
31692,37730,30756
31733,37741,30767
31764,37703,30757
31804,37735,30780
31870,37725,30783
31908,37724,30784
31952,37733,30780
31948,37741,30779
31996,37703,30772
32040,37720,30768
32008,37727,30762
32080,37713,30768
32136,37711,30769
32188,37748,30761
32232,37724,30748
32276,37736,30746
32312,37729,30727
32328,37716,30727
32392,37706,30712
32464,37735,30692
32460,37743,30693
32546,37697,30687
32596,37707,30677
32638,37748,30671
32680,37741,30662
32700,37735,30648
32748,37746,30639
32724,37747,30629
32736,37743,30613
32805,37751,30601
32808,37735,30583
32804,37724,30583
32832,37749,30578
32852,37758,30576
32904,37752,30575
32945,37756,30565
32942,37743,30546
32948,37749,30543
32900,37751,30531
32886,37748,30508
32893,37703,30511
32920,37748,30516
32940,37735,30501
32956,37732,30486
32932,37754,30474
32904,37757,30462
32884,37756,30460
32796,37708,30458
32669,37740,30461
32592,37743,30448
32549,37743,30430
32480,37743,30424
32417,37735,30422
32376,37727,30399
32288,37753,30396
32236,37748,30388
32148,37719,30391
32113,37743,30383
32084,37735,30373
32036,37715,30356
31964,37737,30357
31937,37684,30354
31912,37719,30343
31900,37735,30339
31876,37732,30332
31830,37716,30325
31808,37735,30321
31788,37681,30313
31736,37721,30305
31714,37703,30301
31730,37720,30290
31772,37717,30290
31800,37716,30286
31804,37696,30294
31812,37735,30286
31800,37727,30269
31768,37698,30273
31736,37709,30262
31796,37700,30261
31820,37695,30247
31790,37679,30237
31808,37701,30249
31844,37664,30247
31912,37684,30235
31928,37709,30231
31956,37703,30223
31948,37685,30215
31904,37702,30215
31913,37699,30209
31932,37694,30207
31934,37666,30215
31924,37703,30210
31964,37703,30215
31996,37695,30209
32012,37685,30208
32008,37709,30212
32060,37700,30215
32028,37655,30223
32028,37678,30231
32037,37684,30231
32068,37692,30236
32065,37695,30245
32112,37687,30249
32156,37692,30256
32168,37684,30254
32184,37673,30261
32180,37699,30265
32216,37639,30283
32206,37671,30285
32213,37660,30276
32232,37655,30284
32240,37678,30284
32256,37660,30286
32260,37687,30300
32318,37669,30294
32335,37669,30305
32325,37684,30303
32342,37652,30309
32392,37670,30310
32372,37657,30297
32352,37668,30317
32373,37657,30325
32400,37669,30327
32420,37659,30339
32440,37689,30341
32456,37686,30348
32432,37671,30349
32428,37653,30368
32433,37683,30380
32448,37636,30372
32453,37661,30395
32444,37654,30398
32460,37679,30405
32500,37637,30404
32512,37672,30404
32524,37660,30408
32536,37690,30415
32524,37632,30391
32520,37653,30441
32512,37671,30443
32532,37670,30444
32540,37657,30447
32548,37669,30454
32560,37655,30467
32580,37663,30479
32628,37676,30503
32612,37679,30498
32590,37637,30503
32597,37668,30500
32600,37652,30511
32617,37639,30523
32592,37639,30524
32596,37671,30517
32616,37677,30537
32608,37631,30532
32608,37677,30543
32609,37657,30557
32624,37671,30535
32628,37666,30562
32614,37625,30575
32622,37631,30588
32650,37663,30604
32668,37660,30596
32732,37655,30603
32730,37631,30604
32696,37676,30616
32697,37655,30628
32696,37655,30632
32706,37631,30656
32720,37655,30662
32696,37655,30655
32704,37659,30661
32752,37612,30677
32752,37655,30666
32764,37647,30677
32772,37639,30677
32762,37631,30689
32732,37653,30709
32716,37659,30703
32696,37612,30713
32708,37623,30716
32732,37639,30713
32743,37631,30727
32748,37669,30727
32789,37663,30710
32796,37665,30751
32801,37621,30756
32768,37620,30775
32744,37607,30764
32744,37639,30775
32769,37639,30772
32805,37637,30773
32812,37639,30790
32828,37650,30794
32822,37636,30803
32832,37629,30805
32825,37660,30806
32841,37628,30820
32768,37627,30823
32749,37652,30821
32768,37629,30831
32824,37639,30841
32813,37639,30840
32814,37668,30838
32844,37661,30847
32852,37655,30852
32821,37623,30852
32816,37655,30855
32828,37639,30855
32822,37652,30855
32856,37613,30863
32848,37637,30859
32860,37639,30868
32868,37663,30860
32872,37629,30861
32860,37663,30852
32848,37639,30865
32837,37616,30855
32813,37652,30854
32836,37631,30842
32836,37655,30853
32809,37639,30849
32813,37639,30857
32828,37638,30855
32844,37662,30850
32852,37663,30841
32836,37639,30839
32812,37628,30834
32805,37639,30845
32776,37631,30839
32776,37631,30829
32804,37623,30820
32788,37657,30815
32816,37663,30823
32816,37654,30828
32832,37639,30823
32854,37628,30817
32809,37648,30813
32772,37639,30811
32832,37628,30803
32824,37639,30793
32832,37639,30795
32836,37607,30791
32852,37647,30811
32900,37639,30799
32864,37639,30791
32860,37631,30784
32868,37639,30785
32848,37639,30791
32848,37607,30790
32852,37628,30788
32868,37621,30774
32880,37639,30775
32908,37653,30761
32936,37639,30749
32933,37637,30759
32901,37638,30759
32921,37623,30749
32916,37631,30745
32892,37639,30736
32868,37602,30724
32860,37633,30727
32879,37635,30727
32864,37631,30727
32828,37615,30721
32788,37653,30714
32716,37623,30706
32688,37639,30708
32660,37629,30700
32600,37612,30711
32612,37639,30695
32621,37639,30692
32644,37649,30689
32677,37647,30679
32676,37633,30673
32692,37617,30670
32668,37652,30643
32676,37623,30666
32668,37639,30665
32684,37631,30652
32716,37627,30657
32764,37639,30638
32840,37627,30659
32888,37661,30647
32924,37621,30647
32888,37639,30649
32876,37621,30640
32877,37636,30653
32896,37601,30645
32916,37611,30641
32992,37623,30633
33061,37607,30632
33144,37619,30624
33168,37631,30625
33288,37605,30612
33284,37633,30625
33232,37625,30616
33176,37590,30620
33106,37605,30613
33064,37600,30605
33036,37588,30598
33026,37607,30607
33048,37591,30595
33028,37620,30613
33040,37604,30605
33041,37596,30604
33006,37609,30596
33007,37588,30599
33012,37599,30588
33017,37582,30598
33044,37593,30596
33061,37589,30599
33020,37605,30598
33044,37573,30599
33044,37592,30591
33057,37577,30594
33053,37591,30589
33028,37589,30588
33016,37574,30589
33020,37585,30594
32980,37581,30598
32997,37569,30585
32998,37597,30584
33008,37581,30581
33012,37599,30582
33028,37587,30580
33024,37575,30590
33008,37592,30585
32988,37549,30580
32952,37569,30573
32964,37583,30574
32988,37575,30572
32992,37587,30572
33000,37543,30585
32984,37575,30568
32854,37587,30576
32592,37565,30574
32306,37574,30579
32012,37583,30576
31784,37575,30565
31648,37573,30567
31697,37562,30566
31808,37589,30566
32076,37559,30564
32556,37589,30556
33057,37583,30564
33688,37571,30569
34724,37595,30572
36368,37580,30564
38373,37575,30566
40681,37551,30565
43104,37548,30561
45556,37548,30567
47808,37541,30559
49516,37543,30544
50668,37546,30564
51058,37525,30572
50168,37541,30560
48368,37540,30582
46228,37548,30575
43792,37551,30564
41024,37563,30567
38152,37574,30564
36148,37579,30561
34768,37597,30575
33796,37599,30565
33088,37575,30579
32421,37599,30591
31908,37588,30587
31556,37579,30610
31301,37600,30598
31140,37591,30612
30992,37572,30612
30896,37607,30601
30796,37597,30607
30716,37607,30599
30636,37554,30596
30572,37587,30591
30495,37599,30585
30420,37596,30572
30376,37575,30551
30372,37607,30535
30388,37602,30524
30372,37602,30519
30388,37597,30506
30432,37615,30497
30452,37548,30495
30436,37579,30474
30416,37599,30471
30424,37585,30462
30448,37575,30452
30508,37545,30435
30564,37572,30439
30592,37571,30437
30590,37582,30431
30592,37611,30418
30620,37597,30392
30668,37597,30399
30710,37580,30407
30740,37572,30389
30780,37577,30389
30816,37589,30391
30852,37564,30396
30912,37597,30404
30910,37597,30406
30928,37588,30410
30976,37605,30425
31032,37596,30430
30988,37579,30449
31017,37603,30457
31048,37551,30471
31060,37591,30476
31108,37599,30493
31140,37605,30511
31212,37595,30521
31236,37606,30533
31257,37557,30546
31269,37595,30567
31276,37591,30591
31296,37549,30589
31333,37581,30604
31380,37597,30616
31396,37596,30643
31396,37605,30644
31416,37585,30665
31448,37599,30683
31436,37592,30689
31444,37599,30703
31464,37565,30723
31482,37574,30727
31508,37571,30740
31541,37581,30749
31572,37601,30761
31588,37604,30764
31640,37612,30782
31680,37564,30796
31720,37588,30798
31732,37607,30807
31773,37575,30823
31820,37591,30820
31865,37606,30825
31880,37592,30837
31900,37571,30836
31968,37615,30843
32028,37592,30836
32073,37615,30828
32060,37568,30845
32142,37596,30834
32182,37607,30844
32192,37601,30832
32236,37585,30820
32261,37601,30822
32324,37605,30815
32378,37607,30810
32432,37621,30793
32497,37617,30780
32524,37623,30766
32549,37599,30753
32566,37613,30756
32629,37615,30733
32666,37597,30720
32720,37615,30715
32770,37573,30701
32820,37609,30689
32868,37620,30678
32886,37612,30667
32922,37612,30661
32964,37597,30645
32952,37619,30636
32952,37604,30631
32976,37595,30612
32986,37627,30604
33020,37614,30607
33040,37599,30589
33048,37629,30596
33056,37615,30575
33057,37605,30574
33060,37619,30556
33022,37613,30544
32984,37597,30546
32964,37596,30533
32952,37621,30519
32912,37623,30503
32848,37623,30498
32780,37612,30492
32724,37607,30484
32644,37612,30471
32534,37615,30465
32437,37591,30452
32372,37589,30447
32332,37600,30443
32268,37601,30430
32172,37595,30423
32100,37617,30410
32089,37607,30409
32036,37607,30396
31964,37563,30389
31884,37582,30380
31845,37599,30387
31808,37553,30372
31792,37575,30375
31788,37589,30380
31788,37568,30365
31774,37592,30359
31749,37581,30353
31744,37604,30357
31772,37587,30341
31757,37572,30343
31704,37583,30334
31688,37583,30329
31716,37588,30322
31738,37564,30323
31748,37584,30327
31792,37606,30337
31821,37604,30333
31798,37575,30319
31804,37605,30321
31876,37590,30311
31880,37579,30308
31880,37575,30303
31900,37583,30294
31909,37575,30301
31944,37595,30299
31936,37599,30287
31964,37589,30283
31976,37565,30280
32008,37575,30279
31980,37597,30270
31980,37580,30284
32000,37591,30280
32016,37551,30281
32036,37576,30288
32048,37606,30301
32068,37603,30297
32060,37607,30317
32120,37566,30308
32141,37597,30309
32132,37561,30317
32149,37596,30340
32154,37585,30343
32164,37583,30351
32190,37568,30363
32208,37604,30350
32244,37588,30351
32292,37589,30353
32296,37591,30361
32298,37613,30373
32300,37598,30367
32256,37563,30373
32246,37597,30365
32263,37599,30391
32321,37591,30387
32324,37580,30388
32368,37613,30398
32398,37607,30396
32397,37575,30377
32404,37603,30413
32393,37578,30437
32364,37604,30434
32368,37577,30428
32386,37603,30445
32404,37589,30437
32408,37582,30449
32440,37614,30460
32489,37570,30486
32512,37600,30484
32516,37591,30480
32536,37607,30502
32512,37602,30493
32508,37551,30518
32540,37587,30512
32532,37603,30511
32528,37595,30533
32552,37582,30542
32604,37607,30541
32636,37598,30551
32616,37597,30551
32612,37578,30548
32608,37573,30573
32638,37571,30573
32620,37575,30571
32648,37596,30595
32672,37607,30595
32676,37589,30599
32673,37605,30599
32696,37596,30599
32708,37612,30622
32736,37593,30625
32709,37603,30632
32720,37594,30636
32702,37581,30607
32712,37588,30650
32733,37617,30659
32729,37582,30663
32737,37597,30668
32732,37618,30676
32736,37612,30685
32701,37580,30679
32748,37597,30694
32756,37599,30692
32763,37586,30703
32733,37609,30719
32740,37607,30717
32756,37574,30721
32780,37601,30741
32772,37610,30745
32752,37615,30740
32741,37606,30749
32724,37567,30756
32782,37584,30772
32784,37596,30775
32800,37601,30757
32830,37613,30791
32816,37615,30791
32812,37615,30799
32813,37602,30790
32816,37599,30815
32800,37595,30822
32796,37607,30825
32788,37607,30829
32764,37611,30842
32782,37567,30853
32810,37603,30856
32840,37599,30853
32864,37605,30880
32855,37620,30885
32824,37613,30893
32814,37606,30909
32820,37572,30917
32840,37584,30913
32848,37587,30933
32852,37576,30932
32860,37597,30951
32864,37611,30956
32884,37607,30960
32868,37581,30961
32840,37569,30980
32824,37565,30988
32832,37587,30994
32852,37596,30988
32870,37585,31009
32880,37581,31031
32869,37593,31012
32900,37591,31016
32936,37607,31028
32924,37619,31047
32900,37611,31054
32892,37606,31054
32888,37583,31052
32880,37556,31060
32901,37599,31077
32936,37603,31076
32944,37586,31079
32960,37589,31071
32964,37620,31087
32964,37590,31100
32957,37586,31105
32961,37605,31109
32980,37589,31109
32928,37565,31124
32908,37605,31105
32880,37565,31129
32933,37583,31133
32948,37607,31134
32989,37598,31132
32976,37607,31147
32964,37612,31156
32928,37604,31153
32916,37568,31140
32896,37595,31156
32944,37591,31176
32980,37604,31172
33020,37589,31179
33057,37612,31183
33076,37599,31158
33052,37617,31178
33020,37607,31203
33020,37605,31201
33045,37597,31205
33000,37595,31193
33007,37602,31215
33028,37587,31227
32990,37588,31229
32924,37599,31214
32956,37593,31249
33025,37607,31239
33000,37619,31261
32940,37615,31239
32888,37585,31270
32800,37575,31269
32740,37607,31260
32762,37599,31274
32801,37601,31295
32860,37613,31311
32891,37622,31293
32852,37599,31329
32828,37585,31331
32760,37603,31348
32709,37575,31364
32716,37602,31372
32689,37575,31375
32684,37607,31404
32694,37591,31431
32668,37623,31444
32620,37585,31466
32612,37601,31465
32660,37615,31484
32692,37607,31525
32652,37570,31565
32536,37607,31583
32468,37583,31621
32492,37601,31622
32552,37620,31648
32574,37584,31709
32628,37607,31740
32674,37587,31767
32736,37588,31788
32852,37588,31831
32821,37604,31861
32749,37589,31897
32748,37597,31927
32740,37586,31927
32724,37613,31960
32744,37583,32020
32826,37597,32068
32908,37585,32119
33022,37605,32149
33143,37593,32173
33204,37575,32228
33276,37594,32222
33220,37601,32303
33125,37588,32351
33036,37585,32369
32903,37585,32431
32798,37607,32476
32852,37602,32487
32860,37591,32512
32836,37575,32568
32804,37593,32657
32783,37553,32695
32753,37583,32743
32720,37572,32775
32793,37589,32847
32885,37594,32852
32932,37567,32895
32916,37584,32926
32969,37576,32982
32976,37565,33076
32920,37562,33124
32895,37565,33189
32797,37564,33253
32836,37585,33308
32834,37548,33360
32876,37582,33408
32968,37591,33483
33016,37591,33521
33016,37543,33577
32968,37571,33626
32728,37556,33697
32528,37575,33749
32553,37537,33823
32652,37567,33893
32734,37567,33956
32744,37559,33957
32824,37591,33983
32804,37585,34055
32752,37591,34188
32717,37583,34274
32632,37581,34320
32616,37536,34411
32559,37575,34393
32428,37575,34484
32252,37573,34622
31965,37575,34669
31669,37600,34741
31588,37550,34839
31704,37583,34855
31858,37574,34891
32204,37583,34964
32820,37588,35028
33406,37565,35167
34112,37580,35280
35137,37583,35361
36638,37573,35404
38428,37575,35503
40468,37581,35591
42516,37567,35653
44528,37561,35719
46480,37543,35758
48016,37541,35847
48860,37542,35953
48944,37543,35937
47816,37564,35977
45974,37566,36122
43904,37572,36229
41600,37583,36277
38948,37593,36368
36381,37607,36449
34780,37597,36531
33817,37571,36485
33048,37597,36540
32505,37593,36607
32076,37583,36737
31808,37607,36783
31601,37601,36941
31360,37604,36946
31229,37601,37052
31173,37607,37004
31154,37603,37127
31220,37593,37191
31168,37599,37285
31016,37571,37237
30908,37599,37268
30720,37607,37383
30704,37599,37495
30728,37588,37503
30704,37591,37552
30620,37565,37633
30596,37599,37549
30625,37573,37577
30544,37594,37717
30544,37599,37772
30581,37601,37841
30664,37587,37823
30736,37613,37879
30796,37609,37940
30823,37567,37985
30828,37599,38047
30896,37588,37951
31040,37577,37983
31136,37603,38045
31140,37553,38063
31108,37607,38183
31064,37600,38301
31013,37589,38302
31060,37584,38373
31104,37607,38372
31072,37567,38384
31060,37567,38500
31092,37588,38396
31153,37579,38444
31236,37557,38513
31296,37603,38679
31344,37597,38733
31384,37561,38719
31424,37552,38807
31412,37552,38704
31396,37597,38868
31416,37567,38852
31446,37543,38821
31509,37595,38855
31584,37593,39065
31636,37583,38992
31644,37583,39081
31649,37591,38983
31672,37583,39197
31672,37587,39164
31656,37583,39063
31688,37583,39208
31716,37583,39236
31744,37575,39254
31780,37580,39284
31812,37607,39303
31864,37605,39325
31912,37577,39344
31944,37599,39191
31952,37596,39203
31972,37582,39317
32012,37575,39337
32032,37589,39375
32060,37603,39205
32101,37606,39365
32136,37607,39279
32188,37607,39320
32218,37599,39156
32236,37621,39135
32264,37620,39239
32288,37617,39268
32320,37613,39136
32396,37581,39175
32380,37604,39165
32405,37607,38977
32456,37613,39009
32532,37607,39077
32564,37602,39029
32598,37621,38949
32644,37620,38897
32676,37615,38831
32738,37615,38714
32772,37565,38663
32844,37575,38757
32934,37615,38735
32972,37612,38684
33029,37615,38580
33052,37615,38567
33068,37610,38376
33104,37606,38356
33088,37599,38367
33105,37612,38357
33152,37612,38347
33159,37587,38215
33211,37620,38192
33220,37606,38151
33196,37636,38114
33200,37639,37904
33157,37597,37989
33135,37599,37885
33140,37627,37893
33149,37621,37701
33140,37609,37718
33120,37607,37727
33156,37603,37606
33133,37605,37583
33104,37631,37508
33120,37639,37455
33124,37607,37406
33048,37599,37351
32929,37601,37312
32728,37613,37268
32590,37603,37223
32496,37598,37045
32397,37622,36976
32328,37625,36903
32208,37631,36977
32103,37625,36943
32040,37631,36837
31933,37631,36812
31810,37623,36655
31744,37575,36575
31696,37583,36558
31665,37607,36529
31608,37613,36548
31569,37601,36484
31516,37607,36389
31500,37620,36333
31476,37575,36276
31408,37599,36231
31396,37607,36230
31393,37608,36150
31396,37573,36118
31420,37559,36030
31388,37602,35988
31361,37605,35974
31328,37601,35929
31321,37591,35780
31324,37602,35748
31369,37615,35692
31391,37595,35609
31388,37591,35580
31384,37575,35645
31412,37597,35564
31413,37566,35525
31424,37575,35511
31440,37567,35456
31456,37591,35415
31473,37574,35373
31450,37555,35319
31420,37583,35277
31457,37580,35165
31521,37577,35097
31532,37578,35036
31520,37589,35039
31548,37591,35078
31552,37597,35039
31616,37582,34972
31648,37559,34937
31662,37577,34916
31680,37561,34900
31705,37572,34822
31716,37558,34743
31712,37552,34756
31756,37559,34754
31784,37539,34715
31820,37590,34663
31812,37575,34662
31812,37583,34601
31876,37575,34607
31926,37567,34639
31940,37551,34599
31972,37535,34591
32004,37569,34565
32012,37572,34513
32028,37572,34511
32100,37571,34468
32108,37563,34442
32110,37543,34414
32144,37545,34409
32096,37561,34407
32092,37568,34385
32116,37527,34357
32140,37557,34321
32172,37551,34292
32232,37575,34277
32273,37577,34270
32260,37559,34252
32296,37552,34245
32312,37540,34159
32332,37556,34127
32336,37565,34113
32368,37511,34172
32376,37517,34151
32376,37549,34133
32449,37543,34109
32488,37572,34108
32492,37533,34092
32488,37559,34082
32518,37537,34071
32476,37549,34079
32485,37509,34043
32512,37542,34028
32556,37528,34014
32628,37561,34008
32624,37557,34013
32625,37543,34000
32640,37565,33981
32596,37565,33971
32604,37565,33953
32605,37565,33947
32597,37541,33937
32604,37541,33942
32613,37537,33868
32644,37535,33836
32661,37550,33872
32644,37575,33904
32652,37553,33889
32677,37559,33865
32644,37540,33860
32596,37533,33867
32660,37537,33874
32672,37533,33767
32704,37534,33860
32740,37556,33863
32696,37569,33829
32704,37571,33823
32732,37575,33838
32718,37548,33735
32696,37535,33766
32657,37551,33799
32644,37543,33799
32648,37543,33775
32668,37535,33793
32730,37527,33742
32760,37561,33692
32773,37570,33685
32800,37527,33671
32790,37557,33687
32784,37545,33767
32728,37536,33735
32700,37535,33739
32632,37524,33692
32665,37542,33653
32704,37551,33638
32740,37545,33663
32796,37535,33729
32812,37567,33705
32824,37541,33692
32788,37535,33703
32796,37551,33708
32796,37528,33647
32812,37525,33604
32816,37503,33684
32832,37506,33671
32837,37516,33679
32863,37533,33637
32848,37524,33603
32800,37519,33599
32746,37509,33671
32762,37543,33658
32800,37509,33650
32816,37543,33596
32784,37543,33564
32724,37543,33637
32704,37543,33629
32764,37529,33618
32744,37565,33629
32788,37511,33624
32788,37543,33627
32760,37535,33569
32768,37549,33533
32776,37540,33521
32816,37509,33511
32813,37544,33534
32820,37533,33527
32832,37551,33561
32842,37559,33551
32866,37519,33569
32828,37543,33569
32790,37527,33535
32745,37520,33532
32736,37547,33519
32748,37509,33519
32730,37541,33533
32728,37537,33519
32728,37557,33516
32724,37535,33502
32752,37541,33483
32748,37549,33469
32736,37511,33462
32716,37535,33454
32745,37520,33460
32764,37527,33431
32766,37556,33437
32820,37511,33439
32842,37541,33415
32808,37541,33391
32784,37555,33341
32749,37507,33316
32672,37540,33294
32616,37527,33312
32585,37548,33372
32553,37544,33354
32578,37524,33327
32552,37554,33332
32532,37535,33327
32532,37554,33316
32572,37543,33303
32548,37539,33244
32545,37511,33204
32540,37509,33198
32568,37525,33177
32584,37534,33171
32580,37551,33153
32616,37557,33181
32672,37556,33197
32680,37541,33181
32669,37548,33176
32692,37533,33165
32716,37545,33151
32744,37543,33142
32765,37540,33151
32756,37520,33116
32788,37541,33055
32852,37543,33055
32944,37535,33055
33001,37531,33031
33045,37551,33007
33046,37543,33003
33060,37501,32992
33105,37532,32999
33132,37533,33046
33128,37519,33023
33050,37525,33026
32973,37543,33017
32956,37533,32943
32956,37527,32935
32944,37543,32956
32940,37541,32966
32956,37522,32968
32924,37529,32955
32917,37532,32933
32901,37533,32929
32904,37529,32923
32916,37527,32917
32928,37543,32897
32976,37548,32895
32997,37556,32823
32996,37518,32814
33004,37495,32871
33014,37500,32849
33004,37511,32841
33021,37509,32813
33040,37535,32821
33028,37543,32772
33028,37519,32756
32974,37511,32739
32976,37527,32733
32968,37525,32775
32974,37510,32767
32918,37526,32756
32932,37519,32733
32925,37511,32711
32964,37516,32711
32964,37525,32700
32952,37511,32696
32996,37511,32689
32984,37495,32645
32977,37494,32612
32960,37501,32642
32890,37495,32647
32741,37497,32652
32520,37497,32637
32213,37523,32638
31952,37533,32645
31766,37535,32609
31712,37484,32588
31828,37521,32591
32012,37505,32605
32358,37494,32614
32868,37490,32627
33400,37519,32663
34093,37489,32639
35198,37511,32646
36804,37525,32657
38785,37518,32710
41016,37500,32709
43165,37499,32712
45304,37479,32740
47316,37469,32751
48808,37463,32759
49604,37463,32763
49660,37473,32769
48384,37477,32781
46284,37495,32791
44148,37506,32796
41816,37511,32797
39057,37508,32813
36437,37524,32828
34752,37532,32833
33728,37492,32844
33041,37519,32862
32524,37521,32823
32084,37511,32799
31781,37538,32815
31529,37532,32831
31380,37500,32821
31256,37503,32836
31152,37543,32845
31040,37511,32828
31008,37533,32828
30928,37540,32839
30852,37548,32846
30784,37498,32828
30772,37541,32791
30720,37541,32775
30708,37539,32767
30688,37531,32701
30680,37556,32654
30666,37495,32629
30664,37529,32601
30688,37523,32572
30700,37538,32599
30688,37551,32579
30741,37551,32535
30756,37548,32516
30772,37514,32467
30768,37511,32407
30772,37543,32386
30800,37511,32375
30884,37511,32375
30900,37533,32343
30884,37535,32320
30928,37511,32310
30946,37543,32249
30996,37527,32236
31041,37549,32205
31076,37543,32198
31096,37545,32208
31116,37503,32213
31136,37535,32196
31160,37506,32186
31188,37533,32180
31204,37492,32176
31252,37537,32179
31276,37533,32148
31308,37527,32133
31304,37511,32121
31300,37535,32124
31321,37538,32123
31360,37537,32129
31388,37541,32156
31432,37530,32155
31496,37543,32136
31540,37493,32153
31588,37540,32097
31596,37529,32094
31604,37521,32111
31660,37510,32108
31676,37543,32108
31665,37535,32108
31688,37503,32088
31708,37525,32083
31756,37508,32068
31828,37541,32067
31860,37564,32055
31893,37533,31999
31964,37545,31995
31956,37535,32015
31960,37533,32004
32016,37511,31988
32020,37541,31978
32053,37503,31973
32068,37525,31909
32117,37502,31917
32164,37547,31916
32236,37511,31911
32240,37541,31890
32249,37541,31874
32304,37535,31826
32332,37523,31842
32356,37525,31821
32400,37519,31795
32484,37543,31783
32516,37556,31726
32598,37560,31730
32640,37563,31709
32669,37558,31687
32726,37561,31636
32776,37510,31615
32821,37535,31576
32881,37541,31563
32932,37550,31561
33004,37564,31527
33048,37551,31495
33112,37550,31476
33156,37561,31439
33189,37547,31396
33212,37536,31388
33248,37559,31350
33284,37557,31328
33320,37563,31252
33332,37511,31255
33360,37553,31231
33412,37559,31217
33432,37555,31192
33424,37553,31164
33372,37549,31135
33320,37567,31059
33280,37573,31067
33284,37525,31044
33260,37549,31031
33240,37532,31012
33249,37559,30977
33228,37549,30958
33200,37559,30929
33118,37556,30911
33016,37571,30895
32940,37573,30863
32860,37581,30823
32796,37570,30823
32708,37568,30789
32617,37567,30767
32520,37575,30737
32420,37591,30727
32346,37588,30703
32300,37581,30686
32208,37573,30645
32158,37533,30620
32060,37562,30613
31988,37551,30591
31920,37543,30564
31899,37541,30553
31856,37548,30517
31844,37550,30519
31820,37548,30487
31800,37547,30458
31758,37567,30423
31749,37567,30430
31745,37563,30405
31724,37535,30392
31708,37543,30365
31710,37535,30346
31724,37564,30357
31728,37555,30329
31720,37565,30313
31720,37517,30292
31720,37561,30266
31728,37508,30292
31740,37557,30254
31773,37540,30236
31767,37541,30230
31764,37529,30214
31837,37544,30203
31892,37563,30180
31896,37564,30161
31892,37563,30184
31884,37531,30149
31868,37511,30146
31852,37511,30117
31864,37543,30130
31920,37545,30117
31936,37551,30063
31957,37558,30113
31960,37557,30088
31992,37557,30084
32004,37565,30078
32008,37561,30095
31980,37559,30087
32004,37551,30084
32004,37548,30096
32028,37541,30086
32092,37549,30092
32112,37551,30080
32101,37557,30079
32120,37556,30111
32116,37565,30097
32142,37535,30085
32140,37511,30087
32160,37543,30073
32178,37543,30092
32173,37546,30103
32204,37543,30085
32248,37532,30092
32269,37532,30094
32317,37544,30087
32368,37549,30087
32430,37548,30116
32364,37547,30103
32336,37541,30101
32356,37537,30086
32356,37513,30113
32369,37495,30101
32388,37532,30104
32452,37511,30093
32448,37519,30121
32480,37511,30103
32460,37517,30113
32472,37535,30105
32456,37543,30120
32492,37519,30145
32506,37483,30135
32524,37511,30143
32532,37511,30131
32556,37529,30141
32600,37532,30166
32588,37551,30150
32568,37509,30156
32556,37535,30153
32560,37511,30175
32600,37509,30189
32632,37503,30181
32620,37495,30185
32616,37527,30185
32670,37531,30178
32661,37487,30132
32688,37533,30205
32700,37517,30204
32694,37511,30210
32688,37523,30213
32687,37524,30215
32686,37519,30212
32700,37511,30237
32716,37521,30255
32718,37527,30255
32741,37487,30245
32740,37536,30247
32728,37523,30231
32720,37510,30277
32740,37501,30273
32764,37516,30277
32741,37533,30266
32736,37499,30284
32746,37524,30290
32744,37511,30308
32760,37511,30308
32775,37524,30309
32754,37524,30317
32708,37519,30317
32692,37527,30327
32732,37495,30332
32740,37502,30335
32766,37500,30335
32788,37511,30343
32800,37532,30356
32801,37512,30372
32812,37535,30373
32788,37535,30375
32801,37495,30377
32812,37511,30383
32780,37528,30395
32748,37517,30409
32752,37503,30405
32758,37535,30415
32764,37535,30417
32790,37527,30428
32828,37541,30433
32820,37504,30436
32818,37516,30447
32862,37533,30453
32832,37493,30452
32820,37527,30461
32806,37541,30476
32797,37519,30480
32829,37543,30479
32860,37549,30492
32832,37549,30500
32816,37543,30500
32854,37524,30516
32814,37543,30528
32804,37509,30516
32780,37533,30537
32764,37527,30546
32768,37535,30549
32772,37543,30539
32788,37557,30549
32814,37519,30553
32816,37541,30556
32820,37558,30563
32834,37532,30565
32848,37540,30567
32836,37557,30575
32813,37511,30577
32816,37542,30584
32828,37564,30591
32820,37522,30595
32820,37551,30597
32848,37548,30619
32848,37560,30628
32848,37527,30617
32824,37535,30613
32832,37560,30613
32868,37551,30615
32884,37540,30632
32916,37575,30636
32929,37551,30637
32945,37567,30642
32912,37569,30657
32878,37543,30657
32856,37564,30658
32828,37543,30661
32824,37558,30661
32860,37529,30672
32876,37559,30671
32896,37575,30673
32888,37563,30685
32836,37575,30676
32860,37581,30693
32860,37567,30703
32804,37583,30708
32720,37565,30695
32676,37580,30693
32672,37548,30706
32636,37567,30714
32620,37599,30724
32608,37596,30720
32564,37580,30727
32548,37573,30733
32549,37578,30744
32556,37591,30744
32568,37575,30754
32596,37592,30759
32600,37596,30757
32584,37579,30754
32588,37577,30766
32650,37599,30769
32708,37613,30764
32751,37573,30769
32792,37596,30778
32808,37582,30773
32836,37603,30777
32836,37581,30786
32864,37603,30788
32864,37599,30792
32865,37616,30794
32884,37604,30791
32928,37614,30789
33014,37615,30797
33072,37600,30793
33124,37615,30785
33124,37605,30791
33176,37588,30789
33175,37619,30788
33140,37607,30799
33108,37620,30811
33102,37623,30806
33092,37607,30812
33064,37607,30805
33050,37604,30806
33056,37627,30812
33036,37615,30821
33020,37593,30817
33054,37621,30821
33030,37620,30820
33052,37631,30813
33076,37623,30822
33078,37589,30834
33060,37615,30829
33092,37601,30823
33080,37627,30831
33064,37623,30837
33084,37615,30839
33109,37631,30841
33096,37623,30843
33068,37612,30844
33052,37639,30847
33052,37631,30855
33032,37639,30860
33004,37621,30841
32988,37605,30844
33020,37615,30840
33000,37613,30853
33006,37635,30852
33040,37639,30852
33028,37639,30861
33048,37633,30860
33052,37663,30865
33028,37639,30865
32994,37617,30871
33033,37639,30869
32968,37631,30877
32796,37647,30873
32532,37639,30883
32258,37631,30881
31956,37615,30886
31708,37648,30895
31621,37678,30895
31748,37671,30892
31861,37639,30906
32144,37647,30894
32660,37639,30885
33172,37669,30896
33876,37639,30895
34985,37663,30898
36664,37663,30901
38676,37645,30908
40948,37655,30910
43300,37639,30908
45608,37636,30916
47728,37623,30917
49312,37613,30912
50296,37612,30918
50496,37621,30922
49412,37639,30922
47488,37639,30932
45372,37660,30921
42952,37668,30932
40128,37678,30925
37369,37698,30924
35596,37663,30942
34352,37683,30940
33484,37700,30948
32824,37701,30959
32248,37707,30972
31772,37695,30964
31442,37710,30976
31232,37727,30983
31112,37699,30980
30996,37668,30981
30896,37695,30983
30840,37682,30983
30756,37703,30982
30704,37684,30983
30637,37689,30964
30612,37720,30967
30556,37711,30956
30501,37711,30959
30500,37727,30945
30528,37719,30946
30516,37716,30925
30476,37695,30904
30520,37695,30896
30522,37717,30904
30520,37733,30895
