ECG,EDA,RR
33108,2374,34055
33172,2472,34193
33212,2327,34286
33220,2351,34292
33206,2454,34197
33232,2404,34055
33208,2386,34165
33140,2361,34284
33105,2307,34193
33205,2310,34181
33256,2317,34188
33260,2343,34114
33220,2336,34202
33276,2353,34116
33336,2515,33875
33348,2401,34245
33280,2376,34133
33252,2375,34127
33172,2346,34053
33072,2313,34261
33156,2326,34036
33276,2332,34095
33396,2339,33992
33396,2376,34167
33312,2381,34132
33172,2360,33992
32989,2337,34055
32817,2295,33989
32630,2271,34163
32668,2275,34112
32832,2318,34109
32876,2340,33957
32913,2349,33996
32958,2389,33650
32968,2429,33860
32932,2339,33885
32816,2324,33817
32688,2320,33903
32576,2303,33893
32600,2346,34005
32664,2375,34073
32704,2404,34014
32800,2445,33825
32916,2346,33781
33080,2378,33893
33088,2377,33988
32968,2364,33778
32900,2384,33840
32844,2400,33838
32714,2280,33799
32628,2311,33783
32656,2368,33849
32764,2335,33836
32852,2371,33786
32920,2439,33828
32940,2340,33941
32872,2325,33927
32808,2331,33728
32720,2339,33929
32628,2391,33973
32608,2289,33959
32713,2315,33973
32800,2352,33880
32912,2382,33920
33052,2389,33799
33074,2359,33799
32956,2362,33823
32856,2353,33799
32816,2372,33812
32748,2459,33799
32738,2290,33812
32736,2326,33817
32785,2367,33808
32956,2382,33796
33008,2435,33452
32980,2438,33567
32865,2318,33728
32732,2298,33868
32652,2303,33926
32636,2309,33709
32672,2324,33789
32776,2336,33798
32804,2396,33780
32821,2423,33564
32848,2404,33822
32780,2402,33824
32652,2407,33655
32566,2355,33756
32572,2316,33758
32608,2337,33925
32694,2368,33651
32852,2408,33772
32988,2446,33731
33008,2348,33400
32895,2354,33508
32800,2341,33693
32704,2339,33895
32684,2325,33701
32633,2300,33740
32604,2276,33669
32661,2290,33853
32756,2311,33771
32864,2346,33656
32900,2387,33730
32918,2379,33752
32872,2376,33746
32829,2404,33607
32740,2298,33748
32633,2276,33895
32682,2459,33688
32772,2288,33753
32785,2303,33724
32832,2327,33703
32900,2357,33799
32948,2380,33893
32924,2358,33884
32824,2345,33856
32700,2321,33629
32604,2309,33748
32556,2294,33727
32532,2312,33457
32608,2344,33521
32788,2374,33724
33020,2437,33811
33124,2490,33853
33104,2337,33737
33036,2337,33717
32868,2317,33796
32744,2305,33671
32697,2324,33607
32696,2342,33713
32676,2400,33738
32621,2325,33724
32665,2359,33527
32752,2367,33763
32776,2373,33808
32696,2347,33637
32640,2327,33703
32676,2313,33695
32648,2336,33716
32656,2342,33603
32728,2393,33646
32808,2424,33815
32860,2455,33767
32813,2439,33601
32740,2449,33663
32708,2447,33730
32677,2299,33718
32652,2477,33661
32706,2277,33476
32749,2291,33639
32782,2311,33661
32824,2341,33773
32820,2370,33825
32753,2355,33841
32680,2338,33632
32620,2330,33717
32664,2303,33751
32704,2279,33727
32772,2277,33380
32884,2295,33676
32940,2476,33837
32980,2461,33853
32968,2452,33676
32970,2449,33757
32956,2407,33737
32872,2358,33695
32720,2319,33780
32549,2299,33852
32480,2297,33904
32513,2324,33637
32580,2316,33777
32692,2343,33572
32908,2362,33746
33000,2460,33639
32960,2441,33778
32876,2316,33409
32733,2298,33695
32628,2375,33914
32668,2394,33750
32776,2394,33769
32908,2414,33743
32981,2495,33511
33108,2349,33710
33124,2362,33791
32940,2353,33900
32780,2344,33789
32662,2368,33626
32536,2373,33709
32448,2279,33748
32468,2291,33740
32564,2312,33718
32688,2341,33521
32864,2369,33775
33007,2387,33841
33044,2369,33668
32960,2357,33720
32805,2317,33632
32676,2281,33841
32652,2278,33671
32656,2296,33517
32744,2528,33815
32920,2393,33622
33076,2375,33409
33048,2375,33792
32960,2335,33669
32878,2486,33649
32756,2363,33610
32628,2333,33652
32537,2307,33681
32524,2314,33685
32540,2309,33664
32609,2511,33613
32724,2452,33756
32820,2440,33636
32852,2389,33548
32844,2379,33799
32820,2366,33564
32744,2348,33620
32688,2296,33777
32760,2327,33586
32868,2439,33508
32942,2483,33579
33041,2355,33636
33108,2353,33604
33074,2341,33556
32892,2323,33684
32768,2303,33632
32644,2431,33630
32588,2383,33309
32620,2372,33671
32744,2388,33565
32848,2373,33629
32920,2399,33486
32856,2442,33626
32776,2436,33727
32708,2423,33585
32586,2306,33257
32492,2285,33765
32488,2372,33589
32572,2381,33295
32700,2365,33765
32812,2366,33556
32886,2389,33407
32928,2376,33732
32952,2350,33556
32976,2326,33484
32960,2301,33722
32876,2276,33569
32828,2389,33554
32896,2358,33471
32884,2338,33502
32772,2350,33519
32645,2351,33543
32548,2455,33645
32497,2399,33540
32528,2370,33538
32508,2332,33476
32544,2305,33428
32566,2294,33556
32656,2300,33538
32756,2306,33520
32864,2431,33676
32996,2422,33519
33036,2386,33432
33016,2371,33660
32897,2353,33507
32749,2339,33521
32636,2318,33460
32592,2287,33420
32632,2294,33500
32708,2310,33607
32873,2561,33404
33012,2387,33548
33098,2387,33466
33121,2346,33501
33020,2321,33415
32833,2306,33624
32724,2279,33349
32702,2276,33434
32668,2286,33476
32646,2427,33476
32684,2384,33397
32736,2387,33296
32776,2349,33397
32768,2509,33466
32757,2419,33375
32693,2443,33535
32632,2325,33459
32596,2308,33388
32672,2304,33465
32858,2302,33455
32984,2416,33476
33010,2397,33330
33008,2378,33444
32976,2372,33126
32852,2341,33443
32792,2337,33445
32724,2298,33383
32737,2304,33437
32816,2293,33415
32908,2308,33444
32928,2332,33415
32980,2367,33407
32976,2355,33500
33000,2342,33396
32858,2410,33445
32692,2380,33457
32576,2337,33441
32540,2307,33383
32529,2321,33574
32620,2314,33431
32740,2328,33399
32824,2423,33313
32892,2407,33469
32849,2362,33358
32772,2341,33568
32720,2322,33448
32676,2279,33389
32684,2285,33620
32768,2379,33455
32832,2335,33543
32901,2365,33381
33036,2352,33412
33024,2429,33353
32940,2373,33137
32880,2356,33568
32860,2308,33429
32856,2374,33465
32821,2370,33368
32824,2365,33287
32832,2345,33432
32868,2333,33429
32960,2358,33444
32953,2471,33480
32935,2429,33632
32936,2393,33500
32852,2359,33439
32737,2325,33540
32704,2296,33511
32672,2313,33332
32689,2342,33567
32768,2355,33428
32836,2388,33488
32888,2357,33646
32888,2346,33454
32816,2434,33155
32756,2383,33654
32684,2322,33444
32644,2316,33157
32736,2314,33476
32884,2307,33383
32976,2330,33476
33036,2441,33582
33120,2382,33471
32982,2348,33415
32801,2396,33346
32680,2332,33477
32484,2292,33508
32397,2277,33397
32544,2370,33258
32697,2346,33520
32850,2351,33460
32960,2357,33396
32940,2361,33468
32820,2389,33455
32728,2334,33609
32764,2299,33447
32734,2281,33410
32658,2275,33407
32600,2381,33096
32608,2358,33588
32621,2373,33385
32724,2371,33132
32781,2371,33454
32796,2361,33530
32768,2331,33397
32728,2398,33530
32716,2303,33420
32616,2311,33484
32590,2286,33405
32645,2309,33360
32800,2401,33357
32932,2376,33332
32952,2370,33423
32912,2350,33367
32856,2391,33535
32801,2334,33396
32824,2276,33381
32840,2275,33441
32940,2285,33349
33180,2401,33281
33389,2355,33434
33532,2372,33381
33680,2390,33316
33636,2383,33461
33452,2355,33373
33260,2317,33411
32880,2284,33244
32528,2361,33085
32001,2331,33527
31296,2332,33302
30576,2355,33383
29924,2400,33325
29249,2409,33540
28744,2384,33343
28592,2349,33077
28764,2330,33549
29074,2282,33395
29436,2372,33397
29840,2317,33381
30496,2326,33335
31328,2343,33541
31912,2356,33357
32357,2410,33327
32684,2372,33340
32941,2326,33391
33081,2399,33342
33096,2323,33325
33061,2314,33263
33068,2294,33364
33104,2313,33452
33144,2408,33266
33240,2379,33039
33324,2367,33497
33424,2347,33345
33396,2422,33314
33324,2335,33279
33262,2305,33047
33204,2280,33448
33134,2295,33359
33244,2310,33133
33304,2330,33393
33380,2360,33311
33460,2520,33321
33397,2397,33253
33301,2350,33347
33288,2345,33326
33262,2295,33244
33240,2433,33200
33273,2392,33332
33364,2373,33295
33444,2360,33261
33486,2391,33334
33488,2384,33253
33404,2350,33470
33352,2327,33220
33184,2429,33012
33052,2346,33505
32965,2307,33300
33000,2324,33009
33096,2311,33444
33224,2363,33313
33414,2434,33341
33601,2381,33445
33506,2353,33304
33368,2330,33025
33160,2516,33463
33047,2364,33339
33026,2332,33348
33012,2311,33375
33129,2306,33360
33274,2439,33269
33332,2452,33455
33270,2462,33261
33192,2388,33325
33088,2365,33415
33064,2340,33260
33050,2288,32979
33012,2281,33308
33036,2287,33359
33052,2399,33286
33061,2379,33266
33166,2412,33428
33244,2394,33175
33220,2366,33287
33176,2332,33367
33152,2363,33269
33137,2314,33198
33084,2311,33369
33112,2290,33209
33220,2403,33132
33268,2381,33407
33300,2375,33236
33325,2353,33172
33216,2452,33359
33044,2420,33212
32940,2355,33004
32908,2330,33348
32877,2319,33129
32941,2299,33228
32992,2309,33228
33056,2450,33260
33132,2485,33237
33220,2589,32993
33192,2421,33159
33112,2361,33214
33054,2323,33372
32908,2288,33189
32814,2283,33175
32852,2391,33081
33000,2357,32868
33129,2367,33293
33268,2383,33060
33405,2369,33181
33428,2355,33191
33284,2431,33039
33125,2362,33130
32997,2287,33132
32926,2358,33125
32960,2312,33272
33056,2340,33057
33161,2327,33049
33270,2359,33057
33301,2474,32791
33220,2412,32967
33084,2384,33068
33060,2359,33137
33012,2324,32999
32948,2289,32879
32937,2289,33060
33000,2306,33004
33132,2334,33017
33250,2377,32941
33229,2396,33135
33101,2383,32956
32897,2367,32739
32656,2319,32892
32522,2283,32861
32514,2497,32871
32588,2373,32660
32800,2346,32928
32908,2361,32661
33000,2357,33039
33028,2364,32924
33005,2350,32875
33038,2337,32817
32949,2397,32814
32748,2355,32871
32632,2380,32892
32617,2394,32824
32676,2399,32820
32757,2419,32876
32804,2362,32613
32832,2601,32963
32772,2350,32780
32702,2331,32524
32703,2310,32843
32728,2294,32855
32724,2281,32838
32694,2299,32908
32694,2399,32805
32760,2364,32847
32944,2378,32747
33088,2385,32668
33044,2369,32916
33000,2361,32695
32884,2337,32797
32736,2321,32775
32700,2302,32903
32761,2311,32775
32836,2330,32707
32964,2349,32880
33084,2381,32772
33168,2385,32705
33216,2377,32764
33124,2354,32737
32972,2312,32873
32872,2377,32574
32852,2329,32841
32840,2356,32703
32858,2375,32742
32924,2346,32743
32968,2382,32660
33000,2385,32718
32970,2369,32423
32824,2365,32657
32646,2356,32828
32640,2327,32639
32684,2317,32409
32740,2314,32833
32792,2316,32680
32797,2332,32668
32748,2355,32660
32792,2446,32673
32877,2425,32588
32869,2386,32719
32880,2335,32653
32856,2323,32612
32725,2311,32566
32652,2317,32611
32554,2319,32552
32536,2324,32556
32612,2348,32623
32744,2459,32559
32848,2451,32757
32852,2388,32590
32764,2336,32550
32744,2292,32497
32698,2283,32297
32664,2379,32644
32732,2370,32474
32742,2370,32615
32752,2386,32495
32796,2382,32701
32758,2383,32724
32737,2384,32591
32752,2348,32496
32748,2309,32583
32746,2313,32574
32736,2325,32566
32824,2306,32461
32928,2325,32596
32992,2358,32581
32969,2362,32518
32840,2355,32559
32804,2330,32705
32836,2311,32519
32790,2419,32241
32712,2353,32645
32724,2343,32576
32792,2329,32567
32832,2341,32353
32868,2360,32609
32804,2498,32572
32808,2386,32535
32798,2364,32497
32704,2349,32289
32636,2301,32695
32588,2279,32519
32600,2285,32519
32660,2313,32516
32748,2490,32698
32792,2447,32661
32880,2452,32543
32912,2432,32396
32804,2381,32652
32716,2357,32554
32634,2362,32510
32596,2281,32548
32617,2387,32503
32724,2491,32671
32796,2329,32501
32893,2354,32557
32938,2356,32276
32796,2346,32685
32602,2533,32495
32588,2415,32556
32520,2437,32405
32476,2411,32631
32564,2335,32482
32676,2338,32381
32752,2361,32642
32828,2379,32446
32833,2370,32556
32840,2364,32229
32772,2335,32567
32644,2314,32464
32574,2290,32557
32544,2372,32456
32576,2378,32649
32700,2340,32440
32768,2347,32549
32820,2371,32487
32884,2377,32685
32828,2370,32603
32652,2360,32462
32468,2319,32240
32340,2319,32492
32388,2308,32691
32476,2292,32476
32608,2303,32536
32724,2323,32498
32792,2351,32605
32848,2355,32542
32881,2475,32226
32812,2429,32610
32780,2372,32469
32664,2336,32519
32584,2301,32641
32604,2325,32412
32664,2325,32557
32768,2327,32599
32784,2520,32455
32804,2408,32533
32768,2371,32697
32712,2360,32513
32692,2313,32350
32652,2291,32684
32608,2365,32512
32548,2327,32439
32556,2343,32488
32560,2333,32383
32600,2357,32599
32673,2395,32198
32716,2371,32681
32709,2354,32531
32700,2314,32511
32688,2390,32460
32704,2342,32534
32757,2341,32459
32804,2330,32677
32860,2349,32449
32860,2355,32220
32856,2359,32492
32800,2364,32689
32762,2333,32513
32692,2543,32466
32582,2383,32577
32492,2360,32541
32564,2342,32527
32726,2341,32407
32816,2353,32317
32840,2348,32502
32869,2355,32452
32784,2349,32696
32609,2429,32511
32536,2393,32269
32492,2338,32647
32512,2311,32506
32492,2291,32540
32572,2312,32497
32744,2329,32579
32832,2358,32568
32836,2595,32499
32856,2473,32647
32832,2578,32583
32770,2315,32434
32704,2310,32549
32700,2315,32711
32760,2324,32580
32908,2341,32569
33044,2339,32438
33073,2349,32736
32966,2358,32535
32848,2354,32570
32712,2474,32660
32652,2404,32447
32592,2344,32271
32652,2311,32701
32732,2314,32505
32879,2313,32584
32941,2341,32500
32936,2349,32718
32976,2369,32464
32962,2352,32556
33016,2339,32593
32948,2312,32444
32772,2287,32586
32621,2279,32643
32605,2292,32549
32637,2309,32559
32654,2418,32481
32728,2384,32484
32864,2392,32586
32973,2363,32580
32884,2347,32444
32756,2341,32583
32610,2305,32480
32584,2388,32553
32628,2360,32304
32776,2339,32644
32928,2350,32548
32948,2380,32577
32912,2395,32484
32845,2373,32532
32664,2366,32727
32516,2331,32471
32408,2323,32581
32316,2324,32588
32320,2374,32245
32549,2404,32500
32776,2381,32641
32972,2444,32503
33104,2357,32586
33156,2380,32579
33128,2361,32303
32956,2350,32501
32808,2314,32564
32704,2314,32644
32704,2327,32448
32752,2383,32575
32780,2427,32574
32760,2441,32524
32728,2448,32559
32740,2429,32588
32728,2385,32603
32752,2345,32495
32824,2322,32597
32800,2316,32547
32852,2321,32712
32856,2341,32455
32840,2350,32598
32896,2376,32508
32976,2393,32525
33048,2387,32711
33048,2362,32664
32944,2335,32585
32844,2327,32449
32688,2316,32578
32636,2324,32708
32660,2335,32628
32740,2372,32560
32832,2433,32592
32952,2452,32590
32973,2428,32550
32936,2377,32733
32828,2347,32567
32744,2338,32614
32692,2344,32532
32646,2344,32775
32684,2396,32612
32760,2393,32620
32868,2436,32639
32964,2568,32359
32864,2357,32606
32708,2332,32705
32568,2319,32669
32564,2392,32660
32509,2350,32501
32596,2326,32761
32716,2327,32633
33001,2350,32651
33140,2384,32672
33156,2390,32423
33064,2384,32677
32956,2344,32656
32844,2321,32677
32684,2311,32417
32548,2285,32791
32504,2293,32822
32516,2341,32676
32584,2368,32572
32708,2417,32701
32790,2401,32548
32928,2412,32623
33020,2406,32775
32988,2385,32763
32908,2322,32684
32884,2304,32694
32908,2324,32709
32996,2334,32756
32988,2350,32673
32936,2403,32581
32884,2413,32669
32776,2393,32716
32776,2371,32659
32828,2334,32872
32772,2312,32698
32688,2285,32529
32669,2289,32838
32732,2313,32844
32900,2331,32664
32940,2349,32732
32916,2363,32661
32880,2353,32855
32741,2436,32732
32604,2557,32431
32456,2289,32447
32376,2307,32656
32429,2323,32676
32509,2330,32817
32649,2363,32789
32780,2385,32708
32900,2370,32673
32940,2358,32897
32917,2341,32644
32880,2320,32736
32841,2296,32757
32730,2279,32677
32673,2286,32869
32844,2309,32668
33056,2437,32712
33157,2420,32672
33192,2403,32853
33064,2374,32609
32901,2356,32706
32712,2351,32468
32672,2290,32788
32677,2276,32683
32724,2289,32750
32800,2456,32625
32924,2417,32877
32988,2403,32688
33021,2395,32706
33034,2373,32668
33024,2372,32857
32988,2348,32589
32924,2388,32592
32868,2377,32718
32892,2319,32636
33008,2323,32764
33180,2326,32704
33412,2353,32459
33649,2362,32795
33798,2448,32590
33856,2365,32378
33705,2320,32626
33556,2289,32700
33324,2394,32647
32994,2368,32660
32638,2330,32607
31968,2359,32754
31136,2368,32672
30356,2362,32749
29656,2354,32676
28988,2424,32637
28516,2395,32865
28437,2371,32661
28589,2288,32731
28897,2293,32709
29389,2390,32580
30092,2376,32417
31036,2368,32877
31914,2391,32675
32420,2385,32727
32665,2358,32514
32750,2348,32883
32873,2353,32652
32980,2317,32743
33064,2324,32724
33132,2324,32591
33224,2325,32827
33292,2354,32708
33324,2455,32535
33360,2420,32884
33365,2408,32616
33320,2411,32733
33240,2295,32720
33176,2280,32650
33204,2291,32767
33348,2356,32575
33464,2402,32373
33556,2443,32641
33668,2586,32781
33758,2352,32721
33749,2338,32647
33730,2319,32690
33657,2296,32437
33516,2287,32645
33368,2309,32762
33280,2339,32669
33292,2390,32544
33360,2347,32636
33468,2359,32580
33508,2358,32553
33437,2366,32572
33352,2365,32582
33268,2368,32672
33208,2353,32671
33256,2348,32624
33276,2410,32695
33364,2548,32848
33413,2354,32759
33545,2364,32607
33616,2354,32726
33456,2337,32399
33276,2422,32836
33076,2297,32827
32980,2284,32649
32928,2283,32733
32945,2304,32697
33048,2346,32616
33144,2378,32871
33236,2378,32637
33284,2387,32713
33292,2362,32414
33177,2347,32632
33096,2329,32810
33064,2324,32784
33037,2323,32641
33029,2363,32636
33100,2398,32675
33216,2397,32598
33264,2382,32775
33272,2386,32548
33216,2364,32643
33160,2353,32489
33124,2332,32582
33080,2319,32713
32996,2319,32529
33005,2341,32647
33153,2345,32549
33321,2384,32582
33436,2386,32768
33500,2389,32503
33488,2361,32642
33392,2349,32609
33232,2327,32553
33216,2364,32647
33368,2407,32666
33437,2306,32537
33445,2325,32629
33468,2461,32350
33400,2361,32553
33348,2352,32766
33216,2331,32605
33120,2330,32485
32988,2297,32619
32840,2289,32615
32848,2315,32618
32920,2369,32605
32966,2423,32403
33020,2349,32503
33124,2368,32616
33112,2383,32647
33112,2366,32723
33129,2369,32592
33076,2347,32450
32976,2364,32533
32880,2374,32519
32878,2394,32516
33005,2402,32594
33096,2464,32375
33202,2354,32461
33289,2348,32504
33276,2347,32463
33164,2350,32391
32992,2328,32588
32876,2304,32543
32972,2323,32390
33117,2338,32424
33132,2356,32281
33076,2373,32487
33044,2402,32412
33061,2409,32278
33077,2396,32375
33028,2431,32145
32956,2439,32118
32901,2283,32161
32900,2289,32266
32924,2317,32384
32904,2332,32231
32900,2349,31997
32948,2362,32351
32905,2353,32125
32856,2338,32261
32768,2317,32133
32656,2293,32245
32544,2283,32309
32516,2322,32151
32572,2332,32207
32688,2352,31903
32840,2406,32124
32961,2458,32214
33056,2447,32218
33084,2425,32192
33030,2451,32073
32940,2292,32263
32736,2500,32037
32656,2336,31925
32688,2359,32279
32672,2473,32287
32688,2351,32060
32708,2458,32149
32732,2466,31940
32725,2335,32124
32724,2316,32252
32704,2290,32085
32608,2286,32111
32588,2321,31804
32640,2338,32041
32656,2404,32186
32685,2441,32247
32805,2440,32047
32944,2443,31791
32900,2433,32143
32794,2462,32140
32780,2461,32060
32764,2286,31821
32700,2290,32199
32800,2311,31939
32932,2565,32068
33080,2350,31856
33209,2523,32141
33116,2356,32135
32924,2337,31911
32824,2319,32037
32698,2295,31951
32680,2278,32181
32696,2286,31917
32792,2305,32025
32872,2341,31894
32964,2361,32038
33081,2362,31910
33044,2354,31990
32932,2336,31935
32804,2323,32004
32680,2299,31965
32586,2377,31892
32512,2398,32003
32568,2393,31623
32772,2403,32072
32908,2404,31960
33004,2436,31951
32960,2436,31847
32877,2398,31941
32820,2375,31952
32668,2339,31916
32598,2318,31948
32572,2307,31908
32636,2309,31868
32812,2322,31839
32937,2344,32055
33064,2465,31916
33112,2441,31974
33052,2424,31820
32932,2407,31927
32848,2390,31645
32704,2367,31973
32532,2351,31870
32549,2351,31629
32584,2344,32049
32724,2367,31912
32790,2434,31601
32732,2354,31893
32600,2333,31832
32524,2317,31913
32480,2298,31897
32464,2277,31927
32558,2283,31847
32656,2501,31932
32740,2433,31845
32846,2419,31836
33008,2399,31926
33100,2383,31861
32976,2352,31812
32804,2322,31932
32612,2295,31844
32512,2290,32045
32424,2293,31816
32472,2304,31916
32600,2335,31845
32860,2345,31820
33076,2357,31925
33150,2357,31871
33049,2346,31816
32942,2326,31905
32820,2534,31943
32681,2397,31938
32549,2379,31900
32556,2310,31934
32616,2480,31764
32664,2437,32025
32758,2436,31829
32788,2412,31945
32768,2368,31934
32765,2347,31814
32724,2321,31929
32680,2280,32103
32680,2289,31892
32716,2307,31644
32792,2321,31936
32900,2345,32012
32860,2353,31956
32724,2353,31812
32697,2339,32085
32733,2328,31921
32708,2292,31700
32677,2285,31956
32704,2295,32084
32732,2319,31857
32728,2340,31963
32708,2377,32004
32664,2378,31827
32597,2377,32015
32664,2368,31956
32725,2345,31991
32768,2329,31992
32760,2312,31938
32745,2330,32127
32752,2335,31974
32736,2372,31941
32652,2389,32017
32630,2404,31700
32600,2390,31996
32637,2359,32039
32720,2345,32023
32676,2322,31728
32628,2306,32005
32572,2317,32103
32508,2331,31892
32622,2338,32017
32764,2372,31682
32872,2383,31966
32828,2361,32017
32757,2340,32023
32652,2315,31942
32552,2298,32117
32448,2279,32028
32404,2386,31988
32516,2398,31963
32644,2407,32141
32808,2384,31879
32893,2382,32021
32876,2380,31993
32840,2394,31814
32772,2419,31932
32668,2293,32108
32624,2279,31876
32649,2281,32013
32688,2306,31950
32724,2422,32173
32880,2407,31967
32940,2392,32036
32944,2405,32032
32848,2399,31813
32694,2343,32175
32552,2319,31911
32440,2315,32060
32436,2316,31959
32480,2298,32132
32564,2450,32056
32668,2381,32222
32752,2370,32082
32824,2357,32236
32824,2367,32079
32773,2328,32178
32720,2297,32108
32761,2331,32236
32816,2311,32133
32840,2323,32059
32788,2318,32272
32732,2456,32148
32861,2413,32135
32988,2379,32233
32932,2375,32153
32772,2325,32097
32580,2296,32332
32468,2458,32148
32500,2380,31993
32644,2394,32221
32740,2401,32165
32752,2417,32233
32644,2394,32260
32556,2362,32252
32577,2337,32205
32604,2327,31893
32638,2401,32301
32564,2445,32308
32496,2282,32143
32484,2305,32244
32456,2422,32017
32488,2401,32415
32612,2406,32201
32694,2403,32263
32724,2425,32108
32737,2412,32417
32720,2402,32143
32696,2374,32273
32644,2337,32236
32648,2327,32159
32696,2319,32109
32821,2508,32399
32952,2454,32133
32980,2439,32279
32900,2413,32105
32712,2363,32345
32544,2340,32142
32440,2316,32020
32476,2281,32332
32530,2295,32253
32596,2318,31951
32652,2344,32295
32738,2361,32391
32801,2484,32237
32808,2423,32140
32708,2392,32396
32652,2372,32250
32622,2331,32109
32577,2338,32342
32608,2355,32387
32704,2361,32239
32840,2359,32223
32840,2379,32373
32728,2356,32293
32840,2342,32208
32932,2412,32300
32948,2381,32301
32884,2514,32093
32788,2411,32352
32704,2371,32197
32632,2353,32036
32488,2377,32423
32464,2387,32289
32512,2377,32316
32500,2371,32249
32476,2337,32468
32432,2293,32309
32412,2278,32255
32388,2282,32261
32416,2310,32423
32520,2339,32486
32688,2410,32349
32801,2439,32357
32876,2438,32130
32828,2429,32364
32808,2375,32229
32768,2333,32200
32628,2299,32501
32536,2318,32319
32505,2319,32397
32600,2348,32095
32757,2387,32493
32808,2398,32487
32796,2386,32417
32768,2339,32359
32704,2315,32556
32629,2399,32426
32577,2371,32396
32596,2353,32499
32600,2339,32454
32588,2348,32400
32648,2345,32489
32716,2363,32471
32766,2450,32169
32708,2383,32629
32737,2353,32486
32676,2306,32421
32612,2277,32556
32628,2404,32501
32654,2348,32559
32644,2354,32391
32780,2364,32340
32866,2386,32643
32870,2366,32412
32920,2353,32527
32928,2325,32533
32868,2405,32416
32740,2379,32550
32648,2368,32580
32636,2387,32644
32740,2363,32557
32808,2377,32471
33008,2410,32536
33093,2387,32709
32972,2372,32511
32832,2339,32548
32616,2296,32678
32444,2372,32511
32336,2317,32559
32349,2332,32496
32480,2352,32647
32677,2349,32448
32944,2359,32593
33148,2451,32519
33116,2407,32733
33000,2401,32485
32792,2389,32604
32600,2364,32572
32436,2388,32746
32404,2371,32559
32416,2362,32564
32516,2386,32525
32660,2407,32749
32764,2435,32647
32772,2399,32575
32752,2363,32284
32736,2332,32700
32772,2303,32564
32736,2284,32397
32796,2296,32663
32812,2534,32469
32752,2412,32299
32760,2401,32716
32832,2397,32620
32868,2392,32598
32804,2368,32287
32728,2336,32542
32720,2313,32676
32762,2286,32613
32829,2300,32551
32808,2319,32703
32760,2342,32577
32742,2360,32421
32708,2356,32713
32660,2341,32548
32624,2467,32623
32592,2404,32540
32588,2288,32593
32632,2284,32695
32736,2305,32623
32859,2415,32642
32972,2436,32457
32976,2414,32704
32924,2394,32575
32940,2370,32629
32892,2353,32468
32748,2333,32729
32596,2316,32588
32544,2311,32635
32583,2333,32460
32753,2347,32621
33113,2373,32625
33456,2380,32601
33592,2390,32503
33678,2362,32722
33692,2324,32575
33716,2306,32628
33476,2294,32493
33172,2285,32775
32924,2305,32495
32652,2351,32591
32350,2355,32299
31764,2363,32583
30996,2376,32710
30340,2362,32788
29788,2346,32584
29240,2327,32582
28809,2308,32667
28796,2318,32325
29105,2332,32697
29500,2342,32727
29873,2346,32647
30276,2360,32654
30852,2353,32629
31436,2416,32667
31788,2410,32677
32142,2348,32825
32456,2306,32676
32685,2304,32687
32928,2335,32575
33052,2347,32677
33112,2342,32748
33124,2379,32550
33176,2390,32682
33256,2361,32348
33286,2362,32647
33244,2332,32807
33204,2314,32559
33164,2347,32668
33212,2351,32657
33304,2387,32351
33360,2404,32716
33460,2392,32552
33414,2397,32655
33325,2407,32388
33356,2410,32636
33388,2399,32737
33393,2280,32514
33268,2279,32568
33232,2302,32601
33193,2314,32276
33240,2340,32584
33364,2355,32757
33413,2363,32703
33360,2340,32592
33341,2324,32285
33272,2329,32404
33164,2313,32639
33108,2310,32774
33113,2331,32518
33180,2349,32661
33264,2362,32304
33321,2389,32668
33304,2388,32768
33304,2350,32612
33273,2320,32372
33196,2297,32655
33132,2309,32797
33072,2307,32743
33016,2369,32719
33012,2391,32645
33056,2433,32676
33148,2460,32335
33220,2444,32716
33252,2440,32772
33230,2414,32631
33144,2364,32445
33132,2322,32797
33112,2367,32647
33124,2419,32591
33180,2321,32647
33189,2342,32393
33208,2371,32588
33248,2360,32775
33158,2341,32564
33033,2323,32615
32944,2305,32546
32904,2283,32720
32901,2286,32701
32953,2316,32487
33020,2320,32421
33112,2340,32741
33184,2379,32482
33212,2379,32592
33228,2428,32601
33120,2406,32509
33024,2393,32709
32942,2374,32501
32920,2357,32605
32974,2378,32263
33028,2409,32575
33093,2342,32740
33188,2438,32519
33248,2386,32574
33184,2372,32525
33108,2354,32652
33076,2323,32598
33048,2321,32533
32944,2309,32727
32952,2382,32739
32968,2313,32684
32952,2360,32471
33044,2386,32600
33148,2367,32531
33188,2352,32689
33180,2320,32584
33088,2398,32518
33028,2370,32615
33080,2369,32548
33188,2373,32543
33348,2381,32613
33440,2376,32521
33332,2371,32303
33292,2362,32642
33236,2344,32485
33084,2323,32500
32964,2303,32589
32928,2287,32376
32876,2282,32503
32896,2297,32412
33037,2321,32616
33112,2576,32455
33192,2359,32287
33173,2360,32552
33056,2345,32534
32913,2328,32353
32852,2304,32064
32750,2285,32422
32660,2441,32292
32640,2395,32361
32646,2423,32172
32752,2439,32357
32892,2446,32443
32892,2437,32251
32820,2427,32316
32764,2408,32228
32740,2401,32372
32636,2369,32206
32597,2379,32237
32696,2375,32253
32856,2364,32219
32912,2367,32188
32836,2395,32231
32796,2372,32281
32789,2339,32119
32752,2508,31892
32749,2393,32224
32760,2371,32221
32701,2375,32180
32692,2348,32119
32833,2384,32320
32892,2393,32055
32972,2419,32187
33040,2391,32162
33000,2368,32213
32972,2347,32133
32848,2338,31948
32645,2304,32249
32632,2293,32109
32760,2298,31932
32876,2314,32198
32972,2343,32066
33060,2443,32148
33112,2443,32078
32992,2432,32249
32872,2398,32009
32780,2436,32009
32732,2287,32110
32720,2406,31836
32840,2379,32228
33004,2348,32105
33132,2374,31983
33228,2431,32260
33272,2418,32119
33169,2428,31860
33012,2450,32178
32873,2302,32260
32684,2295,32101
32620,2293,32108
32665,2308,31808
32740,2323,32168
32828,2339,32201
32940,2359,32068
32972,2366,32118
32908,2343,32145
32780,2333,32257
32676,2307,32092
32568,2281,32117
32552,2285,32116
32616,2297,32169
32832,2317,32135
33052,2336,32045
33236,2363,32286
33252,2360,32036
33128,2345,32159
32988,2320,31847
32808,2308,32148
32670,2314,32303
32637,2303,32024
32737,2327,32147
32856,2339,32164
32928,2360,32236
32960,2368,32185
32964,2360,32188
32944,2353,32132
32917,2325,32356
32784,2304,32217
32677,2283,32240
32648,2447,32180
32660,2361,32135
32748,2355,32365
32836,2364,32199
32928,2385,32284
32976,2388,32286
32968,2368,32207
32868,2350,32324
32705,2321,32260
32546,2279,32415
32478,2282,32341
32528,2302,32121
32548,2527,32391
32608,2341,32484
32782,2358,32287
32992,2357,32420
33061,2342,32231
33008,2447,32515
32912,2387,32421
32780,2313,32553
32688,2300,32471
32772,2305,32389
32968,2312,32549
33056,2343,32495
33104,2357,32415
33088,2359,32675
33000,2491,32424
32916,2409,32543
32808,2369,32511
32668,2320,32535
32656,2321,32590
32692,2320,32580
32764,2343,32775
32781,2368,32610
32796,2389,32639
32736,2391,32594
32705,2350,32775
32700,2321,32663
32656,2315,32380
32608,2299,32698
32596,2278,32601
32614,2296,32476
32636,2528,32853
32764,2338,32692
32868,2453,32775
32936,2418,32790
32872,2419,32965
32824,2405,32703
32655,2362,32671
32560,2331,32912
32636,2355,32830
32780,2372,32870
32904,2366,32760
32960,2367,32980
32989,2388,32903
32893,2390,32773
32760,2361,33065
32624,2335,32940
32564,2312,32887
32516,2294,33113
32480,2283,32988
32512,2303,32885
32592,2314,33151
32708,2417,33031
32796,2479,33093
32792,2448,32965
32820,2565,33068
32824,2419,33105
32821,2386,32966
32796,2366,33075
32756,2362,33279
32829,2365,33140
32840,2403,33093
32872,2421,33212
32920,2421,33165
32828,2435,33158
32670,2374,33369
32577,2354,33219
32492,2300,33264
32440,2277,33097
32460,2500,32893
32612,2380,33390
32724,2527,33198
32764,2503,33193
32782,2446,33189
32768,2404,33064
32628,2365,33389
32480,2356,33287
32456,2338,33345
32428,2328,33337
32440,2341,33213
32448,2317,33015
32584,2320,33428
32688,2339,33287
32761,2363,33228
32844,2414,33256
32869,2350,33229
32872,2322,33300
32796,2458,33316
32773,2389,32980
32836,2373,33348
32892,2350,33167
32952,2344,33273
33036,2366,33398
33024,2354,33247
32980,2445,33309
32816,2443,33119
32570,2344,33247
32404,2315,33177
32380,2284,33164
32456,2359,33169
32592,2322,33124
32664,2344,33287
32756,2340,33180
32800,2496,33313
32846,2417,33148
32792,2373,33145
32704,2346,33101
32608,2307,33251
32620,2291,33095
32632,2281,33205
32724,2289,33028
32832,2311,32722
32876,2452,33196
33040,2429,33020
33039,2444,32998
32824,2432,33001
32688,2397,32858
32644,2328,32881
32633,2292,33045
32631,2283,32945
32704,2294,32904
32760,2317,32823
32784,2416,32853
32892,2395,33040
32920,2386,32884
32972,2341,32918
32960,2428,32725
32888,2373,32853
32772,2309,32828
32652,2279,32768
32540,2292,32768
32492,2314,32737
32524,2336,32758
32560,2369,32716
32636,2359,32580
32745,2341,32829
32820,2566,32637
32856,2469,32641
32716,2361,32613
32644,2332,32592
32636,2316,32608
32688,2333,32514
32740,2365,32685
32896,2361,32516
33125,2354,32432
33244,2339,32546
33256,2423,32470
33148,2391,32224
32997,2421,32367
32848,2374,32300
32805,2386,32388
32928,2415,32245
32988,2330,32439
33064,2360,32414
33024,2388,32186
32940,2384,32288
32844,2371,32105
32664,2338,32357
32624,2301,32155
32573,2305,32194
32588,2324,32263
32616,2314,32145
32660,2328,32082
32744,2349,32196
32776,2349,32078
32720,2340,31824
32548,2318,32023
32396,2308,32181
32453,2285,31921
32560,2296,32047
32696,2320,31886
32940,2314,32034
33089,2331,31960
33188,2353,31879
33193,2356,32093
33052,2465,31865
32958,2416,31908
32917,2429,31726
32824,2341,32023
32800,2327,31845
32812,2316,31747
32865,2338,31959
32972,2340,31821
33044,2371,31844
33029,2364,31793
33001,2343,31844
32880,2455,31809
32824,2305,31503
32780,2283,31791
32752,2278,31946
32776,2290,31769
32796,2416,31463
32884,2404,31885
32944,2423,31748
32848,2393,31775
32736,2369,31557
32640,2348,31804
32572,2348,31797
32572,2329,31733
32688,2327,31461
32724,2343,31743
32817,2332,31636
32792,2369,31727
32772,2374,31747
32738,2355,31601
32648,2339,31720
32664,2327,31808
32788,2512,31588
32774,2491,31724
32712,2376,31674
32708,2375,31822
32705,2359,31716
32688,2348,31655
32768,2367,31604
32816,2376,31701
32796,2345,31821
32752,2323,31597
32704,2305,31667
32636,2283,31867
32632,2370,31743
32664,2386,31680
32765,2379,31696
32776,2355,31724
32904,2391,31669
33084,2393,31801
33101,2371,31681
33012,2337,31943
32908,2302,31814
32772,2283,31765
32709,2340,31702
32748,2319,31525
32808,2328,32001
32840,2333,31841
32892,2442,31948
33017,2435,31879
32954,2401,31905
32836,2357,31612
32780,2343,31840
32700,2323,31952
32672,2357,32058
32776,2459,31956
32852,2314,31847
32857,2329,31957
32924,2357,31895
32944,2356,32070
32917,2504,31922
32864,2330,31634
32760,2308,31887
32741,2316,31885
32838,2313,32015
32956,2388,32103
33112,2304,32113
33337,2333,31940
33628,2385,31839
33836,2382,31841
33889,2421,31857
33712,2404,31957
33428,2306,31984
33077,2294,31997
32688,2308,31687
32198,2337,31900
31544,2346,32072
30940,2356,31837
30416,2391,31967
30004,2388,31903
29713,2370,32046
29648,2359,32040
29924,2326,31909
30136,2308,31757
30364,2306,32068
30730,2309,31812
31292,2344,31933
31972,2355,31956
32332,2395,31911
32548,2426,31868
32708,2475,31913
32856,2330,31556
32968,2303,31866
33024,2275,31901
33084,2276,31847
33200,2414,31623
33330,2310,31737
33422,2325,31871
33508,2342,31884
33632,2354,31660
33616,2345,31732
33496,2318,31727
33392,2298,31623
33328,2276,31751
33328,2270,31639
33404,2285,31584
33460,2399,31461
33508,2403,31558
33532,2425,31545
33512,2429,31568
33372,2402,31495
33212,2354,31401
33076,2327,31495
33008,2315,31421
33085,2313,31209
33252,2324,31485
33358,2340,31361
33448,2351,31300
33572,2376,31250
33632,2384,31160
33516,2373,31333
33340,2345,31301
33132,2333,31326
33032,2310,31232
32992,2278,31177
33016,2293,31308
33060,2306,31391
33141,2334,31149
33292,2447,30969
33380,2519,31349
33424,2346,31276
33380,2320,31235
33361,2316,31287
33305,2309,31262
33193,2370,30954
33160,2468,31272
33174,2301,31405
33256,2341,31116
33256,2377,31256
33301,2358,31239
33208,2337,31260
33047,2320,31238
32960,2300,30930
32961,2276,31135
32948,2275,31295
33012,2301,31310
33116,2333,31192
33181,2348,31175
33272,2377,31213
33316,2382,31204
33276,2372,31188
33184,2378,30975
33180,2357,31303
33132,2375,31021
33053,2277,31157
33048,2297,31141
33032,2313,31109
33056,2352,31311
33116,2372,31076
33172,2377,30855
33184,2378,31183
33070,2361,31201
32958,2347,31135
32864,2354,31196
32820,2350,31117
32879,2365,31260
32988,2383,31165
33036,2383,31201
33169,2385,31332
33304,2381,31193
33384,2371,31112
33344,2327,31416
33296,2305,31302
33252,2280,31224
33156,2375,31462
33064,2362,31332
32974,2375,31270
32892,2399,31389
32876,2405,31375
32832,2374,31544
32848,2351,31419
32868,2325,31412
32864,2329,31468
32772,2318,31446
32764,2295,31391
32805,2313,31637
32860,2333,31373
32908,2344,31511
32980,2374,31246
33020,2380,31684
33048,2363,31456
32972,2335,31538
32792,2312,31485
32660,2283,31708
32620,2301,31487
32640,2319,31578
32745,2327,31588
32748,2355,31622
32829,2370,31599
32921,2366,31525
32850,2345,31589
32796,2323,31614
32736,2522,31678
32656,2372,31564
32492,2353,31376
32548,2342,31782
32584,2395,31518
32597,2414,31647
32584,2465,31527
32536,2351,31713
32526,2350,31792
32568,2343,31557
32521,2329,31684
32428,2303,31526
32405,2305,31751
32457,2327,31564
32524,2380,31672
32652,2469,31705
32761,2357,31705
32812,2359,31652
32792,2345,31901
32736,2346,31759
32692,2398,31644
32624,2277,31705
32700,2313,31759
32792,2312,31823
32836,2327,31751
32848,2383,31970
32960,2439,31733
33108,2357,31837
33109,2341,31884
33133,2339,31800
33124,2307,32041
33000,2279,31930
32909,2280,31839
32980,2290,32040
33060,2327,32095
33104,2359,31864
33088,2386,31994
33036,2355,32112
32920,2341,31895
32821,2329,31750
32772,2306,32001
32633,2280,32196
32548,2282,32063
32604,2400,31965
32704,2381,32231
32844,2355,32105
32948,2373,32073
33024,2374,32259
32980,2384,32194
32844,2383,32071
32656,2375,32196
32668,2399,31918
32728,2277,32145
32780,2293,32384
32848,2309,32167
32872,2327,32245
32964,2354,32325
33017,2499,32197
32996,2455,31975
32992,2392,32400
32912,2337,32293
32772,2313,32309
32680,2311,32165
32701,2315,32324
32758,2325,32252
32868,2345,32480
32992,2391,32201
33072,2407,32336
32997,2415,32326
32844,2383,32307
32636,2407,32352
32528,2380,32097
32524,2368,32471
32576,2367,32319
32708,2390,32415
32830,2448,32430
32952,2355,32373
33088,2379,32599
33084,2366,32407
33009,2354,32489
32900,2368,32201
32804,2381,32469
32800,2275,32647
32884,2283,32398
32919,2301,32508
32864,2321,32681
32808,2356,32512
32856,2354,32439
32892,2347,32692
32884,2339,32454
32800,2340,32591
32708,2315,32546
32680,2310,32712
32700,2335,32607
32761,2345,32552
32741,2373,32767
32853,2405,32601
32922,2403,32335
32897,2431,32628
32816,2394,32700
32772,2393,32645
32656,2405,32665
32509,2275,32725
32461,2291,32848
32508,2339,32644
32574,2359,32747
32780,2385,32551
32880,2388,32805
32858,2363,32708
32748,2330,32775
32641,2311,32740
32624,2283,32911
32624,2282,32750
32644,2288,32826
32760,2304,32800
32813,2330,32996
32804,2376,32793
32789,2370,32879
32764,2376,32815
32664,2364,32966
32650,2343,32804
32660,2313,32591
32636,2322,32924
32644,2363,33063
32668,2400,32932
32740,2445,32958
32772,2351,32632
32820,2360,32940
32788,2367,33135
32708,2343,32919
32590,2368,33007
32492,2370,32850
32437,2373,33113
32460,2492,32976
32584,2462,33065
32640,2565,33180
32832,2350,32960
32996,2540,33088
33048,2432,33218
33037,2414,33116
32844,2404,33070
32668,2377,33197
32584,2282,33159
32680,2290,33124
32704,2415,33137
32616,2414,33191
32580,2444,33065
32560,2417,33295
32548,2407,33149
32548,2365,33191
32652,2338,33303
32696,2315,33172
32596,2295,33233
32608,2310,32913
32616,2340,33317
32612,2372,33140
32712,2466,33264
32864,2361,33165
32912,2347,33409
32848,2327,33191
32712,2310,32934
32596,2385,33318
32548,2279,33332
32488,2423,33238
32521,2500,33260
32556,2329,33213
32644,2356,33277
32712,2359,33380
32697,2345,33252
32700,2353,33266
32616,2334,33206
32488,2372,33265
32452,2417,33428
32537,2281,33300
32636,2307,33221
32832,2357,33287
32964,2397,32956
33012,2407,33371
32964,2419,33141
32876,2329,33261
32776,2310,32903
32652,2381,33358
32600,2282,33159
32601,2288,33253
32633,2313,33236
32672,2367,33237
32716,2422,33164
32813,2447,33314
32809,2437,33141
32784,2421,33183
32768,2399,32903
32724,2274,33215
32672,2295,33317
32732,2319,33232
32856,2390,33188
32924,2420,32847
32993,2475,33109
32992,2359,33270
32858,2436,33098
32804,2422,32821
32720,2448,33273
32613,2282,33018
32524,2275,33132
32518,2287,33041
32589,2305,33144
32733,2326,33057
32768,2376,33069
32748,2382,33026
32812,2367,33192
32800,2395,33048
32732,2382,32993
32620,2478,32673
32592,2393,33137
32644,2396,32935
32656,2522,32965
32636,2324,33071
32672,2349,32829
32728,2349,32951
32712,2340,32876
32652,2337,33039
32621,2313,32773
32620,2277,32881
32592,2278,32947
32662,2286,33030
32878,2303,32756
33008,2327,32867
33012,2354,32750
32960,2356,32977
32892,2371,32722
32688,2361,32821
32577,2344,32805
32536,2327,32734
32581,2341,32917
32672,2349,32681
32820,2380,32765
32941,2404,32694
33024,2473,32847
33020,2361,32888
32964,2349,32612
32912,2350,32716
32848,2306,32629
32760,2288,32869
32628,2470,32612
32605,2390,32353
32628,2401,32639
32637,2523,32814
32716,2350,32672
32888,2357,32666
32944,2351,32647
32869,2364,32735
32740,2340,32622
32624,2355,32654
32528,2361,32611
32508,2374,32661
32516,2396,32649
32641,2419,32544
32824,2461,32775
32944,2359,32538
32852,2341,32647
32678,2334,32591
32484,2404,32597
32448,2358,32560
32496,2335,32740
32576,2340,32625
32628,2367,32624
32710,2393,32727
32800,2408,32608
32820,2437,32284
32845,2413,32690
32737,2426,32553
32644,2407,32647
32572,2387,32514
32556,2281,32732
32544,2285,32628
32616,2304,32642
32656,2331,32553
32704,2351,32661
32775,2357,32652
32754,2343,32605
32720,2328,32753
32716,2308,32604
32728,2282,32585
32760,2430,32580
32687,2290,32428
32632,2405,32625
32708,2358,32586
32781,2378,32585
32857,2380,32353
32868,2397,32677
32932,2390,32532
32960,2370,32333
32916,2344,32743
32782,2304,32591
32652,2298,32591
32520,2307,32535
32572,2445,32478
32756,2442,32763
32900,2429,32577
32864,2381,32551
32780,2349,32513
32704,2309,32532
32756,2385,32557
32860,2329,32332
33024,2313,32725
33284,2322,32594
33533,2326,32622
33664,2561,32462
33757,2451,32589
33652,2405,32561
33432,2377,32532
33120,2362,32564
32768,2329,32549
32320,2307,32465
31664,2307,32228
31100,2331,32641
30609,2364,32444
30064,2385,32556
29504,2385,32457
29212,2359,32488
29196,2353,32533
29284,2347,32381
29460,2333,32623
29753,2323,32445
30266,2372,32500
31008,2364,32584
31696,2396,32389
32157,2461,32504
32512,2364,32192
32788,2355,32489
32918,2332,32604
32948,2325,32350
32988,2319,32480
33020,2312,32412
33049,2329,32617
33148,2370,32328
33364,2414,32457
33538,2465,32228
33577,2362,32568
33560,2351,32383
33436,2337,32428
33232,2344,32074
32988,2308,32407
32900,2300,32455
33096,2340,32263
33228,2391,32381
33356,2482,32032
33448,2365,32175
33500,2380,32352
33456,2429,32456
33348,2429,32270
33238,2467,32343
33124,2285,32005
33068,2285,32270
33230,2323,32364
33476,2546,32448
33572,2335,32254
33612,2386,32284
33516,2388,32372
33308,2372,32288
33088,2377,32476
32984,2385,32526
32960,2399,32391
33021,2278,32425
33038,2293,32295
33116,2333,32397
33156,2359,32390
33262,2378,32318
33324,2405,32357
33356,2412,32551
33320,2378,32297
33256,2368,32437
33216,2389,32465
33072,2289,32372
32957,2294,32596
32900,2330,32502
32840,2364,32347
32906,2402,32469
32972,2442,32452
33056,2542,32412
33108,2354,32487
33120,2340,32590
33089,2352,32623
33012,2288,32596
33000,2310,32625
33014,2338,32542
33060,2357,32383
33124,2423,32449
33217,2441,32484
33176,2503,32349
33224,2340,32519
33240,2323,32621
33157,2442,32429
33036,2416,32482
33036,2407,32480
33064,2434,32593
33132,2423,32461
33164,2544,32510
33216,2362,32485
33194,2367,32186
33100,2338,32530
33024,2329,32636
32964,2295,32495
32928,2306,32169
32884,2331,32520
32832,2352,32391
32948,2350,32236
33040,2389,32656
33100,2398,32384
33082,2415,32515
33060,2417,32215
33024,2402,32573
32912,2389,32665
32904,2295,32391
32934,2338,32460
33052,2358,32560
33256,2388,32546
33407,2405,32457
33484,2393,32400
33376,2382,32519
33104,2371,32519
32897,2343,32631
32728,2325,32524
32689,2315,32359
32744,2318,32678
32876,2349,32478
33006,2372,32508
33216,2398,32452
33392,2388,32536
33340,2393,32469
33165,2363,32252
32976,2367,32562
32812,2349,32532
32724,2345,32479
32745,2340,32159
32848,2369,32505
32988,2400,32528
33077,2393,32477
33148,2389,32323
33064,2411,32437
32982,2404,32437
32852,2385,32471
32696,2328,32538
32528,2327,32383
32464,2310,32228
32508,2319,32544
32584,2362,32572
32656,2387,32384
32712,2405,32434
32709,2413,32365
32676,2388,32474
32586,2390,32423
32452,2380,32406
32416,2386,32398
32464,2398,32435
32632,2386,32377
32720,2393,32357
32752,2437,32420
32756,2427,32346
32748,2438,32538
32784,2389,32405
32856,2355,32401
32840,2370,32424
32780,2363,32100
32764,2385,32381
32757,2380,32567
32789,2419,32478
32812,2456,32397
32864,2452,32437
32852,2430,32140
32784,2404,32431
32714,2396,32593
32632,2334,32329
32576,2332,32471
32572,2359,32485
32648,2407,32164
32768,2412,32470
32900,2448,32639
32928,2426,32380
32879,2394,32165
32744,2372,32489
32584,2354,32644
32500,2341,32644
32540,2328,32370
32596,2341,32517
32712,2345,32527
32832,2372,32653
32948,2402,32572
33057,2430,32466
32936,2455,32528
32736,2354,32544
32640,2334,32542
32553,2323,32285
32508,2314,32477
32596,2308,32665
32736,2329,32648
32780,2356,32556
32838,2391,32485
32877,2403,32453
32824,2382,32566
32684,2357,32548
32572,2348,32297
32453,2342,32489
32448,2334,32535
32476,2347,32598
32528,2351,32695
32608,2411,32687
32700,2472,32688
32840,2557,32653
32880,2370,32643
32868,2355,32686
32813,2351,32692
32700,2331,32592
32612,2382,32719
32590,2313,32636
32592,2328,32580
32669,2379,32596
32812,2399,32612
32920,2442,32579
32988,2477,32517
33020,2349,32447
32929,2352,32252
32804,2332,32483
32776,2324,32589
32736,2344,32293
32728,2352,32588
32748,2402,32624
32736,2432,32620
32805,2525,32641
32808,2374,32644
32812,2360,32633
32740,2351,32647
32644,2340,32629
32688,2327,32660
32672,2347,32668
32696,2373,32636
32724,2405,32431
32756,2472,32594
32792,2379,32636
32833,2383,32593
32776,2387,32537
32728,2359,32532
32668,2386,32377
32636,2390,32516
32728,2418,32661
32757,2331,32524
32808,2349,32732
32876,2379,32677
32916,2383,32652
32807,2371,32600
32716,2359,32839
32669,2371,32602
32680,2346,32663
32652,2351,32695
32672,2381,32675
32752,2419,32551
32846,2391,32630
32908,2372,32736
32872,2376,32604
32852,2372,32699
32864,2457,32726
32804,2334,32817
32684,2308,32594
32581,2312,32688
32620,2323,32373
32720,2364,32678
32832,2385,32754
32864,2394,32668
32900,2382,32676
32896,2387,32708
32788,2376,32665
32656,2353,32340
32556,2343,32639
32540,2334,32794
32641,2319,32679
32784,2335,32516
32904,2353,32831
32885,2376,32614
32832,2383,32676
32742,2535,32485
32628,2479,32759
32578,2340,32695
32560,2312,32632
32584,2305,32473
32656,2329,32631
32780,2360,32799
32852,2359,32606
32932,2393,32298
32992,2394,32631
32904,2389,32725
32708,2375,32570
32560,2355,32604
32520,2326,32412
32480,2337,32461
32420,2351,32699
32456,2357,32487
32640,2390,32519
32780,2457,32540
32872,2500,32540
32824,2378,32524
32724,2365,32487
32608,2340,32424
32548,2440,32571
32493,2535,32352
32508,2317,32469
32564,2445,32372
32652,2356,32391
32781,2382,32525
32836,2404,32277
32864,2398,32408
32868,2387,32067
32800,2372,32293
32712,2353,32438
32592,2340,32390
32484,2337,32341
32416,2365,32353
32504,2402,32346
32664,2460,32058
32768,2470,32425
32864,2466,32268
32905,2465,32272
32860,2432,32336
32777,2317,32108
32716,2306,32335
32712,2317,32430
32729,2334,32263
32772,2381,32300
32760,2415,32289
32768,2424,32425
32788,2410,32200
32768,2427,32288
32788,2408,32066
32853,2361,32421
32832,2365,32183
32780,2411,32311
32716,2479,32289
32684,2359,32284
32677,2407,32456
32748,2419,32220
32804,2417,32332
32836,2393,32252
32760,2374,32447
32586,2369,32245
32404,2386,32305
32352,2463,32093
32400,2336,32332
32476,2353,32220
32592,2383,32231
32720,2397,32292
32792,2396,32356
32728,2370,32303
32656,2355,32212
32600,2326,32342
32577,2315,32292
32592,2321,32245
32652,2335,32401
32736,2360,32222
32788,2401,32247
32812,2400,31932
32788,2405,32338
32684,2402,32390
32677,2369,32204
32640,2344,31908
32628,2337,32181
32676,2370,32279
32728,2415,32285
32772,2442,32214
32828,2484,32047
32820,2466,32324
32832,2412,32219
32857,2403,32143
32812,2372,32164
32717,2358,31892
32606,2339,32261
32621,2345,32204
32700,2363,32143
32840,2389,32166
32952,2470,32092
32960,2494,32244
32918,2392,32047
32877,2386,32157
32788,2367,32143
32684,2335,32199
32596,2352,32260
32640,2348,32063
32736,2374,32135
32841,2446,32084
32912,2461,32287
32928,2455,32096
32840,2443,31817
32782,2413,32289
32676,2401,32076
32550,2391,32145
32528,2372,32032
32540,2410,32193
32541,2425,32119
32568,2432,32124
32676,2437,32039
32800,2423,32203
32840,2429,31982
32844,2417,32127
32800,2435,31824
32676,2431,32036
32600,2417,32135
32568,2537,32016
32636,2343,32109
32772,2365,31844
32928,2395,32009
33074,2433,32122
33008,2411,32058
32876,2401,32108
32708,2390,31954
32500,2365,32132
32364,2352,32221
32380,2364,31965
32544,2369,32092
32773,2419,32101
32868,2490,31762
32872,2403,32047
32833,2397,32239
32712,2405,31977
32681,2402,32070
32584,2416,32093
32457,2326,32111
32472,2338,32065
32652,2379,31983
32892,2416,32140
33000,2491,32037
33006,2403,32096
32960,2428,31780
32892,2408,32015
32800,2409,32175
32649,2404,32192
32568,2451,31956
32541,2329,32060
32564,2383,32100
32688,2416,31751
32820,2479,32012
32912,2459,32175
32909,2457,31936
32848,2467,32060
32716,2480,31740
32644,2361,31998
32584,2357,32060
32656,2427,32128
32860,2350,32229
33084,2370,32103
33380,2428,31953
33620,2425,32079
33720,2421,32092
33704,2425,32020
33568,2531,31935
33350,2339,32075
33140,2334,31764
32924,2375,31980
32613,2398,32065
31961,2489,32019
31177,2407,32000
30390,2443,32083
29732,2426,32238
29168,2425,32092
28856,2443,32066
28927,2345,32120
29081,2361,31783
29393,2364,31865
29764,2405,32043
30200,2449,32165
30789,2490,32252
31424,2415,32064
31832,2406,32092
32197,2386,32140
32500,2364,32106
32708,2352,31806
32824,2367,31989
32928,2396,32200
32996,2466,32237
33136,2382,32109
33245,2409,32149
33316,2412,31919
33292,2591,32247
33324,2391,32031
33333,2379,32096
33270,2363,32105
33228,2413,32041
33268,2442,32112
33348,2360,32135
33412,2393,31840
33460,2438,31943
33464,2502,32025
33524,2413,32134
33600,2431,32260
33556,2397,31989
33440,2423,32087
33276,2523,32135
33164,2353,32109
33136,2404,31810
33184,2475,31820
33293,2418,32066
33424,2427,32088
33396,2440,32169
33292,2472,32247
33236,2502,32358
33180,2350,32245
33120,2347,32111
33148,2391,32191
33196,2368,32207
33244,2420,32276
33296,2515,32270
33404,2423,32300
33420,2434,32033
33358,2426,32224
33228,2454,32205
33076,2467,32255
32952,2346,32306
32961,2366,32497
33028,2384,32294
33204,2403,32336
33412,2452,32297
33452,2457,32432
33425,2465,32460
33364,2469,32286
33316,2502,32356
33232,2364,32391
33144,2366,32060
33140,2402,32313
33220,2446,32544
33280,2474,32316
33308,2519,32399
33288,2533,32313
33313,2426,32359
33320,2402,32479
33240,2390,32361
33181,2364,32108
33104,2369,32316
33108,2389,32449
33172,2494,32439
33196,2393,32527
33220,2447,32539
33200,2512,32539
33160,2546,32375
33146,2407,32317
33132,2411,32391
33100,2407,32420
33080,2436,32341
33076,2497,32481
33192,2376,32591
33236,2404,32401
33200,2448,32454
33172,2478,32373
33110,2509,32628
33112,2543,32388
33068,2391,32471
33024,2391,32431
33012,2417,32580
33057,2455,32382
33120,2379,32531
33132,2389,32432
33136,2449,32577
33080,2483,32519
33024,2525,32508
32950,2409,32556
32912,2414,32341
32840,2458,32478
32864,2352,32647
33048,2384,32475
33168,2417,32559
33208,2458,32481
33269,2494,32539
33308,2529,32556
33224,2539,32384
33068,2635,32687
33025,2398,32479
33028,2379,32548
33052,2388,32442
33016,2403,32642
33012,2414,32404
33092,2442,32519
33144,2482,32444
33172,2489,32619
33096,2496,32453
32936,2457,32285
32752,2427,32597
32684,2401,32447
32736,2390,32372
32804,2407,32558
32880,2451,32425
32992,2406,32409
33076,2424,32383
33220,2437,32558
33248,2436,32348
33020,2415,32165
32816,2395,32423
32708,2378,32519
32544,2380,32226
32512,2413,32341
32620,2455,32326
32724,2500,32140
32815,2435,32251
32872,2475,32343
32862,2459,32393
32800,2474,32232
32772,2548,32303
32656,2375,31967
32544,2377,32203
32540,2401,32351
32628,2468,32175
32748,2500,32245
32831,2535,31912
33040,2447,32151
33143,2446,32277
33088,2450,32359
32990,2478,32241
32865,2383,32085
32745,2384,32149
32712,2409,32167
32732,2426,32101
32769,2449,32202
32840,2539,32244
32912,2691,32292
32916,2587,32104
32937,2534,31961
32928,2637,32133
32772,2608,32258
32646,2372,32149
32620,2383,32100
32721,2403,31820
32846,2419,32225
32868,2446,32044
32824,2569,31980
32810,2451,32199
32774,2430,31940
32696,2434,32052
32622,2422,32024
32608,2423,32076
32688,2413,32013
32868,2423,31921
32972,2468,32143
32984,2526,31923
32992,2538,31990
32917,2550,31916
32812,2430,32076
32728,2437,32069
32628,2432,31834
32533,2449,31969
32540,2475,31908
32624,2495,32015
32788,2511,31916
32884,2552,31623
33032,2461,31852
33088,2462,31988
32980,2456,31870
32844,2455,31913
32724,2447,31652
32664,2473,31876
32686,2390,31952
32804,2411,32003
32916,2462,32033
32884,2490,31888
32800,2538,31780
32745,2578,31879
32716,2444,31632
32660,2434,31839
32700,2432,31957
32660,2484,32018
32632,2496,31840
32724,2498,31780
32842,2432,31836
32944,2473,31935
33056,2481,31799
33065,2491,31844
32999,2459,31772
32900,2454,31977
32676,2429,31765
32536,2444,31849
32636,2469,31628
32700,2504,31983
32708,2521,31719
32752,2551,31837
32897,2478,31822
32940,2587,31780
32968,2590,31733
32984,2434,31764
32908,2411,31785
32754,2402,31719
32621,2404,31936
32704,2437,31756
32816,2454,31796
32932,2496,31773
33041,2500,31524
33040,2545,31678
32916,2540,31893
32756,2534,31701
32588,2499,31740
32504,2494,31681
32516,2582,31809
32652,2422,31908
32800,2466,31865
32848,2580,31609
32896,2504,31615
32916,2541,31618
32824,2569,31709
32676,2437,31741
32556,2411,31810
32540,2403,31605
32644,2431,31695
32764,2452,31727
32844,2483,31697
32848,2499,31639
32857,2531,31724
32832,2551,31552
32756,2562,31639
32760,2449,31648
32685,2421,31799
32647,2417,31841
32636,2446,31872
32736,2511,31653
32848,2449,31758
32840,2487,31767
32888,2509,31769
32835,2525,31877
32800,2565,31853
32884,2579,31857
33045,2423,31852
32964,2417,31649
32812,2432,31727
32860,2471,31751
32800,2482,31465
32704,2507,31802
32720,2526,31844
32732,2516,31679
32668,2511,31645
32632,2535,31718
32716,2571,31767
32804,2415,31580
32876,2431,31719
32928,2468,31901
32904,2499,31809
32844,2547,31911
32748,2613,31804
32624,2497,31664
32512,2486,31751
32472,2488,31767
32424,2499,31569
32401,2508,31801
32425,2516,31829
32456,2546,31751
32500,2535,31705
32656,2561,31791
32789,2574,31756
32784,2592,31733
32748,2583,31748
32704,2474,31870
32700,2454,31641
32674,2462,31781
32668,2465,31571
32628,2486,31801
32630,2508,31866
32727,2549,31637
32865,2553,31780
32878,2553,31556
32848,2594,31724
32790,2493,31935
32664,2491,31772
32576,2491,31800
32536,2509,31473
32560,2578,31728
32600,2499,31742
32668,2544,31967
32808,2573,31854
32848,2618,31688
32760,2745,31783
32672,2499,31839
32704,2475,31728
32702,2499,31797
32748,2507,31939
32776,2513,31790
32852,2556,31860
32901,2607,31572
32844,2637,31836
32696,2673,32042
32548,2524,31837
32485,2530,31892
32493,2509,31932
32566,2527,31637
32720,2486,31949
32856,2499,31932
32925,2534,31954
32926,2564,31636
32992,2575,31861
32976,2577,32085
32892,2620,32101
32792,2619,31913
32740,2486,31956
32676,2505,31969
32672,2515,31973
32822,2553,31847
33016,2528,31905
33204,2551,32006
33296,2565,32092
33192,2578,32069
32976,2560,31905
32800,2539,31947
32660,2521,32033
32593,2521,31968
32580,2573,31920
32658,2592,31761
32712,2628,31908
32704,2650,31967
32692,2653,31878
32752,2648,31932
32816,2604,31609
32876,2667,31763
32908,2495,31890
32844,2512,31864
32805,2527,31999
32758,2546,32036
32708,2632,31981
32748,2555,31751
32800,2604,31847
32793,2643,31868
32749,2540,31543
32700,2533,31775
32622,2516,31991
32528,2522,31845
32496,2575,31777
32656,2624,31719
32846,2535,31740
32916,2561,31812
32924,2575,31780
32923,2569,31716
32836,2568,31920
32740,2570,31663
32636,2552,31774
32541,2531,31628
32548,2592,31717
32592,2735,31813
32708,2531,31696
32852,2568,31736
32916,2607,31429
32936,2612,31636
32972,2780,31663
32917,2537,31828
32836,2511,31622
32736,2495,31637
32701,2514,31687
32740,2554,31583
32920,2566,31712
33020,2624,31764
33068,2697,31711
33072,2575,31604
32956,2550,31631
32840,2567,31317
32732,2577,31436
32642,2501,31505
32652,2536,31529
32728,2557,31689
32773,2575,31572
32876,2606,31573
32954,2616,31302
33040,2595,31505
33028,2611,31717
32928,2612,31460
32788,2656,31549
32680,2500,31525
32600,2537,31463
32524,2547,31532
32641,2589,31680
32788,2619,31383
32920,2584,31394
32972,2596,31454
32972,2595,31516
32868,2575,31367
32712,2589,31517
32560,2590,31605
32464,2613,31444
32557,2529,31336
32757,2555,31412
32988,2594,31449
33156,2617,31369
33100,2610,31589
32972,2626,31312
32836,2622,31416
32685,2589,31440
32536,2585,31344
32474,2610,31406
32568,2602,31325
32720,2715,31428
32876,2578,31428
32924,2592,31405
32964,2591,31324
32840,2577,31277
32676,2558,31383
32513,2542,31300
32448,2561,31483
32524,2607,31413
32668,2632,31333
32840,2553,31366
33016,2585,31346
33064,2626,31365
33048,2822,31345
33040,2589,31296
32916,2603,31341
32832,2581,31053
32796,2572,31258
32796,2603,31426
32856,2635,31295
32936,2553,31270
32928,2617,31290
32920,2641,31284
32896,2678,31279
32948,2573,31239
32992,2577,31268
33118,2606,31259
33336,2612,31263
33620,2516,31258
33788,2537,31221
33858,2555,31088
33826,2583,31225
33684,2596,31357
33472,2592,31166
33096,2581,31160
32652,2578,31220
32008,2557,31228
31160,2579,31235
30340,2531,31239
29764,2567,31234
29260,2618,31231
28848,2590,31215
28714,2616,30955
28840,2628,31177
29016,2646,31252
29268,2655,31347
29760,2534,31108
30493,2524,31212
31320,2557,31200
31944,2573,30945
32545,2636,31032
32976,2639,31239
33216,2674,31308
33264,2595,31337
33156,2585,31063
33021,2560,31200
32936,2633,31187
32924,2560,31125
32961,2576,31183
33028,2603,30949
33168,2660,31231
33340,2722,31071
33484,2603,31157
33548,2604,30993
33440,2585,31287
33340,2673,31122
33324,2622,31035
33324,2555,31083
33296,2571,31101
33316,2590,31035
33356,2599,31223
33384,2621,30997
33412,2638,31094
33486,2643,30959
33541,2649,31110
33492,2631,31132
33396,2593,31084
33289,2537,31092
33244,2542,30905
33248,2555,31036
33240,2588,31229
33328,2636,30980
33429,2653,31101
33392,2639,30813
33329,2630,31152
33241,2613,31220
33212,2642,31153
33158,2543,31012
33096,2547,31089
33124,2562,31025
33204,2591,31023
33360,2645,31205
33476,2639,31096
33480,2655,31030
33344,2699,31055
33124,2577,31103
33024,2569,31097
32964,2571,31014
32980,2579,31033
33156,2601,31111
33280,2623,31037
33356,2706,31074
33384,2630,31076
33340,2627,30991
33258,2606,31178
33206,2590,31173
33088,2596,30912
33024,2579,30992
33004,2596,30761
33049,2632,31076
33092,2698,31069
33177,2618,30983
33308,2626,30858
33352,2621,31084
33264,2603,30950
33200,2588,30660
33108,2572,30974
33004,2565,30943
32957,2562,30967
32992,2578,30872
33048,2593,31041
33157,2613,30896
33312,2630,30909
33412,2625,30845
33420,2618,30965
33340,2622,30956
33258,2597,30925
33148,2575,30841
33112,2582,31042
33128,2623,30808
33132,2660,30901
33152,2718,30741
33236,2723,31037
33276,2700,30852
33240,2697,30868
33176,2718,30804
33088,2574,31028
33016,2763,30841
32924,2737,30778
32852,2579,30948
32932,2608,30719
33052,2654,30828
33212,2642,30983
33312,2634,30828
33272,2616,30975
33216,2596,30774
33142,2576,30548
33096,2562,30816
33076,2566,30773
33056,2581,30778
33020,2604,30691
33104,2627,30897
33224,2649,30724
33296,2644,30592
33229,2629,30831
33152,2612,30687
33004,2584,30445
32897,2574,30857
32840,2595,30664
32833,2623,30419
32873,2683,30659
32932,2678,30636
32964,2693,30583
32988,2692,30510
33009,2646,30375
32936,2617,30604
32800,2581,30629
32644,2586,30540
32544,2584,30639
32580,2586,30597
32660,2614,30727
32776,2725,30553
32852,2717,30444
32848,2712,30680
32780,2685,30543
32661,2693,30279
32576,2655,30674
32504,2652,30436
32556,2659,30533
32772,2665,30633
32924,2750,30461
33032,2781,30273
33136,2878,30556
33120,2653,30528
32972,2633,30514
32764,2614,30428
32568,2683,30386
32472,2646,30493
32524,2667,30486
32620,2669,30385
32752,2656,30196
32830,2673,30633
32900,2689,30485
32976,2646,30551
33041,2626,30479
32948,2622,30177
32856,2607,30463
32764,2587,30357
32712,2598,30153
32804,2619,30524
32988,2650,30416
33156,2663,30345
33216,2685,30574
33157,2657,30426
33112,2632,30343
33078,2614,30404
32972,2592,30388
32884,2722,30365
32720,2692,30251
32649,2599,30382
32636,2620,30279
32692,2647,30502
32780,2659,30348
32736,2658,30260
32700,2822,30279
32652,2840,30332
32628,2684,30222
32632,2661,30450
32608,2667,30172
32664,2698,30274
32808,2709,30265
32997,2746,30404
33064,2756,30125
33036,2762,30268
32872,2645,29968
32688,2622,30159
32621,2596,30369
32560,2606,30317
32576,2619,30119
32740,2662,30200
32800,2800,30229
32908,2655,30204
33021,2667,30124
33088,2688,30141
33088,2680,30350
33044,2659,30196
32932,2619,30147
32829,2610,30117
32736,2616,29913
32668,2647,30106
32696,2667,30235
32688,2702,30071
32694,2759,30191
32692,2841,30103
32640,2805,30205
32608,2807,30156
32596,2607,29892
32585,2592,30292
32541,2600,30165
32620,2615,29886
32724,2629,30257
32876,2657,30109
32956,2890,29981
33076,2669,30262
33045,2685,30319
32960,2687,30135
32872,2690,30161
32820,2675,29908
32760,2661,30324
32796,2694,30065
32868,2726,30196
32982,2825,29901
33072,2776,30124
33028,2677,30308
33000,2660,30326
32936,2640,30189
32856,2654,30143
32745,2638,30151
32644,2639,30199
32480,2660,30118
32456,2686,30309
32614,2701,30188
32808,2719,30113
32892,2709,30364
32852,2701,30224
32745,2680,30204
32608,2647,30129
32500,2624,30367
32504,2651,30100
32584,2663,30239
32728,2676,29981
32832,2720,30281
32992,2794,30373
33084,2751,30196
33028,2762,30241
32960,2775,30176
32864,2634,30364
32736,2619,30223
32652,2626,30265
32612,2654,29991
32576,2693,30265
32580,2709,30353
32592,2749,30146
32604,2827,30237
32542,2684,30193
32426,2683,30296
32388,2672,30031
32404,2671,30284
32492,2723,30349
32612,2847,30360
32744,2661,30238
32884,2692,30341
32852,2701,30359
32744,2808,30262
32704,2798,30249
32652,2669,30298
32505,2674,30467
32412,2652,30297
32416,2670,30343
32556,2735,30272
32688,2786,30414
32820,2787,30293
32928,2713,30350
32956,2737,30360
32876,2739,30384
32760,2755,30356
32656,2785,30300
32628,2658,30303
32648,2673,30484
32704,2721,30268
32737,2738,30359
32792,2827,30293
32960,2718,30428
33020,2747,30386
33046,2763,30270
33032,2673,30367
32908,2670,30398
32641,2704,30393
32520,2752,30301
32532,2659,30375
32588,2690,30504
32592,2727,30276
32656,2791,30400
32668,2804,30315
32608,2692,30447
32537,2699,30537
32421,2736,30466
32312,2639,30301
32276,2656,30428
32344,2692,30367
32446,2745,30586
32588,2808,30409
32724,2720,30417
32816,2737,30444
32844,2730,30511
32844,2779,30405
32768,2656,30485
32676,2672,30485
32628,2720,30470
32736,2663,30471
32864,2691,30196
32916,2741,30415
33020,2770,30471
32998,2720,30441
32904,2701,30593
32748,2710,30556
32568,2727,30418
32408,2736,30530
32384,2746,30513
32428,2664,30583
32472,2681,30547
32556,2721,30402
32704,2752,30557
32772,2772,30637
32737,2824,30699
32729,2684,30457
32680,2680,30532
32568,2677,30293
32477,2668,30720
32536,2693,30488
32616,2709,30570
32600,2790,30582
32628,2725,30510
32670,2755,30546
32664,2743,30708
32608,2746,30501
32624,2750,30592
32640,2652,30591
32685,2661,30505
32694,2681,30693
32780,2707,30551
32832,2736,30599
32924,2768,30582
32908,2795,30692
32800,2794,30583
32680,2777,30396
32568,2661,30535
32524,2649,30727
32534,2672,30450
32736,2692,30607
32936,2724,30512
33040,2798,30727
33046,2828,30559
33024,2804,30336
32876,2796,30502
32704,2871,30757
32572,2663,30471
32444,2654,30595
32404,2678,30590
32525,2698,30297
32631,2740,30623
32688,2799,30599
32720,2841,30575
32692,2728,30614
32544,2727,30591
32477,2724,30520
32404,2700,30688
32365,2678,30575
32444,2693,30432
32534,2728,30693
32645,2783,30545
32796,2938,30541
32788,2736,30599
32712,2755,30330
32768,2732,30455
32680,2744,30591
32572,2723,30685
32616,2747,30526
32628,2662,30598
32668,2680,30455
32764,2800,30692
32836,2922,30540
32928,2736,30563
32937,2739,30492
32865,2750,30566
32773,2749,30701
32652,2724,30559
32492,2698,30287
32496,2693,30702
32620,2698,30447
32804,2711,30573
32952,2729,30518
33000,2737,30573
32936,2737,30596
32844,2719,30524
32748,2697,30748
32614,2676,30581
32528,2660,30597
32508,2824,30717
32669,2774,30599
32836,2789,30484
32972,2802,30731
33001,2949,30655
32848,2735,30520
32728,2743,30589
32604,2725,30630
32556,2708,30617
32525,2728,30530
32600,2817,30649
32616,2686,30788
32697,2712,30553
32824,2755,30623
32908,2789,30663
32892,2790,30612
32848,2815,30804
32756,2817,30572
32732,2778,30372
32784,2752,30748
32745,2753,30704
32812,2727,30671
32872,2732,30591
32877,2773,30812
32884,2783,30639
32820,2753,30557
32708,2736,30829
32644,2714,30617
32568,2688,30680
32558,2679,30657
32536,2683,30753
32568,2696,30639
32680,2715,30661
32796,2744,30808
32840,2755,30615
32856,2750,30653
32868,2733,30665
32816,2716,30599
32772,2698,30811
32688,2679,30625
32668,2681,30389
32688,2699,30763
32784,2723,30613
32956,2745,30678
33048,2756,30748
33026,2851,30669
32892,2891,30382
32764,2721,30652
32669,2694,30563
32624,2682,30690
32636,2686,30764
32641,2702,30665
32748,2726,30586
32964,2755,30604
33165,2869,30402
33276,2852,30789
33309,2844,30687
33364,2803,30820
33412,2768,30644
33420,2727,30599
33416,2734,30820
33540,2768,30662
33509,2785,30607
33400,2832,30753
33128,2832,30679
32761,2769,30617
32308,2750,30599
31600,2735,30703
30789,2713,30712
30060,2701,30730
29433,2711,30688
28908,2739,30740
28704,2780,30727
28832,2864,30551
29152,2774,30788
29548,2788,30670
29940,2784,30764
30404,2767,30727
31064,2733,30751
31626,2721,30762
32076,2756,30701
32472,2797,30901
32832,2824,30749
33140,2800,30688
33264,2825,30827
33284,2829,30772
33245,2796,30925
33128,2790,30785
33088,2877,30702
33064,2696,30883
33078,2705,30789
33216,2737,30685
33324,2781,30840
33421,2801,30631
33447,2819,30477
33465,2813,30908
33484,2824,30696
33441,2778,30683
33348,2796,30905
33316,2795,30695
33345,2804,30530
33424,2899,30883
33452,2748,30687
33472,2777,30553
33480,2791,30831
33400,2787,30605
33312,2793,30724
33216,2769,30721
33140,2759,30667
33117,2804,30856
33220,2871,30713
33305,2735,30752
33370,2780,30684
33468,2813,30909
33520,2888,30646
33428,2794,30797
33312,2773,30713
33132,2871,30726
32952,2777,30757
32884,2794,30953
32920,2940,30696
33032,2737,30824
33184,2765,30751
33284,2816,30983
33346,2857,30838
33336,2879,30825
33252,2875,30839
33121,2767,30821
32973,2735,30922
32892,2747,30748
32864,2750,30539
32924,2775,30940
33028,2810,30709
33116,2864,30845
33248,2835,30895
33237,2829,30829
33120,2806,30909
33128,2785,30764
33192,2788,30840
33164,2818,30611
33152,2855,30962
33224,2746,30777
33288,2760,30591
33304,2786,30761
33350,2800,30818
33276,2807,30747
33128,2785,30702
33016,2765,30777
32824,2748,30823
32720,2748,30743
32740,2755,30775
32830,2781,30780
32992,2795,30903
33160,2825,30769
33276,2853,30605
33256,2849,30912
33256,2820,30620
33216,2823,30769
33144,2818,30688
33100,2824,30870
33089,2830,30663
33121,2827,30748
33160,2846,30753
33173,2872,30632
33173,2845,30599
33244,2835,30831
33153,2827,30685
33092,2801,30727
33048,2778,30660
32936,2759,30861
32924,2762,30662
32982,2788,30412
33088,2803,30756
33168,2825,30663
33216,2837,30559
33216,2853,30807
33168,2821,30638
33092,2791,30405
32972,2761,30807
32862,2741,30653
32948,2743,30550
33044,2760,30652
33040,2776,30628
33056,2805,30517
33040,2824,30727
33008,2826,30461
32916,2810,30556
32860,2804,30501
32778,2789,30676
32676,2764,30484
32654,2774,30529
32668,2792,30247
32897,2828,30481
33088,2884,30623
33149,2875,30421
33093,2894,30458
32940,2997,30136
32744,2799,30359
32572,2797,30550
32516,2783,30365
32500,2801,30108
32444,2828,30438
32380,2862,30344
32432,2920,30268
32528,2918,30287
32616,2830,30152
32708,2811,30426
32688,2789,30292
32673,2783,30119
32677,2780,30399
32756,2795,30265
32711,2822,30185
32773,2844,30383
32880,2884,30252
32929,2900,30157
33018,2891,30380
32972,2849,30245
32852,2826,30250
32791,2808,30205
32736,2782,30130
32768,2786,30183
32820,2871,30215
32812,2894,30215
32813,2893,30160
32738,2921,29988
32704,2940,30260
32848,2965,30191
32884,2893,30200
32858,2857,30128
32756,2814,30089
32688,2809,30057
32712,2820,30163
32840,2855,30226
32948,2916,30235
32998,2905,30169
33004,2985,30166
33002,2827,30008
32924,2818,30108
32792,2804,30308
32664,2774,30160
32630,2788,30029
32736,2809,30196
32901,2838,30120
32961,2895,30158
33048,2937,30044
33076,2938,30256
32972,2982,30047
32820,2810,30118
32557,2794,29838
32368,2788,30215
32404,2818,30151
32538,2816,30130
32781,2847,29988
32880,2879,30020
32941,2871,30038
32884,2859,30076
32792,2929,30022
32676,2907,30214
32652,2853,30111
32688,2834,30065
32762,2847,30127
32832,2894,30105
32888,2920,29844
32924,3011,30161
32960,2865,30121
32904,2992,30103
32813,2943,30263
32692,2957,30046
32696,2899,30014
32700,2883,30261
32753,2849,30133
32824,2860,30045
32876,2900,30272
32892,2922,30109
32884,2899,30060
32872,2902,30166
32828,2880,30153
32744,2860,30140
32700,2864,30254
32644,2890,30038
32677,2915,30172
32792,2972,30122
32872,2838,30171
33020,3008,30198
33051,2883,29900
32980,2877,30179
32908,2874,30311
32882,2876,30148
32780,2849,30125
32602,2825,30248
32520,2835,30194
32580,2850,30041
32668,2880,30359
32741,2902,30210
32842,2917,30124
32984,2919,30097
33052,2889,29969
33108,2854,30301
33100,2820,30215
32984,2808,30191
32897,2813,30213
32828,2830,30233
32797,2853,30233
32777,2900,30102
32768,2914,30226
32728,2951,30188
32672,2988,30397
32608,2855,30180
32548,2836,30185
32440,2818,30197
32497,2820,29984
32609,2838,30417
32672,2874,30205
32700,2904,30265
32781,2922,30193
32812,2937,30321
32733,2910,30242
32700,2937,30303
32577,3018,30296
32468,2822,30068
32476,2831,30281
32544,2873,30485
32668,2894,30207
32856,2974,30330
32928,2994,30359
32948,2964,30445
32960,2914,30318
32812,2907,30256
32668,2879,30528
32598,2860,30329
32592,2857,30389
32632,2883,30510
32776,2916,30409
32952,2984,30423
33028,2920,30412
33048,3141,30453
32953,2995,30372
32852,2947,30207
32735,2966,30557
32497,2841,30432
32392,2838,30485
32405,2859,30356
32504,2911,30621
32596,2921,30500
32688,2946,30432
32812,2938,30613
32792,2916,30518
32776,2918,30233
32692,2911,30501
32620,2897,30487
32564,2878,30552
32536,2884,30458
32584,2906,30513
32676,2936,30520
32869,2940,30556
32916,2953,30412
32888,2919,30572
32792,2904,30514
32676,2908,30650
32508,2921,30540
32464,2920,30540
32616,2904,30639
32732,2928,30512
32796,2953,30589
32880,2954,30711
32889,2943,30532
32828,2935,30616
32732,2916,30510
32596,2890,30732
32553,2865,30619
32516,2867,30579
32576,2887,30764
32732,2921,30599
32817,2948,30339
32908,2952,30757
32876,2969,30525
32769,2951,30663
32672,2963,30577
32600,2951,30815
32542,2922,30661
32568,2932,30372
32696,2875,30637
32816,2887,30807
32869,2934,30657
32888,2963,30682
32820,2971,30725
32760,3020,30765
32668,2974,30464
32588,2938,30884
32528,2940,30727
32556,2859,30750
32560,2885,30692
32576,2912,30808
32672,2950,30769
32756,2972,30689
32776,2968,30908
32760,2946,30758
32701,2959,30660
32708,2964,30871
32660,2982,30821
32620,2864,30807
32620,2876,30704
32669,2927,30951
32728,2946,30680
32864,2958,30831
32890,2972,30541
32900,2964,30888
32904,2952,30776
32888,3116,30847
32772,2862,30727
32684,2864,30933
32652,2904,30976
32620,2935,30806
32696,2956,30586
32832,2973,30982
32877,2973,30800
32828,2931,30777
32765,2925,31014
32617,2881,30853
32496,2866,31017
32509,2871,30861
32613,3058,30791
32728,2965,30804
32868,2959,30727
32924,2958,30917
32937,2948,30732
32860,2922,31058
32700,2916,30905
32629,2882,30905
32580,2870,30807
32576,2868,30904
32645,2885,31073
32756,3030,30904
32824,3009,31065
32920,2982,30937
32976,2968,31053
32957,2934,30949
32880,2914,30862
32761,2897,30860
32636,3017,30662
32608,2960,31100
32660,2927,30964
32720,2947,31093
32848,2938,30958
32960,2957,30833
32980,2949,31051
32932,2938,30983
32854,2916,31109
32758,2894,31012
32622,2876,30960
32505,2884,31044
32549,2892,31044
32650,2920,31042
32733,2961,30983
32800,2996,30844
32796,2998,31180
32801,3015,31070
32776,3026,30997
32705,2907,31072
32645,2990,31072
32685,3017,31221
32748,2951,31092
32800,2953,31206
32920,2966,31113
33041,2961,31278
33060,3071,31141
32942,3076,31062
32680,3030,31201
32612,3004,31164
32676,2995,31137
32717,3011,31039
32696,3037,30991
32680,2927,31343
32688,2950,31183
32748,2970,31137
32754,2967,31081
32721,2951,31013
32728,2931,31364
32661,2909,31239
32564,2885,31163
32504,2886,31112
32588,2901,30938
32580,2922,31414
32580,2948,31204
32736,2968,30977
32781,2962,31422
32704,2957,31277
32557,3009,31239
32576,2969,31220
32656,2889,31317
32684,2892,31316
32712,2935,31332
32776,2947,31345
32876,2977,31271
33028,3011,31353
33180,3000,31338
33193,2973,31440
33116,2961,31303
32952,2952,31391
32728,2914,31311
32549,2923,31414
32520,2935,31402
32636,2948,31436
32696,2964,31350
32800,2967,31149
32919,2967,31527
32940,3040,31414
32885,2985,31527
32832,2943,31396
32796,2927,31151
32846,2919,31457
32941,2930,31432
33080,2963,31501
33276,2961,31396
33568,2973,31377
33788,3131,31486
33956,2957,31429
33952,2938,31482
33732,2938,31341
33393,2929,31655
33076,2916,31469
32616,2943,31429
32168,2958,31508
31524,2961,31250
30839,2977,31680
30188,2979,31539
29626,3054,31470
29064,3011,31408
28736,2937,31477
28748,2894,31569
28884,3002,31714
29176,2964,31565
29564,2990,31623
30140,3021,31454
30920,3051,31598
31625,2991,31740
32074,2980,31602
32396,2967,31367
32732,2945,31729
32892,2920,31544
32932,2923,31524
32988,2913,31740
33022,2934,31623
33120,2957,31400
33154,2974,31657
33210,2973,31638
33264,2964,31654
33308,3036,31612
33271,3007,31596
33232,2979,31620
33174,2981,31764
33180,2981,31640
33210,3014,31556
33309,3158,31745
33460,3064,31577
33532,3124,31629
33512,3062,31535
33413,2941,31759
33304,2921,31493
33190,2930,31607
33173,2931,31529
33271,2947,31748
33413,2957,31535
33536,2980,31397
33584,3015,31690
33512,3010,31588
33405,2995,31532
33332,2964,31642
33300,2950,31629
33272,2925,31551
33285,2936,31697
33384,2951,31616
33458,2988,31666
33472,3043,31541
33444,3083,31746
33348,2976,31615
33248,2957,31361
33128,2941,31668
33000,2915,31796
32966,2898,31646
32980,2904,31711
33093,2936,31622
33220,2972,31733
33292,2996,31674
33312,3009,31729
33356,3003,31607
33412,2993,31876
33388,3033,31600
33380,2922,31741
33312,2912,31417
33230,2927,31797
33189,2947,31877
33160,3016,31684
33160,3061,31748
33168,2982,31425
33177,2980,31772
33092,2965,31708
33036,2948,31757
33006,2924,31679
33116,2923,31854
33144,2927,31874
33144,2948,31644
33078,2972,31740
33112,2978,31858
33112,2984,31725
33020,2983,31469
32912,2970,31766
32789,2950,31695
32804,2922,31813
32873,2904,31740
32908,2910,31832
32884,3039,31837
32948,3024,31943
33052,3108,31728
33133,2982,31847
33164,3000,31613
33184,3005,31822
33244,2977,31980
33157,2974,31825
33096,2945,31772
33096,2935,32015
33176,2952,31877
33200,2968,31804
33272,2972,31775
33287,2994,31567
33220,2986,32021
33160,2975,31878
33092,2958,31876
33012,2929,31820
32936,2930,32026
32885,2941,31801
32896,2948,31908
32968,2967,31828
33144,2993,31913
33353,3022,31900
33448,3022,31834
33421,3004,32037
33319,2960,31911
33124,2944,31839
32944,2944,31973
32840,2935,31885
32788,2959,31824
32792,3019,32039
32816,3012,31870
32884,3057,32039
32852,3038,31900
32788,3019,31823
32685,3010,31828
32544,2974,31887
32388,2985,31844
32328,2973,31791
32477,2969,31725
32640,2977,32015
32713,2995,31861
32767,3023,31793
32836,3024,31836
32784,3051,31981
32720,3121,31750
32640,2940,31765
32496,2953,31833
32429,2940,31837
32424,3003,31825
32508,3049,31700
32633,2974,31747
32688,3026,31869
32720,3023,31760
32764,3014,31797
32721,2983,31806
32644,2981,31932
32600,2997,31686
32548,3014,31816
32552,2940,31579
32640,2962,31743
32768,2982,31695
32900,3032,31807
32945,3023,31655
32940,3043,31796
32923,3023,31812
32885,3034,31765
32836,2926,31783
32820,2916,31704
32805,2943,31943
32884,2973,31770
32972,2997,31576
33020,3047,31940
32980,3041,31767
32916,3053,31505
32876,3133,31741
32832,2945,31934
32744,2926,31879
32692,2941,31796
32796,2971,31505
32900,2979,31860
32981,3037,31930
33060,3073,31800
33109,3088,31724
33052,3090,31919
32886,3095,31820
32748,3037,31860
32668,3044,31684
32632,3026,31524
32684,3154,31967
32830,3129,31836
32984,2982,31756
33040,3187,31721
32952,2999,31503
32910,3099,31916
32840,2967,31824
32800,2944,31768
32804,2915,31921
32752,2924,31821
32744,2966,31796
32848,2992,31692
32868,3006,31825
32948,3027,31804
32932,3060,31905
32808,3077,31813
32816,2970,31537
32746,2948,31837
32632,2959,31992
32592,2953,31831
32624,3084,31881
32800,2981,31866
32949,3026,31632
33069,3089,31827
33088,3234,32044
33024,2988,31829
32892,2974,31932
32844,2970,31712
32740,2959,32046
32653,2957,31817
32692,3007,31974
32736,3025,31889
32820,3052,32015
32880,3082,31950
32860,3087,31860
32780,3072,32148
32736,3079,31991
32648,3039,31892
32629,3111,32126
32628,2931,31921
32544,2947,31758
32572,2957,32071
32680,3011,32157
32772,3025,32101
32836,3071,32022
32780,3081,32276
32680,3087,32092
32652,2947,32121
32617,2932,32176
32634,2937,32230
32737,2968,32141
32764,3012,32192
32884,3049,32343
32989,3088,32221
32960,3189,32132
32871,2996,32204
32788,2990,32328
32760,3028,32340
32688,2933,32277
32617,2933,32222
32580,2978,32459
32648,2980,32333
32712,3022,32303
32820,3037,32225
32820,3081,32384
32788,3100,32292
32820,2974,32513
32776,2948,32268
32636,3086,32421
32576,3020,32477
32664,3035,32404
32748,3044,32465
32735,3087,32213
32804,3012,32495
32885,3005,32533
32864,2991,32468
32768,2979,32511
32733,2953,32508
32668,2942,32626
32572,2929,32516
32464,2956,32532
32500,2996,32501
32696,3011,32692
32864,3045,32553
33040,3030,32505
33056,3010,32628
33012,2980,32599
32868,2949,32572
32708,2935,32668
32572,2929,32617
32564,2949,32333
32528,2970,32688
32584,3001,32513
32730,3026,32656
32724,3022,32583
32716,3005,32812
32644,3011,32628
32580,2988,32677
32541,2973,32478
32485,2991,32772
32520,3046,32695
32613,3190,32633
32768,2993,32694
32872,3021,32679
32844,3023,32703
32688,3027,32837
32556,3021,32636
32401,3043,32692
32332,3042,32388
32384,2931,32639
32516,2943,32850
32640,2970,32604
32808,3001,32701
32928,3022,32747
32897,3025,32789
32888,3002,32731
32782,2972,32646
32712,2955,32888
32648,2930,32652
32668,3100,32428
32720,3043,32901
32732,3051,32644
32801,3069,32769
32896,3090,32710
33010,3065,32668
33016,3051,32440
32973,3019,32884
32868,3041,32795
32734,3031,32737
32633,2938,32765
32617,2949,32439
32608,2972,32767
32632,3028,32917
32724,3046,32749
32716,3044,32445
32700,3033,32741
32736,3000,32726
32645,3006,32775
32588,3022,32670
32565,3015,32925
32710,3017,32763
32768,3047,32711
32880,3038,32672
32917,3057,32607
32881,3073,32903
32832,3139,32743
32784,3080,32710
32728,3143,32911
32696,2942,32775
32628,2942,32708
32714,2951,32876
32788,2974,32774
32793,3030,32527
32840,3029,32885
32920,3021,32796
32904,3008,32727
32876,2995,32893
32880,2964,32794
32768,2962,32660
32704,2977,32887
32697,2991,32886
32712,3025,32775
32716,3059,32655
32772,3101,32945
32828,3126,32761
32776,3189,32729
32708,3114,32901
32652,2965,32767
32672,2936,32655
32796,3146,32844
32908,3073,32793
33072,3079,32756
33108,3095,32744
33057,3064,32519
32976,3056,32861
32840,3059,32756
32788,3086,32671
32752,2961,32797
32720,2940,32713
32720,2941,32895
32796,2961,32630
32832,2975,32773
32912,3003,32909
33004,3029,32751
33068,3020,32737
32916,3036,32519
32702,3010,32839
32528,3024,32805
32429,2949,32612
32445,2944,32712
32568,2964,32741
32840,2996,32823
33056,3033,32585
33140,3079,32719
33124,3081,32806
33000,3172,32646
32864,2990,32625
32801,3006,32710
32688,2980,32600
32692,2999,32732
32789,3038,32548
32844,3112,32688
32836,3007,32604
32804,3029,32761
32868,3031,32629
32829,3013,32465
32796,2995,32759
32796,2990,32613
32712,2969,32646
32584,2983,32562
32677,3052,32620
32844,3098,32526
32924,3007,32602
32988,3027,32543
33065,3049,32676
32976,3099,32559
32828,2996,32617
32734,2976,32509
32654,2962,32727
32561,2980,32585
32564,3015,32263
32660,3081,32579
32741,3006,32617
32808,3039,32576
32812,3051,32519
32808,3062,32557
32752,3019,32541
32744,3006,32556
32704,2972,32341
32668,2995,32657
32708,2991,32556
32844,3004,32631
32964,3039,32543
33037,3059,32532
33061,3060,32461
33162,3047,32254
33168,3022,32653
33057,3004,32474
32844,3011,32502
32692,3034,32587
32588,3050,32484
32605,3060,32533
32704,3080,32493
32808,3108,32447
32804,3119,32579
32820,3130,32504
32828,2999,32492
32860,2986,32589
32832,2979,32508
32797,2977,32497
32736,3000,32440
32772,3018,32496
32876,3053,32507
32984,3103,32356
33048,3122,32473
33036,3122,32535
33009,3000,32412
32956,2975,32472
32744,2949,32397
32616,2952,32604
32580,2979,32406
32637,3014,32446
32720,3036,32413
32852,3084,32506
33044,3112,32423
33140,3024,32372
33121,3003,32579
33196,3013,32389
33346,2979,32445
33484,3026,32413
33652,3062,32365
33752,3114,32580
33669,3014,32377
33512,3042,32437
33168,3056,32227
32828,3074,32447
32156,3099,32461
31248,2985,32423
30393,3012,32279
29748,2975,32572
29168,2978,32366
28781,2996,32148
28797,3071,32514
29112,3080,32425
29452,3069,32430
29840,3027,32353
30252,3005,32542
30756,3042,32412
31384,2983,32340
31856,2954,32535
32246,2972,32289
32672,3102,32421
32992,3092,32337
33164,3080,32487
33216,3068,32353
33144,3045,32413
33040,3033,32099
33036,2998,32454
33024,2963,32263
33036,2956,32383
33052,3094,32359
33084,3096,32397
33204,3104,32343
33360,3125,32373
33496,3080,32095
33588,3043,32505
33528,3000,32308
33368,3063,32207
33236,2978,32429
33210,2956,32331
33254,3146,32237
33292,3085,32445
33324,3098,32349
33338,3101,32226
33388,3071,31978
33432,3036,32253
33389,3013,32388
33396,2987,32316
33256,2971,32167
33228,2963,32292
33309,2979,32266
33376,2998,32149
33449,3047,32219
33548,3067,32381
33500,3070,32279
33384,3049,32260
33272,3036,32295
33096,2992,32271
32948,2963,32132
33000,2954,32273
33038,2967,32388
33184,2993,32252
33333,3078,32176
33344,3056,32141
33320,3054,32263
33304,3044,32017
33260,3024,32263
33148,3013,32346
33002,2981,32204
32996,2979,32135
33040,3051,32304
33156,3048,32158
33232,3037,32103
33316,3071,32317
33360,3038,32104
33240,3027,32143
33188,3061,32111
33096,3001,32060
32996,2956,32041
32997,2994,32005
33021,3007,31833
32992,3012,32156
32972,3015,32040
32988,3158,31973
32976,3078,32133
32952,3043,32061
32884,3001,31988
32869,2976,32199
32812,2955,31956
32812,2956,32038
32868,3056,31982
33052,3013,32079
33196,3022,32040
33313,3040,31929
33360,3041,32189
33356,3023,32137
33228,3188,31985
33132,3033,31716
32926,2992,32069
32821,2993,31945
32856,2988,31994
32900,2991,32029
32892,3011,31957
33048,3033,32079
33132,3148,32012
33112,3109,32095
33028,3045,31953
32928,3017,31690
32904,2992,31958
32892,2957,31879
32940,2969,32004
33060,3085,31922
33006,3043,32032
33101,3060,31983
33145,3054,31901
33048,3055,31999
32924,3009,31966
32932,2981,32071
32854,3044,31915
32824,3013,31905
32892,3028,31857
33102,3036,31982
33257,3073,31800
33365,3073,31610
33296,3067,31844
33056,3058,32005
32836,3030,31769
32696,2999,31858
32516,2963,31945
32506,2957,31748
32592,2977,31831
32696,2990,31824
32805,3014,31739
32928,3120,31751
32996,3091,31788
33016,3068,31591
32960,3038,31869
32925,2980,31758
32820,2956,31524
32652,3171,31796
32492,3047,31633
32452,3068,31696
32552,3037,31623
32612,3038,31580
32605,3042,31680
32592,3087,31660
32632,3036,31537
32664,3016,31644
32532,2960,31668
32460,3059,31576
32528,3018,31477
32640,3011,31734
32736,3045,31505
32848,3038,31327
32888,3131,31613
32872,3059,31518
32816,3000,31506
32808,3072,31271
32692,2979,31601
32601,2955,31316
32629,3054,31517
32696,3021,31440
32801,3025,31495
32928,3037,31239
32980,3102,31684
32952,3053,31540
32920,3033,31468
32808,2982,31433
32708,3103,31513
32688,3023,31656
32800,3002,31524
32924,2992,31503
32966,3013,31401
33072,3128,31521
33060,3113,31432
33004,3053,31367
32884,3036,31515
32762,2988,31429
32632,2957,31621
32584,3069,31423
32648,3021,31216
32720,3032,31485
32884,3047,31502
32924,3071,31333
32912,3069,31424
32850,3032,31173
32764,2999,31471
32680,3030,31396
32532,2991,31357
32488,2961,31447
32469,2977,31140
32540,3046,31532
32668,3041,31413
32772,3039,31343
32832,3036,31357
32860,3118,31413
32824,3081,31092
32800,3001,31552
32773,2981,31295
32712,2975,31404
32728,2983,31154
32712,2987,31408
32740,3019,31521
32816,3107,31375
32928,3057,31253
32857,3042,31457
32824,3034,31397
32780,2981,31220
32708,3004,31389
32681,2980,31308
32697,3058,31085
32780,3023,31441
32798,3010,31255
32804,3133,31389
32868,3080,31296
32869,3042,31511
32800,3005,31319
32780,2986,31168
32732,3057,31468
32636,2985,31384
32624,2992,31081
32668,2995,31333
32756,3011,31537
32796,3125,31356
32824,3060,31227
32794,3044,31472
32760,3097,31390
32776,2993,31487
32720,3033,31393
32565,2974,31076
32488,2975,31333
32545,2991,31519
32704,3075,31383
32849,3051,31373
32916,3031,31258
32884,3065,31095
32876,3033,31513
32776,2981,31376
32652,3056,31292
32661,2985,31403
32628,2963,31373
32676,3056,31445
32728,3036,31327
32796,3038,31126
32844,3095,31473
32780,3044,31368
32778,3092,31522
32700,2996,31374
32608,3069,31541
32572,3010,31348
32637,2984,31306
32778,3090,31323
32808,3026,31236
32804,3037,31559
32829,3140,31355
32709,3050,31270
32676,2999,31345
32620,3057,31120
32612,2970,31359
32684,3098,31428
32772,3053,31288
32774,3012,31589
32912,3035,31313
32960,3032,31458
32869,3038,31398
32768,3109,31503
32652,3089,31416
32588,3040,31481
32500,2993,31422
32484,2961,31541
32516,3174,31454
32581,3066,31480
32677,3033,31461
32829,3042,31490
32800,3032,31524
32764,3021,31276
32608,3051,31679
32572,2999,31535
32412,2957,31461
32381,2955,31606
32500,3046,31471
32537,3009,31387
32620,3006,31717
32708,3038,31527
32712,3119,31569
32688,3066,31732
32701,3014,31572
32730,3134,31735
32740,2975,31623
32672,2956,31633
32732,3080,31495
32844,3037,31325
32908,3040,31732
32888,3034,31724
32868,3039,31628
32856,3096,31591
32768,3048,31819
32684,3012,31678
32632,2989,31398
32606,2965,31789
32624,2966,31636
32676,2983,31717
32786,3229,31547
32888,3104,31748
32884,3059,31711
32820,3044,31744
32741,3003,31578
32640,3093,31871
32556,2989,31761
32564,2954,31909
32540,2968,31735
32560,3167,31604
32570,3078,31896
32633,3058,31793
32752,3060,31721
32796,3021,31910
32844,3080,31799
32721,3009,31825
32692,3075,31780
32668,2980,31749
32624,2991,31807
32540,2989,31839
32464,3010,31775
32644,3123,31980
32774,3056,31844
32760,3022,31799
32644,3091,31777
32608,3062,31898
32568,3019,31869
32572,3015,31835
32665,3006,32073
32784,3007,32022
32752,3025,31803
32776,3044,31961
32880,3039,31649
32832,3023,31993
32732,3099,31855
32609,3023,31981
32588,2991,31919
32596,2978,32143
32704,2974,31874
32770,2994,31982
32880,3013,31834
32932,3120,32118
32936,3105,31911
32752,3127,32010
32672,3006,32063
32624,3083,31889
32536,3044,32092
32472,3038,32191
32584,3008,32058
32700,3023,31782
32812,3020,32217
32796,3036,31980
32776,3037,32111
32728,3135,31806
32768,3047,32285
32783,3014,32045
32688,2966,32178
32690,2959,31931
32684,2961,32135
32690,2985,32223
32744,3008,32203
32812,3117,32229
32824,3061,32089
32825,3027,31973
32804,3097,32380
32772,3033,32228
32777,2995,32135
32928,2954,32432
32944,3059,32298
32932,3029,32306
32892,3044,32199
32853,3068,32324
32796,3051,32329
32724,3026,32277
32652,3010,32480
32624,3071,32294
32564,3014,32398
32548,2993,32100
32584,3015,32345
32616,3046,32383
32692,3055,32576
32772,3063,32382
32956,3031,32278
32964,3126,32557
32856,3049,32391
32840,3013,32481
32956,2992,32151
33025,2972,32420
33064,2999,32564
33032,2993,32364
33028,3008,32511
32948,3034,32206
32908,3168,32420
32768,3116,32559
32684,3090,32645
32680,3021,32476
32652,2971,32470
32612,2951,32663
32640,2973,32516
32672,3081,32527
32728,3043,32620
32852,3067,32431
32880,3043,32583
32808,3038,32249
32680,3038,32507
32640,2999,32620
32530,2959,32529
32465,3047,32587
32520,3021,32511
32676,3015,32604
32712,3033,32536
32829,3057,32284
32871,3030,32691
32828,3115,32532
32774,3026,32396
32640,2989,32733
32559,2960,32576
32496,3072,32525
32495,3031,32694
32628,3015,32578
32784,3023,32260
32932,3035,32581
32968,3031,32500
33004,3021,32585
32972,3188,32512
32809,2984,32611
32692,3049,32678
32624,3046,32551
32576,3049,32391
32646,3063,32732
32720,3091,32472
32776,3093,32276
32845,3084,32676
32814,3077,32509
32772,3038,32587
32724,3001,32603
32680,2964,32535
32648,2958,32575
32694,3037,32717
32736,3018,32540
32804,3006,32516
32900,3035,32518
32910,3111,32554
32892,3082,32543
32833,3057,32680
32808,3024,32516
32732,2986,32228
32712,2959,32577
32860,2969,32512
32864,2992,32509
32826,3010,32553
32976,3261,32508
33256,3117,32425
33496,3074,32604
33704,3038,32496
33761,2999,32495
33748,2976,32479
33600,2948,32497
33392,3071,32525
33264,3076,32613
32956,3075,32343
32580,3055,32452
31956,3064,32436
31093,3031,32463
30248,3018,32436
29488,2985,32294
28808,2965,32616
28408,3045,32485
28352,3052,32407
28604,3050,32535
29044,3056,32460
29648,3060,32384
30272,3057,32516
30936,3028,32478
31524,3001,32525
31928,3092,32384
32192,3012,32484
32452,2985,32512
32672,2971,32423
32876,2981,32415
33044,3091,32470
33156,3061,32317
33196,3042,32636
33236,3017,32359
33269,2999,32489
33301,2979,32439
33280,3063,32609
33276,3016,32471
33392,2999,32310
33464,3003,32645
33462,3014,32497
33428,3030,32374
33396,3035,32631
33396,3029,32356
33312,3005,32484
33180,2987,32308
33164,3056,32542
33156,3047,32532
33196,3022,32476
33264,2994,32569
33365,3001,32421
33496,3127,32368
33541,3092,32621
33564,3056,32433
33541,3015,32203
33468,2986,32590
33312,2956,32334
33201,2951,32420
33272,2965,32418
33317,2984,32478
33340,3005,32456
33336,3033,32405
33337,3038,32629
33292,3026,32522
33188,3007,32354
33135,3087,32500
33085,3014,32412
33020,2988,32605
33132,2993,32481
33232,3005,32481
33268,3031,32276
33317,3048,32572
33304,3033,32461
33240,3020,32404
33204,3210,32476
33116,3057,32400
33032,3030,32608
33024,3000,32392
33058,3015,32245
33140,3015,32407
33172,3019,32412
33176,3034,32480
33168,3040,32310
33128,3081,32216
33041,3032,32311
32966,2984,32173
32864,3068,32533
32833,3046,32253
32873,3030,32367
32944,3005,32487
32978,3005,32337
33124,3032,32285
33228,3037,32506
33124,3024,32260
32924,3100,32054
32832,3090,32268
32900,2960,32493
32889,3103,32248
32996,3061,32332
33120,3048,32367
33135,3032,32384
33160,3039,32316
33209,3033,32235
33184,3114,32440
33096,3099,32180
32992,3030,32278
32888,2987,32292
32820,2998,32375
32816,2982,32233
32909,3016,31952
32984,3011,32400
33068,3032,32098
33148,3041,32228
33168,3099,32197
33072,3042,32069
33028,3016,32173
32928,2959,32229
32824,3053,32134
32760,2988,32095
32720,2994,32004
32629,3009,31862
32672,3076,32284
32800,3043,32113
32844,3025,32078
32864,3067,32006
32832,3020,32084
32900,2976,31997
33053,2980,32203
33088,2963,32012
33038,3162,31837
32996,3060,32140
32996,3072,31948
33056,3064,31989
32988,3025,31815
32980,3003,31884
32940,2980,32075
32788,2951,31836
32672,2954,31926
32665,3064,31732
32700,3021,31952
32862,3027,31872
33032,3065,31807
33156,3046,31829
33029,3028,31758
32908,3007,31847
32756,3000,31724
32534,2965,31756
32492,2953,31668
32552,2975,31648
32654,2983,31801
32660,3095,31698
32720,3066,31707
32757,3070,31569
32736,3039,31633
32616,3010,31581
32544,3089,31716
32508,3045,31495
32568,3037,31546
32664,3043,31498
32804,3018,31437
33068,3011,31516
33184,3124,31521
33292,3057,31428
33316,3038,31148
33184,3000,31586
32960,3064,31398
32807,2984,31333
32600,2954,31364
32568,2964,31383
32640,3072,31336
32772,3033,31201
32838,3034,31304
32896,3122,31420
32924,3056,31247
32857,3008,31184
32800,3056,31309
32776,2987,31236
32744,2949,31154
32796,3049,31212
32924,3023,31188
32972,3043,31044
33005,3033,31280
32920,3151,31135
32833,3077,30840
32750,3023,31189
32680,2995,31038
32596,2955,31052
32600,3077,30781
32692,3022,31109
32876,3012,30925
33040,3006,31024
33076,3133,30948
33036,3077,31042
32877,3042,30900
32790,3007,30957
32740,2980,30886
32768,3049,31076
32768,3003,30802
32793,3002,30938
32831,3016,30745
32865,3004,31009
32897,3107,30877
32832,3067,30983
32812,3032,30820
32744,3002,30838
32656,3082,30877
32533,3003,30709
32480,2989,30810
32528,2989,30849
32656,2982,30754
32776,3002,30642
32925,3126,30839
33009,3104,30779
32908,3075,30892
32912,3028,30767
32768,3009,30693
32668,3077,30732
32604,2987,30676
32672,2990,30855
32712,2980,30749
32777,3090,30719
32868,3101,30764
32852,3058,30743
32762,3026,30798
32700,3003,30590
32740,3028,30644
32732,2976,30855
32660,2989,30620
32604,2973,30703
32582,2990,30633
32692,3002,30857
32796,3135,30681
32972,3059,30644
32996,3048,30603
33020,3000,30693
32960,3072,30813
32910,2985,30705
32756,2966,30700
32708,2964,30685
32764,3075,30664
32752,3042,30681
32836,3059,30717
32896,3040,30622
32864,3223,30790
32813,3080,30688
32788,3008,30792
32701,2967,30639
32660,2956,30708
32661,2970,30632
32673,3086,30768
32732,3044,30714
32828,3051,30639
32836,3232,30591
32879,3062,30466
33016,3011,30876
33040,3067,30717
32880,2987,30876
32694,2953,30756
32624,3047,30816
32576,3017,30639
32584,3005,30752
32585,3124,30889
32576,3089,30701
32665,3056,30789
32744,3027,30816
32821,3016,30839
32824,2969,30786
32789,2948,30536
32838,3063,30976
32925,3030,30813
32964,3033,30765
32940,3034,30705
32916,3268,30559
32816,3073,30982
32693,3014,30868
32576,2990,30914
32508,3011,30804
32540,2975,30757
32576,3056,30831
32636,3011,30695
32748,3000,30927
32912,3120,30912
33028,3071,31053
32980,3025,30916
32908,3067,30903
32800,3017,30798
32700,2959,30844
32528,3004,30800
32608,2999,30663
32708,2984,31041
32816,3006,30833
32864,3039,30948
32900,3124,30908
32868,3060,31021
32792,3006,30972
32605,3145,31032
32552,2988,30972
32522,2951,31039
32538,3011,30991
32636,2995,31036
32804,3140,31012
32912,3084,30884
32952,3048,31080
32948,3141,31044
32940,3041,30965
32846,3004,31164
32633,2964,31004
32528,3031,30769
32586,2996,31076
32646,2988,31087
32680,3048,31088
32869,3034,31215
32972,3132,31077
32948,3057,30820
32952,3029,31281
32984,2994,31128
32866,3013,31089
32722,2987,31207
32672,2962,31179
32696,3039,31176
32728,3032,31207
32868,3037,31204
32964,3065,31269
32937,3025,31045
32872,3091,31396
32812,3015,31255
32736,3051,31239
32673,2986,31276
32636,2987,31373
32613,2991,31239
32613,3206,31239
32804,3079,31276
32976,3070,31065
32953,3061,31495
32840,3028,31356
32680,3000,31295
32560,2967,31343
32524,2992,31489
32607,2994,31404
32608,2982,31431
32692,3062,31377
32732,3065,31366
32793,3042,31324
32816,3166,31446
32724,3093,31507
32608,3045,31357
32588,2981,31494
32588,2958,31506
32685,3179,31561
32732,3046,31524
32824,3040,31620
32816,3035,31511
32836,3037,31554
32853,3124,31617
32917,3100,31585
32816,3057,31529
32753,2986,31364
32696,2990,31660
32720,2963,31551
32740,3079,31350
32828,3024,31618
32924,3037,31404
33008,3089,31511
33036,3056,31337
32992,3026,31719
32948,2999,31614
32836,2952,31530
32748,3071,31804
32724,2996,31690
32722,2983,31812
32768,3100,31709
32877,3075,31652
32976,3050,31625
32968,3029,31738
32908,3011,31831
32833,3088,31669
32832,3035,31772
32848,2980,31717
32836,2978,31691
32864,2988,31701
32956,3105,31924
33172,3074,31776
33168,3068,31729
33117,3033,31816
33050,3107,31500
32909,3021,31942
32848,2962,31827
32752,3032,31971
32749,2972,31559
32721,3055,31813
32680,3009,31874
32756,3037,31764
32815,3153,31900
32820,3061,32028
32892,3016,31924
32880,2986,31876
32860,3087,32071
32853,3033,31956
32886,2988,32005
32884,2990,31893
32895,3172,31738
32921,3123,32120
32952,3090,31969
32980,3060,31788
32872,3039,32077
32756,3019,31980
32672,2967,32119
32616,3169,32137
32616,3052,32072
32688,3047,32165
32777,3031,31969
32836,3066,32188
32972,3041,32188
33049,3083,32111
32892,3043,32395
32812,2990,32228
32696,3058,32207
32636,2979,32375
32728,2981,32272
32869,3012,32342
32988,3013,32303
33152,3031,32412
33136,3134,32391
33028,3060,32487
32792,3004,32377
32580,3050,32375
32512,2996,32530
32624,2958,32469
32716,3014,32534
32812,3018,32442
32948,2997,32543
33048,3142,32492
33113,3083,32607
33024,3039,32591
32888,3013,32633
32825,3068,32536
32808,2991,32325
32604,2974,32811
32584,2969,32700
32624,3057,32726
32796,3053,32733
32929,3064,32772
32997,3057,32721
32964,3032,32669
32968,3108,32503
33025,3066,32989
32932,3007,32867
32865,2997,32833
32848,2990,32807
32836,3077,32840
32892,3090,33071
32984,3052,32967
33016,3060,33028
33118,3029,32901
33157,3086,32724
33304,3023,33218
33440,2999,33097
33636,2953,33183
33832,3052,33061
33744,3031,33161
33424,3028,33242
33180,3069,33093
32972,3042,33216
32708,3028,33244
32333,3011,33367
31614,2997,33303
30909,3048,33153
30124,2986,33507
29528,2972,33343
29020,2985,33095
28784,3102,33588
28949,3120,33329
29372,3077,33469
29776,3051,33444
30248,3033,33622
30808,3024,33637
31416,2970,33581
31774,3052,33750
32085,2981,33611
32372,2979,33700
32652,3040,33605
32932,3031,33618
33102,3038,33567
33188,3212,33833
33266,3033,33685
33276,2985,33570
33349,3048,33861
33408,3002,33740
33366,2998,33780
33364,2983,33721
33440,3002,33944
33480,3037,33744
33556,3042,33813
33590,3030,33497
33484,3103,33853
33392,3064,33799
33448,3038,33719
33360,3043,33825
33266,3000,33684
33284,2994,33779
33352,3007,33680
33308,3032,33813
33234,3101,33652
33253,3048,33703
33216,3045,33734
33197,3019,33492
33280,2965,33736
33332,3028,33657
33464,2981,33700
33664,3155,33655
33720,3064,33758
33760,3069,33636
33600,3040,33460
33340,3102,33796
33172,3045,33612
32998,2989,33453
32925,3055,33767
32972,2977,33573
33140,2964,33280
33157,3037,33704
33216,3034,33551
33304,3169,33427
33380,3068,33732
33472,3044,33521
33508,3138,33556
33420,3058,33543
33340,2985,33508
33156,2958,33572
33100,2961,33464
33104,3087,33664
33060,3030,33505
33196,3042,33360
33468,3139,33559
33548,3053,33516
33408,3019,33511
33248,2991,33561
33152,3015,33500
33049,2978,33455
33024,2968,33378
33152,3048,33492
33260,3026,33543
33440,3058,33463
33480,3039,33436
33348,3027,33659
33136,3126,33471
32956,3023,33461
32996,2970,33479
32996,3001,33452
33042,2984,33543
33144,2980,33529
33280,3056,33501
33392,3036,33489
33452,3042,33188
33336,3086,33589
33228,3041,33564
33145,2993,33701
32992,3012,33565
32944,2983,33522
32948,2993,33632
33012,3119,33230
33054,3051,33670
33148,3055,33444
33220,3044,33247
33205,3028,33561
33174,3010,33509
33172,2986,33588
33228,3052,33516
33220,3010,33719
33204,2985,33453
33229,3006,33564
33224,3092,33676
33230,3062,33543
33280,3038,33533
33230,3140,33385
33101,3102,33500
32944,3083,33423
32824,3021,33524
32804,2987,33437
32840,2997,33512
32911,2987,33364
33012,3003,33301
33057,3275,33555
33076,3115,33381
33136,3051,33505
33060,3010,33344
32936,3092,33385
32896,2996,33293
32828,2976,33153
32784,2983,33279
32828,2986,33214
32860,3172,33325
32912,3106,33188
32976,3118,33061
32952,3083,33281
32816,3036,33110
32684,3022,33108
32537,2962,32996
32436,3043,32918
32472,2991,33140
32484,2991,32935
32520,3006,32791
32756,3263,33016
32892,3086,32870
32897,3054,32912
32750,3012,32702
32694,3074,32948
32606,2988,32763
32544,2980,32807
32560,2967,32737
32704,3074,32775
32798,3029,32736
32952,3029,32768
33116,3140,32661
33160,3081,32527
33080,3036,32775
32984,3027,32540
32668,2969,32601
32556,3069,32636
32620,3016,32425
32676,2993,32405
32736,3082,32412
32949,3065,32221
33104,3045,32613
33068,3098,32437
32848,3020,32468
32800,3101,32380
32808,3008,32493
32772,2991,32379
32754,2967,32420
32880,3023,32303
32928,3003,32261
32892,3095,32213
32940,3071,32299
32945,3036,32220
32820,3082,32118
32833,3028,31919
32864,2959,32270
32740,3079,32202
32684,3057,32120
32631,3025,32322
32704,3038,32092
32888,3034,31847
33000,3181,32271
32976,3076,32103
32992,3047,32012
33012,3006,32228
32848,2962,32037
32788,3060,32058
32732,3003,31989
32741,3009,32055
32624,3007,32014
32632,3114,31975
32733,3077,31884
32782,3027,31992
32768,3077,32143
32676,3010,31982
32600,2976,31905
32560,2956,32084
32556,3052,31975
32660,3003,31913
32828,3037,32023
32848,3041,31902
32888,3049,31956
32848,3032,31897
32848,3126,31879
32824,3056,31920
32660,3019,31879
32532,2996,32047
32532,2987,31822
32596,3006,31847
32740,3007,31792
32892,3118,31900
33048,3074,31885
33036,3061,31676
32913,3013,31969
32892,3169,31799
32796,3029,31879
32622,2979,31814
32600,2980,31932
32608,2988,31760
32687,3010,31863
32832,3061,31988
32912,3053,31873
32896,3029,31622
32828,3144,31876
32757,3069,31804
32716,3033,31888
32644,2980,31892
32724,2998,31884
32844,3012,31886
32900,3028,31809
32956,3036,31969
32976,3047,31879
32948,3035,31772
32916,3114,32012
32668,3083,31769
32544,3010,31900
32436,2989,31960
32324,2975,31783
32252,2983,31932
32261,3095,31892
32384,3063,31949
32456,3045,31610
32568,3036,32071
32600,3051,31941
32640,3027,31943
32680,2960,31857
32729,3055,31697
32748,3005,32023
32793,2996,31668
32704,3003,32015
32600,3113,31909
32516,3061,31863
32568,3035,32010
32584,3020,31940
32596,2989,31649
32556,2971,32007
32476,3059,31902
32516,3038,31957
32576,3003,31972
32689,3006,31956
32744,3070,32001
32872,3063,31820
32852,3038,31943
32940,3011,31994
32820,3071,31863
32722,2981,31655
32536,2987,31852
32456,2991,32047
32424,3002,31889
32564,2998,31914
32636,3174,31823
32776,3090,31948
32794,3059,31892
32724,3009,31879
32588,2988,31829
32504,3041,31850
32436,2996,31821
32456,3001,31997
32536,2994,31830
32680,3007,31525
32796,3114,31908
32910,3055,31735
32892,3023,31544
32772,3007,31850
32584,2988,31832
32548,3050,31805
32476,3004,31711
32592,2986,31940
32650,3017,31702
32668,3031,31782
32708,3031,31661
32892,3038,31855
32964,3032,31911
32885,3011,31624
32720,2992,31712
32558,2964,31771
32492,2958,31667
32528,3063,31884
32556,3061,31653
32748,3069,31760
32796,3104,31588
32836,3112,31801
32805,3124,31879
32624,3121,31607
32480,3073,31724
32480,2993,31809
32404,2982,31671
32541,2971,31734
32616,2975,31575
32768,3207,31831
32848,3102,31612
32828,3088,31719
32832,3049,31586
32796,3020,31814
32732,3001,31835
32648,2975,31632
32652,2962,31732
32721,2960,31538
32744,3104,31719
32716,3089,31681
32704,3048,31694
32768,3038,31783
32772,3030,31681
32716,3100,31709
32740,3029,31495
32656,2985,31736
32553,2980,31591
32608,2963,31405
32797,3069,31814
32952,3049,31645
32972,3062,31428
33028,3054,31839
32897,3032,31687
32656,3067,31778
32500,3019,31671
32392,2966,31635
32344,2952,31692
32380,3183,31661
32568,3055,31614
32653,3026,31527
32800,3055,31632
32901,3041,31777
32908,3030,31601
32780,3095,31356
32732,3069,31764
32624,3016,31605
32500,2984,31509
32534,2963,31759
32612,3098,31621
32656,3084,31591
32700,3049,31684
32740,3050,31484
32736,3025,31295
32736,3100,31661
32664,3036,31476
32654,2984,31612
32584,2987,31428
32492,2975,31649
32480,2977,31537
32580,3002,31596
32692,3137,31515
32862,3166,31671
32904,3123,31449
32916,3087,31581
32796,3060,31477
32684,3075,31559
32676,3022,31583
32640,3003,31540
32708,2999,31460
32872,3023,31657
32955,3081,31551
32989,3094,31494
32876,3052,31327
32832,3030,31631
32776,2995,31496
32661,2958,31444
32512,2952,31468
32536,2961,31495
32740,3079,31486
32852,3033,31480
32901,3063,31544
32936,3036,31488
32936,3095,31399
32832,3041,31588
32820,3027,31402
32696,2959,31165
32653,2951,31396
32672,3073,31602
32684,3075,31571
32732,3087,31335
32757,3059,31461
32865,3052,31340
32884,3026,31567
32889,3114,31397
32864,3082,31425
32770,2996,31437
32780,2963,31505
32728,3129,31450
32697,3002,31373
32813,2999,31485
33012,3110,31404
33128,3055,31432
32976,3047,31269
32856,3213,31542
32750,3058,31357
32777,3002,31471
32714,2981,31199
32604,2960,31533
32668,3067,31367
32612,3025,31495
32832,3026,31525
32919,3168,31396
33048,3058,31236
32928,3030,31606
32852,2989,31418
32836,3043,31456
32680,2983,31572
32677,2957,31577
32748,3190,31457
32856,3060,31684
33100,3042,31503
33221,3042,31621
33164,3030,31580
33004,3101,31648
32836,3063,31602
32740,2998,31681
32676,2985,31568
32740,2963,31764
32884,3087,31713
33033,3065,31652
33072,3026,31726
33097,3132,31668
33024,3108,31863
33008,3033,31719
32952,2997,31815
32773,2957,31692
32764,3011,31894
32900,2986,31854
33056,2978,31804
33212,3087,31807
33540,3060,31613
33853,3030,31995
33900,3100,31967
33636,3043,32124
33317,2990,32004
33013,3043,31977
32460,2980,32040
31788,2982,32085
31021,3066,32172
30332,3036,32066
29744,3030,31865
29068,3109,32222
28644,3057,32210
28580,3008,32273
28801,3080,32135
29196,2992,32113
29632,3049,32231
30229,2982,32285
31096,2975,32309
31852,3023,32324
32277,3026,32318
32548,3125,32295
32784,3060,32589
32976,3003,32503
33108,3128,32516
33224,2978,32457
33228,2956,32503
33240,2996,32663
33296,2978,32630
33316,3090,32584
33368,3053,32538
33456,3045,32609
33396,3111,32604
33312,3037,32425
33224,2994,32756
33180,2956,32921
33176,3045,32673
33316,2992,32821
33448,3007,32762
33396,3000,32720
33388,3065,32517
33624,3066,32903
33608,3031,32761
33528,3170,32567
33464,3043,33031
33272,2967,32889
33132,3047,32840
33184,2982,32929
33229,3001,32907
33304,2996,32613
33348,3020,32974
33433,3111,32889
33224,3050,32964
33296,3046,33003
33316,2995,32905
33252,3051,33009
33156,2985,33020
33308,2981,33132
33440,2981,32935
33196,2999,33079
33356,3113,33015
33404,3064,33228
33284,3027,33120
33164,3091,33060
33068,3023,33080
32932,2960,33137
32872,3067,32959
33008,3035,33259
33132,3007,33079
33280,3014,33167
33444,3023,33081
33620,3108,33159
33500,3047,33167
33326,3180,33206
33252,3040,33073
33012,2993,33153
33029,2955,33295
33198,2993,33153
33240,3005,33081
33261,2993,33285
33244,3057,33125
33198,3039,33287
33118,3180,33070
32937,3040,32967
32928,2983,33253
33012,3053,33136
33133,2988,33132
33252,2986,32917
33476,2994,33169
33508,3025,33242
33504,3026,33020
33488,3080,32862
33364,3059,33173
33200,3016,33124
33080,2991,33092
32888,3057,32816
32820,3041,33023
32740,3016,33117
32865,3004,33224
33136,3022,33031
33164,3025,33095
33308,3041,32774
33216,3067,33166
33124,3044,32935
32992,3011,33056
32894,2959,32797
32940,2955,33129
33128,3030,32905
33328,3002,33047
33416,3025,32935
33424,3023,33180
33380,3040,32969
33216,3110,33025
33052,3028,32996
33076,2995,33086
33096,2965,32958
33080,3045,33012
33120,3017,32757
33140,3008,33042
33128,3017,32969
33124,3059,32888
33076,3054,32972
33072,3046,32877
33080,3032,32997
33066,2992,33079
32913,2963,32789
32804,2961,32869
32720,3012,32646
32744,3008,33020
32984,3025,32760
33144,3038,32881
33140,3036,32850
32945,3024,32775
32732,3010,32912
32658,3075,32741
32524,3026,32804
32415,2985,32823
32548,2982,32655
32640,3010,32756
32796,3032,32944
32860,3029,32737
33077,3042,32487
33012,3111,32918
32924,3048,32661
32844,3010,32788
32804,2971,32557
32616,2950,32775
32484,2959,32831
32456,3054,32761
32628,3035,32621
32788,3056,32903
32952,3040,32705
33013,3029,32452
32952,3165,32869
32848,3073,32705
32884,3041,32464
33024,2977,32870
33040,2987,32687
33036,2977,32710
33104,3087,32741
33105,3082,32696
33100,3061,32627
33072,3062,32836
32888,3018,32628
32796,2996,32677
32612,2963,32572
32544,3036,32570
32536,2985,32589
32530,2973,32509
32657,3016,32551
32844,3028,32492
32884,3134,32431
32940,3109,32673
32887,3045,32455
32736,2988,32344
32673,3000,32444
32676,2958,32546
32708,3084,32657
32776,3010,32480
32768,3007,32197
32820,3024,32623
32932,3066,32461
32908,3054,32489
32820,3011,32404
32809,2991,32519
32752,3088,32540
32716,2980,32431
32685,2955,32477
32737,2979,32408
32808,3055,32414
32868,3050,32345
32920,3037,32505
32808,3034,32263
32844,3066,32029
32944,3019,32488
32836,2959,32292
32724,3004,32273
32660,2992,32367
32724,2975,32316
32728,3083,32300
32924,3101,32319
32896,3095,32284
32813,3072,32301
32748,3046,32220
32738,3017,32370
32840,2963,32241
32840,3091,32069
32916,2999,32397
32808,2999,32212
32720,3001,32240
32792,3021,32212
32896,3036,32396
32900,3123,32194
32880,3037,31945
32696,2993,32396
32548,2965,32156
32549,3017,31957
32612,2980,32388
32736,2978,32237
32840,3037,32249
32928,3056,32151
32940,3031,32225
32956,3119,32350
32924,3063,32138
32780,3012,31908
32664,2992,32230
32599,2953,32142
32684,3024,32029
32700,3001,32345
32876,3030,32169
33000,3027,31915
33004,3030,32101
33005,3130,32302
33032,3063,32143
33004,3022,31839
33020,2964,32232
32856,3105,32094
32704,3041,32135
32704,3002,32212
32753,3006,31996
32742,3023,32146
32648,3143,32056
32588,3118,32178
32489,3039,32001
32417,2997,32112
32344,2966,32049
32356,3043,32253
32468,2995,32057
32564,3005,31841
32501,2995,32231
32444,3153,32077
32536,3116,31969
32656,3104,32028
32564,3044,32129
32504,3020,32031
32485,2975,31847
32476,2952,32121
32488,2957,32111
32532,2975,31897
32560,2993,31991
32624,3027,31708
32732,3129,31975
32708,3060,31964
32636,3025,31983
32604,2986,31996
32592,3043,31871
32484,2981,31710
32460,2991,32084
32452,2974,31885
32540,3068,31868
32710,3052,31852
32836,3030,31590
32956,3244,31926
32848,3106,31964
32636,3021,31900
32512,2993,31828
32480,2949,32032
32580,3068,31817
32564,3009,31555
32612,2993,31727
32701,3087,31587
32621,3063,31937
32449,3029,31765
32288,3062,31829
31997,3024,31788
31968,2992,31947
32156,2948,31781
32405,3013,31587
32616,3006,31874
32944,2994,31815
33076,3027,31796
33252,3126,31836
33237,3106,31677
33116,3045,31892
32714,3014,31823
32469,3000,31780
32488,2980,31741
32513,2988,31732
32616,2997,31874
32868,3005,31867
32940,3239,31788
32992,3083,31908
32984,3056,31860
32856,3045,31583
32684,2993,31912
32644,2963,31879
32828,2957,31916
32763,3035,31630
32828,3019,31887
33028,3008,31833
33024,3207,31687
32756,3119,31885
32732,3082,32007
32704,3047,31885
32652,3020,32012
32636,2997,31895
32644,2975,32050
32904,2989,32062
32832,2980,32197
32857,2997,31944
32980,3028,32110
33244,3111,32033
33181,3057,32250
32952,3031,32068
32756,3094,31858
32904,2986,32236
32804,2958,32210
32716,2967,32157
32664,3067,32196
32676,3040,32181
32964,3055,32373
33084,3038,32245
33044,3184,32308
32948,3101,32003
32812,3052,32260
32712,2998,32487
32624,2959,32311
32557,3008,32367
32526,2986,32535
32492,3001,32519
32532,3030,32427
32576,3104,32135
32612,3107,32351
32692,3045,32480
32712,3004,32435
32688,3116,32511
32616,2997,32535
32580,2970,32503
32520,3058,32293
32564,3028,32698
32654,3027,32600
32690,3058,32756
32652,3033,32645
32548,3049,32769
32448,3003,32608
32288,2968,32372
32220,2959,32709
32276,3037,32600
32503,3002,32668
32788,2998,32809
32960,3062,32769
32992,3039,32767
32953,3068,32659
32920,3020,32469
32768,2992,32746
32680,3072,32954
32592,3039,32773
32496,3027,32845
32428,3003,32680
32482,3009,32981
32637,3031,32745
32820,3075,32847
32896,3036,32911
32877,3143,32741
32636,3074,32895
32680,3001,32673
32552,2995,32889
32428,2971,33031
32440,2979,32887
32536,3080,32763
32608,3050,33042
32712,3056,32796
32668,3033,32943
32648,3072,32955
32584,3028,32810
32504,2970,32621
32432,3020,33111
32401,2996,32923
32476,2979,32903
32656,3041,32917
32797,3037,32919
32928,3225,32853
33018,3083,32678
32964,3029,33162
32776,3103,33016
32684,3009,33118
32588,2961,32903
32532,3043,32820
32513,3012,33204
32568,3033,32973
32528,3028,32813
32656,3130,33109
32737,3059,32954
32640,3033,33060
32640,3005,33056
32708,3031,32941
32600,2992,33083
32496,2963,33009
32504,3082,33189
32600,3038,33036
32889,3031,32984
33004,3132,33198
32892,3059,33056
32800,3024,33129
32793,3039,33028
32750,2976,33039
32720,2993,33036
32816,2963,33065
32864,3040,32980
32856,3026,33029
32912,3062,32954
32844,3068,33143
32796,3048,32910
32808,3026,32669
32785,3088,33127
32640,3006,32983
32544,2970,32937
32514,3116,32917
32620,3044,32991
32848,3022,32903
33200,3034,33087
33512,3047,32942
33648,3110,32861
33688,3050,33092
33704,3030,32801
33775,2981,32911
33420,2962,32933
33245,3058,32847
33208,3050,33069
32864,3034,32857
32536,3065,32572
31916,3045,33029
30920,3169,32844
30076,3058,32740
29312,3012,32967
28756,2979,32836
28384,3007,32697
28488,2966,32950
28744,3068,32890
29164,3026,32915
29632,3032,32871
30192,3133,32886
30944,3071,32876
31694,3024,32741
32228,3035,32886
32652,2978,32935
32773,3153,32877
32900,3024,32879
32924,3006,32787
32892,3035,32964
32944,3035,32773
33284,3043,32877
33608,3138,32791
33560,3090,32959
33561,3027,32733
33628,2989,32864
33384,3059,32858
33240,2987,32717
33358,2983,32765
33448,3041,32749
33440,3035,32828
33628,3039,32758
33764,3138,32931
33660,3052,32820
33552,3009,32825
33456,3036,32671
33288,2984,32775
33284,2966,32909
33344,3035,32768
33372,3009,32704
33456,3120,32740
33548,3072,32406
33536,3038,32799
33532,3118,32697
33512,3038,32632
33448,2979,32731
33360,3055,32711
33280,3013,32736
33360,3002,32606
33444,3100,32621
33465,3057,32608
33400,3060,32684
33318,3188,32755
33204,3046,32612
33225,3016,32636
33248,3064,32793
33185,3014,32605
33208,2991,32564
33360,3092,32608
33556,3042,32725
33636,3036,32615
33568,3042,32488
33228,3120,32623
33056,3057,32590
32912,3007,32470
33004,3063,32647
33065,2988,32549
33156,2973,32548
33292,3030,32436
33268,3011,32310
33284,3127,32653
33274,3073,32488
33313,3210,32560
33248,3048,32485
33124,3083,32625
32804,2983,32479
32753,3017,32583
32792,2975,32468
33141,3026,32565
33425,3005,32455
33553,3057,32580
33492,3057,32106
33360,3071,32436
33276,3081,32327
33153,3012,32390
33124,3014,32505
33044,3061,32412
32976,2997,32484
33046,3084,32360
33152,3020,32332
33301,3059,32381
33356,3057,32485
33321,3075,32335
33232,3026,32302
33072,3039,32255
32996,2988,32356
32888,3030,32476
32832,2999,32365
32980,3094,32397
33168,3039,32306
33174,3041,32077
33156,3070,32327
33124,3159,32276
33252,3068,32216
33232,3015,32111
33125,3011,32221
33000,2970,32263
32992,2998,32284
33036,2992,32329
33134,3047,32325
33192,3037,32413
33264,3080,32302
33196,3050,32391
33124,3072,32281
32964,3008,32381
32824,3016,32255
32706,3107,32345
32781,2978,32159
32868,3045,32198
32844,3011,32345
32918,3074,31873
32992,3052,32311
32893,3080,32129
32804,3034,32157
32716,3035,32093
32656,2979,32233
32544,3031,32066
32640,2994,32093
32713,3106,32026
32780,3047,32119
32900,3040,32007
32964,3101,31967
33016,3047,31948
32992,3060,32064
32716,3013,31909
32509,3012,31909
32449,2978,31822
32601,3001,31844
32652,2990,31744
32781,3073,31719
32904,3056,31697
32976,3236,31709
32950,3082,31717
32953,3127,31879
32900,3021,31516
32903,3024,31655
32884,2973,31743
32872,2998,31676
32828,3000,31777
32792,3047,31302
32908,3039,31724
33036,3141,31581
33044,3071,31605
33080,3037,31247
33104,3067,31525
33000,2987,31233
33007,3064,31677
33146,3014,31495
33216,3028,31406
33376,3015,31495
33481,3233,31448
33576,3102,31353
33476,3056,31277
33264,3128,31163
32968,3046,31495
32680,2994,31022
32572,3072,31279
32576,3012,30989
32720,2995,31400
32872,3034,31239
33029,3042,31261
33105,3107,31188
33192,3059,31204
33296,3133,31106
33349,3042,31167
33340,3080,31076
33232,2980,31145
33135,3051,31021
33116,3016,31067
33100,3019,30815
33132,3143,30918
33204,3095,30916
33128,3055,30785
33044,3139,30727
33012,3045,30732
32909,2999,30656
32816,3023,30601
32808,2986,30429
32900,3108,30660
33044,3044,30581
33096,3043,30674
33161,3144,30522
33140,3084,30416
32952,3039,30399
32878,3111,30245
32840,3034,30529
32800,3005,30324
32724,2981,30109
32768,3150,30464
32840,3061,30268
32928,3041,30191
33042,3147,30163
33036,3081,30000
33008,3043,30312
33020,3070,30166
32992,3010,30164
32964,2979,30256
32914,3071,30089
32878,3040,29846
32952,3025,30204
32992,3045,30074
33124,3141,29982
33245,3084,30073
33212,3064,30045
33108,3013,30062
32996,3150,29964
32852,3027,29909
32804,3000,29871
32892,3001,29970
33032,3041,30076
33173,3063,29887
33360,3061,29729
33360,3080,29975
33284,3045,29911
33136,3027,29958
32909,3043,29876
32752,3009,29812
32696,2981,29844
32652,3090,29810
32748,3059,29572
32800,3067,29732
32916,3060,29940
32900,3164,29772
32848,3097,29595
32744,3056,29895
32648,2993,29720
32580,3082,29446
32560,3013,29865
32528,3002,29703
32648,3111,29828
32808,3072,29701
32869,3077,29612
32844,3191,29829
32801,3081,29677
32768,3037,29602
32810,2999,29854
32801,2982,29836
32740,2988,29663
32804,3053,29626
32813,3042,29784
32760,3046,29721
32688,3143,29782
32620,3083,29671
32543,3049,29743
32468,3091,29828
32412,3013,29752
32397,3176,29671
32464,3064,29878
32528,3035,29744
32640,3028,29671
32780,3121,29836
32916,3086,29682
32984,3066,29721
32948,3144,29829
32820,3053,29686
32708,3006,29503
32641,3070,29702
32717,3006,29424
32844,3002,29786
33005,3095,29652
33069,3084,29556
33168,3067,29542
33137,3132,29478
32908,3058,29416
32696,3124,29421
32572,3023,29537
32528,2988,29456
32572,3055,29484
32676,3036,29297
32808,3023,29069
32916,3143,29459
33018,3104,29269
33084,3070,29135
33176,3201,29299
33196,3103,29006
33188,3036,29109
33068,2992,29007
32904,3208,28941
32782,3100,28961
32797,3045,28857
32912,3074,28976
33044,3072,28801
33077,3303,28585
33052,3088,28668
32968,3038,28484
32952,3099,28670
32956,3015,28524
32964,2990,28580
33037,3074,28151
33185,3055,28239
33288,3050,28196
33300,3179,28108
33228,3112,28029
33172,3083,28105
33156,3037,28041
33157,3167,28131
33208,3030,27911
33216,3020,27892
33268,3010,27566
33408,3084,27791
33472,3060,27500
33600,3183,27461
33500,3102,27420
33338,3052,27436
33372,3107,27389
33400,3017,27293
33376,3071,27235
33420,3026,27120
33480,3009,27005
33460,3031,26855
33472,3153,27106
33428,3115,26877
33408,3097,26720
33372,3257,26632
33336,3098,26479
33308,3045,26700
33176,2993,26428
33108,3068,26348
33112,3044,26373
33240,3036,26305
33412,3201,26114
33612,3164,26261
33764,3089,26074
33820,3053,25957
33616,3125,25936
33392,3034,25820
33161,2995,25640
33094,3044,25641
33180,3016,25524
33240,3130,25454
33312,3082,25326
33356,3170,25318
33341,3102,25205
33244,3063,25068
33220,3072,25008
33200,3015,24892
33104,3105,24957
33034,3046,24805
33140,3033,24700
33276,3031,24499
33328,3152,24791
33376,3115,24546
33416,3075,24533
33376,3066,24365
33352,3109,24213
33328,3029,24170
33208,3083,24046
33095,3035,24144
33092,3023,23975
33144,3227,23807
33192,3123,23969
33232,3107,23636
33245,3086,23685
33228,3172,23759
33088,3091,23540
33048,3048,23455
32988,3001,23391
32908,3089,23334
32892,3036,23228
33072,3041,23161
33203,3086,22989
33196,3080,23013
33192,3170,22922
33168,3116,22809
33092,3074,22641
32996,3019,22917
32924,3209,22702
32976,3045,22564
33044,3051,22607
32968,3041,22543
32985,3139,22479
33029,3105,22372
33000,3085,22408
32836,3069,22243
32704,3094,22422
32608,3033,22280
32628,3082,22387
32692,3041,22213
32792,3019,22068
32912,3099,22119
32860,3076,22022
32816,3089,22076
32860,3159,22095
32748,3095,22208
32516,3044,22066
32364,3097,21950
32328,3031,21999
32284,3033,22015
32376,3029,22092
32465,3109,21954
32497,3091,21829
32664,3083,22054
32737,3216,21829
32848,3108,21767
32820,3068,21960
32804,3031,21742
32868,3080,22069
33081,3040,21922
33228,3022,21801
33276,3117,21810
33320,3101,21756
33332,3210,21936
33172,3109,21891
32916,3075,21892
32468,3103,21894
31968,3037,21895
31276,3099,21889
30724,3032,21788
30280,3028,21887
29864,3125,21800
29380,3103,21792
29016,3121,21832
28892,3101,21831
29013,3165,21823
29300,3079,21767
29792,3036,22018
30356,3164,21971
31096,3036,22108
31692,3033,21989
31952,3083,22053
32084,3075,22020
32272,3183,21906
32408,3116,22128
32464,3078,22061
32540,3063,21946
32604,3124,22234
32613,3045,22076
32608,3043,21944
32732,3029,22237
32876,3229,22061
33065,3130,22012
33068,3129,22364
32894,3097,22228
32789,3079,22082
32740,3063,22411
32680,3129,22160
32509,3043,22143
32416,3045,22468
32456,3035,22311
32568,3258,22241
32612,3122,22471
32696,3127,22396
32752,3124,22280
32756,3089,22591
32684,3151,22497
32637,3069,22393
32504,3023,22448
32448,3148,22435
32564,3065,22539
32748,3064,22630
32924,3086,22552
33009,3188,22832
32916,3178,22604
32860,3118,22761
32752,3090,22615
32640,3043,22973
32632,3026,22840
32644,3126,22896
32672,3101,22817
32724,3083,23125
32777,3087,23014
32864,3171,22918
32836,3117,22977
32745,3090,23116
32744,3198,23015
32596,3087,23297
32508,3046,23140
32460,3023,23036
32392,3117,23412
32389,3088,23292
32436,3116,23173
32468,3106,23481
32552,3107,23332
32620,3093,23365
32598,3112,23540
32576,3071,23392
32604,3026,23573
32682,3151,23425
32880,3136,23270
33068,3117,23496
33080,3107,23374
33024,3111,23337
33024,3213,23652
32976,3146,23493
32904,3094,23379
32756,3044,23736
32644,3120,23537
32492,3115,23647
32461,3075,23549
32492,3066,23543
32588,3158,23709
32732,3143,23692
32873,3108,23632
32976,3097,23804
32908,3115,23742
32797,3076,23856
32752,3036,23904
32724,3081,23768
32672,3072,24115
32684,3070,23932
32772,3099,23865
32820,3151,24209
32850,3110,24102
32832,3091,24169
32884,3164,24098
32872,3082,24320
32796,3054,24284
32724,3040,24128
32716,3052,24440
32732,3109,24420
32812,3108,24374
32946,3107,24645
32993,3189,24542
33056,3119,24485
33008,3079,24789
32872,3132,24725
32800,3052,24767
32784,3037,24823
32741,3093,24748
32740,3104,24959
32812,3177,24733
32880,3179,25068
32865,3146,25009
32784,3095,25000
32682,3135,25114
32584,3084,25049
32524,3036,25303
32548,3144,25301
32616,3074,25341
32633,3070,25396
32620,3160,25408
32756,3140,25391
32901,3121,25404
32889,3143,25640
32788,3088,25381
32724,3183,25795
32640,3079,25456
32642,3042,25900
32648,3120,25782
32637,3075,25968
32700,3280,25855
32744,3169,25800
32836,3135,25816
32796,3340,25863
32676,3147,26175
32614,3097,26058
32680,3037,26012
32868,3135,26140
33052,3083,25956
33156,3295,26188
33216,3121,26119
33204,3120,26187
33142,3150,26252
33048,3116,26247
33012,3173,26321
32985,3092,26369
32976,3181,26405
33044,3077,26440
33172,3071,26445
33340,3196,26638
33404,3149,26671
33512,3126,26662
33592,3200,26698
33564,3108,26772
33528,3146,26798
33404,3070,26853
33261,3158,26856
33164,3078,26937
33160,3061,26857
33216,3135,26912
33236,3132,27219
33368,3314,26855
33468,3159,27261
33536,3121,27202
33472,3220,27241
33416,3087,27261
33360,3047,27228
33308,3136,27321
33372,3078,27176
33501,3081,27560
33576,3166,27465
33592,3145,27630
33532,3128,27548
33460,3173,27513
33316,3115,27576
33204,3157,27581
33256,3074,27576
33376,3043,27639
33380,3115,27663
33364,3098,27724
33400,3111,27724
33420,3189,27780
33360,3156,27897
33333,3112,27716
33280,3135,28157
33168,3090,28023
32980,3051,27999
32905,3135,28060
32988,3142,28140
33113,3110,28028
33144,3104,28318
33185,3130,28228
33132,3220,28045
33100,3137,28335
33036,3095,28280
32948,3151,28289
32925,3080,28228
33001,3055,28564
33280,3198,28548
33480,3115,28596
33453,3108,28612
33276,3226,28612
33089,3153,28679
32868,3109,28754
32728,3195,28760
32796,3096,28733
32868,3084,28905
32884,3161,28741
32958,3097,28972
32990,3100,28992
33064,3203,29103
33208,3153,29007
33240,3140,28836
33124,3121,29276
32986,3201,29077
32844,3156,29194
32762,3094,29190
32776,3070,29409
32868,3071,29302
32948,3219,29247
32993,3135,29372
33068,3156,29411
33104,3135,29593
32964,3171,29485
32832,3106,29580
32864,3150,29558
32968,3077,29685
33052,3052,29617
33068,3100,29703
33020,3098,29684
32964,3113,29725
32976,3166,29781
32951,3137,29831
32928,3267,29816
32904,3164,29789
32868,3079,29804
32808,3156,29862
32738,3093,29855
32770,3107,29752
32805,3088,30215
32800,3243,30100
32860,3193,30055
32928,3166,30057
