ECG,EDA,RR
33081,2645,32556
32964,2690,32397
32860,2676,32236
32724,2754,32526
32609,2716,32452
32448,2762,32449
32504,2703,32356
32860,2713,32384
33186,2745,32391
33208,2674,32485
33128,2756,32594
32921,2685,32397
32768,2684,32544
32612,2784,32575
32372,2742,32432
32148,2724,32571
31960,2735,32678
31936,2793,32585
32213,2678,32541
32376,2727,32735
32388,2658,32660
32372,2753,32599
32384,2710,32840
32608,2840,32710
32832,2749,32396
32896,2719,32756
32840,2790,32746
32663,2707,32788
32400,2662,32720
32296,2721,32943
32360,2676,32836
32428,2660,32588
32452,2703,32988
32560,2705,32879
32736,2769,32722
32832,2715,33028
32884,2783,32901
32916,2714,32615
32924,2768,33124
32894,2663,33004
32824,2644,33068
32759,2691,33045
32672,2782,33001
32672,2710,32975
32860,2786,32938
33096,2723,33276
33080,2796,33071
32893,2716,33143
32704,2654,33175
32604,2658,33187
32576,2641,32893
32688,2726,33267
32820,2685,33212
32864,2776,33206
32868,2748,33396
32628,2717,33314
32512,2759,33429
32516,2706,33301
32420,2823,33093
32300,2661,33508
32292,2649,33415
32392,2682,33453
32464,2824,33361
32492,2730,33444
32596,2724,33491
32748,2752,33385
32852,2708,33509
33040,2681,33455
33132,2688,33668
32992,2643,33516
32961,2729,33405
32933,2693,33727
32976,2677,33600
32924,2737,33588
32897,2721,33500
32880,2776,33616
32832,2707,33719
32720,2770,33538
32676,2675,33685
32756,2786,33833
33076,2661,33701
33156,2792,33700
32972,2694,33631
32804,2703,33381
32588,2761,33880
32480,2749,33709
32552,2696,33399
32624,2720,33929
32584,2659,33761
32508,2687,33719
32568,2642,33768
32708,2700,33808
32752,2676,33853
32712,2740,33691
32752,2717,33486
32828,2768,33885
32865,2699,33797
32832,2709,33611
32772,2659,33765
32673,2671,33615
32564,2855,33989
32625,2683,33881
32765,2772,34037
32824,2707,33894
32816,2774,33945
32790,2714,33812
32764,2771,33919
32592,2687,33985
32580,2741,33799
32656,2665,33924
32617,2735,33881
32624,2686,33853
32736,2745,33640
32880,2698,34096
32842,2749,33932
32700,2719,33664
32676,2730,34097
32538,2767,34001
32494,2663,34078
32465,2700,34015
32448,2639,33672
32540,2684,34156
32704,2677,34000
32860,2735,33968
32964,2782,33933
33040,2719,33981
33016,2731,33943
32956,2767,34047
32788,2664,34156
32660,2692,34044
32713,2640,34020
32832,2680,33999
32825,2799,33791
32816,2713,34209
32825,2771,34100
32901,2714,34202
33093,2733,34093
33088,2820,34036
33017,2685,34010
32892,2645,33757
32876,2659,34215
32804,2759,34089
32896,2685,34054
33060,2743,34082
33030,2717,34116
32918,2771,34049
32801,2700,34033
32661,2729,34100
32561,2656,34125
32584,2686,34076
32873,2646,34032
33265,2723,34157
33376,2682,34124
33336,2755,34114
33157,2723,34138
32828,2838,34092
32584,2741,33907
32660,2685,34237
32652,2745,34089
32636,2667,34132
32716,2719,34031
32668,2656,33996
32704,2702,34046
32781,2705,34036
32740,2743,34100
32685,2863,34041
32572,2735,33959
32568,2793,34157
32673,2679,33999
32668,2736,33671
32552,2678,34036
32636,2665,34148
32764,2706,33849
32912,2700,33959
32993,2747,33903
32808,2723,34098
32600,2728,33945
32524,2678,33799
32472,2695,34074
32440,2644,33888
32497,2684,33565
32568,2659,34004
32732,2726,33836
33012,2707,33838
33112,2809,33833
33066,2743,33799
32900,2704,33959
32861,2714,33696
32812,2660,33823
32725,2716,33726
32684,2667,33916
32688,2664,33661
32804,2721,33741
32924,2710,33399
32970,2801,33766
33008,2736,33767
32996,2807,33624
32937,2706,33700
32984,2842,33415
33004,2678,33819
32948,2743,33645
32958,2680,33637
32996,2677,33436
33132,2747,33728
33232,2720,33490
33328,2780,33591
33376,2703,33729
33376,2720,33583
33376,2658,33218
33405,2691,33655
33376,2665,33519
33320,2668,33489
33421,2797,33542
33302,2735,33282
33108,2718,33489
32864,2768,33573
32580,2705,33644
32141,2740,33525
31520,2663,33312
30708,2754,33596
30084,2684,33420
29440,2681,33554
29049,2685,33567
29244,2714,33542
29510,2795,33516
29644,2737,33708
29844,2703,33492
30220,2713,33500
30760,2659,33576
31485,2691,33589
32028,2648,33504
32352,2754,33719
32688,2697,33484
33175,2707,33573
33497,2763,33537
33468,2745,33700
33344,2703,33632
33140,2764,33575
33040,2692,33604
33194,2742,33541
33284,2662,33625
33260,2827,33609
33125,2725,33608
33008,2711,33605
32984,2807,33543
33052,2722,33405
33225,2788,33714
33320,2707,33560
33280,2661,33609
33204,2687,33607
33424,2640,33607
33760,2745,33559
33976,2716,33622
33888,2897,33550
33592,2751,33685
33268,2732,33775
33064,2703,33505
32992,2724,33655
33024,2665,33416
33104,2644,33590
33216,2748,33615
33160,2684,33765
33152,2677,33652
33264,2730,33668
33452,2726,33701
33764,2745,33823
33876,2751,33728
33668,2686,33836
33412,2691,33689
33140,2646,33729
32876,2753,33415
32804,2697,33761
32776,2694,33903
32824,2790,33659
32952,2736,33743
33084,2884,33766
33253,2735,33751
33365,2774,33781
33365,2685,33711
33196,2702,33725
33028,2660,33790
33080,2689,33889
33156,2815,33774
33205,2722,33724
33408,2792,33655
33552,2724,33767
33689,2778,33709
33680,2697,33796
33509,2663,33705
33216,2687,33752
32901,2659,33719
32916,2772,33907
33080,2716,33716
33120,2848,33415
33140,2746,33892
33188,2802,33752
33345,2708,33692
33308,2726,33780
33292,2657,33728
33220,2662,33886
33088,2691,33736
33168,2654,33665
33440,2713,33742
33773,2767,33725
33752,2721,33708
33381,2763,33851
33210,2703,33747
33236,2724,33716
33166,2658,33701
33144,2692,33879
33053,2656,33645
32964,2778,33743
32900,2703,33413
32916,2707,33824
32916,2766,33764
33040,2728,33738
33108,2789,33759
33044,2711,33727
33037,2773,33860
32864,2678,33773
32780,2648,33798
32764,2712,33726
32760,2679,33860
32813,2778,33808
32982,2756,33632
33240,2725,33941
33248,2724,33760
33292,2678,33469
33356,2695,33776
33433,2644,33740
33504,2670,33505
33475,2658,33881
33384,2730,33722
33188,2725,33791
33008,2799,33814
33056,2729,33830
33132,2797,33799
33020,2713,33812
32777,2755,33863
32432,2641,33804
32384,2701,33740
32572,2671,33900
32660,2736,33793
32676,2703,33676
32636,2741,33917
32452,2798,33772
32336,2695,33771
32517,2717,33764
32724,2661,33541
32677,2695,33772
32780,2645,33911
32784,2686,33796
32620,2761,33799
32500,2713,33684
32592,2793,33794
32572,2725,33733
32473,2733,33885
32488,2686,33799
32556,2674,33748
32644,2703,33726
32696,2649,33799
32816,2719,33525
32932,2682,33923
33020,2741,33823
33056,2817,33868
33021,2721,33797
32880,2743,33701
32628,2683,33981
32440,2676,33816
32601,2766,33768
32716,2672,33952
32682,2751,33852
32609,2686,33786
32626,2741,34020
32840,2715,33864
33000,2772,33561
33077,2703,34025
33108,2703,33876
33104,2652,33639
33024,2685,33900
33068,2653,34008
33332,2759,33793
33456,2697,33924
33328,2817,33860
33074,2747,33799
32768,2854,33589
32536,2727,34053
32444,2781,33920
32436,2661,33889
32428,2700,33855
32532,2645,33949
32565,2713,33905
32596,2681,33927
32652,2744,33916
32864,2860,33993
33044,2751,33941
33040,2783,33940
33052,2699,33940
32992,2723,33963
32850,2647,33927
32600,2708,33951
32552,2659,33647
32576,2740,34077
32684,2707,33956
32872,2755,33861
33016,2714,34114
33088,2729,33961
32964,2731,34055
32958,2656,33903
33061,2677,33601
33168,2737,34082
33156,2671,33945
33024,2753,33625
32784,2702,34085
32756,2745,33957
32824,2851,33924
32789,2735,33831
32818,2831,33885
32856,2681,33909
32772,2642,33937
32684,2691,33948
32752,2660,33865
32888,2704,33717
32940,2805,33980
32996,2722,33948
32776,2772,33962
32546,2853,33916
32404,2704,33939
32348,2656,34074
32284,2698,33924
32356,2650,33597
32628,2691,34114
32930,2798,33969
33025,2740,33905
33000,2844,33972
32973,2747,33917
32844,2913,34015
32736,2705,33903
32625,2766,33879
32560,2648,33823
32520,2703,33575
32597,2665,34055
32728,2798,33860
32858,2739,33583
33008,2911,33996
33133,2737,33900
33208,2699,33852
33112,2746,33853
32912,2660,33967
32640,2692,33817
32633,2678,33828
32652,2759,33852
32576,2700,33845
32548,2710,33796
32596,2769,33728
32756,2724,33932
32897,2796,33720
32833,2697,33689
32828,2743,33751
33184,2645,33348
33488,2697,33844
33344,2661,33698
32876,2724,33716
32472,2705,33653
32228,2755,33597
32148,2787,33511
32192,2710,33601
32304,2759,33517
32268,2687,33660
32212,2833,33469
32300,2668,33177
32576,2657,33647
32796,2742,33461
32901,2733,33295
32935,2808,33585
32922,2731,33393
32792,2799,33087
32629,2702,33336
32480,2763,33487
32428,2660,33346
32420,2708,33340
32550,2693,33220
32648,2680,33285
32720,2773,33151
32786,2722,33370
32768,2760,33185
32788,2700,33149
32888,2740,33244
32948,2655,33082
32984,2697,33124
33064,2647,33052
32968,2699,33052
32784,2672,33053
32733,2734,32767
32734,2859,33125
32768,2742,33001
32944,2774,32729
33076,2682,33078
33209,2718,32967
33206,2649,32879
33072,2716,32823
32980,2670,32625
32848,2757,33042
32856,2706,32884
32906,2783,32919
32748,2744,32736
32577,2813,32831
32456,2707,32833
32478,2661,32956
32774,2706,32791
32760,2655,32644
32724,2739,32785
32653,2701,32785
32500,2782,32752
32492,2730,32666
32568,2778,32676
32662,2699,32608
32604,2715,32697
32532,2652,32815
32460,2663,32673
32532,2643,32480
32652,2679,32656
32776,2686,32701
33025,2737,32784
33105,2711,32536
33020,2754,32351
33024,2701,32721
32948,2728,32551
32856,2655,32546
32712,2664,32786
32688,2648,32621
32676,2776,32644
32560,2736,32421
32488,2726,32708
32536,2721,32498
32492,2765,32616
32457,2721,32588
32401,2678,32620
32424,2724,32600
32598,2670,32647
32864,2642,32476
33104,2669,32536
33306,2778,32514
33352,2731,32495
33181,2819,32741
32832,2736,32604
32536,2705,32519
32372,2745,32745
32252,2661,32538
32236,2717,32463
32208,2669,32716
32549,2871,32596
32884,2713,32540
33016,2703,32604
33156,2757,32580
33322,2719,32632
33212,2739,32449
32892,2677,32544
32688,2756,32564
32624,2692,32689
32616,2671,32573
32569,2746,32549
32516,2698,32587
32588,2801,32567
32660,2735,32351
32752,2718,32577
32800,2782,32615
32708,2686,32548
32584,2755,32249
32632,2665,32532
32768,2753,32528
33012,2695,32560
33108,2753,32584
33192,2715,32489
33232,2786,32239
33108,2714,32677
32800,2728,32567
32572,2770,32481
32508,2677,32535
32484,2692,32235
32560,2646,32684
32788,2694,32564
32908,2779,32597
32932,2730,32420
32968,2721,32529
32928,2768,32705
32736,2701,32552
32570,2714,32511
32592,2660,32461
32817,2675,32559
32968,2646,32663
33197,2695,32595
33140,2890,32524
33092,2737,32577
33140,2717,32577
33160,2814,32596
33036,2752,32453
32773,2687,32720
32384,2779,32741
32184,2671,32531
32328,2644,32293
32436,2696,32789
32407,2691,32532
32412,2738,32311
32453,2816,32775
32677,2740,32581
32841,2776,32429
32774,2679,32719
32684,2692,32687
32732,2639,32525
32716,2704,32844
32692,2669,32631
32632,2770,32415
32600,2739,32871
32708,2824,32729
32736,2754,32692
32684,2703,32903
32641,2716,32748
32560,2734,32789
32448,2659,32789
32412,2716,32791
32320,2663,32866
32268,2762,32726
32308,2738,32805
32444,2722,32736
32533,2742,32775
32564,2699,32816
32572,2714,32825
32504,2653,32700
32364,2678,32487
32452,2644,32986
32597,2729,32847
32860,2688,32774
33060,2790,32817
33205,2723,32497
33404,2775,33009
33412,2701,32836
33260,2762,32846
33029,2672,32856
32793,2863,32974
32648,2672,32829
32529,2663,32669
32488,2706,33005
32456,2708,32857
32436,2793,32865
32277,2728,32900
32284,2767,32881
32520,2685,32869
32638,2733,32713
32588,2643,32995
32397,2684,32891
32420,2850,32975
32577,2707,32910
32780,2710,32858
32880,2743,32548
33029,2716,32838
32976,2736,32858
32868,2681,32871
32768,2697,32610
32666,2644,32933
32604,2822,32972
32721,2696,32789
32926,2681,32839
33324,2724,32775
33376,2720,32921
33273,2766,32816
33184,2732,32780
33080,2679,32820
32944,2730,32742
32924,2653,32892
33040,2727,32754
33236,2682,32809
33444,2787,32753
33424,2735,32900
33304,2724,32813
33126,2775,32759
32768,2703,32797
32504,2772,32735
32312,2691,32865
31872,2646,32859
31364,2688,32796
30766,2675,32504
29924,2763,32778
29092,2721,32892
28750,2776,32821
28800,2715,32762
29024,2720,32711
29333,2779,32623
29738,2662,32908
30444,2724,32808
31136,2676,32929
31556,2665,32756
31984,2740,32817
32532,2734,32462
33076,2716,32739
33302,2804,32949
33276,2730,32770
33156,2687,32456
33005,2674,32932
32924,2730,32805
32844,2652,32791
32856,2728,32684
33148,2690,32791
33384,2787,32657
33548,2735,32873
33596,2788,32733
33500,2731,32783
33414,2761,32718
33320,2689,32888
33248,2706,32757
33268,2646,32807
33324,2662,32740
33504,2699,32767
33584,2818,32636
33593,2727,32371
33760,2759,32870
33840,2915,32732
33816,2689,32718
33652,2677,32725
33452,2635,32636
33292,2664,32873
33256,2660,32612
33437,2724,32420
33428,2708,32869
33336,2761,32663
33372,2716,32769
33284,2726,32775
33148,2678,32644
32932,2680,32761
32788,2729,32703
32696,2659,32825
32604,2723,32785
32656,2681,32533
32777,2764,32775
33004,2715,32647
33054,2771,32791
33060,2703,32736
33054,2740,32845
32900,2657,32901
32760,2719,32733
32664,2648,32449
32684,2688,32929
32764,2675,32669
32928,2794,32773
33188,2756,32764
33428,2718,32753
33460,2732,32703
33384,2764,32732
33324,2656,32903
33124,2669,32765
32900,2745,32836
32924,2671,32727
32964,2765,32453
33072,2700,32775
33312,2778,32703
33524,2741,32677
33516,2798,32687
33392,2701,32624
33156,2745,32484
33048,2644,32771
32980,2707,32685
33084,2657,32588
33188,2706,32536
33112,2821,32389
33144,2748,32767
33100,2798,32607
33232,2721,32556
33288,2681,32724
33380,2684,32593
33384,2634,32526
33372,2703,32548
33276,2662,32314
33152,2704,32644
32973,2914,32584
32865,2747,32557
32844,2788,32453
32772,2695,32303
32648,2704,32639
32676,2885,32524
32544,2673,32462
32449,2640,32599
32668,2696,32532
32852,2911,32537
32980,2715,32479
33024,2796,32485
32996,2713,32572
32908,2740,32415
32870,2823,32420
32876,2659,32350
32864,2700,32461
33116,2642,32554
33428,2681,32436
33512,2686,32285
33436,2743,32534
33176,2716,32311
33068,2759,32448
33152,2703,32346
33108,2732,32290
32948,2652,32391
32852,2688,32515
32770,2660,32373
32828,2744,32300
32865,2674,32253
32750,2729,32359
32680,2715,32345
32488,2781,32499
32368,2707,32293
32433,2783,32327
32477,2674,32259
32437,2643,32420
32444,2681,32270
32448,2659,32313
32544,2740,32093
33004,2716,32372
33393,2758,32256
33484,2717,31960
33302,2717,32391
33088,2774,32421
32741,2664,32149
32472,2700,32263
32388,2665,32179
32278,2751,32372
32180,2707,32216
32262,2835,31936
32420,2746,32391
32620,2775,32246
32760,2693,32188
32932,2722,32352
33016,2654,32230
32988,2684,32134
32860,2656,32292
32700,2811,32249
32592,2703,32253
32656,2828,32367
32894,2724,32251
33056,2829,32224
33032,2728,32254
32929,2677,32263
32992,2715,32249
33216,2635,32196
33176,2713,32124
33076,2675,32239
33148,2774,32205
33184,2728,32203
33088,2815,32237
32958,2746,32156
32777,2702,32359
32496,2904,32218
32320,2680,32156
32360,2725,32092
32452,2645,32293
32556,2682,32226
32656,2723,32343
32872,2707,32208
33173,2737,32347
33316,2787,31894
33276,2698,32348
33274,2756,32211
33173,2664,32116
32896,2687,32094
32800,2802,32105
32972,2679,32207
32864,2850,31863
32816,2737,32206
32812,2808,32157
32808,2724,32293
32925,2734,32145
32984,2784,32192
32880,2661,31972
32808,2678,32016
32752,2649,31821
32608,2680,32281
32532,2769,32108
32524,2701,32124
32740,2746,31806
32924,2809,32093
33012,2699,32065
32980,2727,32249
32828,2651,32063
32744,2684,32002
32644,2645,32231
32632,2704,31751
32812,2692,32094
33012,2787,32052
33212,2739,32083
33284,2714,32028
33164,2760,32023
32880,2696,32072
32584,2716,32084
32428,2637,32064
32616,2666,32047
32820,2654,31964
32852,2711,31743
32920,2707,32110
32836,2729,31993
32792,2769,32048
32921,2698,32159
32888,2687,31744
32800,2695,32093
32684,2638,31827
32624,2669,32096
32600,2741,31736
32716,2677,32225
32870,2753,32079
32940,2711,31993
33016,2765,31976
33032,2699,31829
33000,2694,32118
32917,2755,32066
32848,2656,32059
32696,2646,31952
32644,2693,31955
32532,2724,31933
32400,2708,31975
32316,2741,32002
32317,2772,32038
32552,2692,32020
32636,2693,32097
32600,2649,32039
32486,2665,32063
32404,2755,32052
32436,2659,32186
32564,2708,32047
32693,2709,32190
32736,2737,32052
32781,2799,32093
32780,2695,32044
32708,2700,32111
32644,2717,32054
32524,2641,32006
32492,2678,31991
32712,2725,32025
32973,2679,32052
33036,2706,32148
32924,2735,32039
32740,2784,32036
32548,2697,31879
32421,2681,31917
32340,2684,32070
32353,2723,32020
32442,2648,31909
32764,2685,31975
32956,2747,32018
33066,2707,32007
33000,2751,32063
32749,2789,32058
32665,2701,31954
32548,2685,32060
32468,2669,31942
32389,2730,31901
32268,2644,31988
32169,2703,31999
32384,2775,32067
32664,2708,32149
32648,2797,31751
32797,2710,31943
33128,2711,32002
33280,2739,32047
33184,2651,32108
32844,2687,32052
32432,2641,32108
32148,2679,32064
32172,2736,32108
32356,2699,32045
32672,2735,32034
32828,2793,32005
32809,2691,32012
32656,2709,31919
32508,2735,31900
32408,2645,32177
32232,2689,32028
32176,2664,31940
32384,2696,31892
32664,2763,32014
32884,2717,32167
33008,2804,32016
33097,2699,31957
32992,2725,31898
32805,2652,31745
32596,2691,32141
32568,2650,32000
32576,2691,31977
32628,2678,31958
32760,2727,31878
32932,2794,31868
32886,2726,31828
32820,2839,32124
32964,2710,31852
32972,2798,31996
32844,2672,31993
32644,2801,32026
32510,2681,31999
32436,2765,32015
32392,2734,31988
32336,2722,31999
32264,2735,32064
32289,2912,31992
32444,2706,31911
32696,2650,31863
32848,2696,31990
32752,2646,32005
32700,2707,31873
32760,2679,31888
32868,2728,31985
32952,2713,31996
32876,2752,31917
32696,2698,32124
32564,2772,31920
32612,2661,31847
32748,2703,32125
32936,2643,31980
33132,2709,31980
32996,2677,31932
32736,2785,31769
32584,2750,32080
32576,2925,31946
32654,2727,31860
32688,2771,32047
32637,2677,31941
32556,2646,31610
32536,2678,32068
32592,2747,31876
32544,2682,31857
32602,2725,31856
32752,2777,31848
32836,2713,31908
32984,2755,31907
33016,2679,31841
32993,2688,32004
32756,2641,31903
32532,2780,31768
32360,2659,31831
32272,2715,31956
32320,2699,31900
32472,2765,31831
32652,2713,31878
32956,2729,31575
33268,2678,32013
33344,2676,31895
33072,2637,31807
32676,2701,31980
32420,2670,31876
32320,2760,31796
32425,2720,31982
32528,2796,31879
32580,2708,31884
32616,2723,31797
32544,2681,31537
32588,2687,31975
32612,2637,31864
32632,2670,31871
32588,2659,31794
32548,2773,31855
32608,2756,31781
32824,2738,31973
32984,2799,31863
33048,2714,31828
32984,2761,31716
32904,2678,31824
32544,2717,31980
32412,2638,31856
32526,2679,31943
32628,2867,31853
32872,2722,31985
33156,2777,31537
33220,2899,31719
32985,2723,31514
32664,2676,31997
32480,2680,31848
32410,2726,31995
32592,2641,31847
32780,2691,31968
32741,2677,31873
32540,2713,31943
32532,2787,31869
32624,2719,31788
32604,2751,31727
32568,2675,31557
32484,2683,32015
32384,2750,31885
32448,2663,31992
32636,2740,31880
32896,2704,31761
32941,2789,31903
32820,2717,31856
32672,2749,32037
32500,2691,31903
32352,2709,31977
32416,2732,31900
32596,2635,31867
32844,2660,31862
33048,2664,31845
33132,2703,31777
33125,2776,31718
33076,2817,31824
33124,2710,31837
33168,2716,31812
33140,2677,31833
33004,2654,31909
32856,2660,31937
32832,2733,31902
32848,2661,31860
32896,2740,32047
32980,2700,31933
33165,2749,31833
33164,2791,31750
33036,2692,31818
33005,2706,31876
32937,2726,31935
32857,2635,31893
32597,2670,31840
32289,2657,31742
32392,2756,32123
32748,2732,31951
32876,2716,31899
32752,2743,31937
32552,2705,31980
32404,2672,31718
32216,2694,32119
32208,2639,31950
32308,2687,31908
32332,2653,31871
32380,2744,31959
32528,2722,32002
32664,2879,31879
32744,2729,31983
32802,2826,31973
32892,2682,31876
32909,2699,31638
32694,2632,32100
32561,2718,31948
32553,2660,31916
32529,2726,31831
32637,2703,31930
32848,2783,32095
32960,2715,31970
32892,2725,31988
32836,2672,31929
32862,2682,31941
32928,2635,31852
33024,2667,31862
33100,2799,31973
33108,2699,31933
33081,2704,32060
33204,2735,31964
33416,2813,32038
33548,2693,31958
33269,2709,32070
32965,2714,31612
32584,2761,31816
32256,2639,31874
32297,2664,31915
32387,2707,31940
32488,2764,31824
32512,2712,31844
32361,2742,31865
32352,2753,31831
32412,2679,31841
32528,2651,31829
32877,2661,31839
33036,2724,31885
33094,2653,31866
33256,2693,31901
33433,2776,31880
33536,2712,32013
33548,2747,31879
33520,2768,31921
33244,2679,31802
32936,2676,31796
32528,2635,31879
32164,2669,31852
31720,2698,31798
31204,2678,31669
30680,2718,31775
30176,2790,31847
29568,2714,32036
29036,2747,31869
28768,2672,31812
28844,2693,32014
28984,2736,31853
29248,2638,31975
29760,2679,31879
30392,2740,31982
31204,2699,31590
31969,2725,31782
32512,2733,31808
32864,2805,31823
33132,2668,31800
33060,2681,31860
33000,2725,31815
33101,2639,31769
33248,2702,31855
33301,2674,31989
33252,2720,31900
33093,2809,31933
32900,2704,31892
32908,2725,32014
33080,2701,31853
33364,2745,31963
33540,2638,31561
33588,2652,31977
33464,2708,31869
33412,2676,31931
33404,2725,31823
33412,2709,31521
33337,2733,31960
33116,2699,31780
32952,2692,31831
33068,2645,31975
33124,2665,31837
33228,2711,31973
33284,2656,31518
33420,2698,31791
33668,2789,31620
33801,2722,31815
33736,2756,31623
33488,2693,31716
33153,2691,31690
33008,2733,31741
33028,2632,31803
33125,2659,31765
33360,2730,31751
33588,2673,31903
33784,2755,31888
34004,2715,31941
33928,2779,31872
33736,2692,31909
33636,2697,31870
33732,2643,31825
33732,2657,31889
33660,2639,31908
33462,2690,31900
33124,2769,31853
32992,2724,31895
32929,2781,31958
32902,2707,31815
32816,2714,31796
32885,2671,32038
32972,2703,31855
33120,2626,31717
33286,2655,31936
33292,2750,31895
33210,2683,31812
33164,2764,31737
33096,2710,31647
33064,2729,31839
33052,2744,31541
33184,2903,31965
33311,2659,31875
33480,2686,31766
33562,2642,32015
33516,2700,31876
33521,2669,31844
33440,2732,31804
33415,2803,31895
33325,2733,31785
33142,2763,31557
33080,2671,32018
33132,2681,31887
33208,2724,31960
33284,2641,31892
33248,2676,32038
33256,2745,31872
33196,2711,31969
33132,2794,31858
33100,2717,31668
33028,2747,31996
32960,2673,31911
33084,2674,31940
33124,2632,31767
33156,2659,31889
33356,2658,31969
33612,2714,31844
33832,2695,31913
33892,2786,31770
33714,2717,32023
33661,2794,31878
33736,2702,31838
33534,2645,31891
33401,2670,32047
33261,2734,31868
33080,2664,31813
32844,2740,31975
32766,2698,31877
32840,2739,31879
32901,2846,31816
32892,2721,31532
32985,2752,31999
33117,2642,31855
33192,2666,31959
33306,2737,31829
33244,2688,31748
33180,2836,31728
33280,2717,31795
33269,2843,31867
32988,2726,31770
32940,2692,31550
33028,2694,31911
32903,2746,31797
32597,2642,31745
32492,2694,31703
32452,2669,31765
32664,2755,31649
32868,2707,31785
33044,2783,31751
33196,2722,31713
33220,2726,31688
33108,2773,31704
32932,2644,31719
32753,2651,31683
32701,2697,31720
32773,2660,31738
32833,2676,31721
32768,2727,31757
32920,2897,31652
33132,2722,31639
32996,2754,31575
32808,2671,31401
32604,2668,31848
32382,2702,31711
32332,2636,31797
32352,2686,31676
32421,2832,31844
32549,2705,31696
32664,2738,31830
32880,2785,31677
32960,2696,31804
33012,2694,31709
33028,2745,31820
33046,2648,31718
32920,2678,31801
32980,2756,31455
33224,2673,31657
33413,2745,31701
33484,2710,31711
33700,2728,31768
33676,2732,31711
33512,2778,31799
33128,2675,31704
32645,2699,31818
32372,2636,31717
32436,2676,31844
32688,2781,31391
32838,2696,31671
32872,2739,31677
32848,2708,31712
32864,2755,31644
32780,2678,31581
32824,2717,31447
32869,2661,31831
32824,2705,31712
32808,2661,31743
32729,2701,31678
32680,2797,31678
32772,2720,31670
32892,2773,31403
32936,2693,31745
32904,2705,31728
32840,2642,31872
32914,2660,31716
32836,2729,31846
32804,2658,31732
32782,2728,31871
32684,2705,31719
32632,2736,31855
32592,2734,31709
32596,2872,31801
32600,2703,31669
32552,2799,31552
32457,2655,31590
32516,2719,31640
32772,2670,31636
33228,2769,31397
33396,2713,31751
33320,2748,31414
33070,2711,31878
32872,2709,31733
32728,2676,31648
32737,2674,31629
32672,2738,31553
32676,2651,31871
32616,2732,31734
32724,2699,31657
33028,2700,31871
33328,2802,31725
33296,2741,31580
33190,2820,31833
32997,2704,31724
32964,2725,31844
32830,2652,31741
32645,2699,31714
32620,2655,31751
32636,2712,31751
32728,2699,31756
32848,2751,31628
32816,2705,31423
32768,2764,31847
32792,2683,31655
32832,2710,31418
32969,2635,31879
33032,2666,31751
32984,2655,31829
32844,2701,31735
32725,2694,31688
32812,2732,31703
32956,2934,31663
33044,2713,31688
33093,2668,31725
32964,2700,31513
32701,2630,31869
32609,2670,31743
32716,2653,31656
32845,2696,31868
33006,2699,31744
33212,2743,31661
33344,2704,31677
33325,2729,31751
33112,2671,31644
32772,2741,31876
32478,2665,31709
32269,2635,31780
32148,2740,31742
32180,2711,31724
32268,2701,31911
32436,2759,31750
32656,2710,31444
32780,2780,31772
32768,2693,31928
32652,2742,31751
32592,2667,31599
32632,2732,31762
32698,2686,31903
32788,2680,31769
32908,2728,31495
32998,2871,31933
33084,2717,31834
33208,2751,31837
33216,2686,31793
33100,2722,31821
32972,2640,32007
32908,2713,31865
33040,2660,31805
33056,2673,32034
33124,2760,31833
33084,2713,31845
32884,2743,31820
32737,2686,31920
32744,2693,32028
32672,2701,31623
32745,2631,32060
32768,2696,31863
32596,2657,31653
32556,2712,32079
32648,2697,31947
32668,2737,31951
32789,2708,31889
32897,2712,31696
32969,2853,32165
32824,2680,32025
32616,2636,31894
32516,2665,32241
32424,2657,32113
32468,2708,32093
32676,2794,32068
32756,2731,32120
32800,2702,32236
32744,2713,32128
32637,2772,32117
32592,2669,32220
32566,2634,32180
32572,2777,32248
32649,2679,32072
32673,2855,32325
33016,2731,32292
33768,2783,32440
33984,2706,32349
33712,2752,32247
33205,2692,32519
32648,2741,32359
32432,2658,32135
32396,2639,32531
32448,2726,32494
32300,2705,32423
32224,2804,32159
32200,2747,32590
32320,2837,32466
32476,2724,32204
32444,2667,32549
32394,2692,32641
32356,2635,32608
32508,2697,32568
32553,2653,32542
32512,2728,32688
32641,2700,32732
32748,2789,32624
32852,2716,32755
32876,2787,32515
33021,2689,32871
33141,2852,32665
33068,2667,32812
32964,2863,32775
32788,2674,32855
32620,2771,32875
32692,2732,32871
32720,2709,33031
32804,2741,32884
32900,2686,32946
32908,2677,32827
32904,2653,32919
32872,2720,32981
32868,2657,32916
32869,2659,33106
32725,2720,32959
32677,2733,33025
32708,2715,32775
32612,2813,33029
32484,2700,33088
32368,2721,32948
32368,2649,32951
32496,2648,33138
32528,2686,33095
32512,2650,33081
32644,2692,32989
32984,2697,33123
33264,2750,33087
33368,2718,33286
33276,2809,33066
33096,2689,32840
32836,2852,33287
32704,2664,33066
32756,2639,33197
32788,2677,33244
32720,2671,33086
32732,2726,32884
32865,2724,33318
32844,2704,33154
32736,2743,33226
32732,2675,33231
32748,2728,33269
32784,2650,33273
32810,2722,33383
32728,2671,33167
32612,2787,33308
32516,2727,33232
32504,2797,33175
32652,2703,33180
32729,2718,33456
32740,2847,33339
32740,2647,33321
32848,2724,33401
32893,2671,33317
32924,2651,33367
32886,2739,33132
32868,2698,33484
33072,2770,33252
33181,2710,33389
33088,2791,33273
32840,2692,33535
32588,2730,33383
32476,2653,33067
32544,2641,33364
32640,2786,33558
32748,2729,33451
33006,2714,33396
33181,2770,33248
33152,2731,33448
33057,2689,33566
32840,2709,33441
32652,2644,33498
32596,2681,33429
32796,2633,33564
33076,2690,33526
33185,2667,33525
33124,2792,33572
32892,2744,33559
32800,2798,33537
32824,2696,33519
32676,2693,33244
32548,2682,33509
32528,2699,33725
32632,2633,33557
32972,2687,33389
33396,2861,33711
33689,2726,33635
33632,2787,33711
33320,2697,33623
32908,2754,33472
32556,2669,33796
32364,2691,33516
32444,2627,33623
32544,2652,33809
32564,2723,33687
32598,2674,33604
32612,2727,33553
32688,2880,33420
32606,2704,33670
32562,2718,33572
32500,2838,33814
32480,2661,33703
32527,2728,33452
32616,2631,33719
32824,2668,33709
32964,2820,33761
33028,2712,33779
33028,2707,33649
33012,2764,33401
32932,2682,33807
32888,2694,33726
32844,2745,33457
32776,2631,33842
32704,2705,33668
32742,2654,33479
32797,2728,33663
32736,2692,33835
32720,2759,33623
32740,2712,33723
32784,2778,33595
32865,2699,33775
33064,2642,33751
33144,2660,33684
33072,2636,33366
32940,2669,33705
32936,2666,33799
32936,2723,33700
32992,2709,33497
33028,2725,33834
32856,2791,33693
32712,2671,33661
32631,2677,33561
32474,2629,33684
32481,2737,33479
32644,2682,33764
32780,2674,33543
32924,2721,33657
32948,2794,33741
33020,2697,33672
32992,2717,33670
32888,2744,33606
32816,2657,33623
32812,2685,33721
32940,2628,33589
32876,2692,33468
32764,2667,33789
32780,2721,33616
32748,2819,33575
32580,2701,33569
32532,2748,33629
32568,2660,33566
32576,2659,33701
32528,2631,33607
32472,2653,33271
32516,2729,33767
32648,2675,33590
32788,2765,33564
32836,2742,33769
32816,2702,33573
32697,2709,33614
32586,2667,33575
32513,2688,33756
32501,2628,33532
32652,2688,33588
32899,2649,33622
33014,2699,33559
33125,2692,33559
33124,2729,33725
32988,2804,33575
32830,2693,33511
32812,2717,33543
32976,2745,33556
33292,2624,33705
33548,2637,33591
33632,2685,33542
33685,2663,33452
33585,2717,33481
33256,2782,33728
32968,2697,33597
32663,2709,33492
32436,2772,33511
31956,2650,33286
31148,2669,33751
30288,2638,33606
29772,2702,33252
29468,2667,33749
29112,2710,33637
29092,2747,33716
29213,2887,33647
29404,2697,33687
29680,2745,33532
30068,2637,33438
30828,2650,33516
31628,2673,33685
32188,2765,33654
32660,2673,33799
33064,2718,33668
33332,2704,33783
33312,2720,33644
33248,2752,33734
33376,2660,33628
33356,2674,33600
33344,2625,33756
33360,2662,33693
33312,2643,33624
33156,2699,33665
33084,2834,33655
33104,2723,33780
33148,2756,33653
33216,2691,33661
33364,2669,33660
33456,2667,33693
33381,2785,33639
33212,2664,33606
33068,2728,33527
32972,2667,33463
33000,2745,33784
32980,2700,33633
32917,2719,33583
32961,2766,33527
33116,2659,33593
33228,2671,33525
33273,2701,33476
33288,2647,33793
33364,2689,33676
33508,2667,33568
33592,2720,33647
33604,2880,33703
33584,2735,33782
33520,2771,33679
33340,2678,33441
33216,2674,33799
33096,2717,33402
33052,2629,33703
33048,2667,33420
33036,2758,33830
33112,2701,33622
33268,2787,33761
33292,2719,33655
33424,2684,33908
33568,2700,33720
33564,2784,33720
33345,2664,33781
33160,2694,33783
33132,2669,33862
33100,2746,33728
33141,2693,33452
33376,2725,33912
33476,2695,33679
33456,2701,33787
33404,2804,33732
33270,2679,33889
33053,2710,33496
32857,2631,33926
32800,2688,33760
32877,2772,33719
33024,2696,33764
33164,2727,33792
33264,2786,33858
33280,2680,33677
33156,2694,33799
33188,2734,33720
33184,2661,33813
33376,2740,33751
33536,2673,33877
33392,2826,33799
33196,2716,33701
33088,2742,33772
33136,2701,33841
33180,2696,33972
33022,2731,33831
32828,2648,33508
32684,2706,33941
32628,2628,33836
32740,2672,33892
32832,2758,33796
32830,2692,33869
32772,2779,33911
32728,2704,33695
32832,2768,33964
32841,2680,33888
32856,2724,33940
32942,2647,34047
33110,2702,33927
33304,2646,33607
33536,2701,34049
33649,2697,33863
33592,2738,33960
33436,2698,34124
33256,2720,34005
32968,2717,34009
32872,2638,34004
33064,2671,33645
33188,2634,34129
33256,2673,34020
33208,2669,34076
33034,2717,33963
32924,2709,33752
32932,2723,34164
33102,2830,34020
33132,2694,33945
32972,2727,33881
32652,2639,33642
32348,2707,34143
32245,2652,34008
32296,2703,34002
32408,2691,33890
32544,2747,33989
32640,2705,34113
32612,2713,33991
32556,2867,33935
32820,2659,33927
33116,2719,33908
33188,2647,33943
33000,2687,33892
32809,2771,33960
32792,2698,34020
32736,2736,33944
32501,2822,33903
32268,2684,33861
32218,2693,33906
32308,2641,33949
32388,2659,33647
32528,2669,33860
32644,2758,33926
32696,2691,33882
32784,2786,33637
32924,2705,34146
32984,2737,33994
32988,2684,34137
32884,2697,33998
32910,2734,33794
33016,2623,34172
33050,2680,33908
32952,2648,34025
32908,2693,34036
32822,2764,34036
32800,2712,34148
32844,2721,34052
32838,2758,34081
32920,2674,34078
33068,2719,34067
33069,2632,34038
33004,2686,34148
32968,2653,34068
32996,2702,34012
33092,2774,34020
33216,2711,34092
33295,2723,34095
33301,2764,34062
33288,2662,34033
33204,2680,34148
33140,2621,34146
32956,2658,34085
32836,2729,34149
32876,2671,34230
32972,2734,34149
32980,2709,34140
33040,2731,34311
32992,2681,34197
32944,2698,34151
32912,2731,34256
32804,2629,34242
32728,2705,34360
32718,2663,34224
32750,2765,33932
32870,2725,34414
32956,2797,34269
32990,2713,34220
33028,2765,34455
33184,2661,34337
33380,2670,34292
33268,2629,34244
33184,2636,34303
33048,2692,34276
32848,2759,34461
32592,2692,34407
32408,2727,34428
32408,2794,34353
32416,2682,34365
32381,2694,34452
32365,2643,34439
32325,2651,34616
32364,2631,34484
32432,2672,34438
32608,2777,34412
32756,2727,34516
32988,2789,34601
33048,2699,34445
33026,2770,34581
32918,2667,34687
32744,2667,34591
32700,2773,34657
32796,2659,34625
32880,2703,34660
32988,2667,34611
33080,2736,34318
33060,2703,34774
32884,2764,34854
32760,2703,34620
32648,2754,34357
32576,2660,34892
32780,2717,34636
32964,2657,34777
33252,2731,34806
33584,2701,34916
33573,2684,34701
33264,2781,34813
32900,2717,34781
32529,2743,34717
32508,2855,34785
32612,2641,34789
32852,2679,34818
32936,2641,34754
32900,2738,34861
32720,2666,35052
32576,2720,34929
32430,2757,35028
32365,2771,34948
32598,2798,35076
33025,2661,34967
33212,2656,34905
33120,2682,34914
32896,2627,34897
32620,2668,35101
32444,2741,34983
32452,2696,35014
32472,2732,34868
32388,2763,34981
32316,2681,35148
32285,2673,35008
32244,2679,34970
32409,2722,34924
32656,2637,34913
32740,2727,35136
32821,2689,35059
32789,2733,35034
32772,2807,35023
32768,2699,35120
32784,2698,35068
32845,2729,35157
32852,2643,35061
32752,2652,35005
32637,2691,35012
32500,2649,34695
32528,2699,35207
32820,2754,35095
33080,2709,35119
33012,2713,35069
32928,2746,34964
33050,2661,35053
33128,2658,34724
32908,2709,35232
32852,2627,35111
32799,2675,35244
32688,2747,35103
32586,2692,35042
32633,2733,35065
32828,2697,35090
32880,2708,35166
32873,2739,34989
32672,2633,35037
32420,2623,35009
32232,2665,34946
32189,2681,34951
32436,2759,34924
32648,2688,35004
32800,2726,35033
32900,2724,35031
32918,2775,34997
33044,2669,34917
33072,2702,35023
32944,2619,35178
32760,2666,35022
32699,2769,35132
32732,2697,34988
32788,2781,34917
32877,2715,35151
32728,2782,34937
32496,2677,34918
32408,2709,35020
32420,2714,34964
32500,2638,34901
32560,2695,34951
32662,2646,34924
32738,2724,34836
32860,2689,34877
32900,2732,34872
32884,2692,34863
32900,2707,34879
32788,2789,34841
32704,2671,34788
32872,2719,34673
33112,2636,34405
33141,2724,34884
32980,2697,34694
32894,2693,34376
32912,2722,34799
32720,2899,34656
32501,2701,34308
32500,2717,34799
32580,2635,34652
32700,2646,34661
32832,2671,34548
32916,2646,34439
32864,2681,34556
32788,2779,34509
32712,2701,34615
32616,2735,34423
32568,2680,34439
32440,2692,34567
32504,2729,34414
32900,2650,34285
33156,2723,34474
33300,2654,34336
33381,2745,34239
33420,2722,34358
33184,2701,34225
32788,2759,34180
32505,2686,34254
32361,2717,34159
32400,2637,34092
32500,2667,34077
32538,2632,34076
32625,2717,33981
32664,2694,34157
32657,2772,33951
32616,2703,33608
32584,2778,33945
32624,2693,34041
32728,2816,33841
32676,2651,33716
32624,2741,33700
32632,2669,33771
32893,2643,33821
33270,2681,33663
33428,2690,33332
33348,2727,33673
33080,2696,33543
32908,2708,33592
32668,2655,33606
32564,2665,33471
32568,2679,33270
32648,2625,33627
32804,2692,33422
32804,2662,33420
32958,2729,33481
33124,2698,33305
33352,2805,33264
33269,2709,33352
33012,2659,33306
32653,2724,33215
32436,2649,33260
32532,2721,33391
32524,2677,33247
32428,2664,33119
32428,2733,33210
32486,2707,33170
32556,2778,33170
32585,2680,33181
32648,2742,33117
32720,2655,33140
32976,2774,33061
33248,2660,33189
33248,2752,33076
33014,2684,33070
32740,2810,33061
32648,2705,32940
32624,2759,33031
32738,2684,33103
32804,2744,32895
32720,2631,32705
32580,2637,33145
32340,2715,32986
32300,2647,33086
32492,2709,32881
32656,2688,32971
32704,2723,33116
32777,2821,32927
32764,2690,32868
32920,2693,32822
32948,2634,32927
32840,2651,33023
32656,2629,32876
32654,2675,32585
32720,2756,33071
32756,2695,32903
32900,2755,32775
32940,2695,32949
33065,2703,32902
33044,2756,32964
32936,2631,32893
32893,2647,32850
32844,2773,32817
32661,2642,32917
32545,2692,32859
32620,2879,32604
32676,2733,33029
32692,2799,32822
32616,2695,32797
32444,2758,32985
32453,2643,32866
32516,2640,32974
32753,2715,32836
33053,2649,32775
33276,2691,32812
33400,2689,32832
33268,2703,32885
32944,2714,32832
32632,2828,32967
32380,2687,32845
32341,2657,32852
32376,2682,32850
32316,2709,32951
32276,2642,32565
32336,2663,32693
32472,2719,32741
32584,2728,32769
32704,2894,32705
32724,2697,32952
32652,2658,32804
32656,2657,32518
32564,2744,32970
32556,2641,32805
32692,2692,32807
32812,2661,32761
32788,2717,32785
32780,2756,32901
32792,2865,32796
32752,2698,32706
32728,2682,32661
32784,2634,32472
33224,2624,32861
33736,2660,32747
34080,2729,32745
34332,2659,32615
34328,2737,32759
34004,2701,32681
33516,2742,32853
33024,2671,32758
32640,2679,32897
32176,2699,32744
31492,2622,32893
30924,2656,32762
30480,2727,32836
29980,2669,32644
29484,2744,32424
29232,2702,32820
29224,2716,32742
29364,2768,32676
29660,2668,32899
30072,2705,32648
30593,2628,32412
31365,2661,32789
31934,2645,32729
32273,2683,32892
32766,2731,32765
33256,2699,32700
33480,2750,32881
33461,2670,32761
33336,2696,32565
33096,2873,32795
32856,2649,32756
32761,2702,32687
32864,2647,32746
33032,2707,32749
33033,2684,32695
33100,2739,32804
33100,2692,32737
32976,2724,32607
32913,2654,32871
32876,2688,32647
32916,2621,32404
32928,2654,32839
33052,2755,32684
33240,2664,32729
33352,2730,32639
33436,2695,32708
33536,2705,32680
33500,2697,32801
33540,2735,32693
33464,2630,32758
33464,2652,32673
33600,2691,32839
33668,2644,32710
33670,2685,32633
33468,2786,32580
33373,2707,32480
33224,2771,32788
33017,2674,32394
32868,2692,32775
32885,2755,32744
32870,2617,32739
32900,2668,32696
33072,2723,32775
33356,2658,32762
33692,2715,32858
34060,2747,32796
34136,2692,32885
33840,2708,32761
33312,2791,32741
33020,2638,32738
32908,2660,32495
32900,2627,32901
32880,2657,32550
32832,2738,32818
32926,2714,32797
33000,2771,32716
33032,2719,32935
32994,2681,32676
32864,2688,32519
32690,2718,32902
32660,2806,32680
32688,2646,32887
32752,2690,32775
32797,2659,32701
32884,2723,32669
32936,2733,32580
32972,2773,32613
33016,2675,32456
33110,2687,32761
32948,2749,32391
32680,2627,32842
32504,2710,32623
32668,2648,32457
32984,2719,32825
33220,2692,32714
33556,2724,32821
33640,2741,32710
33488,2674,32833
33216,2663,32698
32912,2680,32770
32789,2619,32665
32782,2652,32597
32984,2726,32679
33152,2662,32476
33308,2720,32552
33556,2791,32588
33616,2704,32549
33460,2697,32600
33172,2756,32725
32952,2666,32681
32749,2750,32610
32737,2651,32628
32748,2769,32686
32888,2671,32763
33012,2746,32573
33164,2721,32687
33268,2784,32709
33141,2688,32646
33184,2734,32609
33200,2634,32588
32972,2672,32655
32848,2628,32774
32936,2663,32636
33108,2747,32704
33096,2684,32620
32880,2726,32401
32576,2759,32575
32384,2677,32647
32352,2661,32623
32456,2650,32609
32308,2714,32571
32224,2751,32775
32345,2639,32324
32361,2695,32505
32476,2775,32660
32704,2701,32628
32877,2733,32685
32856,2775,32621
32720,2655,32719
32488,2659,32620
32188,2661,32756
31952,2627,32589
31972,2674,32718
32173,2863,32557
32448,2708,32677
32708,2773,32576
32792,2714,32505
32680,2742,32439
32502,2657,32248
32364,2658,32665
32349,2715,32581
32400,2625,32637
32536,2664,32551
32782,2751,32644
32773,2691,32553
32752,2725,32560
32718,2784,32501
32772,2675,32453
32912,2683,32412
33104,2660,32489
33100,2712,32508
32948,2620,32533
32828,2663,32517
32849,2685,32519
32964,2774,32450
32980,2694,32488
32917,2724,32196
32940,2757,32613
33180,2828,32249
33166,2624,32412
32884,2640,32239
32692,2763,32627
32696,2653,32488
32640,2708,32473
32772,2690,32452
32896,2708,32423
32844,2712,32477
32704,2771,32556
32596,2673,32460
32533,2691,32397
32416,2618,32359
32348,2656,32132
32372,2721,32577
32549,2747,32116
32684,2775,32398
32844,2694,32393
32860,2723,32365
32705,2751,32196
32620,2656,32550
32676,2677,32418
32744,2607,32348
32844,2638,32276
33080,2745,32372
33125,2659,32535
33102,2696,32383
33040,2792,32343
32924,2691,32373
32824,2673,32411
32840,2683,32229
32693,2669,32252
32496,2615,32015
32461,2658,32383
32422,2694,32154
32484,2778,32248
32664,2680,32332
32856,2727,32295
32836,2744,32361
32740,2755,32327
32840,2655,32441
32876,2658,31977
32836,2653,32228
32860,2625,32226
32985,2650,32287
33088,2699,32276
33244,2771,32308
33368,2691,32415
33352,2714,32292
33108,2709,32304
32700,2823,32263
32325,2626,32332
32198,2627,32167
32276,2667,32156
32392,2751,32222
32441,2657,32295
32505,2717,32391
32748,2764,32263
32988,2687,32173
33064,2708,32251
33052,2698,32294
32884,2847,32436
32528,2627,32263
32384,2654,32341
32356,2740,31973
32424,2659,32237
32608,2709,31954
32680,2693,32343
32660,2722,32269
32596,2774,32188
32536,2688,32306
32481,2626,32260
32382,2641,32239
32509,2787,32191
32680,2669,32037
32836,2746,32121
32809,2684,32206
32730,2714,32260
32748,2791,32375
32724,2675,32039
32760,2674,32305
32660,2732,31921
32480,2631,32263
32384,2665,32092
32224,2735,32196
32224,2662,32288
32388,2710,32272
32452,2869,32270
32535,2708,32287
32528,2717,32428
32452,2836,32263
32628,2627,32177
33012,2651,32173
33168,2668,32245
33204,2641,32237
33336,2692,32239
33320,2805,32263
33164,2724,32408
33008,2736,31986
32734,2674,32320
32332,2677,32285
31992,2634,32316
31876,2662,32210
31964,2621,32197
32085,2661,32237
32212,2661,31961
32344,2708,32373
32612,2697,32269
32848,2722,32312
32877,2770,32269
32968,2672,32263
32876,2716,32201
32576,2626,32095
32412,2680,32127
32372,2640,31924
32366,2741,32353
32500,2715,32233
32628,2881,32186
32576,2721,32355
32540,2763,32218
32500,2666,32261
32565,2667,31919
32585,2615,32304
32464,2655,32218
32388,2639,32151
32316,2717,32314
32216,2684,32229
32204,2777,32153
32376,2700,32183
32452,2746,32181
32476,2652,32175
32556,2651,32109
32584,2702,32128
32538,2628,31895
32533,2673,32095
32808,2659,31884
33024,2703,32140
33025,2692,32157
32852,2709,32260
32680,2809,32159
32500,2663,32293
32628,2719,32113
32842,2622,32052
32925,2689,31990
32888,2638,31973
32736,2692,32027
32612,2687,31778
32488,2722,32228
32352,2785,32095
32288,2676,32217
32304,2713,32087
32380,2632,31997
32665,2707,32104
32988,2631,32054
33016,2709,32201
32900,2663,32056
32916,2756,32124
32984,2693,32047
33224,2724,32016
33128,2678,31951
33056,2675,31743
32884,2865,32117
32636,2651,32015
32474,2623,31953
32444,2676,31908
32316,2774,31692
32124,2696,32067
32032,2772,32006
32148,2695,31973
32352,2782,31845
32613,2679,31975
32644,2633,31895
32665,2643,31833
32612,2628,31932
32616,2666,32053
32640,2871,31919
32716,2722,32056
32828,2787,31592
32860,2722,32028
32694,2765,31904
32484,2669,32006
32276,2719,31845
32252,2625,31614
32428,2687,32022
32552,2649,31550
32636,2664,31732
32684,2729,31571
32672,2700,31953
32544,2713,31821
32578,2723,31903
32597,2664,31839
32624,2734,31684
32816,2614,31709
33125,2646,31716
33416,2723,31684
33556,2659,31484
33528,2715,31953
33421,2817,31783
33092,2693,31748
32636,2700,31788
32356,2698,31844
32068,2629,31727
31948,2620,31812
32013,2657,31760
32040,2661,31889
32056,2742,31727
32192,2842,31623
32520,2698,31661
33083,2713,31599
33696,2713,31704
33888,2744,31696
33732,2635,31800
33462,2617,31693
32886,2632,31697
32364,2662,31468
32104,2711,31559
32032,2805,31361
32132,2701,31665
32192,2745,31631
32389,2678,31761
32484,2668,31663
32432,2690,31644
32305,2815,31580
32236,2653,31557
32244,2697,31631
32316,2659,31604
32492,2705,31750
32725,2845,31622
32821,2716,31677
32919,2739,31585
33073,2750,31669
32972,2759,31596
32736,2618,31717
32596,2663,31576
32728,2691,31722
32812,2752,31601
32900,2681,31743
33108,2720,31572
33280,2794,31529
33432,2699,31525
33564,2689,31641
33524,2874,31598
33212,2644,31655
32885,2700,31474
32704,2647,31558
32628,2692,31720
32663,2689,31591
32737,2720,31511
32652,2782,31463
32449,2675,31540
32336,2659,31596
32320,2657,31581
32426,2687,31597
32592,2757,31736
32992,2642,31301
33280,2689,31471
33188,2742,31516
33120,2868,31595
32856,2703,31734
32524,2727,31612
32276,2659,31654
32152,2681,31610
32112,2621,31654
32065,2662,31604
32161,2723,31704
32328,2662,31618
32564,2714,31671
32848,2749,31611
32869,2704,31728
32729,2711,31605
32656,2714,31661
32516,2713,31558
32504,2628,31620
32584,2628,31519
32637,2666,31300
32658,2708,31564
32612,2694,31569
32592,2699,31617
32688,2720,31663
32768,2701,31476
32900,2722,31557
32948,2831,31705
32792,2622,31601
32697,2649,31482
32516,2700,31623
32432,2850,31610
32628,2713,31622
33000,2759,31615
33288,2755,31697
33620,2698,31585
33764,2745,31719
33608,2668,31591
33252,2721,31524
32888,2651,31446
32560,2700,31503
32365,2738,31581
32300,2694,31717
32332,2716,31559
32396,2784,31679
32516,2679,31293
32480,2692,31501
32357,2682,31528
32500,2624,31511
32800,2650,31467
32944,2740,31525
33077,2683,31482
33100,2781,31413
33020,2707,31423
32810,2728,31458
32737,2778,31536
32852,2663,31494
33076,2673,31620
33225,2628,31458
33316,2673,31524
33376,2820,31381
33344,2696,31364
33256,2741,31457
33157,2708,31463
33164,2707,31587
33108,2709,31130
32897,2712,31396
32300,2723,31558
31345,2629,31461
30426,2660,31561
29880,2755,31462
29472,2681,31569
29216,2733,31460
29308,2826,31508
29312,2725,31325
29173,2746,31140
29088,2665,31596
29264,2668,31452
29772,2627,31319
30552,2661,31511
31284,2799,31447
31824,2700,31389
32316,2698,31381
32745,2729,31404
33124,2730,31327
33308,2806,31255
33432,2672,31357
33376,2691,31129
33257,2638,31589
33200,2698,31457
33160,2653,31460
33364,2691,31430
33600,2794,31389
33684,2721,31309
33608,2736,31128
33428,2796,31471
33196,2686,31432
32969,2683,31559
32996,2628,31436
33320,2659,31524
33561,2698,31423
33656,2671,31511
33536,2732,31393
33493,2797,31495
33412,2705,31398
33412,2717,31534
33420,2673,31413
33328,2674,31524
33240,2698,31421
33172,2638,31463
33264,2667,31404
33396,2693,31559
33412,2788,31452
33487,2705,31414
33661,2739,31324
33836,2771,31335
34196,2661,31428
34236,2677,31153
33884,2685,31486
33416,2636,31465
33072,2682,31634
32805,2716,31489
32664,2699,31583
32624,2724,31456
32616,2750,31192
32644,2783,31340
32657,2672,31171
32664,2666,31465
32670,2755,31486
32836,2644,31477
32936,2699,31418
33064,2678,31373
33300,2732,31484
33460,2768,31173
33444,2876,31389
33324,2692,31239
33317,2693,31383
33316,2861,31139
33536,2662,31417
33813,2760,31151
33920,2687,31344
33656,2769,31343
33404,2709,31540
33304,2761,31407
33196,2706,31494
33080,2709,31367
33160,2790,31332
33177,2659,31317
33164,2668,31425
33189,2729,31380
33220,2651,31396
33224,2707,31155
33152,2788,31325
33085,2792,31418
32908,2722,31375
32812,2737,31521
32729,2670,31392
32872,2663,31529
33000,2710,31385
33072,2669,31311
33140,2658,31250
33164,2706,31316
33056,2794,31364
33084,2710,31221
33144,2744,31281
33304,2856,31125
33440,2696,31520
33488,2693,31367
33493,2710,31441
33576,2669,31107
33444,2733,31550
33308,2680,31410
33082,2741,31393
32904,2730,31521
32820,2796,31393
32887,2723,31281
32952,2676,31495
33060,2744,31266
33104,2639,31366
33364,2707,31506
33664,2663,31337
33600,2737,31302
33677,2698,31239
33620,2744,31298
33516,2804,31249
33312,2683,31340
33020,2709,31377
32660,2730,31472
32384,2640,31364
32412,2669,31477
32584,2760,31036
32752,2673,31232
32896,2739,31238
32876,2760,31319
32724,2812,31367
32548,2700,31332
32560,2709,31310
32540,2650,31303
32676,2660,31308
33004,2643,31180
33160,2688,31069
33300,2677,31447
33348,2740,31287
33128,2897,31173
32852,2745,31327
32648,2809,31268
32384,2708,31294
32276,2648,31191
32336,2677,31293
32292,2638,31209
32380,2687,31228
32573,2684,31277
32828,2754,31298
32992,2716,31239
33040,2752,30970
33144,2695,31431
33016,2712,31294
32872,2651,31221
32820,2678,31161
32672,2653,31281
32584,2693,31340
32703,2703,31192
32972,2708,31377
33180,2813,31268
33482,2736,31205
33400,2769,31239
33240,2679,31289
33068,2723,31142
32833,2641,31380
32656,2671,31276
32596,2896,31309
32548,2691,31294
32512,2735,31393
32520,2800,30980
32560,2729,31367
32668,2777,31236
32904,2678,31178
33052,2720,31415
33025,2641,31284
32876,2700,31208
32720,2664,31188
32584,2707,31194
32594,2829,31212
32704,2723,31266
32812,2738,31247
32970,2798,31272
32976,2698,31249
33028,2746,31143
32988,2642,31161
33032,2694,31230
33060,2753,31229
33024,2683,31222
33100,2752,31324
33272,2724,31180
33196,2747,30937
32972,2702,31349
32708,2698,31248
32461,2655,31337
32456,2666,31239
32582,2739,31325
32680,2667,31077
32744,2702,31337
32812,2807,31252
33132,2723,31327
33296,2734,31244
33400,2807,31202
33460,2717,31110
33256,2772,31230
32952,2652,31301
32616,2686,31173
32532,2756,31223
32561,2786,31239
32672,2716,31394
32568,2743,31232
32436,2784,31100
32352,2840,31239
32416,2677,31249
32528,2659,31226
32608,2680,31151
32622,2696,31260
32729,2665,31372
32896,2717,31263
32956,2791,31367
32964,2802,31164
32928,2717,31249
32868,2701,31359
32760,2718,31261
32713,2703,31191
32616,2752,31184
32806,2675,31137
33088,2756,31035
33272,2689,31205
33304,2744,31220
33176,2725,31221
32864,2739,31195
32733,2793,31165
32697,2705,31189
32548,2726,31201
32488,2651,31076
32604,2724,31276
32872,2669,31263
32944,2742,31413
32988,2813,31289
32916,2736,31362
32764,2764,31293
32616,2703,31385
32524,2698,31303
32833,2720,31325
33204,2653,31269
33217,2715,31223
33120,2667,31194
32920,2714,31126
33024,2810,31186
33068,2729,31149
33073,2742,31336
33008,2702,31335
32792,2715,31461
32476,2682,31250
32372,2715,31231
32472,2801,31389
32500,2675,31357
32672,2713,31479
32697,2788,31364
32800,2729,31361
32808,2722,31274
32741,2732,31373
32672,2758,31517
32580,2837,31258
32704,2668,31244
32816,2678,31300
32884,2728,31398
32972,2690,31456
33148,2749,31404
33070,2823,31369
32840,2723,31397
32676,2737,31406
32608,2739,31404
32569,2777,31412
32508,2645,31412
32485,2687,31361
32570,2895,31372
32638,2708,31357
32740,2773,31328
32782,2729,31357
32848,2776,31300
32992,2711,31239
33068,2723,31367
33056,2683,31546
32920,2718,31456
32860,2657,31441
33128,2693,31460
33316,2722,31589
33252,2805,31471
33080,2728,31607
32830,2757,31454
32564,2715,31577
32408,2719,31461
32432,2697,31325
32415,2660,31387
32356,2684,31335
32484,2671,31404
32712,2713,31471
32835,2785,31517
32936,2725,31495
33036,2747,31561
32936,2876,31470
32832,2698,31554
32804,2707,31484
32672,2660,31471
32708,2689,31372
32792,2748,31345
32764,2698,31398
32632,2737,31450
32538,2791,31509
32604,2728,31272
32705,2745,31678
32724,2687,31543
32692,2687,31517
32716,2767,31541
32692,2682,31534
32808,2721,31582
32836,2787,31645
32776,2719,31573
32684,2767,31613
32692,2791,31618
32672,2715,31680
32596,2729,31604
32524,2756,31583
32444,2691,31564
32352,2818,31405
32416,2712,31732
32484,2793,31655
32574,2729,31728
32700,2761,31645
32752,2793,31564
32808,2712,31489
32828,2713,31663
32764,2700,31765
32748,2709,31445
32728,2668,31717
32712,2687,31417
32876,2750,31769
32908,2733,31743
32776,2792,31858
32726,2727,31775
32924,2735,31715
32932,2797,31639
32836,2703,31708
32760,2737,31892
32908,2663,31745
33004,2692,31644
33024,2729,31673
32980,2884,31640
32860,2742,31693
32797,2780,31648
32752,2945,31655
32792,2706,31813
32783,2724,31782
32706,2749,31772
32809,2663,31493
32996,2715,31933
33124,2703,31797
33276,2753,31796
33332,2845,31761
33176,2739,31734
32940,2737,31777
32813,2790,31815
32644,2704,31745
32404,2742,31665
32349,2663,31818
32372,2718,31839
32486,2707,31888
32504,2755,31820
32648,2740,31541
32854,2769,31951
32862,2719,31853
32761,2732,31905
32676,2673,31788
32584,2707,31588
32644,2672,31944
32864,2745,31725
32970,2711,31847
32920,2788,31949
32828,2740,31781
32680,2824,31882
32516,2719,31764
32272,2770,31985
32212,2680,31856
32228,2732,31566
32428,2680,32020
32804,2746,31863
33074,2707,31652
33204,2793,32053
33145,2748,31918
33046,2787,31863
32893,2728,31944
32824,2733,31941
32667,2759,32105
32441,2668,31962
32412,2732,31902
32466,2688,32043
32504,2765,32011
32676,2749,31944
32932,2820,31927
32968,2745,31711
32884,2749,32018
32844,2798,31833
32908,2681,32157
32826,2703,32111
32732,2779,32222
32792,2688,32135
32972,2744,32262
33120,2789,32149
33112,2873,32339
32992,2773,32204
32840,2782,32201
32768,2700,32213
32881,2718,32167
33054,2675,32377
33156,2699,32273
33220,2689,32007
33340,2755,32429
33544,2739,32351
33544,2810,32229
33288,2754,32543
33020,2777,32397
32840,2709,32561
32820,2701,32449
32636,2778,32524
32492,2708,32447
32377,2763,32447
32400,2710,32422
32476,2783,32216
32576,2749,32739
32688,2772,32608
32816,2724,32689
32892,2747,32645
32824,2765,32775
32836,2672,32684
32916,2713,32853
32966,2697,32708
33076,2737,32892
33064,2865,32725
32988,2790,32704
32884,2828,32737
32800,2735,32772
32700,2755,32809
32772,2690,32885
32880,2708,32836
32924,2753,32940
32967,2698,32906
33132,2747,32850
33078,2742,32804
33056,2779,32871
32972,2811,32852
32960,2842,33004
32888,2736,32868
32698,2779,33001
32545,2676,33175
32400,2722,33061
32372,2795,33068
32444,2733,33054
32672,2789,32735
32800,2863,33209
32900,2750,32832
32985,2757,33232
32892,2804,33167
32860,2692,33144
32880,2707,33141
32948,2814,33124
32992,2713,33168
33108,2765,33205
33220,2753,33231
33216,2781,33137
33116,2836,32941
32964,2740,33119
32908,2741,33135
33024,2734,33143
33068,2876,32921
33016,2693,33390
33032,2748,33287
33124,2725,33333
33212,2779,33262
33238,2855,32959
33120,2760,33404
33120,2764,33287
33141,2826,33235
33052,2729,33304
32952,2736,33287
33054,2685,33350
33208,2730,33336
33324,2797,33373
33528,2753,33329
33620,2774,33436
33436,2821,33314
33216,2747,33322
32940,2730,33332
32609,2719,33383
32132,2761,33350
31396,2797,33511
30645,2710,33012
29972,2749,33323
29304,2761,33013
28944,2799,33308
28820,2831,33012
28960,2754,33377
29287,2729,33184
29708,2738,33412
30273,2761,33253
30892,2692,33316
31600,2745,33148
32144,2767,33255
32584,2855,33341
32944,2774,33317
33061,2787,33375
33078,2829,33358
32968,2729,33465
32972,2721,33331
33236,2753,33484
33545,2699,33343
33852,2741,33394
33885,2732,33287
33688,2777,33263
33356,2819,33287
33012,2858,33429
32868,2752,32967
32849,2749,33428
32940,2751,33275
33048,2886,33366
33213,2712,33236
33400,2768,33364
33580,2739,33218
33668,2797,33180
33668,2876,33149
33580,2767,33272
33572,2786,33207
33536,2814,33155
33546,2709,33148
33588,2723,33121
33701,2748,33177
33744,2720,33239
33732,2773,33254
33632,2860,33191
33432,2780,33063
33276,2810,33399
33217,2755,33241
33217,2759,33188
33248,2716,33367
33372,2723,33265
33488,2708,32964
33500,2743,33321
33520,2826,33255
33412,2774,33191
33239,2811,33127
33064,3011,33231
32908,2795,33343
32956,2739,33140
32960,2736,33214
32941,2815,33321
32924,2732,33150
32980,2787,33222
33021,2750,33181
33036,2805,33222
33112,2865,33210
33056,2782,33183
33220,2801,33321
33433,2747,33156
33564,2754,33060
33392,2797,33159
33248,2720,33141
33252,2779,33085
33340,2760,33219
33384,2843,33113
33444,2796,33023
33430,2863,33222
33284,2778,32986
33172,2838,33021
33093,2735,33024
33024,2758,32956
33068,2716,32999
33270,2787,32986
33328,2751,32852
33264,2805,32796
33156,2971,33002
33018,2815,32953
32868,2828,32982
32840,2755,32652
32877,2736,33040
32940,2761,32927
33116,2717,32990
33396,2767,32903
33558,2846,32879
33632,2783,32769
33565,2830,32826
33436,2867,32769
33148,2780,32671
33068,2837,32935
33156,2739,32758
33316,2795,32534
33396,2723,32989
33432,2822,32733
33413,2757,32604
33396,2820,32999
33516,2883,32841
33637,2890,32983
33641,2776,32592
33484,2790,32976
33277,2824,32805
33020,2728,32668
32848,2823,32924
32936,2773,32829
32992,2838,32804
32952,2793,32761
33000,2823,32719
33000,2943,32479
32964,2785,32773
32968,2783,32462
33012,2823,32668
32968,2725,32436
32719,2745,32772
32692,2795,32740
32812,2768,32837
33136,2816,32724
33348,2880,32684
33512,2797,32812
33340,2811,32747
32992,2840,32897
32620,2748,32756
32453,2780,32775
32380,2737,32629
32456,2784,32713
32562,2860,32831
32685,2791,32720
32729,2842,32422
32608,2883,32901
32484,2785,32768
32472,2803,32794
32584,2778,32775
32709,2869,32764
32872,2736,32749
32908,2784,32848
32877,2848,32768
32824,2798,32725
32756,2827,32711
32857,2877,32462
33022,2788,32869
33100,2790,32693
32992,2827,32634
32825,2736,32834
32620,2749,32843
32676,2778,32916
32824,2860,32560
33000,2800,32981
33164,2841,32869
33208,2854,33044
33220,2788,32905
33145,2853,32849
33128,2747,32903
33200,2755,32910
33084,2831,32876
33073,2754,32636
33088,2808,33096
33140,2853,32927
33076,2912,32979
32964,2815,32956
33001,2836,32903
33084,2776,32705
33244,2752,32956
33172,2767,33053
33069,2911,33068
32960,2767,33092
32916,2835,33105
32944,2893,33277
32897,2815,32887
32830,2823,33132
32736,2833,32971
32701,2864,33090
32908,2750,33153
33085,2767,33118
33052,2834,33246
32900,2755,33415
32908,2798,33260
33048,2807,33452
33148,2826,33324
33245,2859,33482
33192,2974,33335
33088,2778,33324
32869,2771,33313
32664,2820,33322
32548,2743,33327
32752,2791,33382
32893,2812,33490
32924,2921,33433
32944,2828,33433
32825,2839,33455
32780,2946,33462
32720,2777,33492
32652,2793,33437
32592,2975,33474
32576,2748,33542
32660,2801,33508
32840,2935,33425
33028,2811,33606
33088,2818,33821
33012,2831,33724
32900,2884,33748
32744,2779,33631
32456,2762,33740
32276,2783,33775
32320,2752,33854
32484,2757,33608
32556,2803,33837
32680,2849,33909
32756,2903,33925
32872,2813,34093
32936,2834,33607
33012,2865,34055
33044,2753,33661
33228,2773,33988
33326,2831,33914
33284,2770,34055
33248,2869,34073
33164,2812,34223
33137,2852,33841
33116,2869,34033
33136,2932,34116
33056,2777,34167
32952,2786,34297
32820,2819,34249
32616,2748,34369
32424,2765,34293
32340,2814,34357
32360,2905,34325
32464,2816,34355
32597,2834,34308
32758,2904,34055
32868,2791,34580
33128,2791,34440
33272,2741,34310
33360,2778,34523
33204,2850,34181
32912,2783,34421
32764,2831,34525
32594,2915,34598
32448,2825,34605
32408,2848,34597
32412,2964,34390
32320,2785,34826
32376,2801,34718
32544,2747,34740
32732,2795,34668
32844,2857,34727
32964,2812,34801
33000,2852,34618
32996,2853,34838
32952,2907,34917
32914,2802,34865
32792,2800,34927
32600,2835,34977
32512,2750,35047
32436,2788,35012
32472,2805,35167
32624,2916,35046
32748,2823,35090
32832,2840,35112
32788,2885,35200
32608,2778,35164
32485,2772,35300
32606,2764,35230
32869,2792,35380
32952,2855,35279
33076,2783,35428
33017,2854,35329
32889,2821,35380
32672,2849,35367
32644,2852,35357
32828,2914,35391
32869,2756,35385
32932,2762,35420
33076,2837,35437
32977,2761,35460
32780,2809,35596
32624,2908,35528
32500,2821,35693
32554,2837,35532
32636,2822,35629
32652,2874,35741
32600,2756,35399
32468,2751,35653
32410,2769,35692
32404,2859,35681
32380,2804,35705
32240,2895,35676
32292,2820,35569
32522,2853,35927
33052,2879,35757
33308,2785,35871
33320,2790,36029
33156,2829,35919
32693,2748,36068
32544,2799,35949
32600,2852,36063
32684,2810,35924
32760,2855,35964
32670,2883,36000
32496,2808,36084
32360,2789,36039
32369,2790,36139
32670,2964,36031
32832,2761,36046
32772,2813,35996
32676,2790,36087
32594,2819,36040
32700,2854,36115
32716,2866,36069
32866,2887,36133
32840,3023,36121
32584,2756,36242
32381,2752,36247
32388,2780,36396
32533,2795,36046
32648,2851,36229
32852,2813,36308
33084,2837,36295
33292,2853,36461
33448,2864,36321
33469,2792,36472
33493,2773,36335
33540,2805,36436
33424,2750,36309
33294,2796,36331
33028,2859,36237
32613,2815,35924
32484,2831,36271
32544,2884,36320
32472,2804,36296
32368,2832,36465
32320,2951,36343
32320,2782,36349
32412,2836,36254
32620,2763,36287
32709,2808,36259
32836,2854,36159
32865,2923,36204
32824,2831,35965
32776,2839,36280
32633,2882,36231
32480,2764,36382
32384,2775,36212
32408,2755,36158
32584,2798,36053
32576,2837,36109
32644,2815,36022
32696,2866,36087
32656,2831,36224
32644,2841,36084
32628,2842,36189
32688,2856,35997
32728,2745,35965
32832,2788,35901
32848,2844,35821
32772,2790,35872
32677,2852,36016
32608,2867,35647
32638,2906,35715
32712,2916,35810
32980,2801,35729
33164,2807,35806
33172,2959,35660
33180,2764,35727
33105,2795,35567
32984,2874,35632
32996,2825,35113
33012,2842,35430
32956,2860,35055
32936,2914,35468
32824,2799,35324
32728,2791,35378
32664,2845,35207
32605,2762,35220
32652,2791,35128
32708,2881,35151
32788,2823,35005
32900,2871,34885
32957,2915,34875
32976,2819,34865
32789,2804,34791
32495,2790,34749
32406,2840,34708
32460,2757,34615
32577,2804,34687
32740,2877,34636
33028,2923,34706
33200,2835,34543
33158,2866,34502
33148,2860,34082
32892,2804,34529
32632,2780,34372
32512,2781,34476
32600,2850,34272
32642,2787,34276
32644,2857,34053
32621,2832,34083
32632,2874,34132
32676,2915,34028
32736,2825,34128
32760,2803,33629
32932,2794,33935
33084,2855,33617
33168,2798,33888
33092,2826,33654
33017,2801,33751
33032,2851,33736
33048,2959,33812
33040,2836,33668
33072,2845,33730
32968,2857,33582
32836,2778,33700
32620,2788,33531
32400,2830,33572
32248,2791,33385
32200,2866,33351
32388,2826,33357
32729,2855,33502
32940,2890,33351
32980,2815,33364
32958,2825,33206
32892,2775,32933
32860,2778,33336
32648,2840,33222
32605,2795,33090
32676,2883,33308
32732,2827,33159
32662,2861,33198
32652,2969,32964
32796,2854,33077
32846,2796,33021
32833,2824,33060
32760,2759,33017
32544,2818,33088
32464,2788,32943
32480,2854,32656
32572,2831,33103
32744,2920,32829
32865,2840,32932
33120,2880,32920
33373,2805,32972
33480,2833,32932
33656,2761,33020
33648,2819,32844
33566,2784,32916
33388,2850,32852
33232,2832,32956
32956,2868,32912
32592,2924,32940
32480,2844,32861
32048,2901,32903
31456,2793,32960
30648,2817,32861
29764,2772,32783
29117,2832,32960
29012,2808,33004
29512,2884,32831
30116,2852,32890
30572,2874,33009
30974,2827,32901
31372,2889,32887
31712,2792,32947
31880,2768,32871
32100,2786,32908
32308,2787,32796
32496,2828,33015
32604,2923,32579
32760,2849,32924
32788,2893,32903
32696,2822,32967
32692,2836,32793
32734,2784,32899
32702,2800,32836
32892,2771,32796
33108,2821,32891
33344,2895,32888
33364,2832,32748
33372,2901,32866
33380,2850,32645
33316,2855,32941
33260,2923,32855
33268,2775,32996
33364,2791,32853
33468,2803,32940
33532,2841,32532
33508,2801,32967
33324,2869,32843
33100,2899,32973
33036,2841,32811
32912,2856,32637
32997,2891,32903
33100,2792,32688
33361,2832,32840
33509,2773,32843
33464,2818,32732
33460,2811,32821
33380,2836,32887
33176,2881,32831
32900,2921,32961
32796,2823,32833
32668,2821,32926
32533,2830,32885
32660,2768,32999
32776,2804,32871
32872,2781,32546
32732,2851,33003
32817,2833,32903
33160,2878,32893
33328,2932,32836
33220,2838,32613
33061,2924,32953
32804,2797,32849
32668,2821,32775
32648,2767,33071
32684,2813,32927
32717,2807,32906
32744,2869,32820
32728,2934,32910
32645,2849,32917
32616,2895,32775
32616,2799,32891
32666,2811,32967
32700,2760,32853
32841,2803,32915
33049,2878,32964
33192,2822,32795
33284,3042,32559
33328,2874,32996
33512,2840,32812
33728,2872,32637
33748,2797,33031
33384,2838,32885
32928,2766,32825
32661,2795,32804
32508,2899,32762
32580,2811,32721
32916,2906,32604
33252,2839,32957
33324,2867,32572
33172,2874,32807
32972,2903,32703
32844,2785,32745
32900,2815,32828
32929,2765,33013
33016,2807,32868
33040,2899,32956
32976,2839,32533
32864,2893,32959
32616,2844,32836
32536,2857,32932
32548,2958,32564
32532,2798,32823
32593,2873,32568
32892,2790,32800
33052,2847,32661
33238,2809,32797
33268,2851,32623
33200,2845,33007
32896,2862,32860
32521,2889,32928
32428,2802,32764
32440,2812,32742
32500,2853,32996
32556,2766,32845
32532,2821,32828
32506,2857,32789
32525,2830,32631
32493,2868,32970
32572,2919,32831
32656,2822,32731
32692,2826,32914
32752,2782,32805
32788,2800,32727
32796,2864,32903
32924,2804,32731
32916,2840,32706
32876,2929,32688
32904,2848,32663
32832,2895,32804
32696,2823,32748
32696,2831,32854
32596,2842,32756
32266,2771,32741
32120,2801,32636
32264,2789,32391
32308,2848,32855
32380,2832,32665
32496,2864,32632
32500,2839,32756
32512,2866,32709
32416,2810,32551
32308,2834,32663
32352,2766,32672
32565,2788,32807
32812,2876,32679
32812,2811,32632
32788,2891,32604
32884,2847,32468
32788,2931,32748
32632,2830,32652
32548,2871,32592
32589,2780,32519
32556,2833,32624
32600,2771,32663
32596,2820,32525
32652,2901,32535
32806,2833,32540
32892,2862,32268
32904,2889,32733
32912,2827,32575
33016,2808,32535
33260,2826,32644
33244,2767,32581
33096,2797,32505
32920,2853,32735
32728,2812,32592
32628,2853,32518
32673,2925,32493
32680,2842,32260
32629,2844,32692
32724,2853,32569
32848,2779,32710
32844,2772,32282
32790,2809,32574
32876,2791,32532
33004,2813,32671
33016,2891,32556
33020,2845,32607
33084,2855,32532
33285,2854,32573
33216,2891,32537
32974,2779,32543
32773,2787,32492
32720,2926,32417
32504,2791,32457
32476,2852,32479
32584,2949,32647
32524,2845,32487
32464,2878,32519
32433,2825,32346
32428,2834,32148
32556,2835,32487
32696,2761,32465
32732,2794,32569
32828,2781,32335
32888,2824,32436
32956,2909,32597
32920,2837,32457
32952,2863,32561
32821,2934,32409
32700,2818,32183
32572,2852,32577
32548,2765,32401
32848,2837,32097
33062,2781,32561
33188,2834,32383
33133,2955,32305
33137,2842,32311
33272,2873,32311
33312,2909,32564
33184,2813,32391
33057,2823,32222
32956,2769,32567
32880,2791,32447
32768,2899,32374
32644,2841,32540
32516,2931,32448
32472,2851,32469
32532,2921,32390
32649,2822,32327
32652,2829,32588
32548,2873,32456
32660,2777,32457
32836,2842,32391
32982,2783,32385
33052,2825,32318
33037,2926,32181
33032,2841,32519
32833,2867,32452
32664,2895,32504
32524,2807,32455
32476,2811,32542
32412,2851,32469
32445,2979,32568
32612,2787,32454
32708,2825,32508
32836,2858,32178
33072,2956,32601
33136,2840,32297
32904,2832,32372
32664,2838,32367
32416,2873,32386
32293,2801,32171
32200,2814,32513
32260,2884,32413
32368,2808,32485
32644,2852,32193
32901,2916,32658
32956,2843,32540
32852,2849,32489
32744,2893,32509
32596,2785,32269
32544,2800,32710
32648,2777,32591
32788,2822,32516
32852,2896,32472
32856,2837,32429
32844,2900,32742
32840,2979,32613
32729,2823,32676
32642,2903,32566
32520,2813,32613
32444,2773,32548
32540,2800,32548
32644,2896,32633
32640,2832,32380
32629,2836,32677
32423,2914,32772
32220,2859,32505
32200,2913,32625
32428,2823,32600
32588,2907,32556
32496,2795,32696
32297,2771,32560
32356,2826,32634
32518,2808,32304
32629,2900,32559
32762,2851,32775
32856,2901,32485
32872,2832,32623
32800,2851,32533
32876,2790,32638
32976,2872,32769
32865,2803,32529
32744,2787,32567
32596,2883,32623
32268,2853,32598
32196,2849,32263
32248,2906,32488
32248,2857,32501
32340,2898,32744
32468,2786,32606
32652,2854,32588
32716,2797,32594
32672,2789,32693
32692,2870,32665
32768,2844,32588
32909,2922,32592
33182,2844,32679
33288,2862,32516
33272,2813,32620
33180,2987,32633
32980,2834,32604
32888,2804,32508
32716,2917,32789
32604,2847,32590
32548,2843,32628
32536,2890,32581
32517,2859,32777
32586,2924,32519
32772,2828,32657
32837,2785,32593
32696,2793,32813
32608,2779,32572
32510,2820,32645
32440,2809,32689
32464,2861,32647
32664,2848,32679
32780,2902,32469
32752,2832,32771
32724,2877,32564
32771,2782,32372
32992,2851,32737
32901,2808,32628
32749,2898,32661
32644,2846,32689
32476,2955,32572
32652,2900,32657
32925,2855,32591
32952,2936,32716
32844,2839,32544
32660,2788,32381
32640,2804,32762
32724,2777,32570
32681,2845,32630
32624,2812,32541
32560,2925,32676
32616,2879,32573
32616,2840,32540
32604,2906,32591
32616,2831,32573
32796,2882,32469
33004,2797,32563
33270,2774,32535
33316,2883,32710
33200,2840,32515
33040,3029,32196
32828,2874,32469
32622,2845,32639
32474,2859,32511
32464,2807,32288
32428,2830,32621
32344,2764,32484
32281,2819,32535
32280,2792,32422
32372,2843,32404
32648,2934,32406
32832,2864,32369
32864,2945,32526
32952,2840,32428
33264,2896,32431
33316,2807,32344
33132,2844,32338
32960,2780,32376
32804,2830,32318
32728,2952,32237
32708,2858,32208
32616,2948,32504
32552,2866,32303
32516,2833,32127
32560,2841,32397
32608,2780,32229
32740,2855,31993
32804,2788,32432
32800,2837,32324
32944,2811,32367
32984,2854,32305
32844,2916,32263
32816,2844,32169
32832,2849,32252
32797,2892,32412
32776,2780,32277
32748,2799,32167
32749,2868,32314
32821,2789,32236
32936,2844,32359
32968,2912,32245
32900,2849,32319
32889,2874,32168
32936,2826,32190
32880,2854,32279
32668,2992,32196
32620,2807,32127
32748,2858,32172
32764,2801,32206
32772,2871,32164
32672,2863,32341
32652,2944,32082
32564,2871,32150
32480,2829,32195
32676,2872,32081
32828,2800,32252
32944,2864,32086
32976,2777,32097
32976,2819,32044
32868,2818,32173
32840,2881,32167
32768,2970,32167
32660,2885,32151
32592,2912,32039
32509,2841,32183
32472,2899,32124
32552,2791,32112
32672,2985,32142
32764,2828,32017
32897,2821,32140
32949,2878,32211
33032,2916,32125
33196,2863,32007
33240,2928,32263
32976,2819,32127
32832,2823,32047
32780,2779,32148
32632,2812,32108
32580,2883,32127
32472,2855,32199
32452,2851,32086
32544,2886,31914
32636,2947,32212
32748,2862,31998
32897,2817,32070
32864,2847,31992
32740,2779,32077
32596,2819,32060
32464,2805,31988
32324,2851,31988
32408,2926,31887
32640,2861,32040
32708,2879,32017
32648,2977,32135
32456,2850,31895
32405,2884,31671
32432,2794,32041
32532,2869,31932
32636,2812,31991
32728,2866,32052
32732,2851,31871
32821,2891,31803
32856,2977,32054
32988,2870,31831
33112,2822,31956
33372,2862,31681
33376,2780,32103
33161,2835,31908
32932,2805,31808
32704,2857,32044
32696,2855,31822
32808,2951,31849
32877,2884,31912
32884,2842,31733
32804,2849,31975
32748,2793,31893
32726,2803,31799
32852,2788,31879
32924,2871,31801
32948,2851,31850
32960,2851,31540
32912,2908,31772
32924,2881,31968
33000,2937,31788
33108,2839,31487
33044,2792,31824
33016,2854,31761
32976,2818,31741
33008,2812,31751
33148,2876,31717
33284,2864,31805
33392,2944,31751
33436,2893,31474
33396,2852,31751
33116,2863,31701
32884,2813,31732
32592,2887,31644
32349,2817,31775
31900,2809,31729
31208,2885,31696
30552,2863,31580
29953,2917,31385
29369,2889,31641
28876,2848,31793
28608,2856,31625
28672,2801,31366
28996,2824,31761
29536,2789,31564
30125,2873,31682
30884,2847,31458
31709,2934,31807
32300,2877,31601
32460,2955,31367
32500,2852,31780
32616,2871,31663
32788,2800,31700
32924,2807,31613
33192,2789,31375
33392,2832,31770
33592,2899,31598
33692,2858,31654
33720,2899,31581
33733,2948,31740
33856,2854,31610
33864,2912,31529
33716,2802,31444
33408,2832,31404
32981,2793,31448
32868,2842,31306
33120,2915,31600
33300,2873,31545
33381,2958,31455
33340,2884,31444
33124,2940,31213
32885,2837,31660
32737,2890,31511
32768,2818,31380
33012,2884,31461
33202,2839,31520
33300,2825,31431
33404,2880,31612
33502,2864,31495
33388,2888,31239
33260,2837,31633
33332,2908,31458
33488,2832,31525
33548,2791,31415
33504,2835,31604
33328,2808,31397
33253,2863,31214
33096,2856,31542
33144,2905,31523
33284,2867,31541
33348,2955,31436
33500,2845,31671
33433,2799,31496
33284,2820,31335
33288,2786,31652
33280,2841,31492
33224,2829,31184
33164,2905,31565
33136,2879,31504
33144,2964,31476
33192,2889,31493
33105,2844,31408
33136,2802,31442
33072,2783,31524
33024,2815,31446
32917,2810,31315
32836,2886,31503
32888,2870,31310
32992,3011,31177
33036,2900,31407
33064,2851,31548
33240,2926,31417
33376,2824,31396
33348,2782,31419
33204,2923,31482
33145,2858,31407
33124,2840,31330
32984,2960,31502
33056,2897,31423
33229,2860,31431
33140,2891,31270
33064,2847,31407
33036,2796,31253
32980,2815,31524
32912,2788,31362
32896,2850,31068
33004,2856,31300
33152,2857,31510
33472,2947,31256
33648,2885,31396
33604,2860,31373
33524,2826,31157
33288,2862,31398
32884,2808,31364
32665,2893,31383
32608,2848,31279
32660,2827,31501
32848,2921,31400
33012,2872,31349
33105,2941,31132
33252,2879,31426
33312,2818,31399
33408,2853,31367
33617,2813,31079
33637,2980,31367
33568,2842,31372
33604,2827,31307
33600,2910,31169
33516,2900,31281
33384,2870,31471
33166,2874,31215
32925,2826,31284
32704,2815,31305
32534,2788,31153
32430,2820,31081
32500,2872,31391
32774,2837,31261
33052,2884,31220
33325,3044,31102
33398,2892,30932
33148,2979,31300
32704,2861,31168
32510,2948,30999
32448,2789,31296
32552,2836,31196
32774,2810,31225
32789,2869,31102
32804,3041,30855
32828,2900,31239
32816,3064,31111
32676,2879,30876
32640,2919,31286
32524,2801,31151
32404,2833,31117
32504,2796,30981
32644,2848,30828
32736,2830,31092
32736,2900,31031
32830,2869,30804
32926,2925,31161
33076,2854,31020
33080,2935,30769
32960,2818,31195
32796,2892,31098
32844,2815,31092
32796,2807,31016
32756,2887,31046
32777,2867,31133
32912,2968,31049
32992,2898,30997
33232,2841,30948
33550,2857,31074
33801,2800,31076
33776,2873,31196
33416,2824,31085
32852,2815,30959
32417,2854,31161
32224,2966,31061
32158,2889,31176
32161,2977,31012
32260,2874,30892
32448,2829,31207
32584,2832,31067
32704,2884,30985
32860,2829,30925
32964,2811,30780
32998,2856,31061
32960,3066,31055
32848,2893,30974
32752,3096,30917
32796,2877,31048
32920,2827,31100
32990,2847,30983
33108,2804,31044
33048,2894,31129
32920,2845,30983
32848,2901,30964
32886,2861,30913
32784,2930,30714
32668,2861,31159
32712,2904,30999
32557,2841,30764
32432,2867,31167
32492,2786,31028
32536,2845,30706
32624,2814,31166
32828,2866,31026
32992,2855,30938
32988,2895,31061
32904,2948,30748
32724,2853,31164
32580,2897,31012
32453,2805,30836
32425,2853,30983
32496,2800,31015
32549,2926,30990
32809,2865,30968
33204,2857,31031
33568,2891,31128
33636,2954,31042
33388,2851,31001
33148,2882,30996
32804,2800,30737
32552,2842,31141
32489,2796,31047
32476,2841,30973
32444,2833,30983
32372,2884,31052
32392,2866,30981
32428,2895,30948
32552,2837,30783
32672,2862,31172
32760,2803,31004
32684,2889,30780
32552,2830,31044
32469,2808,31072
32477,2857,31180
32576,2859,31019
32608,2946,30764
32684,2858,31167
32760,2897,31076
32800,2838,31004
32744,2886,31080
32720,2812,31076
32686,2875,31097
32648,2816,31007
32680,2909,30757
32894,2884,31156
33104,2969,31017
33056,2895,31068
32900,2981,31109
32825,2847,31023
32948,2796,30772
33032,2808,31239
32917,2900,31109
32741,2836,31030
32528,2923,31038
32492,2893,30799
32452,2908,31088
32397,2856,31102
32360,2874,31239
32296,2906,30869
32276,2792,31029
32376,2803,31052
32544,2801,31004
32716,2835,31076
32796,2915,31079
32973,2894,30831
33264,2871,31256
33312,2897,31117
33124,2975,30852
32788,2856,31270
32604,2924,31162
32588,2811,31077
32608,2885,31293
32620,2819,31164
32660,2894,31332
32836,2879,31145
33004,2961,31055
32768,2893,31343
32557,2852,31200
32377,2853,31228
32289,2902,31177
32256,2820,31169
32564,2798,31119
32772,2845,31191
32736,2921,31364
32720,2890,31214
32889,2966,31159
32951,2895,31166
32856,2937,31201
32792,2827,31380
32756,2826,31261
32552,2907,31327
32420,2810,31261
32488,2883,31196
32660,2833,31159
32844,2883,31148
32876,2878,31201
32777,2895,30976
32796,2940,31134
32788,2834,31176
32612,2822,31143
32388,2884,30966
32212,2804,31372
32156,2877,31281
32316,2832,31300
32416,2890,31272
32468,2932,31325
32452,2861,31227
32365,2893,31044
32572,2826,31416
32765,2842,31239
32996,2788,30978
33248,2850,31393
33236,2814,31262
33024,2883,31207
32812,2862,31437
32744,2938,31239
32684,2867,30981
32752,2933,31405
32834,2820,31293
32868,2817,31360
32864,2787,31171
32820,2848,31298
32832,2828,31233
32748,2892,31209
32694,2863,30999
32604,2911,31448
32532,2884,31239
32452,2848,31316
32444,2857,31246
32420,2888,31217
32436,2784,31244
32512,2837,31311
32505,3011,31335
32777,2838,31460
33153,2888,31358
33292,2957,31444
33172,2864,31349
32984,2898,31293
32740,2823,31321
32572,2865,31196
32456,2787,31393
32420,2818,31367
32600,3044,31300
32712,2844,31237
32692,2927,31053
32736,2870,31533
32680,2890,31399
32564,2947,31447
32492,2826,31385
32572,2828,31333
32650,2787,31343
32692,2813,31399
32741,2895,31416
32812,2835,31303
32790,2930,31372
32904,2864,31482
33200,2889,31377
33213,2838,31107
33272,2858,31452
33308,2794,31278
33180,2820,31324
33156,2903,31404
33208,2849,31401
33061,2862,31159
32760,2955,31559
32572,2897,31431
32614,3049,31158
32888,2871,31540
33045,2887,31435
32862,2789,31461
32500,2851,31385
32140,2806,31433
32004,2889,31552
32233,2833,31448
32516,2943,31321
32584,2870,31417
32780,2931,31156
32806,2849,31568
32590,2909,31473
32428,2803,31584
32492,2819,31464
32480,2796,31599
32528,2851,31471
32556,2831,31399
32592,2902,31588
32736,2874,31477
32886,2963,31491
33016,2865,31422
32936,2822,31631
32776,2881,31450
32664,2819,31172
32816,2795,31476
32997,2913,31567
32960,2860,31513
32949,2935,31475
32932,2895,31604
32800,2859,31500
32676,2940,31539
32692,2841,31437
32688,2798,31679
32548,2846,31487
32520,2825,31532
32608,2808,31405
32776,2858,31685
32944,2859,31503
33068,3102,31564
32944,2884,31239
32749,2843,31509
32558,2915,31725
32424,2820,31574
32412,2789,31427
32465,2822,31708
32816,2817,31524
33000,3049,31590
33012,2948,31575
32896,2920,31524
32764,2893,31693
32566,2843,31599
32304,2861,31615
32149,2808,31340
32060,2895,31556
32148,2850,31762
32316,2828,31512
32465,2920,31630
32820,2874,31615
33145,2951,31535
33208,2885,31653
33188,2842,31607
33196,2854,31791
33216,2795,31670
33281,2853,31593
33302,2816,31684
33340,2896,31669
33373,2864,31609
33174,2979,31706
32944,2887,31682
32736,2956,31824
32840,2863,31699
33024,2942,31637
33016,2827,31585
32776,2930,31598
32564,2839,31832
32380,2813,31709
32448,2978,31636
32644,2895,31737
32804,2872,31716
32868,2909,31732
32788,2855,31695
32640,2884,31703
32608,2818,31824
32668,2874,31729
32780,2810,31647
32928,2877,31602
32994,2941,31679
32932,2862,31716
32848,2916,31656
32676,2861,31708
32492,2878,31737
32465,2898,31751
32484,2823,31764
32480,2857,31716
32624,2819,31665
32844,2958,31612
32876,2867,31415
32821,2862,31865
32800,2925,31767
32717,2861,31815
32768,2906,31716
33048,2824,31716
33220,2829,31653
33180,2793,31695
33121,2833,31687
33052,2933,31604
32949,2868,31861
32980,2869,31767
33020,2940,31707
33109,3091,31780
33116,2867,31716
32903,2927,31768
32628,2803,31859
32528,2842,31791
32680,2795,31725
32856,2869,31682
33064,2836,31477
33164,2888,31945
33336,3005,31813
33192,2892,31940
32849,2877,31484
32416,2927,31769
32092,2806,31647
32016,2832,31698
32212,2801,31535
32366,2841,31813
32504,2942,31672
32644,2866,31719
32780,2961,31511
32754,2876,31945
32676,2927,31845
32640,2830,31949
32664,2857,31848
32700,2791,31820
32716,2839,31824
32760,2812,31849
32940,2879,31831
33076,2866,31762
33028,2957,31853
32965,2864,31917
32996,2930,31788
32988,2853,31682
32933,2902,31971
32972,2813,31860
33040,2877,31989
33076,2837,31849
33076,2840,31549
33072,2907,31855
32832,2871,31802
32742,2932,31670
32752,2860,31981
32908,2890,31839
32996,2794,31885
33096,2823,31802
33453,3034,31809
33748,2840,31823
34004,2933,31819
34176,2899,31825
33969,2955,31748
33548,2873,31956
33222,2927,31765
32936,2844,31815
32356,2893,31811
31476,2825,31766
30484,2920,31817
29760,2830,31918
29284,2913,31846
28920,2869,31814
28624,2899,31816
28536,2990,31665
28740,2870,31939
29144,2949,31831
29624,2832,31691
30232,2791,31954
31016,2817,31812
31628,2816,31596
31960,2875,32004
32340,2859,31860
32600,2921,31780
32800,2858,31717
32968,2910,31524
33112,2842,31988
33153,2884,31871
33104,2823,31844
33032,2795,31785
33065,2888,31630
33316,2869,31999
33808,2980,31845
34088,2895,31809
33964,3075,31791
33620,2878,31745
33444,2826,31879
33328,2831,31844
33316,2792,31773
33396,2833,31794
33416,2939,31753
33388,2855,31747
33524,2957,31821
33552,2897,31744
33392,2949,31819
33356,2839,31598
33353,2842,31681
33364,2886,31740
33372,2801,31850
33388,2887,31801
33448,2829,31679
33640,2894,31972
33776,3061,31849
33745,2889,31768
33645,2953,31899
33326,2863,31855
33048,2927,31788
32996,2806,31727
33188,2876,31546
33368,2798,31987
33461,2857,31892
33472,2836,31833
33344,2893,31821
33220,2862,31886
33132,2884,32036
33104,2938,31879
33044,2844,32041
32976,2869,31907
32972,2796,31988
33064,2864,31903
33196,2817,31945
33288,2924,31757
33312,2879,31891
33396,2870,31828
33456,2885,31799
33472,2842,31863
33416,2843,31820
33320,3030,31729
33233,2788,31802
33180,2847,31814
33248,2814,31777
33316,2853,31746
33469,2937,31750
33645,2864,31751
33756,2890,31516
33820,2953,31887
33816,2825,31527
33780,2809,31758
33848,2901,31509
33764,2830,31876
33544,3016,31825
33276,2837,31975
32968,2903,31836
32772,2868,31863
32684,2887,31855
32680,2857,31751
32644,2920,32002
32668,2822,31859
32768,2787,31703
32913,2822,31981
33164,2937,31829
33313,2859,31982
33405,2957,31876
33446,2882,31897
33436,2920,31844
33512,2839,31871
33601,2825,31887
33636,2859,31904
33688,2789,31885
33516,2837,31877
33248,2809,31829
33044,2870,31807
33002,2877,31735
33062,2869,31862
32997,2901,31958
32929,2837,31860
32852,2843,31791
32704,2898,31802
32621,2808,31554
32704,2866,31901
32836,2942,31661
32980,2845,31732
33000,2943,31840
33024,2871,32002
33104,2948,31874
33228,2840,31962
33340,2884,31862
33384,2809,31808
33348,2869,31746
33245,2817,31611
33141,2891,31808
33072,2853,31844
33168,2955,31940
33236,2889,31817
33180,2950,31572
32988,2848,31888
32805,2869,31846
32724,2792,31803
32724,2848,31975
32952,2810,31813
33088,2883,31550
33122,2844,31944
33028,2932,31765
32768,2868,31684
32564,2878,32041
32413,2943,31897
32376,2831,31865
32317,2825,31812
32412,2901,31783
32508,2803,32087
32524,2855,31916
32452,2827,31960
32440,2884,32062
32501,2868,31901
32581,2889,31849
32674,2897,32038
32685,2819,32048
32764,2820,32132
32900,2883,31946
32937,2797,32004
33024,2838,32226
33060,2834,32109
33124,2912,32140
33076,2868,31828
32976,2935,32148
32988,2843,32119
33072,2869,32192
33165,2791,31985
33172,2829,32336
33068,2789,32187
32956,2835,32172
32884,2888,32130
32888,2940,32310
32956,2894,32321
32900,2980,32251
32784,2845,32285
32664,2884,32327
32548,2789,32340
32556,2823,32368
32788,2787,32216
33000,2894,32412
33052,2853,32484
33156,2861,32349
33012,2922,32423
32814,2874,32455
32724,2971,32466
32628,2839,32548
32624,2791,32533
32489,2841,32391
32452,2793,32617
32508,2854,32524
32648,2830,32519
32784,2879,32530
32829,2866,32391
32780,2882,32708
32925,2873,32672
33076,2927,32832
33056,2802,32709
32904,2868,32457
32767,2786,32699
32692,2844,32449
32664,2830,32884
32630,2883,32724
32600,2859,32516
32701,2890,32975
32673,2985,32873
32746,2822,33023
32775,2882,32836
32709,2785,32689
32724,2824,33109
32696,2812,32988
32748,2849,32765
33060,2861,33040
33220,2915,33192
33188,2852,33036
33057,2864,32884
32840,3019,33225
32732,2816,33143
32672,2910,32805
32709,2811,33137
32684,2808,33348
32656,2870,33113
32628,2852,33244
32644,2927,33017
32836,2852,33373
32974,2897,33264
33000,2816,33330
32984,2850,33262
32860,2789,33508
32736,2883,33260
32600,2821,33389
32528,2910,33340
32596,2883,33569
32800,2965,33310
32829,2876,33460
32780,3039,33452
32801,2849,33343
33016,2909,33489
33244,2811,33465
33328,2881,33471
33188,2842,33535
33060,2930,33495
33012,2878,33701
32984,2857,33462
32976,2952,33425
32868,2871,33576
32816,2814,33605
32780,2841,33540
32756,2781,33759
32776,2871,33580
32788,2827,33446
32768,2903,33788
32848,2853,33671
33048,2941,33622
33216,2861,33782
33244,2920,33660
33060,2850,33349
32812,2788,33745
32565,2851,33788
32217,2803,33748
32089,2810,33687
32124,2921,33902
32269,2894,33676
32328,2868,33777
32400,2931,33785
32528,2835,33805
32624,2842,33788
32648,2786,33692
32688,2797,33789
32840,2891,33961
32948,2832,33777
32876,2829,33820
32684,2883,33908
32612,2861,33724
32544,2886,33855
32570,2833,33799
32748,2901,33997
32996,2809,33756
33093,2776,33879
33001,2838,33636
32892,2806,33988
32909,2907,33873
32972,2854,33886
32952,2893,33773
32770,2854,33772
32606,2849,34033
32500,2816,33883
32409,2812,33876
32424,2774,33927
32532,2836,33823
32610,2806,33553
32652,2900,34009
32812,2858,33903
32985,2938,33569
33010,2882,33975
33024,3064,33793
33184,2838,33680
33400,2881,34029
33396,2809,33791
33200,2786,33927
32986,2880,33823
32832,2835,34020
32613,2910,33798
32448,2864,33906
32288,2877,33889
32204,2830,34053
32233,2894,33799
32353,2811,33927
32388,2779,33944
32496,2837,33867
32764,2822,34068
32952,2946,33809
33031,2881,33946
33038,2865,33652
32997,2873,33956
32872,2938,33917
32796,2830,33961
32716,2992,33939
32869,2807,34030
33112,2874,33837
33240,2819,33977
33200,2908,33941
32897,2852,34031
32592,2893,33979
32445,2847,34079
32388,2860,33973
32300,2894,33935
32281,2783,33943
32308,2803,33756
32448,2789,34141
32608,2839,34029
32828,2912,33977
33010,2852,33991
33008,2883,34023
33006,3065,34176
32984,2852,34015
32952,2902,33704
32936,2797,34148
32848,2858,33959
32821,2801,34042
32836,2888,34074
32980,2862,34159
33124,2854,34076
33172,2890,34029
32904,2976,34188
32648,2853,34084
32652,2808,34036
32708,2830,34237
32956,2772,34128
33112,2825,34141
33248,2999,34177
33284,2860,34134
33086,2853,33893
32852,2891,34196
32628,2849,34124
32376,2857,34095
32188,2910,34248
32169,2806,34172
32192,2869,34172
32324,2823,34289
32620,2835,34132
32909,2817,34173
33052,2944,34276
33040,2887,34177
32926,2853,34124
32748,2934,34237
32748,2837,33900
32788,2775,34285
32840,2793,34137
32960,2788,33935
33024,2866,34405
33236,2818,34231
33374,2917,33927
33384,2857,34452
33166,2864,34324
33036,2926,34317
32976,2839,34205
32892,2916,34341
32788,2779,34412
32652,2819,34237
32600,2809,33999
32640,2850,34527
32812,2967,34271
32960,2889,34404
32960,2950,34362
32828,2853,34599
32536,2893,34414
32488,2801,34287
32600,2776,34596
32976,2808,34397
33186,2803,34508
33336,2923,34144
33396,2892,34468
33231,2854,34661
33044,2929,34423
32992,2834,34538
32945,2893,34604
33008,2786,34485
33096,2850,34608
33168,2793,34534
33248,2860,34761
33125,2841,34526
33068,2857,34619
33024,2885,34664
32992,2841,34665
32844,2923,34845
32813,2843,34616
32776,2779,34719
32738,2828,34692
32580,2803,34849
32464,2802,34764
32608,2881,34789
32876,2861,34624
32968,2916,34951
32940,2841,34822
32832,2858,34775
32711,2809,34984
32688,2831,34801
32765,2775,34873
32810,2841,34886
32820,2802,34847
32816,2865,34921
32764,2852,34558
32788,2907,35033
32821,2842,34909
32812,2879,34959
32844,2817,34943
32988,2886,35156
33176,2796,34999
33460,2882,34660
33484,2825,35029
33374,2823,35209
33364,2875,35028
33197,2853,35101
32936,2916,35028
32645,2852,35240
32429,3008,35052
32396,2803,35119
32476,2862,35184
32636,2788,35100
32704,2853,34817
32944,2826,35311
33240,2914,35108
33292,2854,34874
33446,2900,35287
33648,2836,35289
33596,2928,35245
33440,2790,35024
33116,2821,35356
32816,2787,35335
32576,2826,35377
32472,2826,35369
32460,2874,35367
32572,2856,35244
32736,2847,35322
32996,2881,35394
33068,2832,35383
33020,2868,35327
32884,2770,35420
32735,2808,35591
32576,2916,35462
32525,2844,35389
32552,2932,35600
32596,2864,35547
32596,2866,35623
32556,2941,35447
32576,2815,35529
32512,2871,35516
32441,2784,35735
32508,2839,35545
32696,2806,35268
32980,2858,35745
33212,2853,35574
33264,2877,35603
33272,2851,35519
33141,2903,35680
32912,2833,35708
32661,2779,35749
32550,2777,35684
32501,2818,35844
32633,2800,35705
32808,2865,35685
32960,2848,35740
33005,2890,35828
32848,2847,35847
32688,2842,35660
32844,2798,35788
32885,2849,35805
32952,2772,35412
33068,2871,35708
33092,2831,35941
33064,2827,35953
32984,2894,35716
33001,2875,35838
33092,2849,35863
32900,2907,35477
32704,2836,35846
32684,2777,36030
32644,2869,35772
32644,2814,35905
32704,2820,35902
32928,2829,35838
33236,2905,35948
33324,2880,36098
33308,2843,36063
33392,2918,35828
33416,2821,35559
33452,2774,35676
33536,2844,35932
33564,2795,36149
33384,2883,35933
33156,2833,36032
32860,2937,35676
32516,2887,36103
31892,2871,35662
31173,2934,36012
30584,2844,36225
30064,2789,36132
29588,2850,36014
29249,2806,36081
29278,2805,36110
29485,2884,36063
29808,2850,36180
30308,2893,36259
30964,2847,36113
31732,2913,36151
32384,2833,35873
32632,2779,36129
32640,2822,36332
32780,2782,36103
33022,2851,36208
33250,2830,36157
33488,2884,36372
33516,2861,36132
33388,2949,36212
33256,2850,35892
33296,2886,36380
33280,2780,36244
33124,2865,35924
33020,2815,36345
32948,2810,36269
33124,2869,36197
33376,2851,36037
33468,2883,36375
33316,2852,36165
33112,2847,35908
32936,2897,36080
32832,2809,36177
32836,2913,36300
32860,2808,36077
32789,2808,36160
32868,2881,36228
33024,2880,36328
33237,2948,36166
33492,2866,35924
33784,2828,36346
33984,2871,36084
33864,2801,36207
33564,2780,36060
33448,2851,36244
33372,2826,36313
33308,2924,36196
33208,2887,35991
33020,2859,36356
32888,2866,36193
32864,2824,36196
32748,2856,36212
32844,2797,36183
32992,2858,36181
33092,2788,36127
33124,2826,36092
33124,2985,36255
33304,2889,36149
33756,2955,36077
33880,2873,36143
33716,2883,36093
33328,2805,36128
32892,2812,35973
32576,2779,36036
32484,2871,35632
32572,2813,36031
32612,2917,36045
32586,2889,35948
32628,2867,35662
32736,2862,35983
32832,2941,35877
32869,2832,35783
32800,2888,35678
32684,2809,35383
32804,2888,35898
32940,2830,35658
33052,2916,35269
33244,2886,35608
33256,2859,35720
33412,2894,35493
33456,2828,35112
33352,2837,35577
33248,2786,35335
33184,2819,35397
33151,2795,35116
33244,2886,35420
33384,2867,35300
33497,2856,35231
33710,2878,35174
33840,3033,35023
33692,2861,35071
33368,2810,35017
33142,2835,35153
33008,2849,34998
33000,2789,34881
33072,2842,34817
33012,2841,34823
32852,2892,34760
32796,2855,34677
32756,2909,34713
32728,2851,34608
32864,2813,34529
33052,2849,34564
33296,2784,34160
33800,2839,34553
34144,2807,34392
34136,2858,34341
33701,2857,34141
33020,2884,33908
32380,2852,34231
32017,2857,34103
32044,2804,33724
32192,2873,33964
32372,2811,34098
32446,2813,33815
32502,2816,33798
32548,2881,33791
32684,2871,33780
32804,2973,33564
32932,2877,33621
33016,2830,33609
33012,2827,33493
32940,2917,33399
32884,2815,33544
32845,2950,33327
32793,2844,33236
32701,2838,33401
32732,2895,33214
32748,2953,33119
32868,2870,33031
32824,2903,32704
32620,2808,33020
32424,2846,32972
32265,2785,32850
32380,2862,32799
32877,2818,32500
33344,2865,32774
33580,2972,32409
33629,2866,32775
33292,2885,32684
32784,2827,32657
32340,2835,32487
32068,2917,32391
31984,2818,32668
32084,2931,32453
32268,2844,32476
32456,2835,32409
32720,2891,32561
33064,2857,32367
33240,2899,32069
33320,2834,32511
33344,2843,32353
33148,2784,32452
32861,2805,32309
32640,2797,32223
32452,2842,32216
32337,2830,32182
32352,2890,32242
32425,2930,32243
32508,2861,32105
32568,2919,31924
32680,2811,32234
32704,2809,31874
32808,2782,32305
32864,2829,32196
32816,2909,32196
32824,2836,32165
32987,2894,32132
33016,3092,32156
32904,2863,32212
32852,2911,32096
32893,2829,31940
32820,2877,32289
32672,2791,32153
32700,2842,32307
32912,2813,32140
33060,2925,31887
33000,2882,32189
32900,2856,32229
32944,2852,32224
32880,2872,32193
32928,2808,32172
33040,2829,32116
33108,2782,32044
33148,2831,32184
33136,2811,32167
32992,2851,32063
32880,3035,32161
33110,2900,32160
33336,2857,32335
33432,2913,32204
33360,2831,32156
33144,2871,32325
32973,2796,32188
32676,2883,32253
32552,2821,32187
32640,2932,32396
32689,2879,32253
32680,2972,32018
32704,2873,32283
32821,2942,32193
32738,2807,32220
32470,2836,32485
32160,2790,32257
32036,2865,32398
32024,2828,32236
32101,2918,32580
32228,2895,32308
32308,2864,32473
32428,2911,32176
32492,2844,32553
32448,2899,32393
32380,2816,32516
32368,2788,32593
32408,2823,32414
32512,2807,32560
32612,2860,32623
32644,2987,32538
32768,2891,32447
32892,2933,32636
33048,2838,32630
32956,2871,32702
32930,2796,32519
32816,2872,32533
32716,2826,32644
32960,2921,32669
33128,2858,32687
33192,2927,32701
33132,2858,32628
32885,2872,32399
32888,3007,32866
33044,2831,32721
33093,2875,32807
33132,2780,32733
33052,2862,32585
32886,2845,32831
32861,2940,32657
32697,2894,32394
32460,2983,32883
32188,2879,32741
31976,2932,32512
31948,2806,32823
32136,2813,32775
32364,2778,32703
32560,2818,32799
32804,2812,32775
32913,2857,32737
32884,2862,32647
32732,2914,32539
32528,2846,32844
32325,2866,32660
32168,2805,32750
32121,2851,32764
32224,2788,32637
32457,3006,32775
32572,2847,32631
32668,2841,32791
32700,2891,32772
32580,2968,32748
32332,2876,32687
32180,2840,32764
32136,2838,32817
32220,2778,32700
32404,2811,32700
32524,2791,32701
32686,2845,32719
32820,2923,32764
32928,2875,32717
32868,2951,32717
32714,2861,32416
32664,2893,32845
32616,2982,32441
32696,2800,32839
32652,2834,32717
32594,2792,32536
32588,2837,32845
32702,2894,32733
32708,2975,32879
32628,2851,32727
32472,2869,32825
32548,2862,32713
32765,2797,32514
33008,2853,32747
33196,2799,32628
33292,2891,32685
33128,2809,32805
32972,2869,32662
33056,2856,32668
33078,2884,32708
32993,2987,32546
32816,2853,32657
32532,2878,32631
32256,2778,32542
32044,2831,32660
32024,2798,32581
32380,2889,32786
32724,2852,32611
32976,2856,32645
33180,2885,32625
33028,2842,32616
32672,2862,32543
32380,2801,32630
32164,2813,32518
32080,2966,32500
32164,2810,32613
32254,2900,32676
32368,2854,32519
32496,2867,32636
32448,3015,32327
32436,2875,32749
32416,2907,32505
32512,2807,32432
32588,2806,32696
32644,2883,32560
32508,2816,32647
32404,2810,32368
32656,2898,32623
32868,2861,32635
33002,2945,32637
32956,2876,32663
32832,2823,32510
32728,2859,32625
32585,2799,32556
32528,2891,32721
32608,2816,32566
32672,2807,32445
32956,2883,32635
33292,2870,32694
33204,2929,32607
33028,2854,32596
32693,2828,32722
32352,2868,32480
32276,2803,32577
32436,2773,32513
32620,2825,32461
32784,2809,32581
32800,3010,32505
32776,2903,32700
32743,2851,32503
32660,2904,32303
32544,2858,32676
32692,2801,32501
32657,2826,32526
32557,2775,32559
32520,2845,32407
32557,2931,32462
32548,2846,32505
32481,2901,32509
32636,2859,32564
32700,2871,32185
32728,2910,32658
32704,2819,32508
32554,2850,32493
32436,2808,32393
32484,2885,32340
32530,2835,32620
32588,2836,32488
32580,2886,32501
32644,2945,32473
32709,2875,32404
32760,2905,32405
32716,2795,32363
32688,2819,32333
32644,2776,32325
32473,2816,32309
32376,2806,32153
32508,2908,32564
32740,2857,32439
32924,2915,32348
33072,2838,32325
33260,2856,32200
33172,2908,32444
33032,2792,32086
32700,2854,32408
32401,2787,32374
32349,2841,32401
32484,2831,32047
32636,2932,32527
32684,2876,32405
32748,2847,32317
32800,2856,32367
32744,2797,32358
32716,2796,32375
32700,2824,32455
32664,2787,32391
32632,2834,32429
32693,2959,32123
32796,2858,32240
32868,2888,32217
32801,3032,32450
32632,2836,32375
32568,2837,32436
32624,2878,32030
32730,2778,32500
32696,2849,32394
32641,2807,32439
32576,2868,32337
32608,2851,32284
32768,2876,32509
32756,2949,32390
32744,2845,32530
32620,2880,32404
32488,2781,32487
32416,2796,32398
32464,2888,32353
32608,2806,32271
32728,2893,32076
32732,2869,32489
32736,2972,32369
32621,2866,32132
32492,2822,32519
32448,2824,32408
32264,2774,32337
32248,2821,32291
32444,2791,32057
32708,2857,32445
32841,2829,32313
32824,2879,32343
32724,2959,32389
32788,2835,32477
32924,2849,32391
32800,2802,32335
32628,2821,32548
32476,2785,32365
32473,2787,32419
32440,2834,32445
32504,3059,32417
32592,2879,32338
32752,2850,32324
32884,2866,32256
32917,3052,32448
32868,2819,32406
32916,2876,32471
32940,2774,32391
32904,2809,32436
32768,2811,32340
32740,2861,32068
32620,2855,32519
32496,2850,32326
32376,2870,32372
32237,2823,32280
32136,2828,32263
32304,2770,32375
32524,2810,32497
32616,2921,32304
32628,2835,32352
32756,3032,32327
32988,2875,32268
33224,2933,32193
33164,2836,32263
32837,2865,32309
32648,2797,32308
32552,2794,32194
32520,2770,31967
32728,2806,32383
32924,2908,32264
33172,2838,32185
33437,2918,32340
33488,2852,32236
33520,2871,32168
33388,3031,32256
33068,2809,31909
32800,2851,32364
32536,2772,32232
32474,2828,32351
32020,2809,32217
31265,2902,32273
30616,2852,32194
29924,2922,31933
29220,2842,32224
28656,2863,32198
28598,2798,32124
28740,2861,32320
29070,2797,32078
29620,2789,32176
30064,2835,32315
30788,2920,32170
31620,2881,32165
32152,2934,32109
32445,2846,31975
32566,2911,32282
32617,2828,32149
32668,2988,32101
32908,2794,32103
33113,2876,32101
33264,2830,32101
33272,2933,32081
33204,2855,32108
33236,2924,32032
33344,2870,32080
33518,2906,32046
33656,2817,32204
33508,2858,32066
33205,2802,32064
32997,2788,31909
32960,2900,32040
33156,2853,32000
33321,2853,31967
33293,2878,31767
33196,2840,32135
33232,2850,31995
33368,2795,32060
33392,2841,31945
33216,2785,31781
33084,2791,32132
33097,2854,31932
33192,2862,31668
33312,2853,31982
33353,2937,31887
33228,2872,31963
33336,2824,31929
33440,2851,31927
33272,2783,31961
33048,2823,32124
32980,2795,31916
32992,2876,31668
32965,2832,32100
33037,2891,31980
33088,2856,31916
33084,2874,31953
33084,2916,31903
32977,2833,31972
32926,2934,31964
32942,2807,31857
32992,2953,32033
33092,2836,31936
33212,2832,31940
33328,2897,31872
33432,2852,31980
33496,2863,31919
33740,2930,31909
33836,2829,31751
33625,2868,31868
33464,2810,31893
33429,2878,31735
33393,2844,31845
33280,2908,31868
33140,2860,31775
32848,2920,31807
32556,2842,31711
32492,2844,31700
32692,2797,31772
32868,2807,31892
33012,2878,31724
33149,2810,31725
33365,2812,31809
33612,2852,31621
33820,2949,31724
33804,2851,31827
33552,2860,31694
33196,2821,31785
33077,2820,31573
32972,2782,31655
32872,2807,31668
32836,2787,31693
32833,2842,31638
32788,2835,31580
32764,2934,31796
32740,2879,31532
32765,2835,31632
32753,2909,31449
32775,2817,31681
32772,2777,31629
32888,2808,31597
33088,2787,31653
33292,2839,31607
33380,2831,31575
33368,2875,31544
33377,3066,31489
33316,2872,31711
33360,2821,31537
33488,2820,31521
33532,2779,31420
33512,2808,31541
33316,2958,31463
33093,2842,31397
32948,2974,31477
33039,2875,31464
33152,2907,31198
33132,2835,31607
32992,2865,31493
32876,2796,31393
32652,2867,31555
32596,2780,31400
32680,2837,31271
32856,2805,31508
32980,2924,31297
33070,2884,31416
32980,2851,31305
32836,2913,31488
32844,2832,31352
32944,2880,31185
32996,2794,31312
33157,2775,31486
33048,2868,31337
32982,2807,31335
32932,2867,31365
32964,2852,31194
32932,2878,31018
32936,2938,31447
32948,2819,31276
32865,2841,31004
32600,2773,31424
32356,2854,31225
32168,2797,31176
32204,2890,31308
32424,2841,31252
32540,2918,31161
32629,2852,31272
32572,2877,31227
32576,2822,31188
32556,2831,31155
32556,2776,30900
32776,2805,31292
32944,2874,31201
32780,2813,31239
32672,2870,31182
32840,2944,31301
32956,2852,31188
33036,2863,31133
33033,2852,31308
33016,2942,31035
33092,2790,31138
32984,2841,31223
32904,2788,31111
32736,2835,31108
32780,2836,31144
32920,2882,31121
33022,2953,31215
33008,2846,31111
33050,2850,31262
32976,2800,31148
32772,2796,31076
32700,2777,31150
32844,2808,31125
32916,2813,31037
33068,2874,31213
33176,2854,31084
33236,2873,31024
33220,2842,31010
33064,2853,30863
32869,2800,31228
32644,2806,31090
32344,2866,30975
32232,2816,31233
32249,2898,31086
32348,2844,31041
32480,2928,30938
32604,2870,30783
32645,2931,31192
32524,2825,31077
32660,2842,31135
32908,2774,31042
33016,2818,30980
33012,2788,30926
33001,2835,31048
33004,2830,30983
32992,2897,31188
32749,2857,31007
32518,2909,30790
32380,2820,30905
32436,2819,30888
32636,2860,31033
32972,2767,30855
33089,2824,30912
33084,2846,30949
32920,2829,30900
32722,2884,30721
32500,2988,31177
32480,2858,31043
32612,2898,30948
32732,2795,30884
32708,2800,31009
32748,2861,31161
32980,2786,31047
33124,2844,31038
33228,2941,30989
33096,2866,30952
32900,2932,31097
32516,2850,31004
32372,2904,30772
32493,2819,31111
32600,2833,31024
32652,2770,30956
32832,2818,31068
32994,2905,30788
33020,2866,31070
32968,2946,30726
32848,2869,31173
32684,2909,31022
32549,2816,30956
32492,2828,30997
32392,2863,30744
32480,2769,31016
32580,2821,30998
32624,2805,31087
32704,2858,30883
32744,2946,30852
32808,2873,31155
32776,2913,31020
32590,2821,31013
32556,2824,30964
32504,2777,30902
32570,2771,30965
32645,2807,30840
32714,2907,31111
32836,2832,31020
32796,2875,31156
32788,2939,31036
32696,2835,31081
32751,2867,30943
32788,2795,30983
32686,2808,30900
32529,2775,31024
32487,2816,30951
32520,2892,30975
32560,2834,30941
32684,2938,31171
32704,2868,31036
32848,2898,30956
32984,2812,30913
32948,2814,30948
32796,2855,30904
32560,2773,30877
32460,2819,30964
32584,2809,30719
32740,2863,31189
33096,2945,31021
33320,2880,30823
33024,2834,31096
32664,2896,30935
32545,2789,30935
32440,2791,31093
32428,2779,31069
32520,2807,31075
32808,2913,30956
32926,2853,30855
32837,2963,31212
32564,2858,31089
32308,2903,31081
32313,2845,30970
32293,2908,30785
32150,2803,31175
32068,2775,31100
32252,2796,31094
32384,2854,31140
32444,2829,31026
32648,2863,31023
32792,2900,31164
32848,2837,31088
32952,2865,30951
32924,2791,31237
32800,2805,31111
32632,2771,31012
32380,2855,31265
32336,2838,30983
32460,2939,31090
32568,2874,31215
32504,2937,31092
32512,2841,31084
32508,2839,31125
32480,2883,31140
32533,2805,30992
32640,2862,30964
32844,2787,31278
33213,2882,31100
33376,2829,31056
33388,2877,31094
33262,2846,31135
32982,2892,30929
32872,2813,31194
32901,2823,31139
32848,2771,31213
32817,2794,31153
32792,2793,31207
32552,2833,31075
32436,2827,31132
32424,2907,31297
32460,2849,31157
32552,2880,31103
32660,2813,31015
32732,2850,30975
32776,2789,31124
32678,2860,31043
32692,2781,31101
32713,2855,31133
32676,2831,31146
32653,2883,31231
32668,2846,31111
32797,2878,30967
32780,2812,31305
32761,2817,31165
32716,2773,31125
32596,2842,31164
32624,2808,31180
32720,2876,31133
32752,2845,31086
32764,2938,30914
32681,2879,31335
32586,2915,31196
32557,2816,31177
32616,2859,31069
32772,2796,31165
32828,2907,31220
32824,2815,31129
32844,2866,31172
32836,2932,31181
32824,2880,31168
32801,2940,31125
32784,2856,31109
32876,2860,31072
32910,2788,31092
32853,2796,31218
32956,2775,30855
33080,2788,31083
33052,2825,31061
32956,2835,31317
32968,2870,31166
33057,2983,31092
33044,2855,31279
32940,2813,31122
32772,2849,30857
32768,2768,31287
32756,2791,31192
32748,2881,31270
32720,2816,31175
32624,2912,31103
32686,2853,31116
32838,2852,31183
32788,2894,30890
32628,2833,31226
32577,2890,31205
32562,2806,31144
32634,2774,30980
32732,2823,31075
32780,2924,31179
32784,2847,31101
32820,2846,31302
32888,2850,31051
32960,2900,31168
32832,2820,31047
32644,2891,31254
32596,2788,31132
32708,2839,30969
32876,2783,31331
33132,2854,31193
33272,2830,31133
33208,2893,31069
33004,2842,30910
32676,2883,31228
32504,2822,31184
32287,2877,31101
32224,2780,31124
32344,2890,31204
32633,2792,31305
32888,2896,31213
32941,2847,31271
32800,2915,31229
32732,2847,31239
32772,2874,31189
32884,2806,30943
33030,2857,31295
33144,2774,31173
33032,2857,31030
33060,2786,31338
33140,2859,31255
33088,2826,31322
33041,2890,31255
33004,2851,31233
32904,2867,31188
32724,2888,31184
32580,2788,31212
32536,2806,31196
32480,2775,31220
32500,2806,31074
32604,2907,31335
32708,2842,31257
32684,2882,31402
32542,2844,31263
32500,2881,31267
32560,2815,31286
32565,2825,31262
32564,2768,31302
32932,2816,31234
33384,2795,31460
33636,2952,31168
33532,2853,31017
33256,2947,31389
32956,2857,31272
32829,2864,31180
32680,2811,31474
32664,2811,31284
32677,2859,31093
32652,2771,31348
32668,2813,31302
32724,2896,31375
32728,2828,31031
32792,2872,31372
32832,2940,31341
32885,2829,31458
32900,2836,31341
32841,2854,31439
32720,2769,31323
32568,2823,31177
32488,2788,31369
32529,2835,31335
32572,2889,31357
32704,2850,31279
32920,2866,31261
32956,2870,31224
33024,3006,31313
33118,2812,31419
33084,2851,31312
32934,2799,31340
32996,2788,31314
33132,2834,31212
33252,2833,31263
33168,2867,31480
32844,2852,31353
32632,2866,31052
32646,2814,31277
32852,2830,31357
33244,2767,31340
33256,2833,31055
33012,2816,31355
32740,2892,31271
32532,2851,31162
32564,2994,31332
32580,2866,31367
32485,2979,31364
32442,2830,31076
32416,2792,31467
32320,2781,31375
32408,2865,31295
32552,2799,31500
32545,2896,31338
32736,2853,31367
33008,2937,31329
33132,2875,31340
33088,2825,31351
32996,2852,31055
32920,2785,31415
32896,2837,31284
32908,2771,31380
32888,2846,31224
33001,2805,31521
33061,2856,31385
33152,2935,31448
33328,2853,31375
33616,2939,31077
33796,2828,31528
33788,2879,31329
33860,2796,31391
33720,2766,31269
33368,2881,31431
33032,2835,31281
32624,2836,31409
32356,2869,31377
31913,2842,31521
31192,2873,31385
30492,2815,31108
29792,2841,31353
28996,2795,31548
28512,2863,31401
28524,2801,31141
28909,2803,31485
29360,2900,31326
29900,2853,31418
30568,2933,31552
31220,2861,31420
31684,2922,31386
31816,2824,31580
31840,2778,31397
32020,2931,31474
32412,2843,31432
32672,2880,31411
32832,2849,31465
33056,2940,31396
33236,2874,31551
33250,2890,31449
33162,2805,31484
33056,2818,31354
32996,2817,31396
33072,2867,31425
33181,2804,31341
33288,2941,31618
33627,2850,31444
33904,2845,31215
33898,2898,31615
33748,2851,31372
33588,2917,31463
33469,2820,31228
33384,2765,31495
33316,2823,31378
33356,2777,31153
33456,2877,31495
33392,2852,31390
33388,2850,31463
33328,2906,31301
33228,2855,31591
33192,2809,31485
33148,2810,31517
33165,2765,31485
33180,2793,31436
33288,2915,31495
33436,2819,31430
33580,2821,31644
33732,2897,31534
33780,2839,31492
33765,2878,31516
33702,2814,31454
33520,2857,31453
33325,2792,31212
33108,2763,31607
33000,2838,31560
32972,2797,31610
32980,2883,31441
33040,2849,31534
33072,2932,31639
33028,2855,31525
33040,3025,31280
33016,2813,31669
33048,2789,31524
33180,2897,31473
33336,2798,31460
33568,2831,31485
33684,2919,31521
33789,2851,31608
33812,2991,31489
33960,2858,31436
33916,2908,31556
33724,2813,31565
33592,2841,31653
33408,2769,31561
33168,2817,31677
33060,2809,31584
33085,2858,31709
33140,2841,31592
33012,2884,31613
32980,2951,31607
33052,2805,31733
33028,2840,31616
32988,2768,31751
32918,2799,31615
32821,2867,31772
32997,2812,31649
33264,2912,31670
33326,2873,31577
33352,2916,31588
33354,2843,31733
33192,2877,31653
33105,2783,31801
33180,2793,31396
33325,2879,31710
33356,2801,31445
33312,2880,31772
33444,2849,31750
33500,2943,31703
33445,2877,31726
33192,2917,31488
33082,2816,31912
32928,2836,31791
32800,2867,31887
32854,2775,31821
32961,2807,31892
33128,2886,31738
33164,2829,31764
33192,2868,31765
33180,2845,31788
33140,2863,31743
33113,2895,31744
33068,2781,31766
33036,2795,31791
33068,2769,31716
33132,2809,31817
33132,2906,31853
33269,2831,31861
33376,2879,31972
33461,2909,31901
33576,2843,31796
33516,2914,32104
33292,2791,31941
33092,2849,31767
32925,2773,32082
32824,2829,32007
32720,2804,32031
32758,2865,32022
32744,2845,32032
32573,2861,32037
32464,2936,31935
32428,2837,31796
32424,2970,32092
32417,2788,32224
32374,2915,32077
32436,2816,31791
32584,2880,32272
32696,2822,32164
32881,2877,32252
33060,2917,32167
33056,2826,32037
33008,2883,32357
32816,2811,32251
32592,2862,32281
32562,2780,32205
32656,2863,32305
32672,2803,32337
32746,2863,32351
32972,2841,32368
33176,2879,32388
33108,2948,32275
32850,2822,32415
32580,2870,32361
32436,2777,32580
32440,2808,32487
32500,2782,32336
32557,2823,32639
32776,2981,32487
33036,2861,32381
33124,2900,32624
33236,2831,32556
33301,2841,32511
33452,2785,32629
33300,2778,32623
33076,2838,32660
32860,2782,32600
32640,2839,32583
32548,2830,32799
32558,2901,32647
32540,2846,32391
32624,2856,32827
32709,3045,32677
32828,2810,32454
32935,2862,32838
32868,2799,32677
32740,2783,32716
32640,2871,32420
32736,2849,32782
32792,2947,32655
32784,2872,32783
32784,2829,32615
32842,2848,32820
32765,2781,32679
32696,2850,32829
32720,2797,32765
32796,2984,32989
32813,2825,32735
33133,2823,32856
33476,2875,32833
33420,2849,32799
33074,2856,32871
32716,2811,32922
32472,2810,32994
32444,2770,32919
32368,2804,32753
32524,2779,33081
32852,2846,32893
33017,2829,32943
33044,2916,33021
32853,2840,32873
32751,2910,32972
32668,2837,32992
32518,2784,32990
32516,2838,33013
32532,2787,33009
32556,2781,33023
32608,2822,33133
32749,2831,32980
32940,2880,32711
32864,2845,33194
32762,2843,33060
32804,2890,33124
32764,2997,33020
32664,2793,33137
32576,2824,32774
32588,2787,33004
32549,2820,33118
32566,2823,33206
32708,2944,33238
32792,2945,33316
32752,2864,33147
32856,2921,32853
33036,2814,33277
32956,2882,33201
32728,2784,33173
32644,2829,33140
32652,2800,33220
32548,2854,33384
32644,2891,33234
32828,2843,33391
32884,2831,33223
32992,2830,33391
32924,2873,33246
32816,2762,33399
32576,2786,33274
32336,2858,33354
32377,2814,33226
32489,2915,33308
32556,2879,33251
32540,2846,33319
32558,2848,33332
32700,2884,33381
33044,2815,33327
33252,2771,33343
33552,2796,33300
33604,2979,33472
33380,2829,33324
33044,3000,33057
32840,2873,33477
32740,2935,33324
32481,2831,33269
32288,2829,33511
32224,2787,33428
32172,2811,33424
32260,2778,33413
32366,2870,33369
32613,2834,33327
32789,2826,33423
32864,2876,33498
32880,2844,33468
32804,2863,33500
32608,2806,33449
32492,2805,33457
32376,2986,33396
32472,2787,33508
32761,2778,33468
32830,2830,33467
32804,2829,33211
32775,2930,33555
32692,2867,33415
32792,2820,33526
32848,2837,33652
33004,2787,33533
32956,2787,33247
32832,2760,33636
32588,2811,33573
32392,2911,33564
32309,2824,33596
32396,2894,33542
32564,2844,33558
32608,2838,33564
32592,2847,33557
32596,2863,33706
32572,2760,33645
32784,2802,33764
32908,2941,33665
32932,2832,33660
32816,2819,33559
32721,2875,33388
32736,2841,33829
32900,2873,33671
32948,2802,33662
32773,2830,33673
32556,2765,33692
32436,2797,33816
32520,2782,33695
32576,2837,33634
32660,2829,33827
32768,2865,33755
32668,3044,33883
32576,2851,33763
32552,2870,33839
32673,2780,33772
32896,2786,33816
33148,2899,33760
33261,2781,33821
33180,2834,33799
33244,2825,33748
33424,2891,33971
33400,2837,33845
33100,2879,33769
32748,2807,33711
32552,2809,33543
32372,2765,33928
32304,2818,33821
32384,2796,33894
32520,2882,33939
32588,2823,33786
32727,2881,33927
32752,2955,34092
32700,2824,33588
32604,2831,34079
32481,2828,33959
32612,2765,34088
32933,2788,33998
33154,2949,34127
33020,2817,34028
32821,2917,34023
32708,2879,33908
32612,2934,33865
32565,2855,34193
32604,2897,34087
32628,2784,34233
32704,2799,34095
32750,2838,34248
32780,2779,34108
32856,2822,34232
32796,2923,34031
32708,2845,34181
32676,2882,34149
32556,2961,34276
32467,3015,33816
32412,2779,34097
32428,2784,33861
32472,2852,34167
32560,2871,34255
32628,3015,33922
32732,2852,34400
32956,2889,34257
33016,2842,34391
32940,2852,34256
32856,2981,34228
32783,2805,34172
32644,2812,34245
32424,2763,34392
32333,2799,33960
32528,2891,34360
32764,2822,34294
32812,2862,34335
32877,2929,34453
32932,2824,34370
32902,2840,34545
32928,2856,34413
32844,2759,34512
32740,2787,34055
32744,2911,34369
32840,2807,34396
32910,2845,34420
33004,2889,34597
33056,2957,34469
33093,2848,34628
33088,2850,34480
32906,2785,34613
32868,2781,34156
32840,2797,34439
32732,2853,34485
32800,2801,34465
32820,2857,34495
32909,2925,34460
32941,2841,34592
32740,2839,34604
32668,2889,34550
32736,2784,34672
32812,2861,34623
32780,2775,34634
32748,2863,34596
32708,2798,34407
32686,2847,34551
32648,2872,34673
32672,2924,34716
32668,2822,34822
32636,2844,34711
32512,2856,34887
32480,2857,34465
32464,2791,34886
32456,2846,34783
32572,2978,34936
32724,2852,34812
32840,2903,34944
32905,2849,34836
32981,2894,34967
33089,2812,34863
33096,2837,34917
32956,2759,34865
32840,2799,34925
32825,2897,34862
32729,2833,34607
32824,2818,35031
32976,2889,34884
32996,2840,34598
32988,2851,35005
33053,2885,34965
33076,2781,35125
32840,2789,34993
32672,2878,35079
32560,2798,35020
32481,2894,34967
32468,2847,35062
32656,2889,34900
32864,2947,34960
32937,2835,34823
32974,2847,35011
33109,2961,34965
33272,2784,35095
33368,2816,34735
33188,2782,35244
32844,2836,35132
32604,2828,35252
32373,2862,35161
32352,2929,35151
32416,2829,35046
32536,2831,35164
32584,2911,35061
32537,2767,35116
32602,2801,35152
32736,2866,35143
32784,2794,35180
32864,2855,34988
32989,2926,35374
33300,2838,35261
33448,2857,35285
33292,2870,35156
33049,2777,35100
32704,2794,35285
32368,2851,35109
32264,2779,35241
32388,2830,35165
32526,2927,35188
32616,2841,35270
32608,2873,35312
32752,2874,35493
32856,2800,35366
32917,2801,35401
33052,2907,35382
33116,2787,35385
33033,2855,35335
32828,2812,35316
32757,2918,35471
32864,2839,35396
33069,2868,35559
33144,2917,35420
33028,2830,35518
32796,2819,35447
32412,2882,35591
32100,2781,35460
32172,2855,35520
32636,2800,35429
33057,2853,35396
33150,2931,35443
33136,2848,35588
33124,2857,35477
32970,3017,35548
32744,2798,35113
32720,2819,35564
32864,2759,35124
33092,2803,35572
33324,2801,35525
33616,2859,35685
33772,2909,35223
33772,2839,35636
33548,2857,35591
33352,2799,35588
33093,2801,35583
32944,2845,35646
32388,2763,35576
31504,2818,35335
30808,2799,35719
30300,2849,35620
29848,2928,35644
29580,2848,35585
29636,2874,35692
29832,2801,35857
30048,2804,35740
30312,2763,35692
30572,2784,35707
31160,2960,35774
31776,2826,35885
32032,2919,35783
32181,2861,35733
32376,2969,35943
32692,2852,35839
33008,2906,35802
33193,2812,35874
33240,2872,35847
33236,2784,35816
33248,3007,35918
33260,2821,35871
33308,2827,35828
33356,2867,36017
33281,2951,35906
33308,2829,35993
33269,2828,35901
33244,2783,35860
33304,2776,35812
33428,2853,35917
33476,2803,35926
33534,2869,35872
33580,2829,35911
33470,2895,36047
33304,2842,35841
33396,2842,35560
33464,2802,36103
33424,2788,35956
33272,2816,36136
33106,2769,36015
33204,2810,36173
33340,2804,36022
33369,2857,35993
33374,2836,36061
33321,2875,36047
33184,2826,36087
33024,2839,36020
32921,2886,36032
33056,2791,36030
33084,2841,35718
33016,2781,36269
33048,2830,36103
33128,2826,36143
33281,2860,36016
33468,2915,36039
33605,2827,36053
33524,2847,36153
33452,2775,36141
33604,2821,36341
33680,2770,36210
33748,2847,36333
33508,2809,36159
33344,2909,35996
33352,2875,36317
33208,2932,36196
33028,2845,36100
32868,2939,36335
32766,2802,36177
32836,2885,36155
32940,2798,36345
33156,2779,36164
33244,2830,36136
33177,2910,36056
33164,2839,36170
33076,2908,36178
32912,2826,36060
32760,2829,36103
32709,2778,36260
32685,2784,36172
32932,2955,36239
33209,2801,36151
33424,2898,36004
33632,2853,36300
33728,3023,36117
33804,2861,35839
33748,2922,36304
33408,2821,36151
33032,2826,36197
32760,2937,36141
32608,2763,36303
32528,2809,36148
32500,2798,36103
32632,2851,36287
32705,2844,36120
32768,2881,35746
32912,2819,36316
33117,2838,36117
33216,2786,36177
33316,2823,36124
33382,2760,36103
33248,2800,35765
33137,2986,36326
32985,2860,36153
32908,2928,36085
32924,2851,36089
33060,2865,36151
33096,2975,36285
33016,2787,36180
32892,2822,36115
32828,2773,36275
32848,2863,36164
32917,2803,36279
32848,2852,36142
32924,2843,36209
33076,2863,36080
33188,2885,35908
33016,2796,36209
32716,2799,36119
32476,2874,36090
32472,2793,35999
32572,2841,36052
32684,3035,36223
32713,2834,36075
32724,2868,36096
32708,2843,35977
32730,2839,35991
32796,2875,35988
32832,2776,36052
33056,2767,35999
33360,2792,36001
33360,2868,35564
33088,2795,36071
32764,2859,35924
32613,2916,36039
32577,2839,35895
32464,2878,35847
32388,2975,35856
32388,2784,35904
32316,2793,35732
32276,2766,35807
32364,2798,35945
32572,2800,35808
32752,2846,35768
32824,2843,35775
32917,2871,35767
32860,2819,35685
32704,2850,35766
32569,2777,35719
32469,2789,35740
32464,2765,35604
32596,2802,35680
32680,2886,35661
32748,2832,35581
32884,2884,35365
32857,3012,35748
32838,2821,35585
32860,2823,35575
32780,2901,35455
32796,2791,35506
33036,2859,35429
33412,2809,35572
33696,2861,35456
33708,2822,35461
33526,2867,35308
33368,2844,35380
33140,2851,35111
32920,2887,35344
32648,2789,35296
32420,2797,35385
32476,2847,35263
32720,2780,35361
32957,2820,35208
32976,2916,35143
33036,2840,35112
33280,2866,35052
33252,3004,35125
33080,2823,34665
32996,2858,35166
32920,2764,34942
32812,2786,34911
32768,2787,34920
32796,2821,34887
32751,2917,34945
33016,2863,34796
33302,2890,34831
33381,2818,34756
33364,2836,34729
33236,2847,34608
32992,2764,34329
32816,2777,34687
32776,2827,34620
32772,2796,34530
32837,2859,34609
32964,2928,34502
32986,2839,34612
32972,2857,34472
32872,2879,34476
32732,2768,34380
32536,2783,34343
32348,3000,34338
32400,2789,33972
32632,2827,34412
32812,2834,34311
32892,2875,34217
32908,2907,34153
32917,2825,34127
32984,2825,34225
32932,2839,33817
32825,2997,34233
32712,2772,34139
32760,2821,34257
32981,2800,34053
33224,2855,33984
33376,2973,34183
33372,2834,34036
33188,2840,34025
32928,2896,33897
32804,2799,33960
32697,2828,34085
32664,2766,33865
32805,2803,33846
32824,2897,33823
32668,2853,33558
32500,2915,33901
32449,2835,33831
32500,2872,33825
32636,2797,33743
32816,2794,33713
32900,2946,33829
32980,2794,33652
32888,2845,33485
32744,3012,33600
32637,2860,33541
32600,2929,33740
32560,2841,33653
32592,2851,33794
32616,2798,33536
32632,2799,33556
32712,2857,33597
32760,2756,33489
32776,2813,33564
32924,2849,33664
33142,2902,33588
33124,2844,33671
32844,2892,33519
32620,2820,33357
32472,2825,33676
32316,2804,33532
32301,2848,33677
32372,2761,33533
32440,2805,33535
32468,2904,33461
32528,2829,33184
32512,2858,33543
32517,2880,33167
32460,2922,33508
32616,2795,33192
32894,2806,33405
33008,2778,33428
33080,2852,33396
33080,2784,33351
32860,2820,33283
32725,2887,33396
32960,2841,33407
33141,2863,33465
33287,2903,33385
33370,2799,33498
33193,2822,33363
32928,2758,33345
32704,2792,33218
32420,2943,33349
32196,2809,33487
32228,2917,33197
32454,2872,33310
32624,2947,33317
32776,2856,33177
32740,2877,32948
32576,2777,33322
32342,2792,33153
32244,2757,33276
32392,2807,33183
32636,2812,33372
32828,2826,33132
33049,2861,33210
33264,2946,33266
33256,2835,33092
33312,2853,32885
33185,2776,33327
32960,2769,33207
32768,2849,32986
32616,2809,33216
32440,2935,33031
32476,2854,33140
32644,2932,33167
32712,2852,33013
32648,2896,33086
32440,2812,33129
32328,2832,33140
32288,2764,33087
32340,2808,33020
32424,2779,33201
32528,2834,33010
32700,2821,33047
32866,2879,33076
32888,2843,33036
32841,2863,33031
32724,2795,32909
32664,2796,33119
32852,2927,32924
33053,2781,32972
33177,2875,33023
33097,2815,33057
32942,2828,32908
33004,2863,32951
33060,2956,32852
33060,2835,33031
32964,2903,32849
32884,2801,32903
32800,2760,32764
32825,2844,33030
32856,2808,32765
32772,2800,32860
32864,2851,32518
33124,2845,32580
33266,2913,32882
33204,2851,32775
32928,2909,32801
32641,2807,32724
32320,2883,32885
32056,2770,32768
32176,2825,32809
32548,2794,32610
32788,2881,32700
32928,2847,32426
33053,2867,32759
33012,2830,32644
32888,2896,32673
32744,2790,32764
32616,2855,32633
32512,2797,32676
32504,2930,32703
32636,2818,32581
32812,2825,32606
32926,2904,32593
33044,2864,32653
32948,2823,32700
32688,2829,32600
32440,2868,32519
32385,2795,32573
32532,2881,32556
32656,2815,32435
32672,2879,32633
32644,2827,32518
32616,2876,32497
32650,2840,32528
32712,2855,32484
32726,2969,32604
32812,2804,32481
32732,2797,32533
32712,2765,32460
32712,2817,32657
32812,2912,32373
33076,2845,32391
33188,2836,32371
33193,2857,32508
33120,2912,32297
33028,2798,32507
33017,2799,32356
32992,2768,32487
32900,2793,32408
32848,2875,32594
32868,2807,32436
33084,2916,32476
33248,2865,32460
33032,2965,32151
32808,2853,32396
32549,2801,32616
32372,2797,32412
32296,2846,32199
32328,2765,32621
32516,2804,32460
32548,2900,32215
32636,2829,32609
33144,2885,32348
33486,2833,32485
33464,2857,32405
33145,2879,32630
32605,2781,32351
32225,2810,32485
32052,2766,32279
32154,2808,32460
32276,3009,32349
32352,2863,32485
32544,2944,32506
32668,2861,32443
32748,2874,32510
32780,2805,32478
32716,2810,32474
32752,2964,32431
32885,2793,32348
33028,2873,32358
33102,2825,32156
32956,2821,32576
32746,2960,32365
32624,2868,32429
32488,2818,32576
32436,2818,32490
32428,2906,32578
32453,2794,32487
32516,2882,32505
32597,2817,32332
32828,2905,32150
32996,2834,32462
33029,2877,32449
33100,2838,32574
33032,2829,32161
32820,2834,32456
32694,2861,32463
32532,2788,32427
32376,2838,32455
32276,2778,32615
32316,2817,32473
32506,2829,32391
32620,2874,32431
32741,2909,32254
33000,2820,32582
33344,2820,32457
33472,2772,32452
33416,2793,32412
33444,2763,32365
33224,2801,32583
32924,2930,32487
32540,2849,32491
32180,2948,32450
32020,2846,32399
31972,2849,32394
32184,2972,32193
32468,2792,32644
32600,2963,32511
32640,2794,32437
32548,2881,32444
32512,2802,32439
32576,2856,32501
32668,2968,32257
32736,2863,32684
32776,2906,32540
32832,2799,32458
32925,2793,32414
32920,2763,32548
32954,2804,32609
33014,2780,32428
33368,2826,32547
33952,2820,32669
34376,2863,32548
34392,2839,32509
34148,2837,32452
33728,3012,32313
33232,2804,32696
32448,2759,32479
31917,2786,32584
31492,2879,32761
31014,2812,32620
30529,2910,32452
29984,2842,32751
29445,2906,32588
29045,2843,32622
28992,2996,32702
29120,2791,32601
29444,2848,32582
29860,2770,32622
30236,2801,32741
31028,2886,32652
31908,2824,32665
32376,2874,32663
32640,2897,32755
32756,2817,32668
32744,2817,32656
32732,2903,32641
32741,2758,32680
32692,2797,32679
32724,2843,32776
32740,2801,32652
32805,2826,32644
32928,2876,32311
33036,2837,32732
33372,2836,32597
33564,2990,32727
33464,2796,32590
33268,2801,32647
33032,2760,32582
33013,2844,32705
33168,2802,32564
33304,2843,32620
33348,2895,32524
33380,2834,32687
33356,2869,32534
33286,2795,32615
33268,2807,32529
33180,2915,32468
33100,2794,32425
33117,2780,32524
33257,2803,32647
33428,2907,32531
33504,2844,32549
33584,2932,32420
33716,2878,32519
33708,2797,32534
33582,2849,32356
33308,2759,32244
32988,2835,32597
32865,2780,32474
32740,2854,32516
32576,2833,32453
32580,2883,32476
32740,2833,32421
32839,2855,32313
32864,2796,32542
32960,2796,32449
32882,2916,32423
32833,2787,32388
33052,2780,32116
33392,2817,32548
33580,2826,32339
33672,2861,32242
33540,2952,32463
33336,2847,32336
33076,2872,32446
32766,2772,32281
32524,2820,31983
32492,2769,32417
32616,2779,31954
32856,2856,32401
33052,2831,32212
33256,2898,32144
33280,2830,32157
33330,2844,32133
33264,2806,32116
33092,2796,32089
