ECG,EDA,RR
32788,16722,49457
32704,16830,49511
32630,16801,49494
32644,16868,49600
32704,16792,49595
32752,16789,49647
32756,16694,49581
32742,16676,49533
32760,16713,49575
32806,16666,49604
32728,16720,49476
32636,16786,49689
32576,16795,49660
32636,16828,49696
32780,16838,49671
32872,16749,49424
32948,16714,49707
32948,16725,49712
32888,16650,49248
32841,16672,49704
32756,16753,49710
32701,16757,49696
32660,16820,49717
32656,16866,49687
32724,16811,49735
32760,16821,49661
32772,16710,49601
32812,16704,49624
32836,16645,49498
32820,16693,49608
32784,16786,49588
32672,16764,49684
32580,16819,49635
32556,16898,49685
32676,16807,49639
32817,16817,49576
32980,16698,49612
33112,16684,49636
33148,16648,49607
33036,16705,49617
32852,16715,49572
32768,16778,49567
32608,16802,49478
32576,16829,49521
32684,16870,49516
32885,16772,49521
33012,16764,49465
32972,16665,49281
32809,16677,49461
32676,16753,49444
32620,16735,49428
32576,16831,49378
32544,16815,49150
32556,16851,49257
32580,16802,49215
32696,16775,49244
32840,16779,49191
32948,16671,49234
33024,16673,49156
33020,16733,49159
32900,16813,49097
32788,16773,49129
32748,16823,49080
32720,16862,48957
32741,16871,49032
32856,16772,48975
32932,16724,48892
33004,16741,48916
33024,16661,48880
32936,16697,48560
32796,16782,48742
32729,16774,48684
32752,16831,48700
32788,16825,48644
32736,16827,48578
32724,16807,48492
32753,16707,48327
32896,16682,48444
32976,16678,48420
32997,16724,48413
32904,16796,48349
32736,16776,47873
32648,16829,48169
32640,16882,48157
32732,16810,48169
32817,16799,48135
32924,16804,48068
32986,16683,47637
32932,16688,47852
32892,16687,47556
32834,16749,47845
32832,16852,47362
32852,16836,47678
32900,16929,47639
32917,16833,47623
32948,16772,47540
32944,16748,47495
32972,16680,47465
33064,16692,47381
33038,16752,47317
32980,16732,47200
32860,16805,47047
32704,16868,47056
32644,16833,46997
32652,16828,47007
32720,16791,46928
32808,16785,46740
32948,16687,46829
32998,16681,46740
32984,16709,46676
32904,16782,46599
32868,16843,46325
32860,16823,46408
32836,16849,46300
32840,16854,46327
32824,16774,46215
32920,16752,46180
33044,16684,46105
33098,16689,46067
33087,16746,46028
32960,16733,45895
32828,16819,45773
32716,16824,45540
32700,16854,45597
32700,16816,45629
32830,16796,45548
32944,16733,45540
33020,16707,45420
33060,16706,45004
33100,16703,45183
32948,16758,45204
32841,16853,45101
32740,16837,45063
32744,16898,44964
32832,16836,44583
32964,16828,44696
33060,16732,44700
33032,16716,44716
33020,16754,44542
33016,16727,44473
32968,16836,44269
32873,16836,44367
32852,16837,44321
32748,16870,44199
32704,16881,44129
32714,16806,44055
32868,16719,43992
33012,16722,43888
33008,16741,43421
32884,16705,43564
32704,16770,43505
32484,16859,43542
32360,16844,43484
32452,16861,43399
32652,16830,43268
32932,16816,43143
33302,16832,42940
33616,16713,42941
33892,16756,42896
34216,16720,42756
34508,16801,42789
34716,16804,42740
35068,16866,42489
35644,16892,42503
36300,16940,42356
36804,16799,42232
36944,16780,42211
36904,16764,42175
36640,16792,42062
36044,16729,41948
35400,16793,41933
34860,16898,41468
34244,16862,41685
33502,16880,41619
32592,16875,41455
32104,16846,40973
32150,16755,41335
32312,16741,40996
32484,16770,41040
32578,16727,41018
32576,16837,40868
32460,16827,40797
32341,16898,40762
32360,16930,40775
32424,16844,40583
32537,16828,40528
32581,16815,40561
32581,16714,40005
32540,16729,40256
32448,16780,40129
32332,16773,40093
32240,16839,40020
32176,16871,39880
32101,16871,39815
32132,16859,39739
32301,16838,39597
32480,16823,39573
32668,16727,39591
32652,16732,39232
32544,16820,39292
32420,16793,39333
32312,16910,38750
32252,16871,38950
32228,16869,38868
32248,16862,38846
32384,16841,38865
32522,16763,38716
32532,16757,38580
32480,16774,38543
32373,16732,38129
32328,16791,38324
32284,16879,38358
32278,16858,38181
32284,16894,38108
32392,16919,37925
32572,16811,37940
32696,16772,37744
32800,16788,37750
32776,16709,37713
32740,16751,37612
32596,16868,37396
32444,16842,37334
32358,16935,37320
32368,16892,37277
32405,16932,37213
32484,16817,37127
32623,16782,37127
32712,16789,36887
32768,16721,36826
32741,16751,36916
32668,16783,36717
32616,16848,36599
32593,16922,36480
32568,16884,36469
32628,16921,36423
32720,16833,36341
32824,16821,36124
32852,16735,36141
32941,16755,36112
33016,16738,36124
33140,16803,35636
33149,16832,35744
32916,16890,35708
32668,16941,35663
32628,16866,35540
32796,16829,35533
32944,16817,35564
33020,16731,35207
33084,16728,35248
33060,16763,35236
32944,16849,35129
32788,16838,35049
32762,16892,34894
32804,16935,34866
32944,16869,34885
33072,16845,34424
33124,16832,34564
33152,16734,34438
33148,16757,34293
33108,16748,34256
33000,16820,34249
32904,16894,34225
32828,16882,34078
32756,16890,33733
32780,16897,33757
32854,16878,33749
32941,16776,33734
33062,16766,33725
33080,16735,33559
33041,16769,33508
32932,16858,33383
32864,16858,33309
32826,16928,33196
32864,16893,33076
32924,16890,32994
33032,16902,32842
33124,16781,32812
33136,16767,32756
33162,16795,32684
33136,16765,32508
33072,16823,32474
33004,16916,32439
32880,16887,32356
32812,16932,32284
32840,16887,32172
32920,16933,32079
32940,16807,31916
33012,16815,31884
33108,16747,31828
33084,16785,31760
32980,16807,31469
32828,16869,31684
32684,16945,31535
32608,16919,31461
32641,16939,31345
32874,16837,31173
33105,16820,31068
33132,16753,30999
32949,16758,30976
32696,16820,30852
32620,16813,30871
32613,16911,30717
32568,16896,30748
32508,16955,30724
32476,16882,30606
32545,16849,30452
32665,16860,30344
32780,16765,30265
32748,16805,30197
32661,16788,30204
32496,16866,30062
32412,16863,30109
32416,16921,30103
32460,16967,29845
32534,16890,29801
32608,16863,29740
32672,16843,29758
32720,16846,29703
32720,16754,29447
32676,16808,29473
32580,16815,29465
32551,16877,29228
32496,16935,29306
32476,16978,29156
32428,16909,29102
32437,16844,29031
32568,16815,28988
32656,16844,28903
32656,16762,28845
32604,16831,28778
32524,16825,28821
32496,16919,28796
32472,16903,28707
32464,16934,28701
32544,16924,28452
32612,16847,28535
32696,16820,28507
32780,16797,28397
32848,16751,28397
32840,16792,28287
32776,16876,28269
32672,16873,28004
32501,16931,28116
32416,16984,27860
32400,16909,27924
32532,16848,27732
32656,16820,27788
32668,16768,27629
32608,16778,27632
32548,16806,27663
32492,16822,27623
32528,16884,27638
32528,16952,27528
32480,17009,27463
32512,16910,27415
32616,16852,27398
32748,16819,27181
32768,16822,27319
32808,16758,27216
32800,16796,27098
32660,16830,27065
32503,16897,26908
32288,16938,26893
32324,16986,26808
32472,16902,26813
32600,16870,26709
32728,16893,26712
32756,16781,26599
32737,16795,26660
32593,16789,26511
32504,16840,26573
32452,16942,26397
32446,16926,26551
32584,16959,26465
32748,16902,26369
32840,16888,26247
32828,16805,26247
32764,16799,26276
32732,16821,26212
32700,16801,25986
32588,16857,26082
32488,16959,25900
32388,16919,26020
32364,16937,25976
32416,16967,25762
32464,16855,25792
32624,16830,25665
32732,16775,25756
32708,16776,25685
32624,16856,25628
32542,16846,25484
32484,16927,25572
32352,16924,25390
32328,16965,25476
32440,16906,25292
32640,16876,25400
32816,16882,25380
32881,16774,25311
32897,16782,25309
32804,16857,25108
32628,16839,25197
32424,16901,24974
32392,16966,24980
32404,16933,24862
32504,16917,24968
32613,16885,24852
32776,16877,24906
32886,16776,24843
32892,16799,24686
32788,16860,24653
32649,16850,24573
32580,16918,24632
32528,16991,24593
32562,16935,24487
32676,16933,24528
32868,16925,24453
33052,16912,24364
33072,16783,24340
32936,16796,24269
32776,16822,24357
32698,16916,24300
32644,16896,24120
32613,16945,24212
32548,16976,24109
32609,16915,24152
32720,16886,24108
32868,16916,23919
33000,16786,24024
33021,16791,23973
32860,16818,23788
32672,16898,23908
32566,16989,23876
32558,16933,23689
32636,16960,23706
32733,16980,23588
32816,16875,23669
32844,16842,23590
32848,16851,23575
32932,16776,23507
32940,16826,23424
32876,16911,23436
32714,16903,23348
32592,16963,23370
32556,17007,23262
32621,16928,23285
32768,16927,23233
32878,16824,23337
32924,16804,23156
32934,16776,23271
32828,16828,23214
32776,16849,23168
32696,16904,23007
32676,16965,23108
32732,16944,23064
32720,16940,23048
32728,16932,22995
32804,16823,22984
32916,16804,22800
32976,16872,22792
32988,16832,22775
32888,16920,22826
32741,16916,22692
32704,16958,22711
32676,17008,22586
32737,16917,22634
32832,16882,22585
32960,16888,22485
33061,16810,22516
33106,16817,22390
33068,16906,22540
32948,16866,22534
32820,16946,22335
32764,16940,22425
32700,16957,22434
32700,16975,22308
32760,16941,22345
32864,16915,22270
32932,16795,22110
32956,16799,22276
32932,16831,22166
32812,16873,22179
32604,16941,22056
32456,16996,22145
32512,17009,22084
32660,16926,21928
32840,16899,22078
32969,16844,22014
33049,16844,22013
32984,16788,21818
32880,16836,21964
32784,16895,21950
32690,16985,21741
32552,17026,21885
32524,16951,21817
32648,16934,21641
32824,16954,21794
32968,16830,21767
33036,16815,21753
32972,16845,21688
32848,16818,21529
32736,16925,21625
32687,16918,21637
32672,16983,21518
32644,16956,21526
32657,16956,21437
32752,16975,21538
32880,16836,21444
33020,16836,21297
33038,16789,21436
32964,16833,21250
32868,16924,21404
32704,16920,21380
32588,16985,21365
32608,16954,21353
32709,16954,21243
32840,16925,21221
32980,16839,21114
33020,16860,21167
32985,16793,21058
32884,16855,21169
32740,16865,21021
32644,16935,21125
32600,16948,20952
32640,16967,21024
32722,16997,20967
32816,16902,20996
32908,16931,20923
32985,16819,21020
32972,16796,20989
32924,16834,20949
32912,16865,20907
32832,16938,20742
32784,16975,20872
32828,16972,20729
32924,16993,20825
33016,16887,20772
33068,16847,20753
33132,16804,20800
33177,16814,20647
33196,16828,20699
33114,16930,20669
32996,16939,20721
32944,17020,20613
32928,16969,20664
32912,16985,20640
33004,16886,20624
33077,16864,20604
33076,16801,20564
33012,16863,20556
33032,16848,20505
33029,16872,20484
32976,16958,20321
32972,16948,20466
32964,16986,20357
32942,16930,20415
32948,16922,20348
33064,16841,20408
33172,16831,20380
33164,16800,20284
33108,16846,20308
32964,16877,20336
32864,16962,20316
32865,16960,20294
32921,17016,20298
33024,16946,20260
33175,16884,20173
33288,16879,20164
33280,16806,20072
33184,16870,20168
33044,16848,20128
32852,16889,20187
32728,16984,20156
32688,16956,20164
32672,17001,20129
32772,16934,20067
32952,16911,19937
33088,16935,20072
33100,16828,19912
33048,16877,20074
32904,16846,20046
32870,16929,20050
32804,16922,20044
32704,16973,20026
32648,17044,20024
32716,16965,20005
32816,16969,19905
32912,16852,19985
32920,16856,19932
32916,16803,19924
32864,16852,19933
32800,16948,19889
32704,16941,19920
32684,16990,19815
32660,16980,19860
32788,16960,19814
32900,16956,19882
32992,16844,19794
33084,16828,19861
33100,16884,19805
33088,16859,19876
33072,16931,19769
32996,16939,19796
32801,16993,19727
32592,17031,19768
32484,16945,19682
32540,16950,19825
32676,16849,19798
32797,16858,19649
32932,16813,19748
33088,16866,19609
33160,16932,19758
33376,16938,19668
33684,16994,19743
34109,17061,19591
34520,16965,19714
35000,16903,19610
35660,16902,19681
36264,16825,19678
36656,16857,19738
36780,16854,19631
36696,16927,19685
36464,16951,19613
35996,16998,19708
35552,17042,19699
35036,17052,19556
34570,16929,19664
34017,16892,19589
33148,16921,19697
32384,16850,19644
32120,16921,19695
32113,16921,19556
32160,16996,19685
32224,16989,19647
32320,16994,19695
32420,16988,19688
32580,16994,19620
32677,16875,19642
32648,16880,19532
32592,16833,19680
32484,16875,19538
32328,16905,19653
32204,16972,19631
32144,17038,19668
32116,16988,19568
32168,16969,19696
32224,16973,19667
32308,16868,19704
32416,16858,19564
32388,16895,19718
32321,16860,19685
32197,16928,19745
32132,16997,19729
32124,16990,19752
32172,17026,19663
32204,17020,19717
32292,16917,19749
32392,16875,19653
32448,16868,19813
32440,16831,19696
32344,16863,19843
32205,16921,19876
32144,17026,19787
32172,16987,19876
32212,17009,19744
32292,17042,19916
32332,16937,19832
32326,16921,19962
32352,16836,19996
32320,16848,19909
32268,16892,19975
32196,16975,19895
32120,16964,20059
32116,16997,20032
32184,17020,19934
32168,17015,20119
32176,16919,20096
32277,16873,20020
32424,16857,20187
32500,16877,20175
32500,16952,20196
32448,16914,20295
32360,16977,20225
32344,17059,20377
32404,16996,20363
32468,16974,20286
32596,16946,20492
32680,16897,20562
32704,16896,20504
32696,16839,20569
32616,16876,20553
32440,16942,20694
32348,17028,20606
32296,17002,20786
32372,17015,20700
32501,17026,20932
32692,16925,20948
32797,16927,21034
32813,16852,20958
32800,16861,21126
32724,16937,21068
32631,16927,21232
32588,16986,21192
32524,17071,21311
32528,17016,21296
32639,17011,21435
32796,16989,21373
32900,16877,21465
32890,16861,21519
32839,16908,21641
32784,16876,21681
32780,16947,21737
32740,16989,21651
32644,17037,21741
32648,17004,21755
32660,16981,21839
32724,16946,21842
32832,16902,22028
32924,16874,22095
32916,16871,21964
32852,16890,22182
32740,16975,22236
32648,16979,22296
32570,17032,22356
32549,17036,22348
32636,17076,22340
32766,16952,22416
32852,16886,22588
32829,16874,22629
32821,16914,22700
32792,16885,22749
32736,16948,22756
32676,16999,22792
32624,17071,22775
32560,17012,23017
32640,16990,22999
32756,16944,23063
32932,16902,23118
33084,16894,23268
33072,16956,23370
32976,16910,23429
32751,16969,23407
32612,17049,23482
32608,17012,23476
32608,17029,23680
32622,17049,23671
32604,16941,23871
32700,16900,23993
32768,16897,23880
32796,16926,24129
32716,16889,24241
32560,16963,24174
32440,17052,24350
32400,17013,24359
32464,17031,24472
32509,17045,24497
32576,16940,24621
32608,16902,24641
32644,16890,24912
32580,16857,24949
32510,16935,25085
32376,16941,25166
32308,17004,25279
32260,17052,25262
32301,17079,25445
32353,16988,25572
32508,16959,25668
32580,16942,25645
32576,16860,25860
32576,16880,25855
32476,16975,26000
32425,16945,25999
32360,17019,26217
32397,17089,26202
32448,17025,26424
32474,17028,26563
32496,17014,26560
32544,16892,26625
32520,16881,26764
32480,16930,26839
32432,16902,27041
32381,16984,27211
32332,16990,27356
32281,17040,27421
32268,17061,27495
32352,17053,27484
32564,16936,27636
32708,16910,27676
32752,16903,27862
32716,16869,27986
32584,16903,28184
32489,16980,28260
32352,16989,28236
32304,17040,28462
32384,17073,28705
32500,16988,28549
32668,16952,28864
32788,16941,28985
32800,16862,29093
32776,16867,29089
32638,16919,29245
32504,16991,29431
32360,16991,29608
32301,17029,29463
32364,17055,29673
32460,17052,29921
32530,16941,29888
32652,16895,30145
32720,16879,30236
32712,16887,30261
32632,16933,30492
32556,16946,30650
32512,16996,30734
32492,17031,30880
32525,17058,30744
32556,17050,30975
32624,16941,31193
32696,16909,31344
32812,16909,31507
32868,16948,31479
32808,16919,31596
32696,16986,31709
32556,16993,31812
32532,17050,31860
32540,17025,32076
32572,16997,32347
32628,16993,32431
32692,16891,32613
32704,16901,32669
32744,16869,32790
32748,16911,32689
32677,17007,32865
32616,17010,32993
32524,17087,33231
32464,17027,33414
32484,17007,33287
32616,17001,33569
32724,16894,33700
32784,16877,33849
32832,16868,33998
32744,16919,34076
32588,17039,34287
32501,17009,34053
32413,17079,34272
32412,17028,34453
32484,17019,34653
32636,16946,34860
32740,16893,34813
32812,16885,35028
32856,16909,34988
32804,16979,35269
32724,16946,35077
32564,16999,35485
32428,17047,35698
32436,17113,35719
32536,16999,35882
32737,16995,35794
32792,16894,35998
32828,16891,36213
32848,16921,35992
32830,16898,36311
32768,16970,36551
32720,17038,36372
32696,17119,36713
32672,17031,36941
32684,17025,37014
32740,16943,37220
32764,16897,36999
32802,16905,37341
32852,16864,37201
32868,16934,37613
32824,16958,37698
32728,17035,37931
32669,17113,37868
32660,17040,38045
32676,17051,37828
32705,16950,38282
32824,16968,38407
32936,16880,38573
32980,16869,38631
32852,16901,38841
32660,16969,38881
32480,16998,39088
32444,17046,39116
32592,17093,39279
32748,17015,39327
32840,17009,39469
32908,16900,39518
32868,16900,39628
32816,16868,39653
32744,16924,39791
32608,17013,39974
32556,16997,40273
32568,17028,40206
32532,17059,40249
32609,16993,40100
32705,16953,40748
32836,16980,40735
32936,16883,40896
32990,16937,40897
33032,16919,40912
33036,17012,41158
32904,17004,40839
32724,17070,41551
32616,17028,41533
32733,17011,41728
32884,16947,41389
32880,16917,41780
32837,16903,41945
32879,16871,41988
32872,16930,41756
32840,16953,42433
32724,17022,42423
32608,17084,42657
32580,17031,42679
32672,17004,42756
32776,16999,42878
32964,16893,42936
33080,16901,42969
33128,16869,42836
32968,16909,43237
32812,16978,43120
32672,17078,43409
32556,17049,43559
32580,17093,43629
32553,17010,43543
32660,16995,43845
32804,16921,44077
32932,16941,44156
32996,16887,44327
32980,16972,44408
32900,16957,44524
32798,17022,44591
32765,17089,44702
32764,17037,44692
32858,17057,44775
32977,16956,44901
33028,16956,44884
33056,16885,45105
33036,16911,45017
32992,16916,45399
32936,17025,45508
32876,17028,45318
32816,17096,45684
32824,17030,45474
32888,17023,45821
32917,16940,46055
32964,16921,46041
33056,16872,46176
33080,16896,46340
33096,16918,46244
33096,17024,46508
33044,17021,46576
32868,17087,46468
32704,17031,46781
32801,17028,46900
32928,16946,46900
33024,16919,47011
33064,16870,46951
33052,16895,47159
32936,16975,47204
32824,16966,47374
32784,17029,47314
32776,17121,47538
32808,17037,47552
32788,17046,47712
32756,17044,47856
32796,16911,48010
32884,16891,48068
32996,16956,48172
33037,16921,48262
32968,17003,48344
32816,17004,48356
32664,17055,48463
32640,17092,48580
32744,16999,48741
32868,16984,48813
32908,16903,48877
32912,16884,49006
32900,16901,49070
32852,16916,49159
32852,16988,49141
32780,17085,49233
32648,17041,48998
32676,17073,49526
32748,16997,49541
32921,16976,49559
32994,16900,49671
32960,16887,49381
32904,16948,49908
32869,16934,50029
32856,17028,50125
32832,17009,50204
32858,17047,50276
32892,17103,50349
32900,16999,50447
32900,16986,50527
32976,16902,50487
32968,16945,50655
32976,16892,50742
32916,16954,50855
32836,16965,50928
32792,17018,51014
32700,17060,51079
32748,17079,51065
32876,17087,51116
33064,16954,51207
33188,16921,51071
33160,16967,51389
33026,16895,51079
32916,16972,51645
32836,16969,51664
32748,17030,51732
32684,17072,51782
32740,17089,51964
32828,16996,52024
32852,16966,52111
32845,16949,52164
32905,16881,52191
32933,16930,51837
32852,16911,52327
32728,16964,52440
32604,17032,52572
32632,17053,52627
32684,17086,52588
32724,16993,52735
32828,16951,52839
32968,16921,52972
33052,16953,53048
33000,16877,53156
32960,16930,53181
32864,17012,53141
32836,17008,53330
32776,17052,53389
32638,17092,53449
32596,17014,53540
32722,16994,53720
32848,16893,53572
32900,16896,53806
32804,16928,53401
32693,16917,53999
32588,16988,53633
32556,17052,54079
32604,17032,54077
32672,17071,54341
32804,17007,54357
32952,16946,54436
33104,16930,54481
33136,16875,54532
33076,16900,54556
32924,17007,54791
32784,16976,54877
32704,17070,54887
32676,17059,54916
32796,17097,54982
33156,17008,55207
33645,17005,55260
34184,16902,55351
34592,16933,55431
34852,16904,55476
35048,17005,55559
35428,16984,55381
35996,17108,55725
36465,17066,55815
36832,17140,55815
36888,17038,55847
36828,17071,55925
36576,16930,56109
35952,16919,56120
35296,16902,56236
34684,16964,56348
34060,16988,56311
33168,17090,56461
32016,17055,56407
31548,17068,56578
31708,17073,56596
32044,16977,56792
32352,16984,56820
32536,16905,56966
32580,16964,56942
32472,16954,57105
32397,17047,57125
32388,17025,57240
32340,17079,57208
32285,17036,57405
32269,17030,57476
32308,16958,57476
32400,16928,57536
32481,16885,57584
32560,16903,57780
32578,16975,57840
32484,16978,57777
32344,17061,57928
32204,17045,57991
32172,17071,58100
32277,16999,58096
32384,16985,58313
32488,16997,58276
32488,16895,58452
32517,16943,58452
32516,16937,58590
32416,17036,58692
32392,17022,58709
32349,17062,58740
32376,17066,58841
32496,17092,58903
32536,16968,59052
32640,16968,59132
32672,16896,59223
32640,16939,59303
32552,16928,59341
32404,17017,59428
32389,17020,59517
32360,17061,59596
32408,17033,59532
32408,17004,59623
32488,16978,59655
32584,16977,59847
32676,16879,59911
32700,16901,59996
32628,17015,60039
32484,17010,60151
32304,17031,60135
32232,17069,60282
32228,17036,60304
32392,17020,60384
32620,16949,60414
32781,16946,60508
32816,16884,60591
32760,16900,60612
32641,16991,60768
32536,16975,60762
32492,17057,60904
32525,17044,60870
32608,17040,60973
32672,17064,60935
32688,16965,61149
32752,16903,60845
32840,16901,61156
32860,16937,61191
32844,16923,61276
32820,16992,61230
32688,17084,61392
32588,17040,61452
32548,17075,61517
32588,16999,61121
32756,16973,61748
32864,16904,61787
32917,16891,61796
32852,16889,61847
32740,16931,61908
32680,17020,61999
32592,17020,62000
32560,17062,62079
32582,17089,62157
32612,16994,61703
32776,16965,62129
32908,16965,61959
33000,16879,62296
33044,16916,62205
32960,16927,62328
32852,16993,62301
32812,17020,62456
32860,17047,62465
33044,17070,62583
33284,16996,62644
33412,16968,62133
33376,16943,62601
33249,16878,62706
33120,16911,62782
32992,16972,62796
32908,16970,62620
32804,17061,62909
32704,17042,62843
32661,17052,62972
32648,16999,62608
32768,16955,62944
32860,16944,62700
32988,16877,63071
33052,16911,63092
33040,16981,63156
33032,16997,63199
33044,17088,63221
33038,17052,63261
33001,17073,63300
32933,16996,63320
33012,16985,63367
33105,16902,63420
33184,16892,62868
33148,16889,63396
32996,16945,63380
32808,17039,63508
32728,17049,63460
32613,17093,63508
32604,17105,63620
32624,16997,63236
32678,16980,63573
32736,16901,63612
32772,16900,63711
32808,16958,63733
32756,16942,63749
32610,16998,63788
32516,17076,63751
32556,17045,63815
32636,17052,63861
32764,17064,63853
32812,16945,63908
32840,16933,63312
32861,16959,63868
32780,16890,63892
32752,16947,63960
32768,17055,63952
32772,17021,64007
32725,17057,64052
32708,17087,64020
32729,16992,64108
32704,16966,64080
32652,16971,64116
32620,16878,64135
32605,16924,64101
32577,16928,64172
32516,17006,64176
32496,17021,64223
32545,17052,64213
32700,17095,64188
32829,16992,64220
32833,16965,64100
32800,16991,64304
32868,16901,64306
32924,16939,64304
32816,16928,64328
32628,16999,64263
32456,17018,64316
32340,17060,64262
32304,17087,64345
32392,16993,64391
32560,16964,64424
32696,16945,64464
32848,16869,64284
32861,16903,64428
32833,16948,64428
32780,17028,64516
32712,17022,64519
32620,17058,64518
32500,17031,64512
32484,17008,64540
32544,16982,64516
32644,16898,64561
32748,16927,64516
32813,16881,64584
32788,16952,64502
32696,16976,64600
32592,17031,64412
32508,17039,64663
32509,17054,64647
32564,16993,64576
32668,16964,64647
32860,16897,64600
32918,16943,64671
32896,16907,64708
32736,17009,64704
32600,16996,64735
32520,17082,64183
32604,17052,64768
32668,17023,64759
32697,17020,64634
32804,17040,64765
32924,16907,64519
32993,16934,64772
33016,16887,64813
32956,16949,64829
32861,16972,64833
32748,17034,64804
32741,17033,64832
32780,17039,64775
32848,17028,64860
32884,16934,64748
32872,16917,64860
32900,16869,64544
32916,16896,64901
32820,16997,64900
32624,16996,64925
32588,17060,64903
32476,17039,64940
32400,17047,64940
32437,16985,64892
32544,16967,64911
32588,16981,64887
32596,16885,64937
32588,16939,64975
32553,16925,64975
32564,17028,64980
32592,17020,64932
32596,17067,64992
32684,17023,64956
32836,17007,64996
32902,16998,64989
32940,16898,65024
32993,16921,64976
32956,16884,65031
32958,16937,64991
32869,17060,65049
32784,17008,65031
32748,17051,65066
32800,17053,65031
32828,17057,65031
32848,16933,65072
32972,16917,65060
33016,16941,65082
32984,16895,65068
32917,16975,65100
32804,16972,65044
32792,17029,65135
32836,17114,65119
32984,17025,65120
33176,17012,65125
33304,16930,65084
33376,16898,65126
33332,16938,65064
33286,16881,65144
33106,16936,65116
32912,17043,65159
32804,17020,65110
32852,17078,65156
32968,17025,65159
33052,17048,65156
33076,16946,65070
33108,16950,65156
33136,16876,65052
33196,16920,65191
33149,16917,65156
32968,16989,65199
32816,17060,65220
32788,17026,65196
32804,17026,65196
32872,17026,65143
32904,16929,65213
32894,16903,65159
32921,16961,65228
33073,16888,65181
33080,16975,65241
32980,16968,65192
32860,17060,65237
32756,17029,65188
32772,17030,65255
32780,17034,65260
32877,16926,65205
33050,16908,65236
33129,16864,65215
33128,16900,65221
33072,17015,65244
32972,16991,65276
32800,17055,65256
32634,17027,65287
32646,17033,65285
32833,17053,65287
32968,16944,65287
33020,16881,65318
33056,16902,65287
33012,16876,65252
32816,16974,65317
32790,16980,65319
32797,17073,65325
32797,17038,65340
32816,17055,65287
32940,16970,65332
33112,16951,65308
33272,16879,65380
33280,16882,65365
33188,16919,65535
33060,16912,65364
32888,16996,65356
32780,17009,65373
32724,17062,65375
32732,17009,65396
32782,17005,65372
32913,16920,65391
32972,16892,65372
32900,16913,65397
32856,16895,65348
32872,17001,65383
32896,16990,65414
32952,17064,65396
32884,17043,65404
32916,17094,65375
32988,16981,65415
33082,16944,65412
33120,16879,65436
33100,16897,65405
33004,16872,65413
32877,16974,65396
32805,16973,65412
32712,17089,65412
32720,17045,65437
32840,17009,65389
32968,16984,65436
32972,16919,65388
32916,16903,65456
32864,16863,65452
32868,16914,65412
32848,16916,65436
32684,17012,65440
32596,17000,65463
32620,17036,65447
32772,17009,65473
32920,16985,65452
33028,16960,65480
33136,16872,65444
33252,16896,65476
33376,16868,65436
33396,16958,65481
33304,16962,65384
33056,17057,65452
32957,17037,65484
33080,17065,65452
33286,16961,65484
33340,16950,65468
33292,16877,65493
33272,16881,65485
33360,16935,65493
33352,16922,65480
33332,16993,65415
33308,17000,65508
33276,17032,65468
33168,17004,65523
33156,16983,65495
33200,16951,65512
33168,16873,65506
33008,16870,65463
32892,16864,65535
32900,16930,65455
32940,16965,65492
32904,17063,65521
32887,17028,65505
32932,16998,65519
33023,16980,65501
33088,16922,65503
33156,16942,65532
33244,16857,65508
33223,16916,65516
33049,16910,65484
32832,16977,65532
32792,17037,65513
32916,17017,65532
33088,17007,65502
33342,17008,65516
33504,16911,65500
33564,16906,65535
33473,16921,65504
33468,16865,65508
33448,16925,65484
33352,16965,65510
33164,17020,65525
32996,17037,65481
32940,17061,65485
32896,16959,65511
32912,16928,65445
33008,16867,65488
33132,16864,65472
33244,16869,65486
33440,16940,65468
33612,16960,65484
33920,17023,65464
34178,17016,65468
34376,17034,65460
34736,16971,65468
35312,16932,65452
36020,16873,65476
36408,16910,65457
36396,16891,65500
36076,16964,65464
35560,16984,65501
35048,17049,65456
34728,17115,65464
34610,17038,65468
34332,16980,65476
33724,16943,65453
32592,16930,65447
31748,16945,65452
31552,16888,65415
31656,16940,65428
31964,17012,65413
32220,17007,65399
32440,17031,65369
32648,17021,65287
32844,16961,65317
32916,16929,65303
32812,16915,65287
32556,16855,65276
32373,16890,65260
32296,16914,65228
32284,16984,65234
32308,17061,65031
32332,17022,65159
32408,17022,65116
32486,17019,65141
32512,16916,65084
32501,16933,65081
32476,16870,65015
32401,16958,64993
32390,16933,64980
32420,16964,64928
32421,17026,64916
32392,17013,64868
32424,17022,64813
32504,17029,64743
32554,16912,64677
32600,16923,64671
32596,16852,64608
32518,16878,64540
32480,17003,64480
32568,16973,64377
32728,16996,64258
32868,17031,64208
32864,17045,64044
32672,16952,64133
32520,16922,63913
32636,16862,63948
32776,16893,63800
32832,16866,63607
32828,16963,63598
32752,16959,63495
32670,17044,63382
32632,17021,63205
32660,17046,63052
32640,16955,62949
32668,16960,62468
32764,16878,62789
32726,16851,62600
32592,16860,62324
32412,16940,62340
32276,16959,62156
32260,17045,61917
32292,17007,61749
32388,17006,61580
32480,16953,61414
32614,16911,61220
32724,16898,61096
32804,16844,60901
32840,16925,60728
32817,16929,60352
32768,16955,60344
32732,17013,60118
32616,17006,59937
32656,17004,59584
32796,16951,59503
32860,16910,58841
32924,16932,59057
32884,16868,58807
32824,16865,58503
32689,16940,58311
32596,16955,58031
32520,17060,57772
32544,17029,57196
32608,16994,57396
32780,16992,57095
33016,16897,56900
33197,16871,56540
33212,16908,56280
33056,16862,56052
32948,16937,55764
32917,17022,55556
32876,17002,55359
32796,17062,55073
32698,17000,54846
32718,17015,54472
32792,16912,54279
32864,16855,54080
32936,16873,53840
32944,16878,53533
32944,16885,53281
32892,16982,53124
32876,16997,52791
32772,17022,52644
32685,17056,52348
32788,16951,52144
32916,16950,51889
32933,16871,51670
32800,16909,51364
32716,16873,51172
32652,16938,50737
32568,17053,50704
32532,17013,50399
32528,17015,50116
32520,17049,49636
32604,16964,49724
32776,16958,49332
32881,16866,49212
32956,16890,48940
32836,16873,48767
32714,16948,48528
32668,16963,48263
32660,17018,47992
32672,17009,47792
32729,17005,47518
32756,16946,47293
32740,16917,46997
32760,16902,46892
32768,16845,46580
32737,16913,46343
32608,16916,46172
32488,16956,45936
32416,17012,45732
32392,17009,45216
32457,17079,45311
32489,16979,44967
32504,16904,44901
32544,16852,44589
32556,16895,44404
32504,16868,44261
32429,16963,44064
32352,16967,43872
32284,17052,43631
32257,17013,43412
32328,17043,43052
32484,16945,42848
32561,16911,42584
32540,16864,42708
32308,16843,42404
32217,16916,41759
32148,16915,42058
32060,16957,41844
31960,17039,41607
31908,17004,41360
31941,17020,41233
32092,16948,41052
32260,16953,40839
32404,16852,40620
32466,16879,40440
32452,16869,40253
32348,16990,40137
32368,17009,39884
32324,17020,39896
32320,17001,39566
32312,17031,39214
32316,16950,39260
32372,16892,39064
32500,16849,38817
32568,16862,38732
32536,16956,38644
32468,16921,38372
32464,17009,38127
32476,17004,38148
32500,17002,37804
32384,17040,37413
32360,16946,37637
32428,16959,37344
32440,16869,37265
32404,16833,36999
32396,16869,36806
32380,16903,36701
32424,17012,36536
32465,17005,36277
32384,16996,36195
32324,17020,36057
32360,16943,35812
32512,16884,35732
32608,16872,35591
32560,16849,35437
32528,16866,35244
32436,16902,35108
32368,17012,35005
32376,17004,34892
32476,17003,34661
32520,17044,34364
32536,16945,34530
32464,16883,34262
32432,16889,34055
32460,16834,33889
32412,16879,33668
32250,16900,33804
32068,16999,33616
31916,16993,33532
31952,17028,33326
32152,16977,33132
32236,16954,33036
32261,16967,32959
32272,16861,32847
32308,16892,32708
32364,16862,32580
32352,16932,32468
32240,17015,32340
32172,17008,32154
32128,17071,32063
32201,16992,31982
32300,17002,31812
32404,16898,31605
32501,16848,31573
32492,16895,31460
32416,16867,31433
32348,16934,31231
32288,16951,31175
32220,17029,30969
32184,17009,30735
32216,17033,30607
32284,16935,30497
32468,16939,30408
32645,16855,30292
32628,16831,30134
32540,16916,30121
32368,16917,30005
32255,16950,29864
32176,17026,29653
32153,16996,29530
32196,16989,29329
32308,16929,29496
32417,16933,29318
32536,16868,29111
32578,16911,29080
32592,16868,28983
32480,16949,28881
32388,16947,28788
32345,17011,28664
32320,16997,28612
32372,16980,28311
32404,16981,28228
32460,16899,28106
32504,16839,28133
32468,16879,28040
32368,16855,28023
32124,16938,27864
31896,16951,27824
31836,17012,27511
31804,16996,27618
31884,16997,27509
31984,16924,27295
32144,16935,27250
32285,16859,27253
32332,16888,27073
32236,16864,27020
32116,16959,27015
32032,16966,26784
31944,17055,26746
31944,17009,26620
32032,16966,26766
32124,16985,26652
32210,16893,26414
32128,16835,26452
32148,16851,26332
32100,16908,26434
32000,16905,26321
31944,16995,26192
31980,16989,26089
31956,17023,25970
31972,16970,25980
32068,16929,25927
32148,16876,25948
32278,16869,25823
32412,16849,25740
32444,16854,25808
32324,16917,25589
32132,16953,25694
31950,17012,25652
31904,16998,25418
31956,16997,25500
32058,16991,25321
32204,16874,25368
32288,16859,25237
32268,16829,25299
32176,16884,25310
32076,16899,25258
31968,16965,25217
31916,17072,25193
31960,17014,25087
32112,16968,24932
32268,16937,25034
32340,16948,25009
32216,16850,24974
32032,16882,24914
31918,16856,24700
31849,16929,24732
31816,16954,24645
31892,17007,24784
31968,16994,24716
32066,16969,24645
32092,16935,24469
32096,16921,24514
32148,16837,24418
32204,16855,24410
32193,16859,24393
32152,16940,24415
32088,16952,24408
32048,17032,24194
31982,16993,24279
32012,17017,24134
32060,16919,24255
32176,16909,24212
32326,16836,24139
32356,16863,24138
32288,16845,23944
32196,16933,23945
32094,16946,23874
32097,17018,23893
32188,17001,23828
32300,17029,23812
32340,16943,23876
32348,16929,23826
32381,16853,23808
32442,16873,23786
32408,16851,23717
32328,16932,23551
32242,16955,23569
32196,17044,23473
32248,17015,23568
32382,16957,23524
32568,16959,23364
32720,16868,23428
32696,16897,23200
32604,16836,23349
32472,16908,23164
32340,16913,23239
32268,17009,23026
32236,16998,23077
32284,16985,23050
32352,16988,23049
32408,16911,22887
32404,16894,22874
32416,16828,22792
32428,16849,22781
32420,16842,22651
32436,16911,22738
32436,17036,22560
32468,16997,22670
32492,17065,22642
32464,16977,22484
32472,16911,22504
32576,16902,22453
32660,16835,22318
32636,16877,22339
32544,16862,22156
32448,16897,22119
32356,16971,22044
32340,16981,22052
32352,17049,22038
32416,16975,21881
32548,16916,21839
32668,16940,21757
32721,16871,21762
32760,16825,21733
32668,16893,21482
32568,16903,21617
32396,17007,21545
32336,16996,21369
32504,16989,21344
32909,16997,21372
33384,16922,21200
33889,16929,21239
34284,16838,21021
34416,16829,21061
34416,16924,21089
34688,16929,20902
35156,16954,20912
35488,17019,20840
35668,16997,20824
35792,16997,20807
35808,16933,20593
35560,16900,20660
35168,16848,20586
34696,16885,20641
34144,16877,20571
33364,16984,20357
32192,16982,20413
31380,16996,20375
31300,17057,20232
31632,16990,20306
32052,16924,20199
32340,16903,20288
32584,16838,20233
32714,16892,20063
32733,16872,20126
32660,16908,20085
32552,16988,20118
32444,16990,20071
32492,17053,19876
32544,16978,19949
32668,16913,19826
32756,16903,19952
32773,16842,19800
32714,16896,19892
32652,16865,19733
32524,16938,19880
32476,16948,19840
32452,17015,19844
32486,17001,19702
32612,17020,19820
32684,16925,19764
32844,16910,19754
32868,16837,19732
32896,16867,19755
32832,16859,19686
32712,16916,19758
32668,16946,19804
32669,17001,19812
32700,16983,19688
32764,16973,19775
32866,16961,19661
32908,16862,19816
32916,16858,19713
32916,16824,19793
32940,16907,19732
32872,16903,19862
32792,17012,19859
32712,16997,19722
32648,16983,19812
32668,17003,19827
32728,16916,19794
32862,16945,19884
32980,16855,19728
33056,16825,19877
33032,16916,19819
32884,16914,19908
32776,16944,19874
32730,17052,19960
32694,17024,19937
32716,16967,19802
32864,16904,19913
33036,16883,19916
33082,16830,19913
32996,16868,19972
32816,16873,19814
32680,16975,19958
32720,16965,19831
32825,16981,19949
32948,16997,19911
32972,16952,20015
33056,16968,19996
33109,16874,19836
33156,16912,19964
33220,16837,19957
33204,16850,19934
33180,16954,19946
33060,16969,19937
33040,16978,19909
33076,17036,19953
33135,16972,19854
33252,16965,19916
33400,16891,19959
33548,16831,19781
33532,16868,19884
33381,16861,19868
33204,16903,19890
33086,16969,19879
33084,16978,19736
33216,16997,19844
33304,17026,19703
33420,16930,19773
33428,16858,19804
33496,16857,19684
33532,16827,19735
33456,16883,19566
33348,16905,19705
33249,17025,19673
33252,17015,19579
33252,16988,19525
33311,17017,19551
33388,16922,19492
33504,16919,19517
33608,16837,19512
33564,16887,19309
33465,16872,19401
33344,16956,19318
33217,16954,19375
33196,17028,19308
33286,16992,19322
33412,16985,19284
33548,16903,19157
33662,16870,19175
33652,16890,19045
33652,16835,19150
33536,16929,19076
33440,16919,19066
33352,17018,18949
33274,16998,18970
33281,17061,18853
33400,16964,18918
33496,16944,18869
33561,16870,18681
33600,16833,18741
33524,16841,18673
33392,16856,18660
33204,16925,18631
33132,16951,18471
33029,16996,18514
32968,16978,18405
32980,16979,18455
33072,16976,18383
33217,16856,18325
33344,16873,18267
33372,16826,18104
33269,16907,18132
33072,16909,18049
32908,16997,18045
32792,17007,17963
32808,17053,17830
32920,16955,17839
33036,16981,17669
33136,16871,17674
33221,16894,17562
33240,16839,17587
33212,16921,17432
33088,16922,17414
32985,17027,17342
32990,16996,17220
32949,17050,17221
32985,16956,17107
33028,16942,17078
33092,16856,16994
33184,16847,16852
33232,16830,16833
33246,16905,16761
33132,16917,16620
33004,16956,16612
32944,17015,16519
32924,16976,16439
32944,16990,16369
33028,16905,16292
33176,16918,16221
33308,16848,16101
33340,16828,16095
33313,16877,15996
33192,16906,15891
33080,16979,15840
32949,16987,15740
32917,17017,15704
32980,16952,15610
33028,16965,15526
33076,16858,15460
33104,16864,15381
33044,16826,15312
32948,16927,15215
32856,16920,15156
32768,17011,15069
32736,17007,15004
32752,17055,14920
32856,16978,14844
33012,16911,14775
33156,16942,14699
33300,16878,14629
33260,16847,14553
33156,16860,14496
33032,16967,14409
32972,16969,14336
32944,16980,14280
32960,17047,14214
32952,16972,14119
33044,16905,14085
33176,16903,13992
33300,16839,13934
33368,16826,13857
33316,16863,13800
33160,16949,13713
33008,16958,13649
32924,16997,13605
32980,16982,13508
33041,17028,13450
33104,16930,13371
33172,16857,13344
33149,16893,13247
33056,16845,13189
32976,16864,13109
32933,16930,13085
32888,16958,13002
32848,17034,12917
32812,17007,12842
32848,17024,12830
32884,16927,12726
32988,16936,12692
33060,16847,12589
33068,16925,12559
33044,16886,12476
32976,17008,12433
32832,16993,12292
32700,16983,12265
32616,17007,12161
32716,16952,12132
32797,16917,12038
32884,16954,12013
32996,16860,11926
33052,16836,11877
33004,16932,11831
32908,16925,11769
32805,16963,11730
32710,16996,11590
32712,16984,11570
32792,16988,11511
32868,16920,11509
32948,16856,11342
32940,16910,11333
32904,16871,11253
32868,16879,11265
32829,16911,11106
32800,17001,11082
32780,17007,11024
32760,16981,10957
32748,17001,10917
32816,16919,10884
32896,16919,10771
32992,16845,10740
33000,16831,10639
32741,16908,10582
32560,16917,10625
32384,17024,10510
32334,17001,10488
32364,16985,10346
32477,16972,10392
32564,16965,10286
32648,16865,10294
32756,16885,10188
32750,16833,10187
32644,16914,10044
32534,16936,10074
32508,16975,9886
32632,17053,9915
32753,17008,9801
32744,16962,9779
32736,16987,9801
32800,16873,9609
32772,16828,9629
32654,16838,9516
32616,16920,9521
32588,16925,9429
32544,17027,9404
32500,17008,9449
32448,17041,9331
32500,16965,9359
32608,16956,9238
32784,16852,9263
32824,16876,9125
32832,16837,9088
32782,16937,9081
32664,16933,8999
32516,16965,8945
32464,17020,8875
32548,16988,8807
32713,16965,8876
32900,16998,8747
33016,16874,8782
33028,16876,8668
32924,16839,8625
32808,16866,8658
32752,16941,8447
32644,16978,8446
32572,16994,8496
32540,17031,8384
32516,16950,8358
32592,16956,8343
32716,16869,8353
32824,16829,8187
32836,16916,8184
32724,16911,8171
32640,16931,8164
32608,16970,8068
32652,17073,8003
32760,17025,8089
32840,16964,7915
32884,16903,7895
32860,16859,7857
32793,16875,7932
32744,16836,7788
32652,16964,7819
32518,16981,7706
32408,16988,7813
32350,16993,7613
32384,17033,7650
32551,16973,7689
32708,16909,7555
32823,16956,7495
32816,16849,7623
32740,16844,7417
32664,16945,7405
32576,16945,7495
32548,16974,7441
32588,17087,7448
32716,17007,7287
32864,16954,7314
32900,16935,7316
32864,16869,7295
32773,16924,7231
32753,16852,7172
32772,16871,7127
32732,16989,7233
32704,16991,7117
32644,17007,7154
32596,16996,7030
32624,16961,7140
32681,16926,7081
32752,16866,7055
32828,16927,7080
32852,16861,7001
32836,16876,6973
32712,16960,6883
32580,16974,6870
32536,17057,7024
32577,16996,6883
32653,16988,6976
32760,16901,6811
32856,16885,6953
32870,16835,6785
32870,16890,6827
32810,16885,6759
32720,16935,6764
32648,17028,6900
32648,17005,6739
32700,16989,6743
32848,17009,6856
33036,16914,6687
33160,16856,6689
33064,16868,6820
32852,16847,6693
32680,16876,6641
32580,16965,6791
32512,16972,6724
32512,17038,6676
32556,16992,6599
32660,16996,6586
32740,16925,6739
32853,16857,6559
33036,16848,6643
33037,16844,6558
32864,16920,6536
32596,16930,6574
32457,17016,6573
32448,16995,6653
32492,17006,6550
32580,16952,6645
32696,16931,6564
32830,16866,6550
32980,16835,6558
33016,16877,6545
32948,16891,6526
32705,16929,6561
32432,17036,6451
32320,17023,6462
32316,16992,6505
32456,16980,6500
32596,16910,6464
32744,16896,6372
33020,16840,6373
33396,16907,6535
33772,16895,6440
34064,16928,6475
34256,17023,6429
34488,17004,6341
34876,17051,6485
35404,16973,6360
36016,16980,6426
36428,16893,6309
36556,16850,6295
36468,16877,6318
36152,16898,6281
35584,16978,6267
35085,17058,6360
34512,17038,6324
33912,17012,6264
33118,16999,6355
32140,16924,6232
31772,16935,6377
31832,16869,6268
32068,16858,6355
32248,16955,6258
32350,16961,6193
32424,17047,6246
32400,17021,6188
32352,17065,6184
32368,16960,6312
32428,16935,6216
32438,16868,6309
32380,16869,6233
32297,16940,6257
32236,16920,6198
32192,16946,6229
32226,17045,6250
32332,17012,6189
32384,17018,6229
32303,16958,6113
32264,16948,6190
32320,16876,6162
32372,16843,6236
32400,16867,6167
32392,16886,6227
32264,16964,6150
32152,16989,6175
32116,17047,6081
32196,17013,6116
32268,17048,6036
32384,16924,6136
32460,16864,6118
32476,16868,6154
32456,16848,6100
32385,16949,6146
32280,16964,6060
32236,17070,6144
32372,17016,6077
32534,16992,6106
32616,16995,5962
32492,16916,5949
32476,16909,6071
32468,16845,5943
32440,16870,5972
32388,16890,5927
32288,16969,5932
32224,16986,5881
32236,17026,5894
32300,17031,5927
32328,16959,5853
32420,16929,5926
32516,16938,5892
32552,16846,5967
32560,16906,5878
32556,16892,5849
32493,16974,5808
32420,16987,5832
32400,17026,5789
32450,17062,5819
32548,16983,5770
32668,16964,5892
32798,16860,5797
32868,16863,5908
32836,16906,5735
32732,16890,5748
32580,16959,5893
32526,16985,5720
32520,17028,5765
32576,17063,5713
32648,16962,5848
32748,16961,5730
32769,16887,5796
32790,16913,5672
32724,16867,5683
32621,16922,5635
32556,17028,5770
32458,16991,5719
32488,17040,5764
32624,16997,5597
32772,16977,5737
32860,16908,5643
32896,16872,5692
32896,16903,5618
32800,16857,5662
32645,16910,5531
32544,16948,5485
32457,17005,5544
32420,17073,5461
32380,17000,5478
32504,16999,5442
32704,16925,5585
32852,16932,5541
32872,16852,5574
32858,16919,5434
32774,16919,5431
32636,16994,5527
32552,16990,5428
32456,17025,5557
32434,17065,5494
32516,16964,5554
32572,16953,5383
32552,16868,5414
32604,16869,5468
32677,16897,5550
32684,16983,5397
32655,16964,5510
32544,17049,5409
32456,17014,5490
32317,17005,5482
32360,16981,5424
32448,16969,5565
32532,16876,5454
32565,16900,5505
32496,16857,5462
32408,16916,5543
32328,17029,5507
32268,16997,5628
32288,17059,5558
32304,16997,5693
32312,16989,5555
32365,16980,5613
32436,16871,5639
32468,16861,5645
32456,16921,5812
32440,16902,5769
32396,16972,5849
32316,17055,5717
32200,17012,5782
32144,17035,5764
32169,16964,5869
32225,16934,5813
32288,16869,5878
32296,16874,5902
32284,16864,6055
32260,16931,5924
32220,16953,5943
32168,17016,6028
32156,17073,6044
32152,17002,6131
32188,16977,6101
32252,16950,6235
32325,16868,6140
32376,16865,6304
32328,16861,6164
32260,16928,6345
32144,16954,6316
32052,17017,6296
32002,17016,6304
32050,17025,6293
32200,16963,6353
32356,16932,6399
32480,16940,6396
32504,16861,6414
32440,16864,6595
32428,16915,6519
32288,17013,6598
32212,16997,6511
32192,17034,6554
32164,17069,6691
32164,16976,6599
32248,16905,6638
32348,16894,6666
32428,16897,6705
32424,16860,6704
32340,16929,6728
32240,16961,6903
32188,17061,6881
32178,17017,6962
32260,17052,6905
32396,16962,7017
32567,16927,6968
32624,16933,7038
32620,16855,6939
32628,16882,6945
32668,16942,7139
32668,17021,7007
32556,17017,7077
32408,17069,7057
32372,17010,7156
32421,16984,7101
32484,16965,7214
32576,16873,7301
32620,16881,7209
32584,16870,7328
32508,16924,7221
32380,17021,7249
32304,17015,7294
32294,17046,7329
32332,17005,7449
32420,16982,7321
32548,16915,7480
32649,16939,7439
32716,16864,7514
32696,16902,7395
32576,16915,7479
32509,16997,7398
32420,17003,7564
32408,17068,7420
32476,17007,7560
32492,17007,7441
32492,16916,7544
32495,16903,7508
32480,16852,7535
32447,16897,7490
32388,16966,7570
32304,16968,7494
32245,17046,7557
32304,17024,7507
32396,17031,7619
32436,17053,7522
32532,16927,7569
32612,16960,7536
32710,16870,7559
32748,16869,7694
32632,16927,7628
32524,16965,7728
32448,17023,7665
32432,17027,7727
32482,17017,7598
32544,16999,7633
32676,16921,7623
32816,16893,7655
32816,16942,7637
32789,16882,7754
32680,16982,7723
32565,16977,7808
32544,17036,7752
32548,17024,7789
32618,17022,7678
32768,17019,7775
32900,16920,7727
32976,16916,7865
32950,16859,7819
32852,16887,7853
32756,16979,7752
32636,16968,7786
32548,17022,7784
32472,17093,7765
32440,17021,7843
32544,17031,7801
32644,16930,7840
32879,16935,7887
33125,16856,7869
33188,16886,7852
33044,16985,7957
32656,16972,7884
32436,17050,7932
32396,17022,8033
32462,17022,8010
32524,16968,7989
32628,16934,8013
32696,16870,8051
32668,16881,8112
32616,16878,8020
32541,16941,8092
32408,17036,8165
32376,17031,8157
32372,17029,8212
32480,17029,8084
32656,17025,8212
32884,16919,8130
33012,16895,8237
32952,16913,8185
32828,16890,8225
32661,16983,8324
32596,16987,8292
32549,17014,8422
32509,17045,8368
32568,17013,8407
32640,17020,8337
32744,16918,8444
32852,16892,8487
32906,16916,8509
32864,16876,8474
32824,16943,8562
32768,17041,8523
32704,17013,8615
32644,17049,8581
32720,17072,8612
32784,16974,8653
32844,16952,8663
32856,16881,8772
32921,16884,8692
32916,16908,8897
32868,17007,8865
32796,16977,8937
32716,17037,8869
32696,17031,8914
32708,17031,8929
32732,16988,8985
32820,17001,9111
32924,16885,9109
32978,16878,9178
32932,16882,9145
32829,16940,9265
32652,17037,9206
32612,17020,9269
32580,17047,9228
32644,17075,9393
32764,16966,9356
32848,16939,9465
32890,16948,9431
32860,16877,9462
32780,16967,9537
32668,16945,9502
32540,17069,9590
32464,17026,9564
32472,17120,9653
32508,17022,9667
32588,17032,9669
32688,16919,9701
32784,16903,9800
32856,16862,9777
32896,16901,9861
32892,16994,9834
32796,16977,9831
32676,17026,10005
32608,17044,9955
32804,17012,10066
33012,16994,10059
33088,16996,10086
33028,16887,10048
32985,16921,10096
32924,16886,10237
32804,16946,10190
32692,17040,10284
32608,17020,10276
32598,17051,10362
32662,17081,10328
32716,16983,10414
32840,16959,10367
32872,16969,10452
32880,16875,10412
32876,16898,10459
32876,16964,10485
32832,17053,10494
32768,17025,10612
32730,17054,10584
32777,17065,10672
32860,16969,10628
32919,16931,10599
32948,16909,10751
32989,16928,10686
32960,16885,10687
32804,16938,10838
32702,17000,10765
32612,17033,10790
32606,17068,10911
32660,17102,10850
32864,16989,10925
33056,16982,10913
33148,16900,11021
33133,16927,10988
33036,16895,11023
32936,17001,11016
32840,16999,11074
32709,17088,11136
32684,17034,11139
32780,17039,11205
32909,17033,11182
32980,16928,11260
32992,16936,11237
32940,16868,11307
32776,16936,11236
32664,16932,11350
32584,16998,11297
32496,17020,11350
32544,17044,11339
32640,17082,11378
32772,16980,11440
32824,16938,11432
32828,16963,11504
32808,16885,11484
32724,16935,11516
32686,16935,11528
32644,17004,11564
32620,17021,11600
32709,17061,11618
32768,17020,11660
32776,16991,11653
32844,16973,11726
32912,16887,11720
32928,16935,11728
32928,16893,11724
32912,16961,11749
32836,16983,11839
32738,17046,11812
32680,17100,11877
32680,17018,11847
32732,17002,11906
32698,16961,11855
32712,16890,11934
32764,16892,11893
32825,16890,11972
32956,16952,11932
33160,17043,11964
33498,17037,11951
33892,17079,11964
34308,17017,11979
34596,16996,12002
34830,16925,12002
35220,16917,12081
35824,16975,12054
36388,16904,12100
36620,17004,12028
36588,17004,12077
36296,17093,12095
35852,17052,12088
35432,17063,12131
34968,17078,12123
34488,16956,12164
33856,16951,12150
32852,16892,12204
32024,16937,12173
31736,16956,12238
31796,17066,12205
31960,17059,12258
32113,17053,12211
32269,17047,12233
32448,17035,12226
32528,16934,12319
32556,16911,12287
32496,16940,12343
32360,16916,12322
32240,16972,12348
32216,17069,12321
32152,17049,12374
32088,17055,12370
32100,17049,12416
32224,16982,12389
32352,16950,12423
32420,16959,12415
32384,16879,12467
32344,16932,12448
32308,16948,12492
32276,17012,12465
32196,17036,12512
32224,17061,12484
32324,17103,12532
32412,17007,12526
32509,17005,12534
32548,16910,12530
32592,16941,12574
32588,16910,12554
32536,16978,12614
32400,16998,12561
32228,17084,12594
32212,17048,12657
32329,17045,12637
32492,17047,12669
32640,16943,12652
32712,16929,12657
32748,16887,12727
32716,16926,12705
32612,16999,12745
32552,17003,12733
32416,17097,12775
32337,17052,12758
32374,17081,12801
32464,16983,12756
32576,16963,12792
32606,16896,12782
32640,16908,12831
32600,16970,12806
32641,16953,12878
32600,17016,12854
32569,17099,12895
32544,17055,12876
32472,17072,12941
32464,16980,12922
32616,16973,12976
32735,16903,12964
32800,16919,12996
32804,16903,12982
32744,16964,13043
32608,17003,13033
32476,17065,13076
32492,17055,13034
32576,17066,13072
32664,16986,13071
32776,16962,13110
32888,16901,13152
32945,16903,13146
32884,16912,13145
32884,17007,13197
32884,17012,13157
32776,17141,13180
32692,17080,13233
32688,17045,13193
32816,17082,13217
32872,16960,13265
32848,16961,13244
32848,16885,13277
32896,16945,13262
33033,16958,13292
33072,17036,13271
33012,17045,13295
32936,17077,13278
32868,17076,13292
32848,16996,13273
32932,16978,13303
32992,16911,13298
33000,16891,13293
32968,16940,13284
32880,16955,13294
32784,17032,13319
32744,17044,13306
32756,17082,13339
32836,17045,13316
32960,17053,13324
33108,16960,13307
33180,16903,13338
33148,16924,13371
32980,16916,13341
32892,16984,13367
32852,17076,13363
32796,17055,13391
32760,17105,13373
32788,17034,13395
32852,17007,13401
32976,16940,13428
33037,16932,13406
33028,16896,13440
32992,16940,13422
32912,16965,13446
32856,17063,13415
32800,17050,13435
32810,17109,13439
32904,17044,13456
32974,16991,13452
32992,16966,13456
32936,17000,13455
32816,16907,13498
32764,16991,13480
32716,16995,13458
32584,17077,13459
32504,17065,13472
32432,17061,13496
32525,17070,13477
32708,16991,13479
32864,16965,13510
32928,16903,13510
32872,16943,13504
32764,16937,13480
32672,16965,13494
32548,17085,13528
32448,17074,13486
32405,17060,13501
32396,17064,13515
32452,16989,13501
32517,16996,13536
32568,16929,13524
32576,16897,13520
32570,16987,13538
32460,16991,13532
32336,17017,13513
32320,17116,13549
32324,17085,13507
32440,17039,13522
32576,17027,13552
32800,16956,13548
32804,16969,13559
32708,16898,13548
32592,16939,13568
32472,16972,13543
32376,17042,13553
32356,17058,13584
32384,17129,13549
32476,17061,13559
32573,16992,13594
32684,16984,13569
32681,16911,13588
32644,16936,13618
32608,16933,13613
32550,17028,13628
32516,17042,13620
32492,17055,13636
32500,17080,13669
32532,17127,13655
32612,17013,13684
32721,16947,13686
32780,16918,13709
32776,16969,13685
32749,16940,13709
32625,17038,13744
32576,17045,13749
32512,17054,13771
32473,17124,13797
32532,17051,13782
32660,16996,13808
32830,16967,13821
32952,16974,13847
32974,16919,13890
32916,16926,13880
32780,17020,13909
32648,17037,13943
32556,17135,13937
32536,17084,13964
32593,17047,13985
32640,17014,14001
32712,16942,14048
32698,16948,14047
32714,16903,14066
32764,16993,14084
32716,16996,14095
32544,17088,14128
32380,17069,14148
32320,17068,14159
32452,17061,14173
32640,17057,14207
32733,16958,14223
32776,16957,14245
32744,16914,14272
32668,16995,14285
32628,16984,14303
32580,17081,14337
32588,17081,14356
32645,17069,14374
32708,17082,14390
32754,16996,14429
32804,16934,14437
32864,16932,14457
32864,16906,14482
32792,16982,14509
32616,16993,14527
32420,17092,14541
32392,17077,14563
32488,17064,14580
32696,17064,14600
32892,16996,14618
32988,17014,14639
32948,16927,14658
32896,16911,14665
32893,16953,14700
32844,17065,14703
32788,17047,14722
32644,17125,14744
32592,17086,14751
32568,17045,14760
32664,17062,14790
32796,16972,14799
32836,16918,14814
32816,16935,14818
32752,16932,14840
32660,17010,14857
32616,17032,14874
32620,17093,14884
32602,17071,14888
32656,17073,14911
32788,16999,14919
32908,16992,14927
33012,16914,14948
32992,16948,14964
32956,16956,14965
32841,17048,14988
32680,17055,14993
32568,17132,15012
32508,17083,15023
32604,17068,15044
32760,16999,15048
32844,16962,15055
32876,16919,15085
32920,16923,15087
32928,16937,15097
32872,17022,15134
32800,17044,15138
32700,17127,15147
32588,17095,15175
32640,17044,15190
32752,17015,15192
32873,16950,15232
32952,16943,15239
32948,16908,15253
32852,16963,15280
32820,17053,15303
32752,17052,15311
32645,17113,15351
32672,17077,15366
32748,17064,15406
32840,16998,15414
32848,16983,15426
32828,16922,15471
32788,16966,15493
32701,16936,15497
32632,17036,15554
32568,17048,15577
32501,17121,15609
32440,17088,15629
32508,17049,15633
32672,17024,15694
32760,16954,15725
32784,16952,15737
32728,16922,15790
32612,17004,15813
32552,17009,15820
32516,17132,15873
32492,17092,15893
32560,17099,15938
32613,17045,15978
32694,17042,15980
32752,16975,16041
32800,17014,16053
32728,16939,16037
32660,17037,16101
32624,17002,16106
32540,17111,16172
32496,17102,16174
32512,17108,16233
32548,17074,16250
32612,17067,16293
32708,16959,16302
32733,16984,16308
32780,16933,16356
32752,16949,16365
32717,17007,16412
32632,17108,16437
32561,17081,16455
32620,17089,16439
32752,17138,16515
32844,17010,16508
32888,17022,16569
32832,16949,16596
32844,16985,16628
32860,16948,16649
32724,17050,16613
32609,17053,16684
32512,17100,16662
32572,17084,16743
32652,17068,16727
32676,17032,16796
32776,16955,16769
32821,16949,16837
32828,17022,16815
32776,16976,16895
32728,17055,16889
32624,17046,16941
32636,17092,16936
32704,17144,17001
32768,17061,17011
32868,17041,16955
32924,16956,17036
32954,16955,17044
32848,16922,17113
32737,16977,17115
32668,17007,17071
32604,17064,17148
32536,17078,17123
32521,17093,17190
32520,17084,17216
32644,17004,17188
32752,16981,17252
32864,16928,17220
32944,16938,17301
32940,16983,17330
32836,17000,17310
32664,17072,17365
32544,17145,17391
32616,17086,17365
32684,17078,17431
32764,17012,17391
32884,16978,17472
32964,16954,17424
32992,16991,17514
32910,16964,17449
32797,17039,17537
32724,17057,17488
32692,17108,17572
32724,17129,17536
32740,17053,17636
32716,17037,17575
32876,16962,17656
33052,16992,17692
33028,16937,17639
32893,17003,17710
32729,17009,17706
32624,17116,17713
32586,17109,17766
32640,17091,17810
32754,17067,17730
32946,17012,17827
33048,16996,17865
33032,16946,17789
32940,17019,17934
32832,16983,17905
32764,17022,17944
32696,17055,17958
32728,17100,17965
32817,17085,17988
32824,17095,18023
32828,17025,17974
32876,17032,18055
32968,16953,18021
32952,17011,18133
32860,16980,18138
32840,17099,18113
32748,17073,18167
32732,17143,18089
32704,17111,18228
32736,17124,18247
32804,17020,18195
32852,16967,18252
32872,16975,18304
32880,16945,18222
32896,17038,18325
32820,17033,18253
32684,17061,18364
32628,17127,18408
32648,17108,18316
32736,17120,18409
32844,17033,18474
32988,17047,18362
33104,16951,18468
33124,17009,18469
32962,16975,18556
32742,17079,18559
32592,17086,18493
32452,17188,18588
32341,17103,18588
32400,17125,18528
32488,17023,18672
32673,16966,18657
32872,16957,18628
33077,16932,18692
33356,17004,18724
33672,17017,18629
34012,17117,18745
34236,17105,18783
34528,17170,18698
35040,17077,18742
35660,17022,18809
36064,16997,18778
36256,16950,18778
36296,17012,18888
36213,16991,18900
35856,17115,18819
35452,17099,18958
34912,17109,18955
34300,17181,18834
33625,17115,19004
32704,17044,19006
31952,17057,18932
31836,16967,19063
31972,16959,19040
32072,17039,19033
32092,17038,18987
32116,17136,19085
32160,17123,19100
32236,17105,19020
32272,17100,19193
32328,17030,19156
32384,17039,19219
32416,16966,19120
32425,17017,19202
32349,17001,19230
32224,17031,19237
32140,17106,19281
32072,17101,19212
32040,17127,19360
32184,17070,19305
32320,17037,19400
32424,16977,19401
32472,16961,19265
32492,16946,19384
32436,17029,19453
32468,17052,19335
32449,17076,19442
32312,17127,19517
32132,17100,19449
32080,17087,19548
32204,17078,19502
32332,16977,19585
32360,16998,19452
32356,16956,19604
32308,17036,19649
32217,17031,19637
32136,17137,19635
32108,17133,19695
32196,17108,19564
32372,17130,19722
32576,17042,19743
32736,16973,19600
32760,17009,19719
32726,16990,19783
32656,17001,19665
32548,17031,19759
32437,17135,19821
32316,17117,19718
32301,17103,19780
32336,17083,19764
32372,17026,19859
32436,16999,19868
32506,16957,19796
32632,17007,19904
32658,16985,19900
32596,17101,19748
32532,17118,19927
32480,17108,19914
32472,17156,19940
32536,17092,19785
32606,17102,19975
32674,17041,19906
32732,16953,19906
32784,16981,19989
32768,16984,19984
32736,17053,19825
32696,17082,19941
32616,17123,19920
32584,17175,19991
32660,17079,19925
32788,17074,20018
32960,16972,20004
33004,17003,19938
32984,16958,19985
32929,17044,19896
32808,17061,19925
32704,17171,19946
32696,17130,19876
32768,17197,19964
32856,17106,19900
32940,17022,19894
33024,17013,19892
33064,16951,19912
32972,16969,19771
32893,16988,19842
32844,17079,19811
32868,17082,19869
32860,17148,19840
32866,17109,19842
32784,17099,19801
32812,17022,19666
32916,17012,19735
32992,16965,19681
33076,17031,19709
33180,17012,19715
33208,17116,19712
33085,17123,19678
32908,17116,19554
32796,17185,19609
32828,17091,19474
33004,17123,19609
33120,17000,19589
33129,17053,19572
33088,16964,19587
32964,17057,19547
32840,17061,19470
32708,17091,19519
32704,17141,19477
32744,17118,19487
32784,17101,19428
32912,17077,19345
32948,16984,19455
32972,16973,19456
32988,17006,19360
32908,16997,19405
32833,17070,19285
32848,17175,19380
32836,17145,19247
32853,17184,19378
32912,17085,19396
33008,17055,19303
33084,16990,19325
33084,16980,19204
33024,17026,19341
32920,17005,19253
32696,17073,19341
32572,17096,19362
32508,17139,19267
32556,17118,19285
32672,17096,19190
32749,17095,19301
32805,17001,19176
32742,16999,19329
32672,17061,19284
32566,17029,19191
32460,17123,19312
32408,17121,19206
32436,17186,19330
32500,17119,19314
32612,17095,19293
32700,17116,19316
32792,17005,19293
32865,16964,19364
32900,17026,19360
32772,17029,19214
32589,17057,19367
32457,17140,19381
32424,17130,19334
32492,17173,19403
32548,17089,19317
32717,17077,19407
32864,16994,19365
32896,16996,19430
32800,16977,19419
32576,17024,19308
32449,17126,19460
32460,17119,19390
32533,17158,19433
32592,17126,19471
32629,17106,19376
32632,17077,19523
32796,16997,19438
32928,16997,19540
32985,16980,19430
32940,17071,19545
32760,17060,19553
32552,17127,19545
32484,17137,19602
32516,17141,19562
32613,17088,19612
32696,17061,19585
32760,17027,19611
32808,16975,19584
32849,16996,19689
32789,17012,19623
32596,17080,19673
32456,17177,19646
32472,17144,19684
32504,17197,19652
32652,17112,19730
32772,17087,19667
32804,16996,19772
32804,16994,19677
32781,17030,19830
32698,17015,19845
32620,17081,19874
32600,17179,19881
32624,17158,19860
32673,17192,19920
32672,17092,19785
32740,17081,19897
32816,17005,19868
32880,17016,19926
32904,16990,19936
32892,17068,20014
32824,17073,19957
32736,17173,20020
32668,17140,19916
32608,17158,20003
32644,17093,19961
32740,17081,20061
32896,17005,20063
32932,17022,20060
32868,16989,20029
32760,17041,20105
32608,17133,19973
32508,17125,20077
32501,17195,19933
32588,17133,20103
32736,17119,20133
32860,17096,19976
32924,17001,20118
32921,17029,20063
32860,16992,20132
32832,17063,20122
32768,17072,20062
32728,17140,20104
32788,17141,20023
32837,17152,20099
32900,17092,20100
32848,17057,20152
32864,17003,20117
32908,16996,20197
32916,16988,20183
32852,17069,20128
32800,17077,20196
32772,17179,20196
32736,17150,20159
32673,17169,20156
32760,17100,20085
32902,17069,20234
33012,17071,20230
33012,16985,20145
32956,17029,20262
32912,17028,20261
32718,17103,20205
32621,17174,20205
32688,17148,20116
32729,17153,20275
32892,17101,20168
32972,17074,20289
32928,17005,20302
32952,17020,20210
32948,16993,20278
32888,17048,20156
32824,17145,20319
32752,17130,20332
32716,17170,20255
32780,17205,20312
32808,17108,20329
32821,17101,20340
32908,17008,20323
33028,17007,20181
33012,17031,20354
32872,17028,20368
32728,17104,20256
32578,17191,20328
32612,17166,20311
32660,17211,20324
32732,17111,20397
32936,17073,20367
33112,17013,20388
33228,17001,20238
33212,17000,20367
33080,17091,20423
32880,17112,20354
32644,17130,20432
32590,17207,20296
32644,17148,20419
32776,17122,20314
32992,17145,20434
33172,17020,20439
33184,17052,20507
33100,17008,20515
32852,17139,20349
32728,17125,20482
32697,17132,20486
32688,17221,20397
32749,17172,20494
32804,17191,20520
32844,17076,20557
32912,17073,20598
32988,16997,20454
32994,17033,20629
32902,17045,20573
32812,17105,20652
32720,17181,20660
32616,17245,20612
32588,17166,20625
32644,17171,20586
32780,17063,20652
32964,17028,20615
33100,17058,20702
33181,17009,20640
33148,17084,20743
32913,17098,20709
32756,17161,20824
32660,17236,20828
32692,17170,20804
32816,17172,20826
32924,17064,20772
32989,17064,20871
33008,17006,20896
33032,17049,20745
33048,17045,20910
32992,17135,20852
32832,17143,20943
32736,17186,20922
32756,17227,21005
32832,17142,21036
32889,17142,20911
32956,17044,21056
32948,17006,21092
33017,17026,20994
32964,17153,21101
32932,17121,21087
32840,17146,21127
32740,17181,21136
32828,17159,21119
32921,17137,21241
33008,17074,21240
33080,17060,21152
33149,17004,21209
33216,17028,21140
33164,17124,21255
33088,17125,21228
32924,17216,21383
32820,17191,21383
32704,17226,21258
32692,17141,21397
32788,17073,21456
32924,17046,21490
32964,17076,21493
32929,17030,21372
32824,17100,21516
32685,17113,21438
32556,17197,21544
32472,17178,21551
32540,17192,21565
32684,17125,21649
32892,17094,21649
33024,17099,21555
33016,17030,21647
32916,17087,21621
32772,17066,21709
32640,17159,21663
32560,17166,21826
32564,17227,21852
32616,17172,21892
32796,17181,21890
32968,17078,21768
33046,17055,21956
33056,17063,21991
33060,17028,21941
33028,17085,21962
32972,17173,21930
32904,17159,22009
32880,17199,21968
32909,17226,22084
32992,17133,22068
33052,17095,22184
33048,17135,22041
32992,17031,22205
33049,17093,22145
33016,17092,22217
32844,17185,22176
32692,17170,22363
32596,17224,22246
32596,17173,22399
32641,17188,22327
32780,17092,22446
32928,17063,22332
33040,17021,22520
33004,17047,22452
32900,17121,22594
32768,17120,22537
32676,17179,22656
32616,17249,22693
32748,17190,22721
32876,17199,22590
32908,17109,22761
32882,17108,22633
32924,17039,22822
32880,17095,22713
32792,17090,22857
32728,17131,22831
32632,17210,22972
32588,17190,22902
32624,17217,23024
32733,17133,22900
32788,17111,22993
32852,17079,22926
32860,17026,23116
32832,17053,23065
32704,17154,23179
32637,17128,23201
32608,17182,23063
32636,17252,23233
32777,17189,23122
32838,17193,23261
32848,17084,23143
32845,17084,23331
32928,17025,23287
32868,17053,23425
32734,17143,23467
32597,17127,23365
32520,17209,23502
32516,17191,23521
32560,17192,23429
32688,17194,23575
32816,17094,23464
32889,17080,23628
32894,17124,23622
32760,17050,23532
32516,17149,23727
32324,17142,23736
32208,17172,23591
32305,17215,23758
32520,17233,23639
32925,17148,23769
33360,17124,23719
33824,17041,23846
34236,17051,23900
34494,17044,23910
34637,17102,23943
34780,17211,23813
35116,17188,23983
35589,17268,23808
35968,17188,23974
36172,17198,23872
36256,17101,23993
36240,17117,24076
35940,17053,23893
35424,17125,24017
34648,17102,23976
34020,17176,24132
33180,17247,24110
32176,17213,23980
31725,17199,24173
31776,17172,24084
31992,17159,24041
32357,17070,24130
32564,17087,24105
32620,17052,24247
32552,17109,24096
32424,17163,24197
32240,17247,24082
32080,17214,24171
32052,17233,24127
32144,17146,24186
32312,17119,24148
32524,17141,24201
32640,17051,24193
32584,17095,24248
32357,17088,24175
32112,17180,24289
31984,17182,24190
31992,17223,24346
32136,17253,24303
32216,17159,24388
32304,17129,24431
32321,17055,24284
32308,17047,24416
32208,17052,24295
32060,17124,24441
31936,17142,24268
31868,17186,24324
31820,17245,24434
31872,17198,24406
31998,17209,24471
32220,17109,24527
32320,17135,24417
32336,17058,24536
32288,17084,24589
32221,17177,24444
32088,17166,24501
31921,17249,24476
31896,17210,24500
31999,17233,24464
32165,17148,24537
32388,17108,24501
32468,17057,24633
32544,17065,24677
32480,17065,24540
32388,17094,24604
32276,17184,24637
32168,17188,24575
32056,17263,24752
32032,17200,24751
32116,17219,24605
32237,17117,24764
32356,17060,24628
32408,17063,24788
32412,17052,24824
32328,17115,24844
32236,17153,24756
32222,17246,24873
32308,17230,24718
32356,17263,24897
32432,17189,24825
32548,17110,24928
32596,17080,24975
32688,17041,24945
32798,17100,24826
32784,17114,24991
32660,17225,24981
32436,17220,24871
32420,17276,24986
32416,17215,24879
32472,17151,24907
32584,17114,25001
32657,17060,24815
32704,17094,24912
32720,17076,24985
32672,17108,24820
32624,17171,24867
32552,17255,24810
32496,17217,24892
32536,17236,24864
32560,17168,24774
32615,17188,24844
32648,17082,24906
32712,17042,24702
32744,17097,24817
32766,17109,24856
32700,17208,24638
32656,17194,24701
32582,17234,24641
32576,17196,24729
32648,17172,24640
32728,17100,24716
32789,17093,24673
32892,17056,24521
32864,17109,24559
32744,17109,24540
32688,17215,24543
32637,17215,24532
32612,17303,24476
32645,17220,24589
32788,17153,24554
32885,17125,24416
32988,17122,24492
33052,17061,24361
33000,17111,24401
32906,17105,24336
32744,17197,24442
32662,17198,24464
32708,17239,24423
32848,17195,24421
32917,17184,24244
32992,17109,24317
33084,17084,24264
33088,17145,24412
32960,17092,24383
32796,17171,24376
32724,17176,24344
32644,17269,24180
32676,17236,24236
32732,17200,24334
32800,17184,24241
32816,17122,24284
32852,17135,24303
32848,17065,24288
32772,17138,24270
32738,17120,24125
32652,17190,24284
32593,17215,24116
32580,17219,24232
32676,17257,24260
32832,17175,24063
32908,17163,24245
32896,17076,24063
32804,17106,24148
32776,17089,24142
32812,17115,24090
32764,17176,24137
32620,17203,24244
32492,17285,24065
32485,17228,24136
32600,17159,24256
32728,17204,24117
32816,17118,24201
32788,17078,24174
32800,17075,24201
32764,17168,24092
32680,17170,24183
32694,17260,24273
32696,17235,24128
32724,17271,24178
32828,17182,24175
32997,17188,24303
33103,17085,24190
33028,17121,24297
32872,17088,24308
32740,17180,24128
32672,17191,24216
32636,17286,24196
32688,17245,24325
32756,17203,24269
32772,17202,24177
32736,17129,24290
32768,17134,24252
32732,17064,24332
32808,17125,24260
32844,17122,24290
32800,17217,24357
32757,17222,24176
32716,17295,24247
32716,17220,24364
32788,17164,24195
32868,17145,24396
32958,17084,24345
32992,17131,24232
32936,17093,24377
32788,17124,24380
32592,17211,24216
32520,17218,24345
32528,17257,24223
32608,17207,24279
32704,17186,24245
32816,17176,24355
32872,17089,24226
32900,17116,24287
32912,17081,24236
32840,17141,24327
32764,17270,24268
32720,17234,24374
32700,17287,24308
32712,17218,24413
32824,17226,24384
32897,17120,24225
32948,17118,24324
32935,17061,24388
32924,17144,24207
32869,17153,24284
32756,17183,24374
32692,17239,24230
32720,17329,24409
32780,17236,24373
32940,17170,24224
33044,17175,24361
33060,17092,24367
32980,17084,24187
32829,17103,24345
32614,17197,24213
32480,17196,24341
32452,17305,24366
32540,17261,24361
32625,17279,24367
32692,17188,24207
32792,17122,24285
32908,17101,24349
32992,17142,24364
33001,17109,24334
32956,17134,24160
32774,17202,24319
32700,17231,24267
32676,17253,24303
32792,17225,24164
32972,17214,24239
33073,17143,24326
33064,17161,24351
32952,17089,24295
32936,17101,24236
32828,17157,24258
32760,17189,24303
32733,17249,24144
32817,17300,24317
32884,17222,24273
32960,17213,24228
33058,17143,24309
33110,17193,24123
32980,17092,24282
32913,17109,24314
32820,17174,24158
32764,17201,24281
32736,17287,24270
32758,17265,24191
32832,17293,24341
32893,17198,24305
32908,17223,24136
32928,17118,24300
32976,17092,24321
32936,17167,24181
32808,17171,24350
32653,17244,24346
32652,17243,24190
32804,17303,24356
32880,17234,24376
32900,17271,24280
32853,17154,24253
32872,17098,24433
32932,17127,24336
32884,17113,24272
32828,17191,24464
32764,17208,24444
32756,17263,24292
32680,17336,24386
32732,17258,24492
32816,17253,24364
32888,17164,24460
32980,17105,24501
33032,17107,24383
33021,17184,24538
32928,17175,24554
32832,17268,24475
32774,17272,24504
32792,17319,24456
32840,17254,24581
32932,17196,24501
33016,17159,24510
33176,17103,24622
33216,17106,24523
33164,17117,24704
33120,17176,24680
33024,17273,24599
33016,17257,24709
32924,17321,24577
32892,17253,24776
32920,17190,24762
32976,17200,24597
33032,17113,24688
33008,17153,24818
32960,17117,24824
32856,17188,24855
32740,17216,24698
32732,17270,24772
32740,17265,24897
32881,17273,24773
33068,17201,24895
33180,17204,24960
33156,17127,24790
33072,17098,24892
32993,17141,24859
32821,17215,24930
32724,17216,24900
32624,17276,25087
32644,17333,25063
32776,17252,24914
32864,17223,24994
32945,17147,25137
33016,17124,25012
33004,17165,25049
32980,17128,25197
32910,17205,25163
32840,17219,25181
32792,17285,25095
32736,17283,25158
32760,17241,25225
32840,17247,25292
32908,17157,25322
33036,17110,25170
33124,17113,25287
33110,17124,25381
33024,17193,25327
32852,17284,25300
32756,17281,25348
32780,17268,25277
32878,17256,25356
32932,17272,25340
32992,17164,25541
33073,17171,25512
33028,17110,25362
32988,17185,25428
32896,17181,25450
32720,17315,25544
32640,17278,25536
32728,17266,25457
32757,17262,25625
32832,17199,25639
32868,17166,25537
32928,17177,25664
32932,17119,25508
32876,17128,25591
32773,17195,25532
32616,17267,25607
32538,17263,25724
32497,17297,25729
32601,17250,25737
32768,17221,25697
32862,17207,25751
32933,17114,25708
32952,17129,25786
32832,17130,25663
32756,17207,25860
32644,17231,25839
32572,17281,25681
32600,17299,25863
32718,17253,25904
32784,17216,25895
32892,17233,25810
32868,17121,25932
32856,17165,25778
32752,17142,25900
32652,17212,25969
32576,17227,25962
32476,17268,26006
32488,17325,25924
32600,17250,25925
32717,17225,25924
32857,17153,26097
32932,17127,26081
32932,17164,26088
32889,17142,26016
32834,17231,25974
32818,17229,26112
32748,17309,26175
32708,17268,26189
32744,17264,26211
32800,17254,26247
32868,17159,26255
32960,17155,26309
33004,17188,26159
32984,17145,26349
32880,17213,26212
32704,17314,26393
32656,17283,26268
32672,17306,26345
32732,17252,26332
32832,17213,26358
32960,17190,26332
33105,17121,26389
33172,17149,26376
33106,17138,26561
32936,17225,26481
32692,17239,26646
32576,17324,26612
32620,17287,26511
32776,17317,26637
32941,17215,26561
33052,17201,26705
33052,17125,26773
32912,17173,26645
32853,17149,26877
32756,17235,26836
32612,17255,26716
32568,17350,26904
32597,17292,26931
32772,17301,26940
32916,17206,26988
33094,17209,26855
33060,17121,26942
32980,17176,27048
32856,17148,26948
32726,17245,26983
32664,17245,26947
32632,17319,27117
32792,17285,27036
33232,17279,27015
33692,17211,27031
34032,17194,27249
34400,17132,27198
34644,17173,27089
34756,17165,27209
35092,17259,27100
35592,17266,27357
36032,17352,27324
36196,17319,27172
36158,17268,27383
36048,17245,27348
35748,17179,27247
35462,17221,27341
34924,17165,27379
34436,17159,27420
33764,17262,27281
32630,17264,27400
31944,17290,27295
31784,17314,27535
31888,17268,27498
32172,17238,27415
32553,17175,27520
32724,17153,27390
32700,17127,27596
32704,17188,27553
32644,17204,27408
32456,17287,27562
32404,17290,27564
32454,17348,27423
32412,17269,27487
32388,17237,27454
32448,17260,27609
32506,17151,27482
32456,17215,27624
32416,17182,27490
32320,17201,27557
32228,17268,27502
32184,17285,27589
32212,17308,27527
32320,17295,27671
32388,17225,27569
32492,17220,27620
32528,17140,27565
32472,17178,27801
32380,17161,27761
32200,17220,27828
32156,17316,27794
32128,17308,27652
32164,17293,27860
32288,17277,27820
32430,17278,27716
32552,17172,27741
32608,17151,27735
32572,17177,27783
32508,17156,27744
32453,17253,27992
32452,17254,27950
32284,17307,28009
32160,17352,27972
32216,17279,27840
32372,17271,27940
32520,17172,27911
32656,17182,28040
32672,17142,28031
32588,17202,27925
32436,17209,27997
32344,17274,27927
32356,17284,28128
32400,17308,28117
32416,17261,28013
32556,17250,28052
32625,17169,28164
32656,17174,28039
32597,17207,28178
32469,17155,28089
32352,17225,28232
32276,17278,28295
32212,17287,28261
32253,17303,28223
32324,17332,28296
32408,17233,28295
32485,17226,28327
32612,17135,28321
32640,17152,28339
32576,17223,28268
32553,17207,28375
32488,17282,28237
32438,17292,28436
32474,17313,28423
32556,17267,28287
32672,17237,28318
32756,17168,28278
32800,17160,28479
32744,17212,28452
32713,17161,28405
32629,17238,28334
32608,17333,28269
32624,17304,28519
32713,17336,28436
32840,17265,28290
32928,17248,28325
32904,17173,28279
32880,17155,28467
32832,17135,28400
32760,17182,28263
32660,17210,28295
32584,17261,28204
32544,17308,28313
32448,17377,28154
32493,17276,28264
32548,17255,28165
32697,17176,28133
32868,17182,28224
32716,17139,28094
32630,17191,28061
32632,17209,28001
32640,17287,28185
32588,17296,28098
32604,17358,27952
32692,17269,28053
32776,17260,27916
32880,17174,27996
32912,17164,27825
32944,17223,27937
32844,17181,27889
32697,17206,27996
32576,17276,27770
32500,17323,27939
32516,17316,27717
32644,17324,27752
32788,17217,27724
32894,17182,27817
32944,17141,27679
32920,17158,27788
32842,17162,27730
32760,17227,27783
32668,17313,27776
32628,17301,27745
32590,17307,27611
32644,17269,27551
32772,17268,27640
32864,17184,27649
32900,17228,27497
32856,17158,27592
32736,17220,27508
32644,17228,27516
32524,17327,27462
32428,17315,27548
32446,17355,27424
32468,17281,27517
32648,17281,27401
32764,17181,27604
32880,17196,27538
32900,17135,27514
32845,17224,27520
32696,17223,27553
32596,17327,27489
32516,17296,27488
32500,17339,27315
32592,17276,27460
32640,17220,27332
32724,17236,27421
32760,17158,27415
32756,17155,27373
32676,17163,27247
32558,17227,27326
32464,17257,27227
32398,17304,27293
32364,17288,27196
32516,17293,27393
32664,17241,27321
32784,17164,27347
32864,17189,27316
32832,17137,27157
32820,17188,27281
32756,17284,27301
32700,17268,27276
32712,17351,27257
32584,17308,27247
32576,17303,27292
32653,17217,27245
32724,17185,27201
32732,17206,27210
32670,17144,27047
32593,17160,27212
32520,17239,27215
32420,17268,27165
32412,17288,27161
32480,17324,27013
32544,17261,27220
32656,17229,27165
32800,17224,27190
32860,17152,26997
32844,17135,27221
32780,17182,27173
32672,17210,27004
32592,17279,27105
32552,17288,27002
32592,17311,27054
32640,17289,27107
32752,17214,27172
32832,17182,27216
32888,17199,27172
32829,17144,27038
32741,17164,27052
32622,17245,27012
32501,17257,27229
32446,17340,27188
32488,17286,27222
32524,17307,27172
32632,17215,27093
32776,17184,27189
32864,17132,27039
32812,17153,27108
32776,17247,27038
32736,17223,27246
32703,17261,27214
32632,17300,27077
32612,17353,27157
32680,17257,27064
32808,17240,27215
32892,17163,27087
32928,17151,27184
32876,17196,27086
32824,17175,27154
32780,17261,27088
32640,17260,27150
32549,17335,27109
32560,17308,27248
32672,17320,27231
32813,17212,27091
32896,17219,27142
32900,17140,27080
32830,17197,27271
32775,17175,27108
32664,17284,27245
32544,17281,27212
32517,17367,27060
32580,17303,27193
32764,17253,27056
32944,17254,27128
33014,17181,27208
32953,17132,27137
32868,17154,27100
32820,17234,27036
32788,17234,27140
32684,17260,27066
32620,17328,26999
32632,17294,27085
32806,17323,27143
32908,17221,27175
33048,17208,27108
33140,17129,27168
33076,17151,27020
32920,17165,27152
32704,17224,27100
32600,17261,27008
32552,17311,27052
32556,17289,26905
32644,17316,27040
32696,17215,26903
32748,17233,27060
32764,17160,26991
32793,17131,26877
32720,17208,26911
32656,17214,26852
32637,17307,26933
32621,17295,26854
32580,17346,26896
32632,17278,27006
32728,17209,26988
32880,17195,27004
33048,17150,26832
33076,17132,27050
33020,17184,27007
32768,17223,26825
32676,17259,26953
32684,17338,26896
32744,17309,27001
32768,17325,27004
32808,17228,26887
32824,17177,27004
32920,17135,26857
32928,17193,27021
32836,17180,27006
32784,17211,26865
32800,17285,26951
32784,17293,27028
32797,17352,26853
32812,17277,26913
32844,17204,27020
32788,17175,27068
32844,17132,27024
32896,17152,27061
32917,17223,26863
32928,17223,27056
32844,17326,27014
32744,17314,26883
32676,17290,27008
32672,17271,26844
32788,17204,26917
32868,17201,26830
32948,17143,27046
32856,17222,26980
32753,17181,26839
32688,17307,26909
32656,17285,26820
32572,17289,27023
32572,17324,26960
32616,17273,26797
32656,17302,27007
32736,17175,26952
32792,17129,26783
32805,17164,26816
32764,17173,26919
32578,17279,26868
32488,17282,26816
32441,17290,26900
32496,17356,26735
32597,17286,26924
32732,17223,26863
32868,17158,26692
32900,17192,26903
32842,17159,26820
32760,17177,26650
32696,17282,26807
32613,17293,26764
32645,17307,26779
32632,17353,26623
32668,17263,26756
32788,17266,26621
32844,17177,26629
32904,17128,26738
32904,17188,26759
32828,17172,26717
32744,17265,26689
32684,17267,26692
32660,17329,26657
32664,17295,26548
32704,17317,26498
32752,17231,26695
32884,17236,26640
32941,17156,26455
32884,17140,26612
32724,17188,26609
32596,17288,26639
32509,17292,26580
32464,17356,26416
32528,17295,26541
32660,17330,26386
32736,17225,26592
32804,17167,26519
32848,17153,26358
32876,17145,26556
32780,17247,26492
32676,17252,26317
32588,17274,26450
32537,17357,26471
32496,17319,26420
32612,17258,26408
32788,17241,26276
32924,17167,26360
32900,17156,26253
32728,17146,26298
32504,17196,26255
32444,17291,26345
32400,17287,26212
32445,17356,26247
32517,17312,26346
32640,17265,26284
32728,17241,26309
32796,17262,26172
32924,17161,26211
32984,17214,26203
32912,17202,26343
32816,17303,26300
32720,17295,26222
32616,17368,26284
32548,17316,26216
32664,17312,26274
32812,17214,26277
32892,17195,26260
32928,17210,26198
32868,17152,26085
32744,17217,26173
32665,17237,26080
32576,17305,26119
32488,17310,26077
32536,17317,26107
32640,17354,26062
32772,17250,26206
32860,17173,26157
32940,17199,26208
32924,17155,26052
32820,17246,26152
32720,17246,26071
32676,17343,26236
32588,17319,26223
32548,17357,26254
32646,17285,26228
32672,17290,26212
32856,17181,26221
32892,17178,26196
32865,17227,26064
32788,17192,26189
32829,17273,26085
32794,17295,26092
32746,17376,26056
32636,17327,26119
32544,17279,26047
32724,17244,26149
32808,17235,26140
32864,17161,26197
32897,17191,26189
32864,17276,26216
32708,17263,26241
32465,17314,26052
32348,17388,26223
32380,17317,26212
32372,17295,26079
32629,17263,26252
32720,17182,26290
32764,17185,26102
32692,17209,26196
32592,17280,26252
32472,17252,26285
32480,17314,26292
32476,17325,26216
32440,17326,26348
32444,17281,26316
32584,17252,26349
32860,17189,26326
33096,17184,26179
33300,17231,26318
33508,17211,26204
33729,17297,26350
33981,17301,26282
34236,17339,26384
34560,17417,26424
35076,17309,26396
35668,17346,26361
36136,17211,26413
36304,17283,26464
36272,17204,26424
36112,17223,26462
35590,17301,26421
35092,17389,26473
34524,17353,26474
33988,17370,26516
33372,17299,26488
32600,17300,26330
32158,17210,26403
32108,17197,26365
32196,17187,26436
32276,17237,26396
32260,17331,26452
32308,17322,26421
32436,17363,26484
32500,17390,26451
32559,17292,26609
32592,17257,26669
32580,17257,26525
32556,17174,26585
32496,17199,26528
32392,17241,26697
32276,17357,26666
32142,17317,26735
32072,17367,26578
32060,17388,26719
32184,17300,26602
32280,17272,26758
32421,17196,26691
32536,17189,26769
32609,17260,26700
32526,17221,26852
32423,17306,26820
32296,17308,26884
32252,17383,26775
32374,17344,26897
32462,17357,26821
32580,17263,26885
32645,17261,26836
32609,17183,26991
32480,17193,27087
32392,17274,26923
32332,17287,27015
32296,17367,27044
32236,17340,27142
32264,17351,27198
32396,17331,27030
32516,17301,27213
32652,17195,27200
32692,17189,27100
32660,17228,27285
32590,17220,27349
32462,17297,27166
32416,17314,27289
32412,17351,27392
32430,17332,27379
32564,17311,27334
32740,17240,27237
32884,17218,27332
32852,17177,27270
32740,17195,27386
32644,17263,27312
32544,17273,27425
32460,17365,27318
32408,17340,27393
32524,17380,27393
32616,17314,27503
32740,17309,27406
32860,17200,27556
32960,17185,27621
32936,17186,27588
32780,17229,27598
32629,17343,27609
32564,17340,27606
32504,17380,27630
32588,17327,27692
32716,17317,27645
32808,17292,27646
32836,17196,27508
32801,17195,27613
32712,17249,27501
32704,17223,27639
32649,17292,27508
32568,17400,27631
32536,17352,27513
32568,17384,27551
32612,17295,27485
32676,17263,27613
32732,17260,27552
32756,17180,27591
32792,17214,27523
32764,17248,27442
32692,17341,27454
32544,17324,27396
32544,17371,27456
32614,17408,27479
32656,17302,27507
32760,17309,27404
32896,17211,27425
32936,17219,27268
32880,17195,27324
32782,17247,27228
32660,17324,27352
32580,17329,27287
32608,17405,27172
32672,17347,27085
32768,17355,27211
32864,17252,27058
32932,17250,27196
32932,17182,27141
32876,17226,27028
32804,17234,27057
32712,17299,26865
32576,17410,26938
32468,17360,26809
32568,17408,26850
32652,17319,26720
32790,17309,26765
32896,17230,26641
32901,17252,26665
32858,17219,26574
32793,17285,26653
32680,17283,26482
32572,17351,26655
32516,17350,26564
32532,17363,26484
32612,17361,26479
32669,17253,26368
32716,17249,26375
32864,17188,26265
32884,17218,26288
32768,17261,26288
32632,17363,26213
32537,17341,26151
32468,17406,26128
32524,17346,25926
32696,17321,26036
32905,17316,25984
33049,17213,25952
33024,17215,25837
32816,17202,25830
32564,17249,25664
32436,17338,25692
32356,17333,25596
32376,17378,25716
32441,17347,25557
32516,17335,25596
32564,17261,25588
32636,17287,25463
32660,17214,25494
32604,17263,25313
32480,17240,25440
32344,17309,25441
32212,17357,25220
32252,17356,25321
32332,17366,25316
32504,17380,25136
32645,17263,25223
32700,17260,25057
32712,17198,25182
32652,17226,25033
32560,17244,25154
32444,17313,25105
32404,17399,25060
32412,17381,25044
32372,17404,25047
32466,17305,24894
32644,17273,24984
32768,17271,24842
32812,17202,24962
32829,17236,24917
32808,17315,24924
32692,17294,24876
32560,17350,24880
32484,17359,24832
32476,17370,24692
32556,17309,24724
32688,17284,24672
32816,17300,24799
32916,17197,24621
32916,17211,24655
32760,17254,24565
32600,17312,24740
32500,17389,24678
32512,17361,24573
32556,17372,24601
32616,17313,24549
32653,17312,24599
32740,17219,24532
32831,17224,24590
32792,17214,24504
32724,17270,24538
32637,17370,24484
32553,17352,24550
32552,17365,24619
32652,17390,24453
32736,17314,24574
32816,17286,24377
32866,17220,24448
32844,17222,24430
32824,17287,24541
32688,17251,24393
32560,17330,24503
32468,17341,24447
32436,17388,24319
32444,17350,24477
32520,17330,24423
32748,17262,24255
32800,17284,24421
32856,17212,24351
32852,17215,24218
32744,17264,24324
32676,17382,24238
32612,17351,24298
32565,17389,24308
32594,17349,24209
32600,17364,24169
32696,17264,24122
32693,17252,24255
32660,17277,24204
32652,17228,23999
32588,17293,24164
32496,17308,23961
32416,17358,24060
32372,17428,23924
32460,17365,23976
32580,17368,23973
32580,17257,24048
32704,17248,23908
32773,17199,23906
32768,17229,23940
32700,17302,23816
32516,17308,23888
32384,17361,23713
32420,17366,23775
32580,17369,23735
32760,17375,23812
32880,17281,23682
32884,17264,23743
32864,17299,23585
32772,17220,23593
32661,17285,23548
32588,17308,23572
32540,17351,23460
32524,17410,23606
32612,17356,23556
32700,17324,23460
32800,17326,23497
32860,17223,23440
32916,17213,23360
32917,17253,23431
32876,17252,23386
32796,17322,23268
32708,17360,23140
32621,17417,23273
32628,17429,23268
32724,17311,23076
32821,17280,23107
32897,17291,22992
32916,17203,23141
32848,17237,23110
32784,17317,23084
32708,17310,23081
32684,17373,22918
32684,17404,22917
32758,17438,22789
32884,17320,22916
32956,17311,22760
32988,17221,22839
33024,17231,22705
32980,17216,22756
32816,17269,22686
32644,17320,22790
32564,17405,22709
32592,17366,22761
32716,17367,22552
32772,17368,22684
32889,17261,22511
32956,17236,22638
32986,17202,22586
33040,17236,22620
33040,17319,22522
32928,17309,22539
32748,17373,22480
32676,17369,22526
32688,17369,22484
32792,17375,22509
32872,17263,22418
32876,17237,22573
32896,17199,22468
32920,17262,22508
32880,17255,22431
32846,17328,22584
32816,17407,22591
32800,17458,22461
32804,17371,22524
32856,17353,22469
32958,17263,22495
33016,17221,22488
33008,17223,22594
33001,17280,22491
32956,17255,22626
32784,17324,22644
32640,17396,22648
32584,17364,22646
32604,17369,22687
32694,17372,22700
32801,17261,22613
32900,17231,22645
33016,17222,22581
33092,17271,22796
33052,17333,22729
32948,17316,22724
32781,17377,22845
32656,17431,22828
32644,17350,22957
32740,17329,22895
32860,17321,23058
32924,17225,23116
32984,17222,23047
32960,17268,23174
32928,17257,23111
32932,17316,23216
32916,17413,23275
32850,17391,23343
32796,17418,23487
32832,17317,23431
32908,17300,23623
32985,17220,23597
33068,17206,23687
33028,17244,23790
32953,17327,23759
32820,17321,23894
32704,17415,23973
32684,17377,24137
32744,17376,24257
32842,17380,24316
33020,17261,24422
33172,17242,24400
33208,17259,24597
33088,17231,24565
32912,17294,24759
32836,17403,24692
32832,17364,24948
32852,17398,24941
32912,17417,25141
33024,17312,25188
33080,17287,25356
33132,17268,25448
33120,17208,25540
33038,17237,25584
32976,17354,25712
32902,17333,25700
32884,17442,25934
32912,17392,26074
33018,17415,26221
33116,17316,26302
33149,17279,26436
33140,17250,26382
33049,17267,26584
32992,17218,26578
33000,17285,26791
32952,17353,26831
32900,17359,27066
32822,17385,27039
32814,17383,27220
32896,17318,27304
33052,17281,27575
33104,17222,27697
33104,17222,27806
33060,17292,27766
32884,17271,28093
32632,17352,28199
32568,17353,28391
32620,17380,28454
32782,17411,28542
32972,17315,28703
33132,17299,28697
33260,17223,28993
33272,17218,29093
33120,17279,29280
32924,17265,29345
32792,17349,29340
32712,17362,29532
32696,17415,29718
32736,17359,29884
32832,17352,29911
32968,17268,29965
33080,17238,30330
33164,17206,30365
33124,17252,30394
33037,17271,30524
32948,17362,30536
32868,17358,30905
32864,17396,31023
32968,17357,31264
33092,17327,31298
33164,17329,31374
33180,17248,31448
33228,17269,31694
33284,17233,31925
33188,17305,31984
32992,17321,31952
32864,17396,32300
32752,17376,32381
32808,17370,32637
32908,17388,32669
33060,17284,32719
33044,17295,33062
32984,17230,33110
32977,17288,33162
32921,17269,33260
32940,17349,33265
33008,17358,33745
33184,17396,33820
33576,17387,34070
34104,17404,34124
34688,17275,34242
35220,17290,34396
35702,17225,34538
36104,17284,34612
36336,17279,34820
36468,17366,34956
36456,17388,35016
36324,17460,35333
36154,17387,35333
35645,17413,35305
35156,17303,35788
34800,17245,35756
34364,17255,35941
33600,17253,36049
32540,17352,36353
31928,17346,36356
31789,17430,36318
31896,17399,36671
32084,17452,36692
32232,17327,36687
32405,17327,37165
32560,17245,37106
32668,17285,37024
32632,17241,37500
32538,17300,37503
32396,17381,37767
32360,17366,37581
32400,17407,38167
32452,17366,38188
32476,17354,38214
32524,17275,38596
32576,17240,38647
32596,17281,38791
32480,17249,38791
32341,17277,39048
32168,17348,39300
32112,17455,39324
32113,17384,39415
32172,17387,39559
32348,17321,39364
32480,17297,39980
32613,17231,39956
32621,17237,39912
32502,17242,40397
32352,17295,40452
32229,17332,40270
32172,17415,40852
32216,17391,40805
32372,17414,40704
32477,17317,41296
32588,17305,41316
32676,17229,41428
32632,17222,41479
32568,17278,41452
32420,17276,42031
32340,17347,42055
32316,17367,41871
32364,17428,42239
32416,17382,42524
32436,17387,42612
32564,17287,42759
32645,17230,42816
32656,17272,43085
32618,17260,42995
32540,17280,43317
32456,17374,43333
32386,17384,43508
32364,17385,43720
32400,17389,43483
32436,17317,43972
32496,17319,44110
32528,17235,44217
32556,17273,44381
32581,17247,44382
32560,17320,44668
32472,17331,44756
32474,17405,44943
32540,17383,44980
32588,17385,45172
32652,17318,45221
32748,17281,45428
32816,17232,45458
32888,17239,45550
32873,17232,45447
32792,17309,45910
32669,17328,46069
32484,17384,46109
32408,17386,46185
32406,17380,46132
32524,17322,46511
32636,17297,46636
32796,17231,46441
32904,17253,46872
32968,17240,47036
32916,17303,47092
32689,17419,47206
32480,17397,47261
32384,17432,47478
32428,17368,47261
32544,17388,47708
32676,17285,47828
32826,17278,47956
32852,17223,48108
32836,17255,48114
32696,17344,48340
32664,17340,48468
32669,17411,48624
32736,17386,48742
32820,17383,48860
32860,17415,48901
32888,17288,49030
32937,17276,49045
32940,17223,49253
32924,17271,49221
32864,17292,49517
32820,17359,49646
32820,17439,49823
32812,17404,49972
32792,17410,50084
32829,17325,50232
32897,17301,50299
32958,17236,50452
33017,17249,50462
33040,17246,50724
32956,17311,50860
32858,17339,50951
32788,17408,51100
32764,17388,51068
32800,17386,51335
32864,17415,51452
32896,17300,51600
32900,17235,51703
32948,17249,51565
32848,17315,51965
32716,17304,52045
32592,17411,52228
32516,17382,52327
32488,17413,52372
32584,17439,52520
32740,17341,52732
32860,17277,52823
32940,17254,52913
32981,17224,53069
32852,17269,53255
32572,17370,53277
32361,17366,53511
32212,17453,53637
32192,17414,53685
32356,17437,53828
32576,17332,53940
32760,17325,54052
32752,17252,54184
32606,17304,54336
32484,17269,54356
32400,17372,54548
32384,17353,54608
32428,17403,54791
32548,17455,54535
32560,17372,54972
32612,17366,55151
32656,17282,55240
32684,17303,55399
32712,17254,55516
32684,17314,55652
32620,17302,55588
32573,17384,55847
32520,17384,55981
32485,17413,56116
32468,17406,55901
32496,17407,56258
32580,17285,56052
32624,17285,56461
32676,17237,56590
32692,17258,56788
32688,17354,56795
32556,17355,56893
32428,17437,57036
32372,17399,57168
32413,17411,57277
32484,17333,57336
32573,17296,57452
32628,17307,57516
32624,17250,57607
32556,17317,57668
32468,17301,57826
32382,17381,57816
32356,17455,57908
32376,17404,57972
32448,17420,58209
32524,17332,58212
32708,17300,58336
32812,17311,58228
32796,17248,58400
32733,17311,58053
32600,17307,58631
32538,17375,58605
32492,17473,58804
32508,17415,58769
32568,17424,58812
32582,17404,58880
32628,17282,59031
32748,17264,59093
32792,17295,59037
32736,17260,59128
32656,17321,59142
32548,17390,59317
32488,17392,59373
32460,17417,59284
32448,17389,59348
32508,17406,59384
32708,17286,59516
32868,17269,59567
32960,17257,59460
32924,17336,59556
32725,17311,59541
32545,17393,59596
32502,17386,59664
32492,17407,59679
32586,17421,59783
32724,17334,59815
32900,17293,59820
32976,17261,59761
32952,17303,59826
32852,17265,59796
32680,17310,59764
32588,17370,59777
32572,17393,59783
32556,17414,59428
32568,17378,59895
32624,17348,59860
32668,17284,59864
32760,17269,59828
32784,17290,59864
32760,17261,59708
32648,17321,59822
32548,17419,59268
32476,17390,59671
32480,17422,59655
32640,17420,59719
32780,17333,59628
32868,17299,59631
32912,17316,59606
32992,17241,59484
32985,17300,59524
32960,17319,59452
32844,17419,59412
32652,17407,59352
32495,17445,59253
32504,17381,59223
32584,17353,59165
32632,17290,59052
32644,17269,58991
32612,17300,59024
32640,17266,58978
32720,17318,58815
32616,17388,58829
32496,17466,58516
32428,17409,58564
32484,17445,58409
32576,17348,58399
32700,17342,57976
32765,17259,58336
32772,17304,58247
32712,17268,58157
32676,17341,58078
32604,17367,57988
32484,17412,57853
32456,17440,57788
32540,17386,57633
32704,17367,57607
32844,17298,57445
32836,17268,57351
32764,17246,57248
32680,17284,57108
32608,17317,57092
32528,17380,56980
32496,17450,56879
32512,17402,56767
32560,17396,56575
32640,17359,56469
32650,17357,56269
32672,17257,56208
32692,17279,55736
32708,17271,56012
32656,17335,55644
32496,17421,55868
32408,17407,55720
32432,17428,55500
32584,17421,55372
32736,17337,55286
32800,17305,55129
32904,17317,55112
32888,17261,54977
32836,17335,54860
32736,17327,54704
32652,17400,54692
32560,17404,54575
32465,17422,54380
32468,17416,54260
32628,17413,54081
32845,17285,54100
33000,17260,53940
33086,17275,53767
33048,17271,53744
32836,17325,53532
32580,17415,53373
32425,17405,53300
32352,17430,53233
32404,17414,53172
32544,17423,53069
32700,17299,52588
32841,17289,52732
32936,17249,52628
32864,17294,52591
32620,17367,52447
32420,17381,52269
32368,17444,52156
32388,17410,52134
32513,17403,52040
32601,17401,51957
32760,17306,51732
32789,17320,51631
32804,17247,51492
32776,17295,51425
32688,17351,51367
32630,17428,51325
32564,17404,51220
32556,17429,51111
32633,17447,51016
32800,17341,50927
33004,17301,50812
33084,17254,50685
33056,17273,50378
32968,17348,50532
32884,17329,50396
32864,17415,50329
32828,17399,50236
32820,17432,50157
32740,17435,50031
32736,17413,49855
32840,17313,49479
32920,17324,49790
32952,17255,49725
32900,17303,49632
32848,17325,49565
32765,17375,49484
32720,17415,49392
32732,17468,49215
32844,17381,49159
32972,17356,48996
33056,17265,49092
33120,17260,48997
33100,17274,48808
32980,17273,48783
32812,17347,48526
32709,17450,48697
32724,17425,48544
32732,17409,48551
32860,17401,48516
33032,17333,48449
33140,17336,48180
33180,17255,48296
33140,17296,48252
32976,17291,47753
32816,17319,48112
32609,17397,47942
32565,17413,47956
32628,17433,47905
32776,17380,47816
32968,17356,47772
33061,17348,47774
33005,17253,47677
32872,17275,47660
32828,17344,47587
32848,17323,47096
32868,17389,47399
32800,17462,47332
32704,17412,47376
32672,17391,47293
32756,17404,47300
32824,17285,47188
32857,17292,47164
32848,17253,47126
32846,17290,47111
32804,17364,47049
32736,17375,46584
32740,17425,46900
32692,17476,46629
32716,17396,46831
32784,17399,46846
32900,17309,46725
33068,17310,46720
33337,17248,46560
33596,17312,46589
33876,17319,46588
34144,17384,46536
34380,17491,46463
34632,17409,46484
35084,17449,46364
35701,17364,46305
36270,17288,46336
36640,17280,46328
36704,17335,46329
36544,17295,46224
36088,17372,46189
35280,17392,46016
34620,17436,46064
34216,17428,45839
33773,17429,46032
32844,17353,46044
31940,17356,45861
31748,17268,45868
31856,17279,45765
32068,17345,45844
32184,17335,45807
32228,17404,45804
32344,17474,45732
32440,17422,45733
32560,17425,45642
32652,17347,45620
32720,17298,45548
32704,17274,45540
32676,17307,45415
32600,17281,45224
32550,17332,45349
32580,17394,45365
32564,17463,45316
32432,17414,45260
32332,17391,45086
32266,17353,45212
32268,17285,45062
32372,17264,45079
32472,17315,44956
32561,17280,45078
32518,17349,45004
32456,17415,45008
32360,17411,44888
32333,17408,44749
32412,17396,44872
32487,17395,44817
32616,17287,44825
32664,17279,44724
32560,17266,44579
32452,17332,44692
32412,17327,44622
32356,17387,44636
32284,17443,44551
32256,17468,44238
32304,17381,44396
32392,17357,44308
32528,17344,44359
32648,17255,44356
32657,17267,44358
32636,17333,44177
32597,17396,44271
32566,17375,44164
32464,17423,44012
32464,17428,44119
32496,17379,43948
32628,17353,43849
32728,17354,43972
32748,17255,43911
32736,17275,43527
32710,17341,43804
32572,17324,43804
32460,17405,43750
32396,17476,43688
32396,17408,43606
32480,17441,43631
32613,17350,43436
32713,17280,43415
32812,17267,43433
32848,17252,43412
32848,17298,43381
32760,17377,43357
32604,17378,42887
32556,17428,43064
32540,17466,43081
32596,17399,43068
32708,17404,43044
32768,17303,42976
32860,17300,43044
32928,17253,42937
32952,17298,42953
32976,17380,42836
32940,17381,42844
32828,17429,42684
32724,17472,42655
32628,17389,42585
32722,17381,42660
32800,17285,42502
32848,17276,42548
32844,17314,42348
32792,17284,42364
32696,17352,42233
32609,17452,42328
32593,17415,42119
32592,17435,42103
32652,17459,41657
32821,17341,41920
32952,17342,41828
33104,17260,41678
33132,17279,41441
33052,17347,41607
32948,17343,41647
32832,17412,41735
32736,17409,41532
32736,17435,41431
32785,17445,41344
32892,17349,41193
32964,17350,41319
33008,17263,41004
33060,17276,41051
33084,17361,40710
32968,17341,40989
32820,17409,40661
32700,17420,41096
32745,17444,40907
32728,17388,40831
32768,17367,40748
32720,17366,40745
32744,17282,40568
32696,17347,40239
32688,17314,40662
32668,17401,40417
32540,17397,40111
32488,17463,40571
32549,17423,40420
32690,17401,40484
32800,17381,40335
32812,17296,40188
32800,17280,40100
32712,17287,40125
32584,17375,40194
32404,17358,40080
32204,17423,40159
32140,17422,40029
32232,17425,39869
32429,17412,39965
32716,17407,39912
32869,17316,39964
32800,17332,39856
32644,17278,39826
32437,17337,39733
32368,17347,39668
32381,17417,39732
32372,17421,39653
32416,17454,39687
32484,17470,39559
32528,17356,39517
32636,17317,39508
32684,17328,39460
32720,17263,39448
32688,17321,39376
32580,17351,39328
32460,17411,39228
32320,17486,39264
32292,17425,39269
32344,17415,39156
32424,17439,39281
32496,17319,39285
32548,17328,39088
32496,17290,39213
32448,17366,39129
32414,17372,39263
32376,17466,39148
32396,17449,39072
32520,17488,39060
32664,17414,38988
32728,17350,39047
32732,17308,38878
32684,17311,38871
32600,17274,38906
32565,17306,38854
32496,17390,38956
32408,17401,38948
32374,17477,38772
32360,17449,38884
32365,17403,38812
32464,17362,38804
32644,17395,38828
32792,17286,38948
32800,17345,38817
32684,17313,38820
32620,17412,38638
32536,17397,38389
32517,17448,38769
32535,17514,38733
32560,17407,38710
32532,17347,38692
32612,17324,38711
32652,17336,38789
32636,17269,38695
32576,17359,38636
32497,17354,38599
32488,17417,38352
32408,17484,38505
32408,17430,38565
32544,17408,38527
32712,17349,38292
32868,17325,38728
32916,17265,38564
32864,17313,38225
32804,17308,38602
32680,17383,38541
32592,17400,38442
32508,17459,38652
32556,17489,38556
32632,17419,38485
32692,17406,38572
32724,17305,38505
32784,17334,38341
32773,17287,38592
32676,17348,38444
32528,17358,38497
32404,17420,38404
32382,17500,38436
32404,17436,38486
32504,17436,38382
32680,17350,38548
32844,17335,38470
32920,17277,38432
32814,17297,38305
32752,17374,38468
32616,17381,38406
32544,17474,38311
32605,17450,38153
32696,17463,38356
32712,17393,38404
32772,17363,38407
32828,17356,38404
32845,17284,38484
32832,17351,38273
32798,17315,38049
32700,17409,38544
32548,17406,38392
32444,17474,38337
32448,17516,38325
32580,17406,38151
32728,17375,38492
32960,17302,38364
33046,17295,38344
32988,17327,38318
32808,17309,38292
32604,17369,38188
32536,17441,37975
32484,17519,38348
32488,17453,38255
32620,17440,38249
32789,17414,38260
32909,17305,38212
32852,17288,38277
32784,17323,37917
32696,17371,38100
32636,17359,38161
32604,17407,38180
32608,17460,38138
32656,17481,38055
32688,17397,37940
32692,17369,38300
32736,17343,38158
32828,17278,37965
32892,17287,38260
32857,17356,38127
32832,17361,38113
32764,17449,38180
32668,17439,37982
32632,17457,37764
32636,17399,38122
32668,17368,37942
32832,17357,37732
32901,17275,38040
32968,17301,37836
32977,17380,37592
32888,17368,37949
32688,17431,37837
32521,17492,37860
32508,17431,37709
32621,17412,37500
32728,17407,37837
32784,17309,37783
32848,17325,37724
32880,17276,37684
32837,17334,37601
32724,17443,37797
32668,17411,37682
32616,17468,37572
32653,17434,37593
32764,17417,37585
32818,17368,37580
32896,17364,37481
32952,17345,37512
33033,17283,37533
32968,17326,37431
32756,17422,37379
32636,17412,37300
32596,17444,37172
32668,17457,37257
32728,17460,37033
32864,17352,37396
32952,17331,37228
32996,17279,37085
33012,17301,37165
32928,17372,37185
32872,17367,37258
32813,17428,37148
32856,17449,37204
32928,17472,37096
33028,17472,37149
33064,17345,37030
33068,17316,37097
33056,17352,36953
32984,17294,36852
32872,17364,36761
32784,17365,36548
32704,17423,36820
32720,17479,36828
32884,17431,36775
33048,17422,36605
33140,17408,36565
33144,17297,36647
33149,17297,36655
33084,17282,36603
32950,17370,36597
32812,17376,36280
32672,17468,36644
32638,17437,36540
32640,17483,36487
32752,17400,36383
32912,17381,36383
33028,17296,36372
33080,17292,36396
32966,17277,36469
32772,17333,36356
32612,17362,36393
32544,17420,36276
32590,17431,36068
32728,17444,36324
32860,17392,36148
32916,17346,36098
33001,17325,36079
32996,17316,36050
32952,17276,35989
32933,17330,35798
32828,17393,35940
32672,17415,35734
32636,17451,35961
32724,17472,35888
32854,17393,35888
32912,17387,35957
32994,17302,35847
32988,17292,35788
32964,17279,35896
32916,17328,35925
32800,17428,35841
32748,17436,35766
32712,17495,35718
32756,17438,35639
32952,17450,35688
33144,17342,35704
33184,17314,35712
33200,17319,35759
33196,17279,35669
33172,17348,35611
33040,17456,35679
32856,17419,35685
32700,17468,35636
32632,17423,35559
32686,17397,35591
32822,17368,35548
33068,17297,35455
33364,17316,35296
33584,17273,35512
33820,17332,35239
34080,17408,35501
34320,17509,35307
34536,17456,35487
34920,17423,35393
35508,17408,35343
36124,17377,35305
36540,17328,35285
36732,17368,35293
36676,17309,35320
36369,17360,35252
35704,17383,35259
35045,17445,35175
34473,17448,35121
33908,17458,35010
33144,17439,35212
32184,17412,34942
31788,17310,35132
31860,17301,34872
32100,17330,35224
32292,17317,35144
32296,17381,35136
32288,17477,35092
32313,17440,35097
32364,17451,35062
32400,17396,34988
32488,17383,34880
32564,17303,34724
32652,17292,35009
32684,17365,34989
32604,17332,34872
32485,17366,34969
32252,17450,34900
32152,17448,34833
32185,17494,34783
32320,17405,34868
32452,17426,34900
32560,17317,34785
32620,17338,34652
32548,17296,34917
32464,17374,34777
32332,17374,34692
32228,17468,34874
32176,17444,34752
32244,17492,34647
32352,17407,34823
32492,17339,34717
32628,17310,34785
32644,17335,34556
32596,17277,34620
32606,17332,34653
32585,17424,34612
32532,17407,34604
32456,17445,34592
32396,17493,34644
32340,17390,34541
32392,17381,34624
32565,17285,34512
32736,17299,34452
32900,17276,34313
32864,17340,34263
32740,17357,34430
32520,17455,34384
32479,17431,34436
32560,17463,34341
32714,17377,34389
32836,17354,34284
32888,17287,34276
32812,17290,34228
32672,17271,34127
32504,17348,34145
32376,17378,34037
32332,17468,33964
32276,17441,33828
32319,17477,34126
32456,17383,33764
32656,17365,33854
32740,17287,33876
32773,17289,33796
32796,17276,33904
32776,17359,33961
32740,17365,33858
32744,17437,33808
32756,17425,33788
32741,17433,33799
32768,17380,33679
32834,17349,33549
32960,17283,33494
33024,17271,33353
32992,17274,33673
32844,17325,33543
32681,17361,33388
32552,17415,33412
32558,17428,33261
32710,17441,33396
32884,17386,33349
33084,17312,33350
33144,17299,33237
33148,17257,33152
33061,17295,33041
32916,17302,32920
32836,17381,33177
32768,17405,33008
32716,17467,32900
32708,17421,32913
32824,17440,32910
32932,17337,32772
33045,17276,32927
33116,17317,32770
33084,17271,32680
32986,17359,32602
32896,17368,32420
32832,17404,32673
32872,17440,32501
32940,17414,32276
33008,17380,32477
33087,17341,32302
33137,17365,32372
33196,17285,32365
33236,17351,32252
33212,17327,32017
33108,17362,32300
32984,17430,32188
32869,17439,32023
32852,17415,31956
32928,17392,31840
33029,17332,31949
33124,17354,31967
33148,17293,31903
33084,17278,31647
32924,17383,31744
32761,17380,31817
32656,17404,31737
32668,17495,31698
32788,17430,31567
32932,17370,31508
33081,17337,31359
33144,17280,31627
33036,17279,31512
32882,17284,31264
32748,17377,31530
32645,17381,31396
32589,17489,31167
32600,17457,31316
32676,17415,31203
32796,17448,31260
32825,17349,31008
32844,17277,31105
32820,17302,31033
32788,17279,31108
32700,17310,30893
32644,17407,31060
32636,17409,30939
32668,17487,30726
32660,17429,30996
32652,17369,30839
32560,17365,30836
32552,17284,30727
32612,17314,30756
32636,17285,30732
32644,17310,30596
32556,17372,30655
32522,17400,30422
32548,17435,30628
32552,17412,30557
32660,17386,30439
32760,17398,30492
32901,17290,30460
32932,17318,30301
32904,17286,30269
32800,17343,30220
32620,17359,30207
32444,17410,30111
32397,17483,30318
32500,17420,30222
32660,17433,30037
32800,17321,30181
32816,17317,30113
32842,17260,29904
32765,17292,30009
32676,17309,30004
32612,17380,29847
32572,17475,29804
32546,17413,29796
32520,17427,29785
32574,17422,29684
32644,17316,29768
32764,17291,29684
32860,17313,29568
32896,17273,29444
32821,17348,29692
32693,17361,29396
32500,17415,29584
32428,17462,29332
32432,17405,29504
32572,17388,29428
32748,17404,29400
32888,17292,29343
32904,17319,29284
32788,17268,29253
32644,17321,29257
32516,17412,28972
32504,17408,29029
32544,17455,28953
32596,17411,28936
32681,17383,28847
32824,17399,28888
32920,17293,28911
32972,17255,28900
32948,17301,28801
32877,17316,28584
32772,17425,28708
32612,17419,28664
32528,17472,28481
32516,17415,28476
32568,17415,28346
32672,17319,28537
32760,17341,28396
32820,17278,28225
32800,17276,28385
32756,17348,28179
32656,17364,28061
32576,17425,28247
32568,17425,28151
32636,17431,28152
32772,17414,27907
32872,17317,27924
32940,17305,27804
32928,17343,27887
32868,17283,27788
32800,17320,27812
32724,17422,27814
32704,17409,27532
32609,17447,27584
32536,17477,27440
32592,17389,27551
32736,17378,27357
32840,17301,27509
32872,17332,27412
32821,17291,27296
32776,17373,27280
32768,17368,27130
32764,17433,27126
32712,17424,27020
32705,17437,27067
32752,17370,26927
32848,17335,26964
32937,17316,26860
32952,17321,26837
32952,17289,26930
32856,17402,26855
32709,17391,26784
32596,17474,26700
32564,17436,26548
32688,17476,26629
32864,17383,26452
32984,17377,26492
32996,17281,26369
32940,17293,26391
32924,17277,26303
32892,17335,26356
32808,17455,26212
32684,17433,26276
32656,17485,26265
32668,17437,26110
32728,17457,26084
32785,17343,26148
32828,17277,25921
32840,17304,26095
32788,17277,26026
32648,17351,25885
32476,17370,25934
32380,17435,25744
32404,17426,25836
32464,17432,25682
32576,17375,25703
32754,17343,25618
32904,17347,25628
32881,17274,25583
32801,17301,25613
32740,17385,25560
32698,17379,25640
32620,17431,25632
32580,17492,25604
32640,17412,25604
32744,17401,25559
32880,17324,25516
32940,17295,25494
32897,17264,25339
32788,17309,25464
32669,17316,25489
32604,17408,25312
32576,17419,25378
32596,17482,25449
32600,17422,25279
32620,17417,25334
32752,17324,25300
32868,17301,25448
32928,17333,25429
32964,17286,25421
32943,17360,25436
32778,17376,25300
32592,17442,25377
32492,17435,25292
32600,17471,25470
32748,17372,25447
32844,17356,25300
32876,17285,25511
32860,17316,25439
32880,17305,25380
32856,17406,25534
32754,17397,25479
32660,17476,25427
32590,17437,25607
32556,17453,25606
32644,17376,25461
32816,17348,25636
33000,17286,25517
32964,17288,25625
32869,17380,25586
32728,17345,25758
32648,17381,25725
32576,17477,25687
32564,17450,25910
32616,17415,25818
32688,17397,25829
32797,17325,25972
32880,17305,26034
32952,17352,25936
32908,17308,26180
32828,17332,26196
32704,17405,26092
32621,17421,26224
32608,17449,26372
32668,17420,26336
32758,17394,26453
32924,17396,26378
32981,17302,26496
33013,17328,26539
32972,17297,26726
32864,17394,26756
32696,17389,26681
32608,17482,26869
32564,17449,26938
32640,17484,26897
32756,17397,27084
32928,17394,27031
33008,17313,27228
32948,17335,27180
32900,17318,27401
32878,17396,27460
32808,17392,27433
32796,17503,27492
32808,17460,27511
32800,17496,27778
32764,17401,27804
32744,17331,27796
32792,17321,27892
32820,17277,27865
32896,17341,28066
33000,17342,28012
33028,17424,28108
32957,17430,28154
32704,17490,28313
32536,17428,28284
32573,17400,28406
32720,17396,28479
32876,17300,28645
33030,17312,28695
32936,17301,28775
32740,17392,28829
32542,17389,28933
32500,17449,28941
32652,17496,28916
32996,17427,29060
33364,17402,29078
33840,17331,29224
34292,17309,29164
34656,17275,29377
34908,17359,29462
35204,17348,29528
35664,17437,29626
36092,17433,29652
36360,17494,29758
36468,17452,29642
36452,17391,29957
36228,17364,29989
35680,17312,29924
35180,17318,30104
34740,17383,30074
34133,17356,30222
33140,17434,30215
31996,17532,30400
31540,17469,30488
31633,17480,30559
31948,17396,30580
32324,17391,30692
32524,17306,30762
32600,17347,30860
32628,17320,30801
32620,17353,30756
32532,17450,30999
32460,17465,31108
32412,17510,31012
32440,17436,31188
32516,17440,31221
32556,17351,31364
32601,17305,31385
32605,17350,31444
32524,17311,31324
32437,17376,31708
32336,17402,31700
32217,17461,31824
32217,17501,31799
32260,17436,31761
32340,17439,31839
32388,17340,31872
32516,17317,31977
32600,17361,31917
32612,17328,32263
32540,17430,32229
32394,17430,32199
32284,17451,32284
32244,17516,32412
32328,17446,32292
32412,17481,32542
32644,17356,32564
32781,17380,32567
32820,17311,32620
32764,17309,32478
32578,17368,32806
32440,17472,32824
32436,17447,32961
32440,17479,32917
32476,17503,33044
32592,17392,32803
32780,17365,33076
32912,17305,32852
32988,17303,33148
32868,17358,33174
32680,17353,33285
32460,17428,33020
32364,17456,33216
32432,17528,33196
32584,17438,33247
32688,17444,33159
32705,17359,33481
32644,17362,33452
32601,17301,33532
32605,17369,33492
32540,17356,33552
32432,17441,33512
32316,17447,33465
32324,17470,33482
32401,17468,33551
32504,17394,33529
32632,17358,33672
32775,17301,33780
32892,17338,33709
32924,17316,33660
32808,17408,33872
32688,17421,33710
32608,17532,33559
32596,17479,33829
32692,17511,33692
32840,17409,33844
32964,17396,33932
33052,17303,33850
33008,17316,33792
32968,17315,33780
32918,17376,33681
32776,17488,33859
32712,17461,33877
32752,17542,33975
32902,17454,33836
33029,17477,33645
33189,17358,33864
33188,17308,33817
33029,17334,33852
32858,17327,33892
32736,17423,33781
32608,17428,33820
32568,17449,33774
32557,17487,33660
32616,17438,33541
32732,17422,33877
32888,17357,33668
33032,17368,33489
33136,17306,33832
33121,17377,33741
32996,17361,33655
32792,17439,33655
32672,17452,33521
32620,17471,33677
32636,17516,33636
32724,17408,33730
32900,17399,33629
33104,17316,33671
33190,17352,33581
33100,17324,33466
32820,17418,33577
32580,17431,33536
32432,17497,33572
32412,17467,33504
32548,17452,33517
32736,17434,33207
32876,17346,33422
32952,17326,33181
32836,17385,33492
32624,17351,33384
32464,17445,33372
32457,17437,33324
32424,17527,33204
32484,17480,33159
32544,17437,33021
32612,17449,33293
32732,17371,33215
32748,17314,33151
32696,17319,33140
32644,17360,33191
32592,17364,33157
32508,17444,33204
32424,17524,33089
32380,17485,33154
32400,17488,32843
32452,17399,33118
32592,17371,33005
32632,17313,33061
32644,17324,32965
32592,17381,32960
32464,17370,32919
32330,17451,32763
32324,17460,32855
32328,17501,32621
32377,17444,32705
32432,17415,32668
32576,17409,32724
32736,17324,32631
32887,17364,32716
32856,17320,32572
32657,17376,32657
32404,17452,32692
32356,17457,32600
32476,17480,32608
32628,17461,32314
32776,17463,32405
32852,17350,32373
32868,17325,32452
32758,17370,32408
32615,17329,32293
32484,17386,32343
32396,17500,32319
32384,17458,32319
32396,17493,32367
32412,17516,32007
32500,17407,32081
32637,17369,32079
32736,17399,32036
32712,17319,32020
32654,17362,32023
32634,17374,31956
32630,17445,31980
32568,17501,31924
32500,17470,31841
32532,17480,31801
32612,17395,31943
32616,17380,31888
32632,17316,31900
32596,17364,31796
32556,17338,31682
32476,17410,31737
32332,17487,31820
32304,17461,31488
32337,17494,31562
32404,17447,31495
32528,17415,31605
32688,17414,31581
32828,17319,31572
32813,17332,31596
32764,17409,31524
32593,17383,31512
32404,17466,31463
32324,17466,31487
32390,17480,31173
32556,17485,31300
32724,17401,31337
32912,17375,31332
32896,17380,31333
32784,17317,31257
32680,17381,31255
32656,17384,31214
32584,17468,31209
32524,17466,31158
32532,17493,31176
32536,17511,30885
32598,17419,31013
32644,17390,30940
32732,17319,30906
32812,17357,30791
32820,17335,31045
32708,17421,30944
32601,17432,30868
32565,17493,30882
32596,17545,30877
32632,17453,30838
32780,17428,30863
32896,17409,30572
32981,17321,30729
32908,17331,30602
32736,17411,30599
32512,17384,30617
32384,17456,30646
32440,17553,30689
32560,17476,30381
32632,17462,30509
32648,17469,30501
32637,17367,30479
32705,17317,30385
32772,17332,30348
32756,17423,30337
32648,17401,30412
32525,17470,30467
32493,17471,30377
32472,17530,30332
32508,17451,30319
32632,17439,30304
32788,17430,30103
32856,17324,30290
32860,17354,30222
32868,17336,30126
32832,17398,29966
32752,17509,30160
32668,17478,29939
32657,17531,30204
32728,17453,29911
32856,17429,29977
32956,17393,29944
32972,17321,30090
32920,17334,30031
32808,17343,30084
32656,17405,30000
32524,17497,29959
32540,17491,29959
32640,17520,29878
32740,17452,29817
32836,17420,29916
32864,17356,29780
32772,17343,29788
32640,17388,29751
32616,17345,29879
32620,17422,29906
32568,17439,29840
32472,17485,29908
32420,17509,29681
32500,17459,29841
32680,17422,29633
32816,17400,29770
32864,17320,29597
32848,17331,29722
32732,17380,29641
32584,17463,29749
32500,17446,29836
32540,17481,29569
32644,17500,29701
32732,17517,29744
32832,17410,29752
32900,17371,29772
32940,17409,29736
32924,17340,29603
32840,17345,29733
32797,17413,29758
32684,17447,29740
32661,17500,29740
32736,17478,29704
32832,17467,29751
32940,17476,29769
32956,17372,29790
33006,17396,29712
33009,17337,29807
32948,17387,29900
32864,17391,29654
32768,17449,29784
32760,17498,29751
32788,17549,29892
32840,17455,29967
32968,17420,29767
33120,17412,30008
33192,17327,29764
33224,17334,29860
33124,17372,29910
33004,17391,30037
32844,17456,30130
32716,17511,29872
32656,17478,29988
32669,17474,29923
32792,17466,30040
32904,17352,30117
32992,17332,30227
33008,17355,30274
32925,17346,30291
32788,17415,30295
32728,17465,30192
32796,17541,30310
32880,17478,30236
32954,17477,30400
32985,17474,30404
33028,17360,30505
33128,17345,30588
33044,17384,30429
32921,17348,30572
32847,17409,30661
32768,17467,30525
32728,17541,30639
32736,17482,30616
32720,17484,30708
32693,17460,30805
32728,17356,30549
32876,17341,30684
32984,17358,30625
33080,17352,30774
33012,17409,30593
32788,17506,30719
32680,17483,30833
32668,17495,30852
32783,17508,30781
32960,17410,30865
33068,17381,30912
33112,17399,30624
33044,17326,30725
32884,17361,30804
32692,17397,30831
32604,17470,30831
32564,17540,30838
32648,17495,30868
32869,17511,30800
33300,17408,30889
33728,17361,30647
34208,17343,30778
34676,17406,30709
34904,17357,30663
35080,17431,30513
35372,17549,30649
35836,17478,30692
36376,17506,30657
36628,17516,30588
36652,17425,30536
36532,17390,30451
36096,17424,30417
35566,17340,30386
35140,17385,30404
34468,17413,30433
33676,17479,30484
32620,17544,30384
31872,17500,30292
31761,17489,30302
32028,17481,30176
32292,17374,30142
32468,17358,30006
32568,17401,30169
32594,17359,30096
32596,17428,29953
32432,17476,29932
32312,17540,29825
32208,17566,29852
32268,17476,29769
32412,17453,29764
32424,17462,29632
32444,17333,29668
32420,17350,29621
32376,17377,29702
32252,17404,29532
32136,17476,29617
32124,17536,29447
32172,17493,29591
32232,17479,29452
32312,17474,29391
32432,17365,29353
32524,17357,29189
32528,17390,29200
32452,17361,29028
32384,17425,29228
32312,17492,29109
32276,17487,28897
32248,17495,29055
32372,17474,28973
32532,17492,28783
32629,17367,28821
32680,17348,28821
32728,17329,28610
32616,17359,28590
32484,17424,28480
32342,17515,28660
32276,17490,28521
32364,17503,28340
32488,17513,28443
32608,17412,28376
32717,17374,28380
32774,17366,28260
32736,17328,28057
32660,17375,28076
32568,17473,28100
32535,17476,27866
32492,17486,27852
32480,17512,27927
32504,17484,27740
32525,17478,27831
32648,17370,27756
32738,17356,27649
32768,17390,27527
32680,17359,27420
32500,17424,27524
32446,17526,27365
32496,17509,27412
32544,17517,27404
32724,17463,27198
32892,17434,27214
32960,17422,27142
32920,17337,27090
32952,17347,27159
32960,17413,26969
32900,17400,27039
32816,17474,27062
32708,17487,26944
32670,17490,26993
32684,17485,26858
32801,17409,26804
32950,17380,26724
33048,17369,26748
33056,17329,26689
33000,17373,26846
32856,17410,26759
32760,17468,26588
32725,17519,26740
32782,17495,26702
32900,17495,26511
33028,17413,26692
33100,17405,26500
33108,17334,26607
33080,17344,26428
32972,17429,26467
32844,17432,26520
32784,17524,26348
32785,17490,26516
32790,17513,26471
32852,17527,26284
32984,17413,26464
33132,17376,26413
33142,17372,26270
33084,17431,26284
33056,17361,26205
32903,17426,26261
32684,17508,26324
32540,17494,26141
32548,17492,26289
32724,17484,26113
32884,17455,26148
32980,17366,26239
32960,17348,26140
32820,17357,26188
32764,17441,26035
32704,17414,26196
32604,17473,26149
32532,17551,25996
32528,17582,26097
32660,17464,25921
32764,17439,26013
32841,17406,25883
32900,17340,26020
32952,17341,26001
32948,17391,25801
32744,17452,25911
32628,17465,25904
32552,17512,25753
32500,17501,25784
32592,17482,25824
32712,17484,25829
32836,17373,25788
32864,17359,25776
32844,17338,25596
32768,17376,25717
32692,17462,25685
32572,17464,25572
32500,17512,25591
32496,17556,25615
32545,17460,25479
32660,17440,25632
32709,17368,25502
32764,17354,25565
32748,17333,25362
32704,17403,25500
32632,17415,25506
32612,17500,25320
32504,17577,25372
32456,17501,25304
32404,17476,25328
32456,17415,25420
32564,17380,25252
32652,17375,25359
32648,17336,25207
32548,17388,25284
32376,17453,25214
32352,17537,25252
32412,17494,25184
32526,17519,25292
32652,17508,25284
32740,17413,25093
32856,17390,25153
32956,17389,25108
32976,17339,25234
32808,17375,25214
32588,17437,25057
32412,17464,25062
32368,17508,25060
32432,17545,25148
32493,17462,25087
32556,17452,24983
32660,17369,25088
32688,17360,25049
32632,17343,25060
32616,17385,24890
32604,17472,24990
32517,17472,24816
32466,17525,24903
32438,17500,24807
32456,17483,24966
32592,17470,24907
32680,17367,24729
32677,17344,24771
32648,17359,24781
32616,17440,24861
32512,17420,24836
32392,17474,24824
32412,17516,24799
32532,17561,24598
32636,17469,24735
32676,17437,24583
32740,17370,24679
32796,17360,24732
32832,17387,24540
32705,17369,24615
32588,17435,24580
32536,17531,24671
32485,17502,24652
32508,17549,24452
32612,17475,24503
32790,17507,24594
32932,17383,24476
32956,17396,24548
32893,17336,24382
32784,17412,24543
32656,17446,24502
32588,17467,24398
32516,17513,24488
32580,17493,24455
32678,17478,24293
32796,17415,24421
32884,17381,24433
32932,17341,24284
32886,17398,24424
32812,17387,24388
32680,17480,24252
32564,17486,24323
32492,17545,24336
32496,17497,24176
32620,17494,24231
32824,17415,24328
32997,17384,24307
33096,17402,24319
32972,17340,24319
32868,17392,24289
32736,17420,24100
32572,17484,24165
32450,17505,24268
32492,17508,24201
32556,17514,24173
32652,17421,24254
32736,17402,24112
32801,17340,24244
32783,17359,24255
32712,17424,24047
32592,17425,24132
32500,17489,24133
32452,17564,24261
32476,17517,24230
32564,17527,24047
32680,17426,24134
32788,17405,24096
32848,17346,24244
32832,17358,24199
32780,17381,24157
32744,17453,24151
32720,17476,24132
32693,17545,24201
32640,17499,24188
32636,17501,24169
32720,17415,24164
32820,17383,24252
32885,17409,24149
32860,17365,24324
32796,17444,24284
32724,17426,24156
32600,17489,24212
32564,17555,24222
32596,17500,24343
32689,17476,24330
32820,17446,24308
32908,17435,24327
32972,17342,24324
32986,17362,24303
32956,17379,24193
32912,17445,24279
32900,17473,24269
32928,17509,24127
33036,17525,24212
33133,17461,24286
33180,17436,24123
33236,17444,24185
33240,17355,24236
33212,17431,24064
33072,17402,24133
32876,17480,24191
32728,17473,24121
32652,17516,24133
32664,17544,23943
32862,17540,24078
33104,17421,23895
33200,17395,24013
33128,17369,23964
33088,17408,24001
33073,17378,23815
33136,17453,23967
33140,17472,23828
33074,17524,23816
32936,17497,23711
32820,17469,23829
32796,17473,23812
32804,17372,23660
32824,17364,23685
32876,17404,23657
32868,17376,23757
32764,17459,23676
32649,17543,23503
32636,17508,23546
32656,17545,23627
32722,17463,23408
32877,17446,23477
33004,17373,23559
33096,17380,23375
33068,17347,23396
33007,17431,23429
32928,17441,23449
32852,17511,23260
32781,17502,23381
32772,17516,23396
32796,17527,23204
32844,17415,23324
32992,17392,23325
33128,17342,23116
33144,17363,23188
33044,17427,23258
32800,17429,23196
32696,17489,23210
32685,17564,22998
32764,17506,23114
32872,17479,23058
32976,17450,23080
33064,17372,23089
33076,17358,22901
33000,17429,23060
32880,17393,23016
32708,17469,22847
32556,17477,22910
32508,17537,22945
32580,17498,22759
32784,17481,22820
33108,17439,22751
33432,17426,22808
33846,17341,22720
34164,17349,22729
34432,17398,22684
34644,17503,22788
34928,17485,22764
35432,17527,22692
36024,17549,22700
36544,17469,22564
36792,17453,22711
36812,17375,22681
36616,17373,22560
36220,17440,22639
35828,17399,22500
35204,17479,22574
34364,17495,22533
33436,17528,22514
32424,17543,22591
31892,17534,22574
31828,17425,22580
32024,17388,22586
32236,17372,22479
32384,17440,22577
32416,17412,22566
32320,17506,22398
32296,17498,22479
32249,17557,22564
32252,17521,22434
32332,17527,22581
32538,17422,22568
32580,17436,22600
32525,17362,22455
32532,17418,22614
32492,17396,22620
32420,17500,22550
32338,17500,22535
32309,17556,22615
32352,17509,22712
32445,17507,22540
32632,17417,22708
