ECG,EDA,RR
32788,17187,17089
32740,17235,17125
32776,17159,17161
32856,17151,17149
32932,17063,17180
32944,17089,17099
32964,17031,17171
32948,17049,17147
32888,17082,17159
32820,17173,17167
32772,17182,17115
32728,17237,17188
32768,17169,17184
32820,17105,17136
32888,17116,17197
32924,17034,17190
32916,17012,17218
32884,17093,17244
32820,17085,17160
32744,17232,17220
32668,17198,17175
32660,17175,17254
32660,17193,17289
32704,17111,17199
32782,17115,17253
32796,17021,17292
32760,17068,17257
32732,17049,17279
32652,17081,17229
32568,17157,17311
32552,17182,17278
32544,17176,17328
32568,17181,17348
32629,17125,17306
32688,17143,17352
32712,17028,17363
32738,17007,17345
32684,17061,17375
32638,17076,17332
32580,17161,17422
32551,17171,17421
32564,17237,17387
32568,17153,17464
32626,17173,17414
32716,17068,17498
32740,17108,17524
32744,17016,17441
32726,17031,17521
32660,17119,17552
32556,17139,17525
32532,17256,17559
32516,17193,17506
32588,17215,17575
32700,17111,17596
32712,17117,17649
32733,17025,17612
32717,17072,17652
32684,17055,17684
32596,17157,17659
32500,17168,17718
32436,17183,17679
32460,17177,17726
32526,17160,17753
32588,17097,17769
32648,17092,17765
32709,17017,17713
32736,17070,17824
32704,17057,17823
32644,17084,17864
32556,17124,17901
32528,17223,17903
32548,17185,17942
32600,17149,17879
32676,17160,17990
32708,17061,17990
32736,17015,18012
32772,17069,18028
32768,17038,17957
32708,17075,18076
32652,17149,18034
32624,17164,18128
32592,17173,18068
32602,17196,18148
32661,17115,18103
32756,17041,18212
32792,17041,18161
32812,17007,18245
32780,17061,18296
32710,17076,18242
32628,17144,18298
32600,17160,18237
32601,17191,18377
32656,17232,18394
32704,17120,18310
32724,17125,18439
32768,17028,18479
32776,17007,18481
32732,17103,18502
32692,17099,18434
32612,17124,18516
32572,17218,18453
32564,17182,18575
32580,17146,18596
32557,17133,18518
32576,17042,18636
32632,17036,18670
32652,16999,18553
32628,17039,18702
32528,17073,18716
32436,17166,18629
32384,17161,18760
32404,17169,18656
32456,17190,18800
32512,17116,18788
32601,17040,18729
32636,17055,18807
32673,17011,18864
32644,17037,18920
32592,17165,18788
32536,17140,18916
32480,17163,18909
32473,17234,18853
32592,17167,18981
32684,17093,19016
32785,17079,18890
32788,17009,19015
32756,17044,19069
32704,17034,18997
32640,17125,19051
32556,17149,18953
32500,17160,19111
32468,17198,19036
32500,17153,19141
32580,17184,19115
32688,17073,19172
32740,17017,19149
32716,17078,19055
32697,17039,19217
32676,17073,19236
32616,17137,19184
32552,17159,19251
32570,17187,19295
32590,17135,19185
32650,17123,19300
32696,17041,19273
32745,17037,19239
32726,17004,19348
32712,17095,19353
32636,17081,19353
32552,17125,19380
32552,17172,19401
32524,17160,19410
32544,17175,19424
32624,17095,19490
32701,17040,19487
32753,17059,19400
32756,17008,19532
32716,17113,19568
32676,17088,19456
32648,17124,19574
32560,17211,19612
32552,17184,19550
32604,17136,19587
32644,17138,19498
32705,17057,19656
32748,17011,19620
32744,17081,19701
32700,17045,19694
32644,17073,19578
32568,17181,19754
32544,17169,19788
32544,17167,19637
32604,17181,19796
32676,17101,19844
32760,17098,19774
32740,17020,19816
32716,16995,19739
32692,17086,19866
32608,17092,19756
32516,17121,19924
32488,17199,19905
32497,17171,19890
32568,17200,19973
32685,17109,19897
32760,17038,20004
32832,17067,19892
32808,17034,20037
32789,17033,19955
32704,17151,20050
32632,17141,20064
32572,17170,20100
32548,17165,20105
32610,17213,20193
32704,17099,20211
32776,17033,20191
32820,17057,20217
32804,17006,20193
32732,17022,20276
32672,17133,20275
32624,17160,20361
32592,17174,20375
32570,17164,20253
32600,17206,20348
32684,17102,20301
32760,17030,20436
32813,17061,20329
32816,17008,20493
32788,17039,20532
32737,17073,20441
32656,17178,20569
32592,17172,20500
32600,17175,20485
32652,17137,20617
32724,17089,20538
32808,17073,20618
32824,17019,20598
32792,16993,20660
32804,17084,20681
32744,17118,20729
32656,17139,20796
32621,17146,20823
32576,17212,20769
32617,17159,20832
32705,17080,20772
32788,17103,20809
32868,17015,20791
32849,16996,20847
32816,17019,20837
32740,17124,20921
32685,17141,20916
32648,17167,20941
32652,17164,21010
32688,17205,20928
32780,17125,20995
32840,17045,20912
32872,16996,21002
32900,17036,20944
32826,17026,21111
32768,17124,21072
32696,17129,21155
32660,17156,21164
32688,17209,21063
32720,17142,21117
32764,17080,21089
32813,17060,21189
32865,16993,21202
32848,17042,21205
32798,17035,21278
32772,17063,21300
32704,17166,21245
32660,17167,21284
32652,17218,21213
32700,17147,21324
32772,17154,21283
32821,17055,21375
32823,16999,21222
32816,17053,21413
32804,17034,21430
32764,17066,21444
32700,17146,21380
32652,17173,21316
32689,17156,21487
32752,17180,21530
32848,17096,21447
32932,17042,21545
32960,16996,21489
33020,17029,21485
32984,17022,21492
32968,17135,21524
32944,17134,21528
32836,17154,21482
32804,17158,21583
32808,17191,21476
32864,17099,21653
32924,17030,21574
32972,17092,21699
32968,17035,21734
32888,17047,21647
32824,17065,21657
32752,17122,21583
32744,17183,21772
32765,17150,21783
32832,17167,21639
32888,17077,21824
32968,17080,21784
32992,17012,21669
32977,16987,21854
32932,17118,21829
32900,17105,21905
32832,17131,21842
32777,17154,21938
32756,17198,21809
32780,17137,21928
32860,17084,21873
32908,17090,21908
32927,17012,21877
32928,16994,21946
32920,17078,21888
32872,17089,22062
32836,17115,22086
32804,17169,21983
32780,17156,22096
32797,17178,22115
32884,17088,22074
32925,17026,22082
32958,17051,22025
32924,17004,22183
32868,17016,22078
32760,17108,22245
32708,17114,22173
32689,17191,22131
32692,17152,22224
32756,17149,22305
32856,17079,22328
32920,17074,22231
32941,17007,22356
32928,17063,22406
32908,17033,22242
32848,17135,22415
32792,17127,22434
32704,17148,22290
32660,17236,22454
32612,17172,22469
32592,17088,22401
32636,17081,22508
32712,17011,22499
32876,16983,22425
33104,17035,22521
33388,17061,22550
33708,17133,22437
34064,17147,22605
34406,17225,22633
34764,17141,22519
35236,17077,22557
35856,17087,22463
36513,16992,22608
36876,17042,22629
36956,17029,22688
36820,17136,22583
36416,17149,22645
35856,17153,22557
35320,17188,22749
34708,17140,22676
34104,17113,22689
33152,17036,22698
32129,17053,22773
31770,17010,22833
31824,17095,22658
31940,17086,22839
32128,17207,22752
32240,17177,22685
32304,17170,22863
32348,17204,22912
32420,17092,22748
32432,17029,22885
32428,17055,22820
32404,17012,22941
32360,17039,22952
32262,17071,22968
32176,17183,22893
32124,17177,22878
32140,17158,22926
32184,17210,22992
32228,17093,22864
32288,17021,23050
32340,17015,22972
32368,16992,22889
32344,17084,23077
32280,17076,23118
32224,17117,23119
32176,17229,23104
32228,17168,22965
32265,17121,23172
32308,17108,23085
32404,17025,23082
32429,17051,23224
32432,16999,23197
32384,17014,23080
32320,17095,23273
32264,17118,23221
32233,17213,23140
32256,17164,23305
32308,17121,23286
32364,17138,23344
32404,17036,23358
32448,16993,23276
32483,17044,23286
32476,17031,23282
32404,17061,23422
32357,17149,23340
32308,17144,23267
32292,17218,23479
32312,17159,23468
32380,17092,23399
32476,17101,23502
32505,17008,23527
32524,16986,23449
32516,17073,23496
32486,17072,23532
32452,17117,23632
32460,17193,23551
32485,17144,23700
32559,17178,23581
32620,17082,23717
32701,17100,23685
32752,17008,23600
32764,16986,23813
32732,17072,23807
32680,17079,23700
32616,17111,23869
32565,17189,23921
32560,17153,23822
32620,17118,23866
32712,17120,23810
32800,17041,24024
32844,16984,24081
32820,16996,23936
32772,17008,24025
32736,17126,23946
32676,17128,24152
32648,17144,24175
32660,17160,24037
32668,17119,24188
32732,17117,24123
32804,17021,24257
32833,17025,24199
32856,16983,24308
32876,17049,24176
32812,17053,24352
32736,17140,24329
32689,17158,24223
32716,17227,24405
32772,17156,24337
32871,17087,24259
32960,17023,24444
32972,17045,24408
32968,16998,24326
32956,17013,24511
32904,17125,24556
32812,17149,24398
32784,17159,24532
32773,17149,24570
32792,17188,24457
32868,17089,24583
32921,17029,24583
32980,17081,24677
32968,17021,24718
32900,17031,24570
32836,17056,24756
32781,17124,24659
32752,17141,24612
32740,17200,24821
32741,17127,24756
32784,17119,24906
32816,17028,24748
32812,17049,24934
32788,16999,24963
32756,17010,24876
32678,17075,24885
32629,17195,25076
32593,17167,25026
32577,17210,25161
32608,17132,25002
32648,17139,25225
32684,17022,25263
32720,17021,25206
32704,16982,25343
32656,17060,25222
32544,17061,25287
32453,17133,25448
32432,17233,25422
32416,17159,25568
32448,17116,25469
32480,17078,25671
32516,17095,25697
32552,16998,25797
32556,17069,25660
32532,17035,25834
32440,17055,25956
32336,17145,25820
32344,17160,25964
32302,17239,26100
32337,17126,25959
32425,17065,26183
32516,17029,26172
32564,16984,26124
32568,17035,26349
32518,17009,26281
32413,17113,26495
32340,17122,26361
32306,17144,26551
32335,17203,26661
32360,17120,26522
32436,17065,26730
32448,17072,26834
32524,16992,26700
32561,16979,26823
32532,17013,26885
32492,17047,26944
32448,17167,27095
32412,17174,27207
32412,17159,27086
32456,17111,27161
32509,17085,27284
32548,17015,27394
32592,16980,27456
32584,17038,27363
32560,17033,27492
32492,17062,27540
32428,17167,27688
32420,17158,27664
32416,17146,27655
32412,17113,27885
32444,17088,27828
32540,17011,27942
32596,17046,28068
32594,16982,28071
32564,17007,28051
32496,17114,28264
32450,17128,28329
32416,17141,28206
32405,17181,28448
32436,17127,28545
32500,17065,28401
32612,17030,28664
32632,16980,28647
32657,17015,28719
32593,17025,28878
32544,17055,28855
32460,17133,28948
32416,17141,29095
32420,17189,29036
32458,17118,29207
32532,17061,29096
32605,17041,29265
32684,16989,29487
32700,17036,29317
32664,17026,29551
32576,17053,29575
32496,17140,29728
32478,17149,29852
32483,17142,29689
32518,17140,29908
32602,17065,30042
32670,17009,29884
32680,17018,30157
32716,16993,30324
32708,17009,30292
32660,17120,30262
32600,17119,30388
32548,17135,30343
32524,17178,30533
32572,17107,30767
32641,17089,30628
32736,17021,30769
32792,16974,30901
32760,17039,30967
32712,17026,31004
32672,17046,31038
32620,17135,30973
32576,17154,31204
32568,17132,31239
32644,17163,31415
32740,17079,31588
32765,17079,31421
32816,16997,31623
32832,16975,31791
32753,17031,31659
32664,17076,31807
32636,17100,31912
32588,17135,32007
32616,17183,31976
32652,17123,32067
32720,17071,32132
32776,17007,32255
32832,17043,32374
32832,16992,32325
32776,17005,32426
32748,17113,32592
32676,17123,32751
32660,17133,32633
32646,17190,32823
32712,17126,32876
32804,17147,32872
32864,17029,33015
32900,16978,32972
32908,16973,33085
32864,17034,33250
32780,17057,33431
32712,17097,33388
32672,17152,33365
32692,17132,33532
32748,17167,33612
32816,17076,33785
32864,17001,33512
32908,17031,33766
32924,16980,33813
32904,16999,33968
32848,17092,34096
32765,17123,34124
32708,17139,34296
32688,17202,34276
32736,17138,34440
32844,17070,34403
32917,17000,34368
32944,17039,34361
32932,16993,34513
32896,16997,34652
32829,17109,34761
32736,17122,34950
32716,17140,34624
32712,17208,34927
32740,17127,35065
32817,17067,35117
32916,17090,35073
32952,16996,35326
32956,16973,35137
32940,17022,35310
32864,17052,35429
32760,17100,35508
32688,17178,35633
32688,17150,35684
32764,17103,35732
32806,17085,35810
32897,17021,35882
32908,16973,35972
32897,17036,36012
32864,17020,36000
32840,17050,36080
32785,17151,36178
32788,17143,36340
32796,17190,36344
32828,17119,36284
32888,17051,36541
32952,17066,36575
32989,16996,36487
32976,16967,36734
32936,17052,36544
32880,17097,36948
32820,17126,36903
32788,17150,37036
32800,17145,37032
32840,17104,37189
32944,17044,37168
33040,17063,37246
33096,17013,37197
33081,16983,37340
33024,17078,37432
32976,17083,37476
32916,17115,37319
32862,17226,37604
32868,17173,37804
32933,17122,37609
33008,17051,37716
33060,17089,37814
33064,17031,37891
33060,16986,38081
33016,17009,38077
32912,17053,38257
32816,17181,38199
32812,17184,38221
32860,17149,38304
32924,17103,38396
33020,17145,38556
33077,17042,38534
33140,17015,38668
33140,16985,38624
33120,17013,38567
33065,17051,38551
33004,17164,38761
32952,17153,38997
32924,17133,38960
32964,17190,39120
33040,17076,39073
33062,17015,39228
33128,16967,39213
33152,17060,39372
33080,17064,39288
33049,17060,39316
32988,17098,39540
32944,17200,39132
32913,17156,39473
32920,17100,39732
32948,17123,39673
33017,17033,39684
33030,16969,39820
33004,17029,39844
32956,17009,39845
32924,17050,39925
32916,17187,39972
32872,17132,40006
32868,17193,40041
32940,17131,40173
33012,17045,40248
33076,17037,40348
33140,16978,39981
33120,17039,40276
33060,17007,40572
32960,17111,40350
32888,17113,40549
32832,17128,40599
32844,17191,40684
32924,17111,40870
33000,17065,40799
33064,16997,41005
33089,17060,40909
33117,16989,40959
33100,17004,40708
33048,17047,40916
32956,17154,41079
32920,17150,41178
32926,17127,41351
32972,17157,41009
33044,17070,41191
33124,17001,41307
33140,17037,41428
33144,16988,41636
33053,17001,41180
32912,17117,41432
32836,17123,41615
32784,17126,41666
32820,17199,41784
32876,17119,41783
32984,17052,41969
33044,17063,41861
33076,16983,41944
33085,16967,41911
33080,17000,41991
33004,17060,42196
32916,17109,42092
32856,17203,42084
32848,17171,42132
32880,17103,42260
32910,17052,42443
32981,17025,41950
32992,16966,42421
32977,17009,42479
32952,16997,42420
32908,17109,42560
32840,17113,42692
32828,17125,42613
32840,17163,42615
32852,17117,42798
32934,17045,42752
32964,17057,42759
33020,17012,42457
32976,16981,42892
32948,16996,42581
32892,17145,42853
32840,17151,42780
32825,17151,42988
32864,17137,42777
32864,17094,43101
32972,17047,42816
32980,17029,43093
33036,16980,43197
33029,16962,43278
32992,17029,43280
32912,17049,43431
32832,17154,43488
32809,17139,43173
32820,17202,43405
32868,17112,43556
32942,17044,43645
32986,17076,43669
32964,16984,43708
32888,16974,43741
32812,17069,43399
32788,17061,43620
32804,17177,43831
32892,17141,43476
33125,17129,43757
33452,17143,43864
33924,17055,43981
34440,16999,43965
34864,17020,43693
35164,16967,44092
35560,17042,43925
36141,17052,44092
36740,17146,43796
37124,17135,44189
37232,17213,44140
37172,17118,44078
36832,17064,44212
36116,17127,44184
35456,17012,44352
34968,16990,44322
34296,17013,44151
33184,17146,44364
32064,17167,44404
31657,17175,44476
31849,17162,44461
32160,17101,44143
32488,17135,44400
32744,17036,44246
32884,16987,44421
32932,16972,44359
32896,17071,44474
32804,17068,44436
32708,17098,44496
32636,17197,44343
32588,17154,44564
32636,17095,44388
32640,17109,44576
32644,17020,44599
32652,16967,44724
32644,17039,44634
32632,17023,44806
32520,17066,44726
32440,17101,44844
32480,17156,44752
32528,17135,44900
32544,17094,44862
32612,17079,44565
32648,17017,44789
32677,16977,44729
32700,16965,44935
32652,17053,44935
32604,17048,44636
32569,17177,44900
32516,17148,44917
32504,17126,45044
32556,17127,44999
32648,17047,44981
32709,16994,44916
32736,16995,45096
32748,16967,45040
32696,17065,45112
32664,17071,45037
32612,17100,45135
32602,17157,45063
32624,17127,45148
32704,17126,45052
32768,17048,44980
32820,17014,45156
32820,17069,45063
32816,16983,44957
32788,17085,45165
32728,17067,45009
32684,17156,45127
32644,17136,44807
32612,17197,45092
32677,17120,45127
32776,17095,44856
32850,16997,45068
32888,16998,45132
32920,17061,44983
32912,17013,45152
32877,17116,45031
32800,17116,45076
32764,17181,44889
32724,17124,45160
32780,17124,45017
32868,17049,45087
32948,17059,45073
32992,16991,44964
32984,16964,44951
32984,17039,45042
32912,17068,44948
32884,17114,45093
32848,17149,44893
32860,17207,45012
32940,17110,44655
33016,17044,44863
33101,17034,44833
33160,16978,44964
33140,17032,44908
33080,17008,44596
33012,17109,44900
32964,17120,44777
32876,17197,44677
32832,17143,44816
32880,17092,44629
32944,17063,44716
33021,16996,44550
33088,16981,44643
33096,16965,44596
33036,17047,44568
33008,17053,44287
32960,17151,44505
32984,17130,44456
32976,17161,44071
33012,17092,44340
33072,17092,44324
33104,16996,44180
33148,16977,44295
33104,17049,44136
33062,17007,43940
33052,17053,44077
32984,17117,44026
32916,17129,43628
32924,17142,43780
32960,17095,43753
32990,17060,43693
33016,16991,43695
33056,17024,43754
33056,16990,43679
33012,17010,43260
32936,17072,43396
32829,17102,43385
32805,17180,43380
32817,17140,43396
32856,17161,42942
32916,17064,43105
32964,17064,43247
32970,16980,42841
32961,17020,43078
32956,16996,42960
32877,17082,42850
32776,17102,42887
32740,17174,42657
32696,17125,42844
32740,17149,42375
32796,17055,42601
32796,16996,42583
32820,16992,42589
32796,17059,42197
32744,17049,42224
32677,17073,42056
32593,17092,42132
32512,17182,42185
32538,17126,41679
32594,17125,42041
32652,17055,42004
32732,17047,41890
32752,16967,41474
32716,17016,41745
32660,17007,41713
32628,17112,41703
32596,17104,41523
32532,17187,41508
32485,17129,41307
32496,17156,41500
32576,17060,41244
32656,17031,41236
32688,16965,41088
32660,17020,41239
32624,16997,41001
32560,17087,40964
32476,17097,40863
32464,17145,40822
32456,17199,40702
32456,17101,40695
32532,17068,40484
32596,16990,40667
32656,16984,40257
32650,16964,40431
32608,17013,40352
32560,17050,40250
32488,17119,39813
32457,17190,40150
32496,17143,39996
32535,17168,39977
32584,17055,39928
32612,17060,39724
32684,16987,39825
32704,17028,39716
32637,17007,39502
32548,17109,39639
32522,17114,39125
32501,17159,39415
32485,17126,39486
32542,17129,39303
32616,17048,39303
32689,17071,39141
32698,16979,39209
32672,16963,38944
32653,17039,38928
32576,17069,38932
32532,17092,38800
32500,17150,38837
32488,17124,38303
32544,17137,38502
32632,17052,38469
32736,17045,38456
32784,16974,38253
32776,17021,38342
32720,17017,38260
32628,17049,38308
32544,17151,38121
32500,17145,37966
32532,17123,38037
32568,17130,37925
32632,17042,37807
32681,17023,37704
32696,16967,37657
32692,17031,37577
32656,17020,37485
32608,17044,37545
32496,17126,37444
32325,17125,37383
32268,17174,37241
32316,17104,37172
32384,17043,37103
32436,17009,37053
32440,16960,37076
32425,16995,36991
32416,16999,36822
32336,17099,36871
32264,17119,36465
32252,17125,36624
32225,17196,36549
32252,17123,36437
32324,17060,36414
32376,17082,36423
32372,16974,36298
32324,16963,36332
32280,17037,36268
32229,17044,36207
32204,17140,36245
32160,17132,35757
32145,17181,35868
32208,17110,35951
32268,17039,35884
32336,16999,35796
32348,16961,35668
32359,16977,35640
32336,17001,35666
32256,17055,35529
32220,17096,35428
32148,17151,35364
32152,17126,35328
32204,17091,35240
32336,17064,35175
32392,16988,35207
32412,17007,35004
32432,16983,34919
32396,16995,34943
32296,17102,34900
32236,17104,34694
32224,17187,34804
32216,17145,34695
32268,17092,34612
32320,17063,34589
32424,16992,34508
32444,17017,34429
32417,16997,34124
32380,17004,34186
32352,17119,34190
32304,17119,34208
32265,17124,34240
32268,17167,33956
32316,17091,34016
32414,17101,33983
32512,17006,33892
32525,16965,33914
32516,17013,33516
32496,17014,33564
32417,17049,33532
32364,17126,33540
32328,17127,33574
32364,17153,33293
32412,17091,33388
32456,17060,33318
32570,16994,33112
32584,17021,33197
32596,16980,33261
32568,17060,33011
32548,17068,33027
32488,17094,33049
32457,17163,32669
32460,17122,32751
32497,17143,32824
32560,17053,32744
32620,16996,32742
32676,17015,32413
32688,16970,32542
32648,17093,32560
32588,17079,32286
32484,17093,32374
32448,17176,32239
32484,17145,32232
32508,17089,32293
32624,17082,32165
32657,17007,32130
32677,16966,31881
32692,16965,31909
32640,17039,31871
32588,17061,31879
32544,17099,31751
32532,17129,31854
32564,17120,31719
32616,17140,31712
32680,17047,31404
32708,16992,31544
32756,17020,31561
32780,16976,31479
32752,17004,31429
32700,17047,31356
32656,17172,31204
32598,17195,31184
32588,17151,31116
32664,17093,31174
32792,17102,31199
32820,17014,30853
32808,16959,30974
32800,17029,30927
32785,17013,30908
32724,17124,30808
32652,17137,30802
32608,17151,30560
32568,17124,30702
32628,17134,30700
32732,17046,30542
32828,16987,30590
32852,16996,30422
32876,16965,30534
32824,17060,30240
32789,17055,30413
32724,17100,30445
32676,17187,30188
32721,17143,30254
32744,17089,30223
32812,17072,29991
32908,17011,30113
32972,16964,30108
32948,17031,30010
32905,17016,29847
32868,17049,29870
32804,17159,29806
32776,17131,29896
32768,17123,29935
32836,17121,29620
32916,17054,29663
33005,17060,29744
33020,16969,29573
33009,16964,29652
33004,16993,29605
32945,17090,29575
32873,17117,29581
32812,17125,29305
32856,17123,29468
32916,17141,29217
32932,17051,29278
33005,16987,29220
33072,17055,29221
33028,16974,29256
33012,16995,29052
32941,17074,29161
32894,17093,29215
32876,17191,28937
32860,17135,29060
32872,17087,29085
32992,17063,28808
33056,16993,28855
33092,17051,28898
33108,17024,28887
33072,17016,28804
33004,17049,28662
32980,17118,28704
32960,17124,28724
32964,17181,28705
33016,17101,28618
33080,17031,28525
33120,17058,28602
33133,16980,28457
33156,17052,28545
33164,17011,28340
33096,17068,28474
33060,17106,28410
33012,17125,28455
33004,17133,28244
33045,17081,28190
33084,17077,28229
33132,16987,28300
33192,16997,28052
33133,16971,28152
33096,17061,28162
33081,17085,28146
32992,17109,28175
32966,17125,27911
33024,17144,28038
33076,17087,28012
33129,17044,28034
33160,16995,27954
33176,17044,27864
33168,16975,27837
33166,16996,27871
33076,17065,27720
33024,17095,27799
33013,17155,27631
33038,17117,27764
33068,17157,27726
33140,17053,27708
33200,17052,27528
33248,16980,27648
33228,16957,27588
33180,17038,27601
33148,17061,27417
33104,17095,27551
33076,17170,27425
33060,17125,27356
33100,17079,27480
33140,17048,27485
33188,17042,27264
33252,16982,27308
33232,16963,27358
33172,17042,27204
33124,17049,27338
33048,17161,27207
33048,17143,27245
33060,17118,27120
33084,17146,27156
33150,17049,27254
33258,16988,27044
33310,17022,27179
33316,16991,27179
33256,17004,26981
33192,17042,27016
33136,17148,26940
33025,17150,26981
32924,17141,26900
32888,17080,26933
32945,17125,26852
33040,17007,26928
33248,16958,26857
33488,17023,26820
33790,17015,26808
34116,17046,26795
34408,17110,26756
34772,17119,26839
35116,17134,26823
35536,17078,26668
36136,17080,26804
36784,16985,26765
37260,17028,26816
37420,16985,26585
37336,17088,26562
37004,17077,26710
36404,17180,26560
35792,17142,26712
35200,17225,26500
34640,17108,26630
33792,17046,26587
32772,17022,26633
32276,16972,26420
32284,17020,26562
32416,17007,26469
32536,17094,26529
32660,17103,26342
32721,17152,26486
32776,17125,26373
32832,17124,26485
32892,17053,26267
32872,16987,26399
32853,17025,26429
32821,16973,26306
32728,16999,26364
32692,17107,26252
32612,17113,26247
32540,17135,26176
32524,17199,26185
32576,17102,26194
32652,17039,26268
32732,17024,26265
32792,16956,26208
32772,16973,26166
32736,16996,26168
32672,17063,26044
32616,17169,26192
32564,17137,26152
32576,17190,26120
32640,17092,26036
32716,17028,26139
32748,17003,26135
32805,17054,26012
32780,16978,26130
32762,17063,25936
32716,17065,26085
32637,17095,26058
32592,17138,25945
32602,17141,26048
32644,17079,25931
32688,17053,26058
32712,16983,25819
32732,16971,25829
32725,16960,25968
32736,17028,25865
32692,17056,25770
32633,17092,25930
32584,17159,25936
32624,17120,25738
32628,17117,25885
32742,17029,25762
32804,17055,25700
32860,16972,25828
32892,16953,25850
32868,17023,25661
32796,17042,25801
32712,17108,25689
32660,17166,25709
32669,17118,25760
32744,17143,25661
32833,17041,25648
32917,17057,25750
32932,16976,25597
32932,17020,25727
32916,17014,25762
32842,17113,25576
32797,17124,25628
32756,17120,25607
32804,17181,25700
32864,17101,25652
32912,17028,25526
32960,17052,25561
32976,16962,25647
33000,17024,25492
32976,17015,25642
32904,17053,25509
32780,17167,25485
32758,17142,25509
32821,17208,25517
32828,17109,25512
32912,17029,25417
32956,16996,25530
32984,16958,25500
32992,16983,25496
32968,16996,25351
32908,17126,25367
32856,17132,25282
32820,17132,25317
32824,17113,25385
32881,17113,25278
32924,17031,25361
33000,16999,25274
33036,16957,25246
33016,16992,25206
32992,16998,25183
32900,17088,25292
32840,17093,25117
32808,17149,25072
32804,17117,25199
32864,17122,25068
32876,17034,25037
32932,17049,25007
32960,16976,25090
32942,17053,24974
32902,17006,25080
32848,17050,24864
32784,17117,25028
32733,17120,24892
32748,17177,24880
32792,17095,24847
32832,17103,24879
32897,16993,24932
32940,17047,24709
32912,16982,24741
32856,17082,24850
32737,17063,24750
32608,17093,24782
32592,17143,24687
32564,17120,24673
32604,17146,24606
32638,17041,24757
32700,16975,24653
32740,16978,24649
32680,16965,24547
32604,17037,24665
32524,17055,24583
32465,17162,24468
32440,17137,24637
32452,17121,24557
32476,17136,24498
32552,17048,24493
32612,17032,24583
32620,16964,24457
32584,17016,24512
32502,17013,24388
32428,17109,24534
32358,17107,24515
32316,17129,24349
32272,17205,24481
32346,17097,24380
32437,17097,24354
32532,16994,24345
32584,17023,24445
32560,16974,24471
32484,16996,24313
32432,17072,24407
32388,17131,24425
32350,17139,24282
32312,17113,24382
32368,17105,24439
32464,17079,24253
32568,16989,24413
32628,17018,24348
32637,16962,24245
32584,17060,24402
32504,17063,24414
32422,17188,24230
32381,17133,24378
32457,17184,24281
32508,17100,24407
32570,17069,24212
32652,16980,24234
32660,16976,24384
32624,16967,24330
32576,17073,24199
32508,17057,24317
32472,17089,24364
32424,17167,24300
32436,17121,24296
32468,17142,24276
32516,17043,24380
32560,17061,24286
32596,16969,24397
32600,16961,24252
32552,17054,24381
32472,17056,24268
32382,17158,24380
32344,17124,24249
32336,17180,24280
32364,17093,24389
32416,17026,24318
32456,16991,24432
32520,17031,24222
32501,16981,24418
32456,16993,24316
32356,17108,24256
32260,17108,24439
32212,17112,24461
32248,17157,24287
32296,17073,24431
32336,17039,24463
32389,17051,24449
32404,16974,24464
32418,16956,24313
32357,17047,24500
32261,17063,24510
32177,17092,24352
32136,17169,24516
32164,17123,24460
32188,17133,24336
32240,17031,24377
32264,17047,24508
32280,16969,24564
32268,17017,24348
32224,16997,24432
32136,17087,24536
32084,17086,24439
32092,17156,24548
32117,17111,24392
32156,17127,24553
32228,17021,24518
32276,17009,24398
32268,16964,24576
32260,17048,24581
32232,17013,24397
32196,17060,24514
32101,17093,24588
32084,17141,24500
32077,17109,24620
32140,17109,24418
32208,17023,24592
32288,17039,24580
32280,16961,24486
32277,17049,24481
32182,17009,24518
32092,17047,24498
32048,17180,24513
31988,17132,24461
32016,17113,24596
32096,17126,24608
32128,17040,24488
32180,16974,24534
32244,17008,24634
32188,16978,24634
32180,16993,24651
32100,17076,24524
32044,17181,24473
32032,17134,24640
32064,17177,24617
32128,17093,24652
32180,17019,24508
32296,16997,24608
32324,16949,24658
32304,16972,24660
32272,17033,24676
32192,17047,24477
32172,17142,24664
32180,17125,24545
32190,17151,24663
32236,17073,24511
32300,17040,24665
32380,16975,24660
32422,17009,24514
32396,16978,24658
32336,16988,24524
32272,17103,24690
32220,17110,24710
32180,17119,24540
32224,17148,24682
32256,17081,24696
32368,17092,24588
32448,16993,24640
32476,17017,24737
32364,16962,24533
32348,17044,24608
32288,17045,24724
32216,17117,24631
32209,17118,24743
32200,17129,24570
32228,17079,24616
32295,17055,24743
32348,16977,24708
32392,16999,24572
32428,16961,24636
32380,17060,24703
32316,17057,24656
32213,17168,24761
32208,17141,24661
32208,17109,24770
32265,17133,24672
32324,17033,24740
32380,16976,24802
32400,16986,24650
32396,16964,24793
32340,16991,24656
32288,17062,24804
32229,17092,24708
32197,17133,24844
32254,17112,24685
32252,17090,24837
32308,17028,24757
32412,17004,24670
32484,16948,24861
32460,17010,24811
32432,16999,24686
32380,17104,24872
32309,17106,24800
32308,17208,24847
32316,17138,24767
32368,17079,24908
32440,17057,24903
32488,16974,24764
32520,16995,24845
32524,16966,24857
32500,17059,24998
32456,17060,24838
32384,17141,24898
32392,17125,24991
32432,17174,24936
32496,17092,24893
32568,17086,25051
32637,16989,25044
32664,17045,24943
32694,16991,25095
32632,16997,25103
32556,17103,24932
32492,17098,25128
32436,17212,25028
32480,17129,25053
32524,17072,25172
32636,17056,25077
32660,16982,25211
32648,17034,25217
32648,16986,25171
32608,16999,25072
32561,17105,25135
32548,17100,25245
32492,17195,25244
32501,17108,25314
32549,17110,25213
32616,17019,25149
32644,17038,25261
32652,16965,25332
32612,17039,25168
32544,17040,25335
32489,17052,25273
32488,17124,25248
32477,17114,25357
32428,17148,25212
32456,17093,25384
32528,17100,25287
32613,16999,25257
32644,16953,25294
32616,17013,25301
32612,16996,25452
32613,17101,25272
32548,17101,25424
32498,17183,25447
32500,17111,25321
32508,17124,25345
32588,17023,25461
32656,17007,25372
32696,16948,25313
32688,16992,25397
32648,16996,25436
32588,17112,25472
32532,17115,25393
32484,17112,25436
32528,17135,25539
32596,17077,25392
32673,17087,25501
32692,16997,25422
32712,16949,25425
32708,17011,25568
32652,17011,25587
32564,17040,25479
32509,17117,25596
32469,17117,25633
32472,17171,25468
32532,17099,25651
32596,17020,25540
32608,16997,25599
32656,16948,25524
32644,16989,25672
32596,16996,25732
32544,17100,25548
32512,17105,25714
32496,17118,25632
32488,17172,25652
32540,17082,25747
32602,17027,25641
32668,17030,25590
32700,16972,25774
32628,16958,25748
32556,17047,25645
32492,17062,25804
32440,17140,25689
32404,17124,25681
32428,17176,25668
32492,17078,25840
32552,17095,25735
32628,16976,25872
32670,16984,25760
32684,16956,25708
32624,17061,25882
32564,17060,25895
32552,17091,25719
32569,17148,25903
32608,17114,25797
32696,17113,25947
32748,17045,25751
32788,17034,25772
32820,16953,25930
32796,17005,25868
32754,17004,25783
32704,17136,25956
32640,17113,25856
32576,17120,25914
32549,17172,25857
32620,17093,25937
32736,17031,25838
32805,17036,25885
32833,16964,25924
32836,16971,25855
32764,16997,26013
32676,17104,26023
32645,17123,25876
32653,17112,25927
32640,17149,25962
32712,17078,26098
32749,17083,25918
32816,16996,26077
32832,16951,26127
32832,17009,25939
32777,16995,26100
32744,17064,26114
32676,17157,26007
32622,17133,26157
32620,17173,25977
32712,17085,26152
32804,17016,26212
32840,17028,26021
32864,16965,26172
32852,16957,26234
32822,17062,26048
32792,17082,26213
32701,17104,26278
32684,17121,26097
32704,17153,26221
32724,17085,26172
32828,17098,26127
32924,16992,26294
32968,17045,26236
32932,16968,26199
32868,16993,26164
32844,17103,26236
32788,17108,26290
32760,17120,26228
32784,17133,26289
32862,17078,26364
32896,17015,26290
32908,17033,26347
32828,16965,26406
32736,16956,26252
32668,17008,26431
32708,17039,26325
32808,17145,26292
33064,17134,26321
33408,17198,26470
33814,17093,26470
34316,17029,26349
34708,17048,26508
35012,16966,26398
35468,16951,26469
35972,17064,26461
36520,17060,26535
36828,17181,26432
36896,17141,26605
36808,17120,26415
36501,17158,26573
36020,17048,26631
35540,16988,26437
34904,16983,26490
34252,17039,26609
33204,17021,26668
32104,17121,26477
31712,17118,26641
31768,17124,26688
31990,17140,26501
32252,17076,26676
32468,17060,26656
32614,16977,26532
32628,16976,26693
32624,17052,26679
32480,17002,26568
32360,17108,26730
32285,17106,26636
32204,17118,26591
32180,17155,26660
32232,17092,26616
32296,17101,26774
32356,16995,26801
32393,16952,26644
32376,16989,26809
32328,17005,26836
32258,17051,26827
32224,17125,26850
32204,17121,26676
32216,17169,26841
32244,17077,26912
32301,17073,26727
32380,16980,26884
32416,17007,26934
32433,16976,26777
32412,17074,26953
32366,17063,26844
32320,17125,26934
32328,17117,26816
32356,17125,26973
32405,17072,26996
32480,17039,26944
32556,17024,26864
32586,16957,27020
32624,17021,27047
32592,17005,26896
32512,17050,27042
32460,17112,26989
32448,17177,27089
32464,17124,27067
32512,17132,26924
32572,17038,27071
32633,16973,27150
32632,16972,26956
32616,17024,26974
32580,17011,27132
32492,17101,27024
32428,17097,27199
32408,17141,27124
32444,17185,27029
32524,17088,27189
32584,17070,27105
32604,16974,27271
32604,16994,27069
32552,16959,27223
32456,17062,27303
32384,17050,27121
32352,17149,27292
32304,17117,27188
32340,17156,27164
32416,17092,27313
32492,17021,27344
32512,17007,27192
32548,16951,27359
32544,17017,27303
32492,17007,27224
32440,17049,27369
32404,17161,27274
32364,17146,27385
32381,17125,27245
32468,17069,27368
32572,17073,27316
32656,16994,27395
32673,16947,27340
32644,17015,27407
32568,17013,27428
32492,17048,27225
32436,17156,27276
32421,17143,27229
32460,17133,27309
32533,17073,27316
32638,17076,27370
32668,16986,27375
32696,16948,27187
32680,17015,27313
32620,17012,27268
32560,17047,27326
32524,17136,27285
32487,17129,27135
32484,17150,27120
32548,17071,27130
32644,17047,27216
32696,16968,27308
32720,16967,27104
32713,17037,27063
32664,17013,27048
32608,17098,27206
32532,17098,27173
32532,17154,27060
32528,17112,27209
32580,17119,27018
32668,17038,27134
32728,16972,27089
32744,16968,27069
32694,16957,26967
32632,17021,26916
32581,17047,27081
32552,17108,26952
32509,17122,27105
32504,17120,26924
32561,17134,26852
32601,17039,27018
32628,17049,26983
32632,16996,26836
32652,16963,26986
32576,17057,26877
32516,17060,26911
32460,17174,26940
32406,17136,26823
32368,17108,26911
32428,17096,26750
32512,17019,26844
32568,16996,26949
32569,16947,26772
32576,16970,26720
32525,17074,26881
32438,17060,26873
32360,17093,26769
32308,17135,26701
32300,17168,26720
32326,17088,26842
32396,17087,26751
32432,16991,26777
32476,16949,26744
32496,17001,26845
32440,16994,26752
32356,17075,26814
32292,17092,26690
32276,17132,26681
32272,17161,26713
32364,17071,26839
32481,17061,26892
32532,16972,26689
32548,16994,26846
32548,16967,26788
32472,17071,26676
32424,17057,26686
32381,17123,26860
32368,17117,26753
32420,17148,26863
32462,17079,26700
32532,17077,26850
32588,16992,26928
32625,16952,26724
32620,16981,26880
32584,16994,26924
32518,17116,26748
32500,17111,26897
32457,17117,26902
32484,17136,26791
32513,17071,26925
32600,17077,26828
32644,16968,26951
32676,16971,26852
32656,17017,26791
32604,17013,26961
32580,17044,26860
32492,17109,26989
32484,17118,26814
32468,17151,26983
32544,17078,26980
32614,17072,26852
32652,16996,27023
32676,16947,26926
32636,16971,26886
32604,16996,27064
32540,17063,27012
32504,17088,26925
32528,17127,26951
32580,17107,27114
32636,17091,27141
32744,17020,27005
32788,17031,27181
32824,16957,27143
32784,17021,27244
32728,17009,27108
32661,17131,27073
32616,17111,27252
32596,17118,27308
32656,17170,27143
32716,17094,27318
32796,17020,27310
32856,17009,27297
32908,16945,27204
32920,16966,27397
32876,17068,27311
32828,17068,27421
32764,17149,27295
32737,17112,27305
32764,17119,27490
32788,17117,27528
32857,17015,27484
32968,17000,27597
32980,16953,27423
32924,17008,27609
32880,16991,27544
32860,17055,27737
32812,17157,27614
32772,17133,27556
32824,17204,27748
32876,17100,27762
32950,17015,27791
33016,17027,27706
33056,16949,27877
32978,17015,27847
32946,17010,27985
32884,17093,27913
32820,17091,27828
32832,17137,28036
32852,17104,28044
32900,17112,28140
32968,17036,27948
33032,16968,28141
33072,16980,28221
33048,16959,28080
32970,17063,28245
32880,17062,28345
32824,17088,28145
32828,17155,28309
32792,17098,28374
32872,17093,28247
32933,17020,28433
32981,17025,28352
32988,16965,28514
32980,16952,28628
32936,17058,28399
32876,17065,28581
32787,17091,28623
32752,17178,28688
32796,17120,28616
32856,17120,28831
32917,17015,28747
32948,17026,28644
32968,16949,28760
32929,17015,28953
32908,17006,28742
32901,17045,28844
32840,17097,28961
32800,17127,28860
32840,17101,29032
32892,17092,29135
32940,17008,29007
33020,17003,29167
33053,16947,29268
33060,17012,29106
32988,17007,29260
32896,17126,29352
32850,17095,29213
32812,17170,29383
32820,17125,29503
32876,17138,29318
32920,17034,29464
33007,17017,29603
33056,16943,29430
33032,16988,29607
32933,16992,29699
32842,17094,29506
32769,17100,29684
32710,17196,29700
32752,17123,29790
32852,17061,29850
32924,17053,29663
32981,16978,29786
33024,17009,29806
33036,16975,29977
32984,17087,30085
32948,17061,29889
32848,17101,29965
32820,17190,30012
32804,17124,30135
32908,17065,30094
32968,17073,30205
33072,16988,30300
33108,16946,30317
33096,16974,30320
33030,16997,30269
32956,17101,30218
32904,17106,30339
32877,17175,30501
32888,17100,30317
32948,17115,30478
33028,17031,30480
33124,16965,30585
33172,17020,30509
33158,16987,30620
33076,16998,30660
32976,17047,30687
32905,17135,30724
32929,17119,30887
32932,17134,30788
32976,17064,30964
33052,17044,30766
33125,16972,30908
33120,16945,30949
33120,17020,31020
33068,17009,31137
32984,17047,31167
32932,17156,31198
32912,17132,31135
32896,17105,31253
32930,17126,31310
33004,17023,31340
33052,16964,31340
33092,16956,31367
33034,16953,31437
32980,17007,31454
32936,17047,31576
32877,17148,31549
32848,17125,31620
32892,17103,31495
32968,17101,31652
33036,17008,31622
33060,17018,31632
33044,16961,31735
33026,16949,31771
32950,17029,31807
32908,17055,31925
32864,17156,31664
32840,17122,31790
32868,17100,31812
32928,17126,31968
32960,17022,32005
33012,16965,31902
33040,16961,32032
33060,16951,32007
33028,17045,32016
32936,17060,32113
32852,17166,32252
32808,17134,31940
32840,17104,32093
32913,17107,32165
32996,17009,32260
32992,17045,32309
32972,16953,32204
32973,16959,32325
32956,16992,32120
32892,17076,32305
32776,17098,32394
32801,17112,32417
32800,17152,32548
32865,17083,32248
32932,17013,32431
32992,17013,32489
33032,16957,32504
32984,16951,32592
32892,17071,32533
32816,17063,32621
32752,17092,32599
32756,17133,32569
32733,17100,32533
32780,17092,32605
32880,17013,32642
32940,17031,32690
32964,16950,32676
32948,17015,32630
32872,16999,32716
32828,17109,32676
32798,17101,32822
32744,17196,32519
32744,17118,32692
32744,17061,32781
32836,17072,32801
32912,16981,32900
32980,16941,32602
32950,16984,32772
32900,16992,32884
32820,17115,32604
32728,17109,32790
32704,17115,32876
32696,17163,32884
32781,17085,32967
32848,17015,32909
32889,16985,32881
32888,16941,32740
32892,16996,32868
32864,17015,32870
32840,17119,32937
32797,17121,33041
32764,17132,32684
32780,17097,32889
32864,17124,32924
32985,17031,32944
33052,16969,32976
33040,16996,32711
33040,16985,33063
32957,17010,32945
32845,17047,32861
32773,17149,32877
32744,17134,32969
32756,17103,32873
32844,17104,33067
32876,17012,32860
32908,17031,32981
32968,16954,32911
32980,17044,33032
32928,17023,32716
32836,17064,32845
32760,17092,32956
32706,17183,32708
32768,17114,32955
32852,17061,32993
32920,17065,32871
33004,16965,32717
33044,16968,32972
33020,16953,33012
32960,17057,32846
32892,17062,32903
32844,17090,32954
32800,17135,32911
32805,17101,32732
32860,17125,32833
32916,17028,32894
32992,16967,32948
33026,17006,32989
32992,16977,32830
32940,17081,32937
32844,17048,32933
32788,17148,33012
32728,17134,32690
32740,17103,32897
32820,17103,32890
32884,17023,32928
32920,16973,32922
32920,16942,32912
32920,16987,32972
32932,16996,32817
32892,17100,32895
32788,17104,32864
32761,17206,32982
32782,17124,32767
32836,17058,32903
32904,17055,32831
32988,16982,32775
33012,16940,32872
32928,16981,32966
32796,16998,32773
32636,17115,32871
32592,17111,32973
32630,17194,32640
32816,17121,32797
33084,17061,32884
33468,17053,32625
33912,16980,32740
34326,17012,32724
34704,16978,32812
34973,17076,32866
35228,17074,32637
35696,17119,32806
36260,17119,32548
36756,17172,32789
36956,17093,32560
36940,17022,32666
36744,17039,32676
36180,16980,32732
35608,16968,32750
34952,17015,32735
34288,17087,32712
33344,17111,32612
32226,17184,32685
31740,17133,32774
31840,17133,32580
32160,17033,32650
32357,16973,32734
32528,17039,32649
32644,17007,32733
32676,17020,32641
32640,17053,32701
32568,17145,32383
32460,17135,32628
32420,17109,32357
32453,17138,32527
32480,17061,32538
32524,16996,32520
32504,16959,32582
32500,16960,32535
32372,17068,32585
32312,17069,32495
32262,17096,32365
32296,17163,32378
32312,17121,32421
32336,17067,32421
32432,17061,32399
32487,16986,32463
32520,16944,32431
32492,17031,32508
32440,17044,32412
32412,17076,32485
32324,17095,32200
32320,17159,32429
32344,17120,32371
32408,17065,32391
32472,17095,32338
32524,16997,32359
32588,16961,32108
32568,16980,32316
32548,17000,32309
32476,17091,32277
32468,17109,32176
32417,17118,32035
32456,17166,32163
32528,17092,32050
32612,17029,32284
32700,16985,32173
32728,16946,32263
32704,16972,31954
32664,16999,32113
32576,17052,31927
32520,17135,32218
32504,17153,32118
32533,17123,32004
32592,17082,32053
32680,17007,32070
32724,17023,32078
32760,16955,31968
32732,17047,31985
32684,17017,32044
32640,17053,32065
32632,17113,31934
32644,17185,31903
32666,17113,31807
32776,17060,31897
32853,17058,31972
32908,16965,31780
32928,16994,31855
32964,16976,31871
32944,17073,31961
32876,17073,31820
32815,17142,32034
32789,17119,31816
32804,17125,31919
32848,17063,31948
32968,17044,31784
33056,16966,31636
33100,16992,31805
33064,16956,31810
32992,17039,31709
32920,17060,31778
32880,17172,31641
32848,17133,31789
32913,17173,31575
32957,17087,31652
33024,17007,31680
33076,17031,31631
33124,16987,31637
33144,16979,31577
33072,17012,31647
33012,17055,31288
32908,17095,31556
32881,17171,31345
32920,17109,31420
32968,17060,31491
33052,17047,31132
33088,16979,31293
33128,17044,31393
33104,16978,31165
33030,17079,31234
32960,17073,31136
32896,17098,31252
32894,17186,31153
32876,17137,31134
32924,17069,31088
32996,17079,31100
33028,16990,30921
33016,16950,30955
33016,17044,30889
32960,17060,30913
32892,17073,30942
32852,17097,30850
32832,17136,30767
32804,17101,30692
32840,17095,30776
32908,17026,30829
32940,16968,30500
32972,16975,30624
32936,16975,30541
32868,17003,30630
32792,17095,30652
32712,17118,30447
32702,17120,30524
32716,17165,30581
32736,17084,30276
32744,17015,30451
32793,17017,30438
32804,16963,30279
32762,17028,30351
32736,17020,30438
32705,17135,30196
32668,17114,30297
32640,17112,30365
32648,17145,30100
32692,17076,30245
32769,17007,30301
32792,17009,29989
32828,16962,30063
32784,16970,30013
32704,17005,30033
32644,17117,30001
32568,17114,30109
32524,17116,30166
32553,17165,29940
32620,17083,30055
32696,17030,30109
32754,16963,29886
32784,16970,30005
32728,16967,30021
32632,17065,29830
32588,17071,29951
32537,17093,30016
32549,17204,29730
32580,17135,29792
32640,17071,29932
32729,17077,29685
32821,16972,29868
32820,17012,29746
32776,16973,29700
32700,17001,29819
32628,17103,29884
32568,17114,29601
32568,17165,29793
32592,17118,29697
32636,17124,29779
32680,17021,29596
32732,16964,29676
32776,16961,29831
32756,16956,29553
32644,17045,29654
32562,17058,29708
32504,17142,29502
32512,17119,29696
32560,17124,29593
32620,17061,29758
32712,17031,29547
32732,16964,29672
32720,16990,29733
32732,16961,29524
32684,17064,29629
32600,17068,29649
32560,17100,29489
32572,17179,29609
32596,17108,29582
32676,17121,29451
32776,17005,29630
32844,16996,29626
32884,16943,29607
32869,17019,29425
32829,17009,29638
32750,17142,29636
32673,17120,29505
32660,17127,29572
32694,17097,29700
32768,17096,29450
32820,17011,29606
32858,17011,29500
32840,16947,29639
32848,17015,29477
32805,17014,29613
32744,17052,29541
32673,17142,29500
32656,17133,29620
32680,17095,29580
32752,17108,29499
32780,17017,29614
32844,16954,29575
32836,16963,29495
32840,16961,29682
32804,17018,29476
32760,17052,29605
32720,17135,29488
32700,17112,29641
32688,17147,29474
32728,17068,29621
32768,17005,29568
32821,17046,29463
32852,16966,29593
32808,16958,29601
32732,17039,29484
32696,17073,29609
32628,17092,29668
32613,17150,29493
32648,17106,29596
32668,17060,29577
32800,17061,29617
32840,16981,29689
32848,16942,29476
32858,17028,29585
32796,17021,29677
32676,17053,29481
32608,17119,29610
32596,17116,29502
32644,17161,29637
32704,17066,29485
32756,17043,29413
32812,17058,29610
32832,16964,29493
32821,17023,29645
32768,17021,29444
32740,17130,29593
32688,17110,29674
32669,17113,29469
32716,17120,29400
32752,17057,29585
32832,17052,29613
32864,16966,29484
32876,16988,29385
32853,16965,29476
32765,17057,29532
32720,17060,29407
32672,17156,29484
32656,17128,29462
32660,17120,29479
32744,17059,29474
32820,17036,29584
32888,16961,29668
32903,16976,29444
32872,16963,29601
32776,17052,29620
32684,17077,29480
32687,17096,29589
32673,17182,29620
32672,17124,29398
32680,17057,29592
32768,17023,29492
32804,16959,29660
32820,16965,29479
32800,17018,29414
32728,17013,29540
32644,17055,29540
32604,17151,29615
32628,17129,29532
32672,17101,29489
32716,17053,29529
32733,17046,29568
32773,16978,29628
32804,16943,29517
32788,17020,29514
32736,17015,29514
32644,17061,29512
32572,17159,29596
32588,17135,29713
32628,17167,29476
32660,17071,29588
32680,17001,29572
32756,17004,29644
32755,16956,29685
32781,16959,29658
32748,17031,29581
32688,17059,29604
32650,17097,29653
32632,17130,29566
32640,17101,29684
32684,17069,29464
32732,17005,29564
32796,17015,29621
32864,16965,29676
32836,16956,29733
32780,17074,29526
32732,17074,29600
32684,17093,29608
32680,17151,29710
32676,17101,29589
32752,17125,29588
32804,17031,29687
32832,16964,29770
32900,17004,29559
32880,16969,29612
32805,17074,29804
32732,17062,29621
32669,17155,29745
32644,17132,29836
32712,17171,29633
32762,17065,29760
32844,17074,29656
32908,16975,29796
32906,16945,29765
32825,16975,29747
32752,16999,29606
32692,17131,29760
32676,17144,29575
32665,17135,29689
32644,17100,29673
32685,17078,29805
32816,17007,29792
32884,17025,29798
32892,16959,29700
32884,17031,29822
32821,17029,29816
32744,17065,29892
32677,17102,29638
32685,17163,29724
32716,17122,29869
32732,17057,29725
32788,17031,29844
32820,16962,29817
32812,16977,29938
32816,16972,29656
32764,17074,29855
32729,17078,29949
32664,17092,29755
32676,17135,29689
32692,17107,29849
32732,17057,29828
32792,17059,29889
32832,16984,29841
32828,16944,29698
32830,16957,29910
32732,17066,29768
32660,17095,29868
32596,17108,29892
32580,17114,29908
32604,17095,29967
32708,17077,29736
32768,17001,29921
32813,17031,29819
32852,16956,29983
32848,16959,29737
32784,17071,29951
32728,17069,29831
32677,17097,29931
32692,17141,29888
32708,17113,29941
32740,17151,29825
32821,17028,29994
32828,16965,29755
32856,16945,29964
32808,16991,30012
32736,17013,29847
32684,17112,29991
32593,17118,29948
32536,17120,29988
32561,17129,29988
32609,17060,29988
32688,17065,30086
32728,16975,29879
32760,16949,30017
32740,16980,29926
32692,17013,30032
32648,17125,29876
32672,17111,30039
32685,17113,29928
32696,17112,30140
32712,17056,29879
32764,17057,30052
32852,16969,29973
32901,16994,30096
32876,16963,30034
32776,17056,29884
32709,17059,30081
32660,17145,29967
32652,17139,29981
32685,17167,30090
32760,17070,29981
32812,16998,30134
32860,16983,29976
32852,16949,30112
32828,17030,30188
32748,17024,29932
32705,17061,30105
32648,17143,30207
32620,17124,30012
32665,17131,30014
32748,17055,30147
32812,17027,30066
32880,16965,30243
32892,16958,30044
32896,16961,30164
32868,17016,30141
32772,17058,30136
32700,17134,30170
32692,17129,30096
32732,17152,30254
32764,17061,30092
32864,17049,29988
32933,16956,30203
32948,16953,30215
32924,17035,30167
32852,17021,30247
32820,17124,30030
32764,17113,30212
32736,17158,30164
32772,17097,30340
32814,17075,30143
32864,17012,30270
32870,16960,30359
32897,16981,30141
32864,16959,30285
32813,17031,30235
32796,17052,30359
32708,17115,30255
32668,17116,30189
32708,17135,30304
32804,17053,30421
32892,17065,30140
32936,16974,30324
32917,17016,30435
32872,16974,30247
32824,17063,30349
32764,17055,30362
32720,17121,30300
32720,17113,30248
32796,17158,30380
32848,17077,30456
32934,17020,30376
32908,16963,30381
32808,17014,30280
32716,16991,30402
32648,17004,30432
32692,17096,30284
32824,17120,30306
33108,17109,30304
33452,17118,30437
33852,17056,30345
34288,17022,30436
34708,16964,30343
35028,16959,30302
35408,16963,30453
35908,17023,30421
36420,17063,30484
36712,17127,30364
36792,17124,30452
36709,17161,30357
36364,17097,30357
35860,17121,30254
35366,16988,30478
34756,17044,30397
34080,16989,30405
33020,17019,30505
31948,17127,30471
31584,17133,30596
31624,17120,30384
31873,17157,30527
32137,17074,30480
32352,17101,30612
32485,16992,30319
32548,16949,30425
32512,16966,30484
32400,17062,30560
32276,17082,30535
32216,17108,30664
32188,17177,30516
32180,17101,30478
32212,17094,30386
32248,17009,30590
32292,17004,30628
32292,16953,30512
32192,17033,30624
32174,17018,30575
32112,17062,30536
32072,17152,30669
32084,17131,30719
32117,17165,30567
32200,17063,30703
32272,17060,30664
32350,16980,30612
32364,16940,30745
32352,17057,30761
32308,17028,30761
32248,17060,30824
32202,17168,30599
32208,17140,30780
32228,17098,30889
32324,17114,30713
32413,17022,30840
32396,17034,30720
32396,16961,30956
32388,17025,30727
32372,17027,30854
32324,17061,30834
32280,17175,30913
32300,17135,31008
32352,17100,30915
32400,17119,30850
32492,17023,30848
32560,16963,30964
32598,16997,31041
32576,16988,30773
32544,17011,31056
32500,17125,30799
32416,17122,30972
32380,17129,30956
32406,17101,31075
32508,17100,31111
32612,17020,31129
32697,16976,31076
32728,16970,31110
32712,16964,30982
32664,17053,31153
32620,17084,31104
32566,17106,31169
32552,17119,31348
32588,17141,31116
32648,17081,31444
32756,17022,31369
32816,16982,31452
32864,16944,31428
32848,16999,31412
32796,17020,31375
32740,17126,31502
32736,17113,31562
32712,17120,31428
32772,17162,31561
32810,17075,31676
32854,17004,31494
32877,16981,31639
32900,16941,31585
32877,17001,31622
32864,17008,31686
32809,17084,31678
32761,17104,31804
32748,17172,31532
32837,17104,31743
32876,17109,31820
32932,17012,31675
32969,16965,31788
32972,16996,31874
32941,16985,31802
32885,17009,31725
32848,17141,31694
32808,17154,31765
32775,17137,31841
32824,17170,31683
32900,17073,31745
32932,17004,31885
32992,17060,31919
32980,16972,32009
32972,16961,31828
32932,17068,31948
32864,17089,31973
32796,17103,31967
32721,17205,32007
32765,17129,31756
32860,17062,31916
32888,17055,31928
32920,16962,32041
32900,16967,31956
32856,16965,32049
32780,17042,31846
32700,17066,32080
32648,17102,32100
32648,17169,32121
32660,17101,32132
32732,17113,32161
32792,17000,32165
32816,16991,32192
32840,16946,32095
32808,17037,32218
32740,17057,32263
32662,17077,32367
32620,17108,32235
32612,17189,32215
32648,17124,32250
32680,17056,32380
32744,17068,32324
32762,16986,32320
32772,16948,32453
32736,17022,32351
32636,17033,32488
32568,17063,32520
32504,17159,32540
32426,17132,32480
32429,17101,32552
32495,17116,32625
32604,17024,32671
32628,16966,32722
32668,16946,32751
32680,17022,32792
32604,17038,32571
32504,17077,32843
32430,17101,32733
32458,17172,32903
32464,17105,32807
32536,17055,32966
32628,17029,32812
32624,16962,33024
32588,17005,33168
32580,16983,33100
32532,17071,32924
32488,17075,33172
32480,17101,33326
32448,17165,33101
32481,17113,33280
32568,17051,33423
32632,17023,33258
32684,16970,33349
32712,17036,33392
32621,17017,33462
32581,17023,33604
32544,17060,33542
32528,17150,33533
32512,17134,33521
32552,17099,33653
32676,17095,33805
32784,17006,33575
32844,17022,33760
32844,16967,33917
32801,16974,33655
32760,17076,33868
32640,17074,34030
32578,17101,33695
32529,17178,33896
32568,17116,34045
32628,17063,34089
32684,16999,34128
32772,17049,33905
32772,16991,34164
32788,16975,34023
32732,17007,34216
32676,17129,34340
32636,17120,34378
32608,17129,34424
32644,17092,34372
32701,17103,34445
32768,17022,34478
32820,16964,34560
32844,16942,34652
32824,16997,34388
32776,17027,34564
32689,17068,34831
32641,17100,34504
32620,17116,34684
32644,17108,34916
32724,17063,34714
32800,16999,34901
32820,16983,35079
32832,16948,34900
32792,17036,35001
32728,17056,35014
32656,17084,35104
32648,17096,35221
32640,17177,35186
32657,17116,35237
32717,17052,35284
32752,17076,35431
32776,16977,35225
32808,16962,35364
32762,16965,35156
32724,17080,35333
32684,17092,35311
32632,17114,35407
32648,17209,35532
32688,17113,35616
32784,17052,35749
32834,17071,35566
32880,16975,35687
32900,16940,35847
32924,17031,35532
32840,17039,35812
32764,17081,35736
32716,17107,35821
32700,17132,36000
32704,17095,35772
32768,17100,35956
32844,17008,35804
32892,16962,35884
32904,16999,36061
32910,16976,36089
32852,17077,36129
32792,17077,36076
32708,17100,36172
32705,17146,36308
32724,17100,36228
32796,17052,36264
32876,17055,36292
32932,16969,36428
32944,16942,36073
32916,16991,36297
32852,17010,36404
32781,17124,36420
32708,17122,36487
32690,17117,36441
32733,17188,36285
32804,17103,36599
32868,17030,36540
32928,16983,36502
32948,16942,36548
32940,17022,36612
32908,17030,36754
32793,17069,36656
32724,17169,36821
32728,17149,36719
32736,17111,36845
32840,17051,36585
32868,17017,36752
32944,16959,36805
32992,16997,36847
32960,16986,36972
32912,17012,36850
32812,17119,36782
32760,17117,36849
32756,17121,36897
32772,17193,36973
32876,17117,36824
32940,17019,37002
32988,16964,36988
32984,16995,37089
32984,16982,37049
32900,17013,37151
32857,17133,37087
32800,17163,37128
32800,17143,37105
32861,17107,37233
32913,17149,36831
32984,17027,37158
33020,16956,37100
33036,16980,37137
33026,16968,37300
32960,17063,37208
32884,17079,37324
32864,17180,36913
32828,17140,37263
32868,17189,37130
32908,17102,37204
32968,17019,37225
32958,16963,37348
32936,16969,37103
32948,16989,37303
32880,17015,37255
32864,17164,37287
32833,17140,37374
32813,17117,37372
32816,17097,37354
32868,17081,37330
32936,17024,37406
33024,16956,37455
33044,17013,37321
32988,16987,37438
32908,17076,37337
32832,17081,37436
32788,17103,37152
32808,17175,37332
32857,17112,37417
32916,17065,37404
33017,16999,37414
33056,17015,37436
33052,16957,37638
33040,16967,37173
32952,17081,37445
32904,17076,37460
32840,17109,37408
32828,17177,37559
32796,17115,37508
32876,17047,37556
32940,17071,37559
32980,16980,37676
33044,16962,37585
32964,16973,37669
32912,17101,37600
32892,17120,37690
32812,17118,37594
32848,17115,37704
32892,17162,37615
32968,17061,37732
33044,16998,37271
33036,17023,37653
33008,16959,37281
32940,16981,37742
32880,17089,37303
32824,17125,37735
32784,17124,37639
32752,17119,37749
32748,17116,37549
32825,17045,37584
32896,17076,37593
32912,16989,37612
32916,16965,37703
32880,17065,37284
32872,17047,37504
32836,17074,37600
32800,17172,37632
32780,17138,37593
32832,17095,37554
32892,17071,37273
32984,16996,37580
33016,16969,37652
32988,16951,37541
32888,16996,37608
32830,17020,37453
32808,17113,37692
32760,17106,37445
32748,17184,37536
32773,17117,37572
32840,17047,37553
32876,17047,37502
32946,16975,37478
32948,16953,37424
32928,17009,37556
32824,17014,37182
32748,17098,37484
32684,17103,37484
32694,17137,37572
32724,17098,37412
32784,17063,37484
32840,16999,37413
32893,17028,37442
32912,16970,37447
32880,16972,37353
32820,17079,37492
32744,17092,37425
32728,17120,37346
32724,17185,37454
32762,17112,37173
32840,17048,37270
32936,16996,37366
32989,16997,37348
32988,16950,37296
32940,16996,37373
32848,17016,37236
32808,17129,37310
32772,17130,37204
32764,17179,37394
32800,17097,37287
32852,17101,36922
32928,16999,37220
32986,17013,37245
33020,16948,37140
32964,17023,37200
32901,17021,37121
32840,17132,37116
32796,17123,37149
32764,17119,37136
32812,17116,37167
32876,17132,36788
32940,17009,37072
32976,17026,36983
33000,16949,37061
32944,17021,37106
32877,17010,36895
32848,17111,37031
32788,17107,36940
32818,17186,37060
32808,17117,36688
32868,17138,36926
32940,17009,37072
32969,16959,36868
32996,16963,36926
32972,16970,36794
32917,17031,36878
32824,17071,36911
32784,17163,36876
32810,17134,36829
32837,17091,36754
32924,17094,36805
32990,17014,36909
33028,17040,36645
33012,16964,36748
32970,16977,36817
32884,17097,36715
32848,17087,36604
32796,17108,36769
32772,17129,36486
32809,17094,36639
32876,17061,36727
32956,17089,36580
32976,16972,36604
32976,16949,36524
32940,17031,36576
32880,17036,36348
32834,17065,36513
32797,17165,36629
32770,17127,36305
32780,17094,36487
32842,17069,36334
32932,16996,36487
33020,17020,36114
33056,16962,36296
33000,16987,36432
32892,17012,36341
32752,17124,36204
32661,17124,36349
32637,17121,35996
32724,17119,36268
32948,17069,36356
33269,16996,35972
33620,17025,36151
34016,16980,36280
34396,16971,36021
34724,17015,36188
34916,17139,36184
35228,17148,36057
35812,17137,36098
36448,17104,36137
36884,17133,36060
37060,17029,35945
36992,16972,35864
36632,17034,35964
35944,17001,36092
35348,17031,35744
34736,17157,35816
34040,17170,35877
33092,17150,35903
32056,17111,35868
31748,17120,35684
31917,17053,35844
32200,16989,35722
32392,16957,35644
32520,16980,35683
32548,17055,35709
32505,17099,35764
32460,17115,35684
32432,17180,35719
32449,17117,35374
32440,17055,35719
32464,17076,35581
32460,16999,35671
32477,16969,35257
32452,16975,35402
32376,17077,35572
32304,17095,35188
32232,17114,35404
32228,17157,35548
32245,17103,35142
32280,17108,35335
32352,17020,35393
32409,16964,35036
32420,16981,35268
32388,16972,35399
32289,17113,35168
32206,17124,35197
32136,17131,35190
32144,17125,35204
32180,17149,35086
32244,17071,35111
32324,16996,35135
32392,17001,35077
32384,16954,35071
32348,17044,35057
32316,17045,35124
32244,17074,34991
32194,17182,35040
32180,17152,34685
32245,17105,34871
32313,17116,34816
32348,17017,34847
32437,16958,34813
32469,17007,34794
32476,16996,34771
32392,17019,34791
32341,17126,34840
32308,17125,34461
32344,17182,34692
32357,17116,34693
32424,17038,34492
32548,17014,34593
32636,16964,34639
32632,17018,34593
32596,16986,34676
32544,17100,34287
32512,17085,34455
32488,17116,34420
32448,17116,34439
32485,17135,34388
32564,17068,34433
32630,17003,34525
32672,17023,34293
32684,16965,34370
32676,17044,34489
32620,17039,34111
32588,17068,34204
32605,17156,34268
32600,17140,34273
32648,17171,34210
32721,17057,34272
32804,17059,34087
32801,16964,34175
32808,16996,34029
32816,16986,34021
32744,17030,34063
32672,17075,34114
32644,17158,34020
32632,17131,33988
32676,17096,33927
32728,17133,34012
32828,17027,33868
32880,16967,33884
32872,17012,33712
32848,16992,33729
32831,17021,33788
32774,17109,33425
32728,17119,33697
32708,17183,33396
32753,17116,33543
32816,17052,33287
32852,16997,33452
32892,16989,33348
32916,16957,33380
32888,17016,33461
32828,17026,33127
32737,17125,33231
32704,17105,33294
32704,17165,32948
32754,17112,33077
32804,17114,33135
32861,17012,32960
32925,17017,33042
32908,16965,33100
32852,17040,32709
32767,17036,32806
32709,17077,32772
32684,17170,32721
32664,17143,32728
32721,17099,32752
32780,17088,32803
32855,17001,32684
32880,17018,32756
32868,16972,32588
32812,16976,32612
32756,17085,32431
32724,17095,32468
32656,17109,32447
32633,17183,32395
32644,17115,32293
32668,17052,32296
32732,17071,32207
32774,16985,32228
32756,16955,32169
32712,17021,32217
32688,17035,32128
32596,17076,32128
32534,17179,32172
32520,17131,32071
32544,17161,31988
32612,17061,32004
32663,16997,31984
32684,16992,32069
32676,16972,31705
32608,16980,31807
32536,17084,31807
32472,17086,31868
32444,17111,31751
32464,17166,31813
32512,17116,31791
32604,17141,31815
32665,17023,31736
32700,16964,31717
32688,17012,31572
32652,16990,31620
32584,17092,31716
32496,17093,31385
32461,17186,31485
32448,17129,31581
32493,17094,31538
32597,17097,31491
32656,17002,31444
32660,17043,31498
32712,16970,31517
32716,16975,31300
32640,17111,31405
32561,17087,31520
32509,17111,31254
32480,17154,31348
32528,17108,31357
32596,17051,31236
32613,17050,31389
32612,16979,31205
32654,16949,31310
32668,17031,31220
32632,17053,31159
32564,17093,31192
32512,17126,31125
32512,17121,31236
32564,17128,31157
32592,17053,31199
32624,16994,31184
32668,17024,31074
32686,16986,31049
32669,16993,31126
32624,17021,31223
32510,17117,31004
32484,17127,31103
32530,17118,31184
32564,17112,30884
32616,17049,31092
32676,17039,31077
32708,16973,31001
32762,16945,30882
32744,17002,31060
32669,17022,31132
32604,17096,30860
32544,17109,30951
32602,17180,31096
32632,17124,31072
32702,17070,31153
32756,16992,30948
32804,16975,30896
32800,17007,31066
32744,16994,31113
32660,17015,30983
32605,17113,31054
32522,17115,30956
32544,17157,31097
32584,17098,30885
32644,17109,31044
32684,17004,30926
32776,17003,31013
32804,16953,30953
32756,17031,30809
32672,17029,31031
32656,17069,31014
32620,17111,30832
32628,17149,30988
32686,17094,31105
32740,17108,30780
32798,17015,31011
32812,17037,30926
32832,16962,30968
32824,16975,30993
32748,17047,30926
32668,17071,30903
32624,17175,30975
32664,17138,31005
32697,17092,30796
32742,17066,30953
32804,16996,31036
32880,16983,30836
32920,16951,30940
32869,17009,30994
32792,17031,30929
32732,17133,30840
32666,17132,30794
32684,17116,30876
32744,17127,30879
32828,17060,30884
32864,16995,30969
32910,16989,30648
32929,16967,30858
32898,16979,30644
32784,17021,30700
32712,17118,30808
32673,17137,30796
32712,17134,30801
32796,17095,30557
32844,17132,30686
32900,17039,30532
32900,16969,30654
32950,16948,30743
32940,17010,30708
32872,17044,30774
32778,17073,30458
32745,17167,30740
32740,17130,30456
32780,17188,30588
32824,17056,30673
32848,16996,30420
32892,16975,30575
32921,16948,30615
32912,17007,30444
32832,17022,30545
32764,17114,30437
32712,17109,30599
32702,17172,30273
32724,17112,30364
32744,17043,30361
32816,17018,30444
32876,16959,30386
32900,16969,30319
32884,17069,30228
32884,17039,30260
32828,17129,30441
32777,17107,30215
32798,17164,30336
32828,17091,30324
32864,17098,30169
32924,16996,30273
32955,17020,30209
32956,16971,30108
32912,16977,30206
32836,17060,30280
32752,17090,30176
32712,17110,30158
32729,17139,30031
32792,17094,30111
32864,17071,30041
32909,16998,29953
32948,16959,30036
32958,16968,30121
32901,16976,29887
32832,17045,30004
32762,17079,29929
32708,17165,29872
32708,17125,29933
32736,17167,29940
32752,17084,29877
32789,16996,29751
32836,17020,29760
32852,16962,29606
32808,17063,29780
32732,17044,29831
32676,17074,29575
32624,17159,29711
32629,17125,29778
32648,17120,29684
32696,17047,29540
32757,17044,29653
32764,16982,29716
32780,16956,29413
32740,17074,29552
32708,17040,29646
32636,17073,29359
32628,17154,29535
32668,17131,29601
32708,17155,29367
32768,17061,29391
32816,17012,29277
32848,16959,29409
32872,17005,29387
32832,16991,29431
32736,17025,29296
32668,17127,29344
32620,17117,29209
32648,17138,29164
32660,17163,29348
32716,17060,29310
32792,16993,29404
32848,17004,29169
32864,16966,29265
32852,16977,29314
32784,17085,29124
32729,17092,29266
32680,17110,29126
32676,17181,29169
32720,17121,29217
32724,17058,29180
32813,16988,29208
32832,17001,29177
32848,16969,29040
32812,16978,29160
32776,17092,29225
32692,17090,28957
32657,17108,29013
32676,17195,28992
32708,17136,29100
32764,17063,29045
32824,16992,29084
32852,17019,28975
32840,16970,29019
32792,16975,29052
32708,17084,29097
32636,17099,28875
32620,17118,28911
32632,17198,28995
32680,17117,28905
32704,17045,28900
32764,16994,28862
32808,16989,28999
32849,16956,28954
32794,17040,28919
32740,17038,28953
32676,17173,28856
32656,17135,29013
32640,17138,28778
32637,17105,28921
32689,17119,28815
32796,17013,28934
32808,16955,28758
32800,17030,28898
32796,17004,28794
32736,17029,28865
32736,17153,28672
32780,17129,28788
32816,17117,28850
32873,17159,28653
32956,17068,28724
33080,16994,28900
33162,17017,28664
33188,16965,28807
33113,16976,28860
33088,17056,28647
33020,17094,28789
32968,17116,28737
32940,17159,28630
32972,17104,28764
33052,17107,28672
33120,16999,28817
33164,17018,28556
33132,16972,28719
33056,16978,28805
33009,17037,28581
32940,17074,28733
32910,17143,28647
32904,17121,28687
32934,17121,28551
33028,17042,28720
33092,17053,28604
33136,16978,28729
33104,16947,28512
33060,16997,28685
33004,17021,28734
32916,17095,28556
32876,17111,28700
32904,17172,28636
32916,17112,28564
32976,17041,28693
33028,17057,28773
33096,16966,28572
33088,16955,28689
33056,17037,28720
32976,17037,28574
32900,17068,28698
32844,17178,28760
32812,17136,28554
32856,17093,28620
32916,17039,28599
33009,17079,28720
33077,17053,28623
33084,17013,28737
33008,16996,28807
32888,17023,28591
32872,17129,28751
32820,17126,28671
32788,17120,28816
32824,17161,28901
32928,17068,28708
32996,16996,28868
33050,17028,28904
33092,16972,28756
33052,16980,28893
32940,17092,28914
32833,17097,28964
32685,17116,29012
32648,17171,28871
32684,17113,29008
32897,17036,29117
33120,16992,29040
33454,16968,28997
33769,16947,29063
34092,17011,29122
34436,17027,29070
34672,17133,29220
34884,17129,29038
35340,17212,29246
35972,17115,29157
36580,17135,29300
36956,17019,29135
37068,16965,29343
36960,17012,29473
36552,16996,29301
35944,17117,29474
35348,17109,29536
34668,17124,29415
33964,17230,29476
32992,17128,29545
32126,17061,29657
31944,16997,29764
32064,17021,29729
32320,16969,29703
32476,16989,29759
32550,17113,29876
32520,17101,29804
32548,17142,29836
32504,17127,29968
32456,17173,30002
32436,17055,29903
32464,16996,30024
32504,16989,30229
32465,16950,30072
32396,17048,30150
32312,17044,30364
32280,17147,30237
32196,17133,30389
32196,17116,30505
32268,17132,30307
32344,17047,30529
32420,17014,30688
32460,16957,30455
32488,16995,30598
32460,16981,30764
32373,17080,30814
32256,17098,30854
32208,17118,30716
32236,17181,30921
32312,17102,30900
32384,17047,31053
32424,17068,31047
32456,16968,31193
32464,16953,31244
32436,17009,31188
32384,17047,31316
32349,17179,31468
32305,17140,31449
32328,17132,31453
32392,17183,31438
32448,17065,31592
32472,17001,31676
32512,16954,31696
32513,16976,31852
32472,16985,31578
32436,17028,31956
32392,17141,31909
32368,17127,32030
32381,17124,31988
32445,17090,31949
32545,17092,31988
32644,17009,32061
32720,16965,32208
32736,16963,32293
32676,16978,32444
32600,17086,32397
32492,17097,32561
32488,17109,32496
32488,17179,32493
32522,17111,32533
32520,17061,32552
32632,17078,32712
32672,16978,32817
32692,16951,32773
32660,17037,32833
32592,17045,32973
32548,17077,33159
32492,17116,33112
32476,17161,33158
32505,17112,33233
32612,17041,33383
32724,17053,33117
32781,16996,33300
32828,16971,33348
32820,16991,33504
32720,17074,33439
32696,17089,33671
32676,17199,33672
32685,17157,33743
32740,17111,33520
32804,17045,33695
32868,17005,33799
32948,16959,33922
32960,17037,34054
32952,16996,34048
32900,17028,34213
32836,17140,33888
32816,17127,34164
32816,17117,34158
32869,17118,34268
32960,17053,34351
33008,17090,34393
33048,16979,34536
33092,16949,34341
33033,17030,34477
32940,17028,34704
32844,17140,34504
32781,17129,34649
32824,17116,34848
32884,17151,34517
32924,17058,34819
32970,16997,35003
32996,16976,34668
32992,16955,34877
32964,17029,35178
32904,17037,35016
32852,17144,35164
32772,17135,35077
32780,17194,35394
32806,17108,35272
32864,17117,35396
32884,17002,35299
32868,17039,35550
32844,16980,35249
32800,16986,35532
32704,17103,35628
32628,17108,35732
32580,17118,35880
32580,17180,35753
32608,17103,35895
32672,17043,36085
32740,17026,35820
32756,16959,36069
32748,17014,36261
32692,16989,35919
32600,17107,36143
32528,17092,36412
32492,17114,36209
32432,17177,36420
32438,17101,36545
32516,17038,36607
32576,17015,36624
32588,16958,36680
32621,16994,36645
32568,16980,36575
32492,17047,36908
32388,17173,37023
32348,17127,36996
32384,17123,37148
32444,17100,37220
32508,17042,37252
32592,17007,37038
32620,17018,37428
32612,16956,37344
32536,17053,37567
32452,17053,37622
32404,17081,37652
32372,17150,37864
32364,17126,37600
32405,17162,37913
32448,17077,38084
32504,17018,38057
32572,16963,38260
32580,17045,37828
32536,16993,38175
32470,17040,38263
32420,17087,38305
32404,17184,38535
32440,17144,38552
32486,17092,38737
32592,17086,38624
32641,16989,38740
32701,16991,38780
32692,16962,39017
32657,17053,38617
32588,17042,38891
32504,17084,39052
32468,17168,39128
32432,17135,39287
32486,17159,39056
32561,17060,39328
32640,16988,39572
32696,16978,39457
32688,17020,39589
32644,16999,39770
32556,17041,39705
32484,17086,39633
32452,17149,39887
32454,17122,39896
32476,17135,39943
32544,17040,40188
32616,17052,40061
32654,16970,40189
32660,16953,40295
32612,17037,40269
32564,17034,40403
32496,17127,40390
32480,17116,40590
32468,17129,40725
32500,17149,40649
32552,17053,40336
32632,17069,40764
32684,16969,40700
32692,17018,41036
32648,16997,40920
32572,17028,41047
32488,17096,41057
32434,17117,41104
32408,17157,41212
32484,17088,41417
32564,17100,41223
32673,17000,41369
32704,16955,41628
32704,17013,41392
32692,17012,41553
32644,17039,41720
32584,17155,41657
32544,17129,41776
32552,17178,41826
32564,17108,41916
32632,17039,41933
32696,17009,41988
32685,16958,41937
32681,16997,42279
32612,16998,41991
32528,17031,42261
32512,17139,42348
32480,17132,42293
32492,17118,42380
32519,17144,42340
32592,17044,42535
32609,17045,42581
32656,16957,42590
32671,16953,42772
32616,17015,42752
32580,17052,42856
32536,17080,42708
32484,17159,42900
32460,17122,43008
32478,17152,42804
32550,17040,43059
32620,17013,43044
32656,16967,43084
32685,17015,43177
32648,17004,43065
32585,17034,43337
32580,17153,42968
32572,17130,43333
32576,17115,43380
32592,17125,43424
32636,17056,43492
32738,16987,43440
32800,17014,43453
32788,16968,43653
32728,17051,43505
32664,17039,43676
32620,17125,43382
32568,17113,43815
32560,17132,43724
32612,17085,43852
32692,17069,43583
32772,16991,43973
32776,17005,43833
32748,16954,44016
32712,17021,43935
32644,17031,44076
32592,17108,44147
32533,17198,44093
32548,17126,44165
32601,17084,43974
32684,17057,44309
32736,17079,44162
32828,16972,44343
32812,17018,44327
32789,17004,44053
32736,17031,44484
32696,17140,44367
32644,17125,44503
32604,17182,44344
32628,17088,44549
32714,17085,44615
32788,17006,44608
32832,17025,44543
32856,16977,44711
32806,16986,44678
32748,17099,44748
32668,17097,44575
32600,17187,44845
32581,17129,44748
32616,17087,44726
32704,17065,44879
32816,16986,44967
32820,16999,44819
32808,16970,44956
32752,16980,44844
32712,17061,45053
32641,17097,44992
32616,17120,44917
32676,17181,45137
32728,17106,45072
32801,17121,45128
32885,16996,44941
32884,17019,45222
32880,16976,45140
32812,16984,45221
32760,17073,45228
32688,17107,44920
32644,17133,45324
32664,17135,45205
32702,17165,45308
32782,17060,45332
32816,16988,45212
32832,16991,45423
32812,16962,45369
32752,17045,45380
32700,17049,45433
32648,17084,45380
32642,17176,45428
32656,17128,45182
32692,17093,45405
32692,17108,45469
32736,17035,45558
32776,16965,45548
32776,16969,45551
32788,16981,45505
32696,17079,45564
32624,17108,45532
32596,17119,45284
32604,17180,45533
32665,17097,45544
32724,17039,45656
32804,17060,45655
32828,16980,45335
32809,16964,45632
32768,16983,45557
32672,17093,45703
32608,17113,45593
32548,17121,45732
32596,17193,45694
32640,17110,45524
32704,17033,45757
32778,17014,45699
32801,16956,45641
32788,17024,45775
32744,17003,45725
32708,17058,45766
32668,17088,45703
32657,17188,45444
32668,17140,45684
32740,17087,45700
32828,17089,45484
32893,17005,45632
32936,16952,45696
32952,16981,45422
32904,16990,45664
32848,17132,45701
32780,17101,45528
32750,17119,45741
32792,17135,45604
32840,17082,45700
32948,17092,45676
33056,17010,45679
33076,17023,45560
33077,16964,45572
33012,17031,45283
32950,17042,45529
32928,17152,45569
32932,17132,45240
32900,17121,45544
32944,17149,45561
32988,17053,45536
33032,16991,45229
33073,17027,45436
33092,16989,45444
33012,16996,45524
32933,17033,45439
32876,17145,45484
32824,17134,45406
32824,17117,45045
32900,17148,45258
32980,17061,45344
33032,16988,44999
33068,16966,45260
33044,16953,45289
32992,17012,44972
32892,17044,45172
32820,17078,45092
32816,17167,45205
32840,17131,45043
32885,17087,44973
32984,17028,45120
33044,17026,45064
33124,16972,45080
33092,16950,44927
33000,16985,44662
32920,17097,44878
32884,17129,44660
32876,17127,44781
32892,17119,44796
32920,17170,44897
33009,17063,44789
33040,16983,44669
33028,16999,44772
33056,16964,44645
33052,16987,44423
32981,17069,44546
32909,17097,44423
32871,17127,44613
32832,17116,44551
32836,17082,44544
32924,17080,44444
32992,17002,44309
33036,16954,44423
33008,17023,44333
32972,17001,44372
32924,17032,44244
32844,17108,44028
32816,17125,44115
32792,17112,44068
32816,17145,44165
32812,17077,44092
32800,17006,44076
32816,16954,43992
32876,17028,43924
32980,17010,43759
33148,17056,43724
33360,17080,43844
33661,17141,43597
34116,17120,43684
34572,17136,43308
34980,17060,43465
35372,17099,43580
35936,16999,43543
36560,16959,43301
36936,17045,43428
36990,17058,42983
36808,17096,43165
36420,17188,43159
35696,17159,43216
35032,17175,42972
34544,17071,43138
34072,17004,42612
33208,17042,42984
32078,17013,42967
31564,17020,42533
31605,17046,42806
31832,17146,42656
32076,17140,42668
32236,17127,42308
32372,17151,42524
32468,17055,42448
32552,16991,42540
32594,16987,42341
32548,16964,41952
32480,17009,42240
32385,17043,42031
32296,17180,42192
32229,17169,42053
32200,17142,41860
32192,17090,41888
32280,17100,41844
32364,17033,41831
32420,16979,41701
32389,16957,41476
32312,17034,41617
32208,17046,41486
32172,17152,41633
32156,17140,41368
32156,17119,40936
32201,17133,41280
32308,17051,41389
32374,16991,40881
32456,17016,41145
32472,16965,40951
32412,16988,41095
32320,17079,40822
32252,17088,40879
32206,17156,40773
32216,17135,40880
32288,17087,40341
32356,17093,40599
32436,17002,40630
32504,17037,40532
32484,16989,40450
32397,17009,40340
32344,17041,40148
32309,17153,40192
32256,17130,40318
32240,17116,40011
32304,17122,40062
32365,17049,39984
32428,16987,39868
32456,16972,39865
32472,16959,39934
32424,17043,39660
32388,17039,39666
32348,17112,39616
32317,17118,39524
32328,17172,39621
32400,17108,39223
32464,17031,39377
32560,17020,39255
32604,16977,39364
32632,16959,39112
32560,17020,39112
32509,17039,39008
32472,17146,39098
32408,17143,38932
32408,17118,38852
32472,17131,38721
32592,17039,38772
32660,17057,38691
32688,16974,38240
32708,16971,38528
32684,16993,38389
32632,17064,38478
32552,17092,38188
32548,17141,37981
32568,17117,38204
32621,17129,38141
32712,17057,37990
32773,16985,38016
32812,17007,37878
32796,16967,37972
32772,17057,37719
32736,17055,37725
32661,17091,37672
32669,17198,37516
32704,17140,37473
32744,17159,37383
32804,17054,37452
32876,16982,37067
32877,17015,37182
32853,16980,37228
32852,16991,36749
32804,17068,36865
32736,17093,36999
32684,17141,36887
32725,17120,36656
32749,17098,36652
32820,17032,36436
32884,17031,36592
32904,16972,36324
32876,17014,36088
32822,17019,36224
32732,17040,36303
32672,17113,36133
32625,17123,36012
32621,17181,35824
32692,17107,35874
32748,17101,35778
32772,16999,35661
32780,16956,35735
32737,17018,35364
32672,17009,35495
32582,17107,35288
32552,17087,35189
32558,17154,35373
32512,17119,35214
32540,17095,35023
32609,17097,34759
32649,16990,34941
32652,16978,34758
32633,16958,34904
32524,17024,34653
32476,17043,34388
32396,17120,34492
32328,17117,34604
32352,17151,34357
32388,17092,34388
32480,17097,34174
32548,17000,34268
32568,16953,33997
32548,16995,34102
32484,17000,34004
32410,17045,33868
32385,17141,33897
32353,17124,33849
32380,17172,33733
32424,17103,33713
32469,17111,33660
32500,16996,33612
32512,16955,33444
32524,16984,33246
32464,16986,33140
32396,17068,33346
32334,17089,33277
32284,17140,33200
32272,17122,33125
32317,17121,32846
32364,17048,32903
32452,16986,33000
32472,17044,32664
32460,16985,32823
32416,16997,32887
32336,17122,32500
32252,17105,32648
32237,17175,32671
32228,17127,32462
32262,17134,32519
32320,17037,32417
32404,17033,32503
32464,16956,32249
32457,16996,32073
32404,16994,32149
32340,17110,32093
32298,17100,32135
32268,17125,32118
32302,17200,32029
32356,17095,31852
32432,17031,31864
32476,17043,31876
32477,16964,31865
32504,17019,31534
32472,17006,31596
32408,17037,31581
32365,17151,31625
32332,17126,31638
32344,17117,31533
32380,17160,31554
32476,17050,31204
32556,16995,31396
32572,16955,31345
32549,17050,31337
32492,17015,31108
32440,17056,31128
32384,17093,31073
32361,17147,31125
32364,17131,31042
32404,17169,31058
32460,17049,31029
32540,17049,30847
32564,16977,30924
32580,17020,30989
32556,17019,30860
32488,17051,30870
32484,17183,30770
32472,17178,30752
32488,17142,30676
32518,17097,30600
32606,17030,30498
32648,17041,30391
32684,16972,30444
32672,16957,30392
32636,17071,30360
32572,17052,30414
32524,17092,30380
32518,17173,30422
32560,17122,30183
32612,17077,30266
32688,17075,30108
32748,16997,30181
32796,16958,30228
32820,16974,29942
32788,16994,29984
32692,17108,29937
32608,17113,30000
32608,17125,30041
32633,17176,29943
32672,17096,29993
32730,17029,29863
32776,17028,29804
32800,16974,29605
32829,16961,29845
32772,17084,29727
32712,17093,29660
32684,17095,29657
32644,17181,29584
32628,17134,29388
32661,17091,29620
32736,17124,29308
32778,17010,29374
32796,16952,29399
32805,17022,29405
32764,17012,29398
32701,17061,29346
32620,17097,29221
32590,17118,29252
32616,17154,29241
32688,17092,29188
32756,17041,29030
32824,16978,29014
32840,17007,28940
32836,16974,28979
32796,16999,28846
32704,17044,28997
32652,17126,28963
32612,17139,29009
32652,17114,28898
32700,17131,28922
32736,17044,28836
32752,16984,28836
32780,16996,28778
32768,16974,28807
32760,16995,28532
32703,17068,28585
32632,17089,28520
32629,17168,28604
32637,17129,28551
32664,17077,28577
32749,17069,28593
32796,16989,28380
32820,17001,28498
32788,16959,28508
32724,16998,28440
32648,17087,28341
32564,17114,28388
32548,17116,28415
32612,17160,28325
32648,17095,28349
32712,17039,28287
32752,16980,28157
32781,17020,28229
32764,16977,28255
32765,16993,27993
32709,17077,28028
32656,17108,27980
32656,17132,28047
32656,17127,28082
32704,17078,28104
32768,17070,27845
32816,16998,27904
32828,16954,27854
32829,16964,27976
32744,17058,27932
32692,17066,27796
32652,17102,27848
32596,17118,27717
32640,17157,27793
32660,17091,27776
32728,17027,27801
32836,17047,27692
32868,16973,27761
32873,16977,27606
32808,16997,27637
32736,17132,27571
32636,17137,27628
32622,17134,27548
32644,17119,27629
32692,17081,27566
32765,17088,27586
32832,17007,27464
32892,16956,27596
32864,17023,27589
32812,17015,27572
32730,17044,27559
32672,17156,27536
32676,17132,27481
32656,17125,27509
32724,17138,27501
32797,17076,27452
32856,16989,27332
32912,16956,27348
32904,16959,27356
32864,17055,27492
32832,17055,27443
32744,17157,27375
32768,17133,27337
32736,17135,27396
32776,17079,27432
32852,17090,27381
32876,17002,27337
32924,16959,27357
32917,16953,27220
32891,17060,27300
32804,17077,27166
32764,17113,27290
32708,17124,27269
32704,17192,27294
32762,17109,27296
32865,17038,27103
32888,16973,27132
32920,16983,27121
32932,16969,27234
32900,16997,27202
32824,17116,27213
32743,17108,27247
32748,17124,27024
32749,17199,27070
32831,17110,27012
32864,17044,27137
32940,16975,27041
32961,16997,27140
32956,16984,27125
32864,17011,27128
32801,17050,27134
32772,17163,26945
32768,17149,27116
32748,17135,27085
32798,17100,27095
32841,17031,27060
32916,16977,27097
32944,16990,26868
32968,16982,26992
32960,16992,26863
32920,17116,27036
32857,17111,26845
32804,17123,26876
32804,17124,26937
32840,17072,26987
32904,17052,27005
33004,16977,26806
33013,16989,26948
33056,16983,26879
33024,16999,26944
32948,17078,26969
32900,17092,26774
32888,17153,26918
32905,17116,26964
32940,17132,26754
33028,17036,26842
33088,17045,26739
33104,16973,26880
33048,17053,26766
32985,17036,26717
32864,17060,26762
32733,17097,26693
32704,17191,26748
32740,17143,26704
32817,17101,26813
32942,17019,26841
32992,17047,26841
32984,16979,26822
32965,16973,26672
32880,16996,26712
32796,17116,26671
32776,17115,26808
32760,17127,26777
32796,17203,26698
32832,17109,26771
32912,17042,26662
32964,16979,26748
32984,17016,26849
32972,16976,26641
32912,16998,26732
32892,17115,26655
32850,17117,26645
32820,17121,26786
32778,17125,26685
32816,17071,26823
32868,17056,26631
32956,16987,26788
32988,16952,26699
32937,17020,26623
32876,17023,26777
32812,17048,26822
32724,17156,26621
32680,17149,26696
32744,17132,26614
32812,17077,26764
32900,17095,26818
32944,17005,26596
32964,16966,26653
32960,16959,26603
32938,17088,26708
32868,17107,26620
32828,17113,26636
32832,17117,26768
32825,17177,26734
32876,17092,26625
32860,17025,26759
32788,17016,26789
32800,16957,26599
32812,17023,26752
32920,17013,26804
33064,17049,26580
33304,17097,26725
33616,17189,26744
34008,17173,26645
34452,17102,26733
34830,17045,26593
35188,16976,26738
35688,17031,26752
36294,16988,26590
36736,17004,26607
36861,17133,26564
36780,17134,26669
36557,17154,26600
36072,17140,26742
35660,17093,26705
35172,17034,26753
34608,17056,26716
33788,16980,26741
32652,16979,26538
31900,17084,26647
31744,17088,26695
31866,17107,26558
32048,17217,26620
32236,17177,26548
32372,17111,26692
32504,17044,26548
32592,16988,26692
32608,17020,26665
32544,17030,26702
32432,17031,26566
32328,17073,26599
32220,17117,26576
32188,17127,26746
32188,17112,26558
32216,17117,26596
32272,17043,26545
32372,16976,26706
32414,16956,26559
32408,17029,26631
32372,17018,26551
32292,17058,26725
32236,17148,26730
32200,17130,26572
32226,17196,26612
32292,17094,26565
32352,17023,26692
32432,17040,26676
32444,16976,26742
32437,16964,26733
32400,17054,26759
32336,17076,26759
32319,17189,26586
32320,17158,26734
32312,17121,26626
32384,17142,26759
32472,17043,26754
32548,16978,26820
32612,16991,26605
32592,16965,26774
32476,17079,26820
32381,17088,26625
32344,17118,26770
32349,17123,26705
32380,17153,26665
32448,17072,26604
32514,17069,26743
32600,16999,26749
32616,17015,26610
32580,16960,26771
32544,17034,26679
32505,17053,26818
32464,17137,26697
32460,17130,26612
32516,17191,26772
32564,17090,26724
32638,17028,26630
32720,16977,26807
32768,16999,26802
32762,16983,26650
32712,16998,26808
32692,17117,26852
32652,17119,26681
32628,17199,26831
32628,17135,26882
32692,17076,26706
32772,17063,26712
32876,17001,26827
32904,16956,26774
32912,16950,26886
32864,17030,26823
32772,17060,26724
32724,17098,26805
32756,17183,26816
32796,17124,26725
32852,17073,26799
32924,17084,26710
32985,17001,26865
33016,16961,26909
33049,17036,26696
32968,17013,26837
32856,17055,26851
32812,17165,26718
32799,17133,26730
32820,17112,26671
32908,17104,26627
32996,17021,26777
33056,16991,26698
33108,16953,26637
33124,16981,26570
33076,17002,26724
33016,17090,26585
32952,17109,26560
32933,17125,26671
32920,17141,26644
32926,17083,26493
33000,17057,26616
33040,17001,26514
33068,16956,26557
33080,17010,26432
32988,17026,26546
32916,17057,26474
32836,17144,26351
32840,17125,26341
32865,17193,26396
32896,17099,26364
32945,17041,26457
33028,17077,26433
33004,16984,26272
32965,16964,26408
32904,17021,26284
32832,17135,26400
32752,17118,26281
32736,17202,26188
32769,17131,26337
32804,17138,26308
32869,17045,26257
32904,17045,26258
32908,16967,26127
32868,16964,26250
32796,17028,26207
32696,17055,26174
32604,17123,26081
32644,17124,26216
32684,17146,26101
32696,17071,26232
32713,17084,26029
32764,16997,26191
32780,17044,26060
32764,16990,26152
32692,17069,26010
32596,17063,26161
32524,17167,26113
32492,17136,26180
32488,17180,25979
32533,17088,26017
32576,17087,26119
32614,16986,26013
32640,17042,25998
32624,16978,25977
32588,16999,26119
32520,17076,26028
32452,17101,26097
32432,17140,25956
32472,17179,26111
32500,17087,26014
32540,17016,25988
32592,17009,25968
32608,16948,26116
32589,16978,26012
32568,17003,26061
32520,17071,25964
32448,17168,26119
32436,17143,26084
32468,17115,26159
32524,17097,25954
32624,17022,26115
32656,17013,26028
32660,16957,26161
32628,17051,25964
32612,17026,26123
32512,17061,26148
32456,17161,26018
32436,17141,25976
32448,17109,26127
32497,17106,26134
32577,17036,25977
32660,16975,26141
32676,16933,26038
32652,17006,26016
32604,17007,26157
32512,17117,26057
32493,17128,26004
32456,17123,26172
32452,17164,26108
32524,17091,26128
32573,17018,26042
32628,17060,26077
32669,17001,26127
32684,16968,26215
32616,17069,26118
32536,17071,26072
32480,17100,26243
32496,17183,26289
32501,17129,26100
32528,17146,26276
32580,17036,26170
32632,17039,26180
32656,16965,26156
32660,16964,26213
32652,17068,26170
32576,17079,26226
32504,17112,26216
32502,17146,26341
32536,17114,26304
32580,17159,26261
32637,17053,26276
32704,16980,26341
32768,16984,26256
32772,16963,26418
32720,17044,26317
32668,17078,26466
32646,17105,26282
32596,17140,26452
32629,17170,26429
32680,17074,26415
32708,17068,26417
32748,16973,26314
32776,17007,26496
32766,16980,26410
32746,17002,26365
32660,17081,26519
32597,17100,26412
32620,17181,26558
32650,17125,26536
32708,17071,26457
32756,16997,26405
32796,17021,26520
32828,16965,26511
32804,16964,26415
32784,17069,26551
32768,17083,26625
32688,17101,26442
32656,17148,26592
32692,17121,26582
32716,17140,26457
32784,17048,26503
32828,16988,26465
32860,17020,26635
32848,16985,26668
32816,17012,26623
32752,17123,26530
32688,17111,26692
32656,17167,26604
32664,17121,26484
32696,17124,26640
32788,17029,26644
32861,17057,26596
32888,16971,26501
32832,16986,26585
32790,17004,26582
32708,17108,26677
32660,17111,26564
32640,17220,26594
32640,17126,26521
32708,17068,26673
32777,17047,26654
32844,16976,26725
32912,16982,26517
32912,16981,26691
32840,17008,26593
32732,17084,26741
32676,17107,26597
32624,17139,26631
32632,17108,26649
32710,17105,26762
32736,17025,26556
32804,16972,26727
32821,16993,26712
32796,16970,26683
32744,17098,26574
32688,17081,26626
32644,17103,26746
32640,17138,26753
32628,17173,26647
32644,17092,26798
32684,17019,26612
32760,16992,26781
32828,16955,26703
32776,17007,26821
32736,17010,26631
32668,17121,26807
32623,17120,26796
32620,17193,26759
32652,17131,26768
32708,17070,26679
32736,17055,26764
32772,16975,26853
32817,17017,26685
32776,16986,26852
32744,17010,26880
32661,17084,26740
32656,17113,26729
32600,17190,26873
32636,17129,26758
32697,17153,26924
32772,17028,26721
32800,16977,26885
32816,16985,26791
32840,16971,26884
32800,17068,26745
32728,17081,26825
32674,17100,26764
32648,17122,26836
32672,17169,26779
32706,17092,26948
32768,17015,26928
32812,17023,26799
32836,16961,26971
32812,17047,26992
32784,17020,26822
32712,17061,26998
32608,17180,27005
32600,17174,27023
32596,17125,27014
32688,17081,27032
32748,17015,27094
32796,17010,26876
32764,16973,26945
32760,17047,27040
32720,17018,26940
32608,17139,27038
32560,17140,26964
32565,17140,27109
32577,17106,27092
32652,17116,27140
32736,17040,27097
32772,16973,27007
32796,17030,27070
32760,17007,27087
32736,17023,27204
32652,17061,27245
32605,17160,27075
32600,17149,27208
32652,17202,27298
32688,17078,27101
32760,17015,27162
32820,17036,27223
32861,16965,27117
32852,17023,27248
32776,17012,27372
32704,17116,27159
32652,17120,27220
32637,17123,27204
32704,17159,27349
32740,17089,27372
32800,17090,27389
32881,16994,27384
32864,17018,27248
32816,16985,27280
32800,17008,27321
32760,17076,27484
32700,17113,27303
32657,17122,27436
32677,17149,27291
32729,17087,27375
32812,17012,27318
32892,16986,27476
32888,17022,27374
32876,16973,27557
32824,17070,27360
32764,17076,27527
32704,17100,27429
32684,17163,27499
32708,17122,27539
32760,17065,27608
32800,17090,27412
32856,16990,27576
32831,16954,27500
32792,17007,27588
32745,17019,27424
32704,17125,27585
32648,17116,27621
32640,17127,27437
32676,17137,27589
32717,17065,27684
32791,17060,27490
32836,16986,27637
32824,17045,27715
32794,16983,27549
32725,17008,27504
32677,17076,27676
32612,17187,27626
32576,17144,27713
32629,17173,27687
32668,17090,27543
32712,17072,27577
32812,16984,27733
32848,17018,27624
32824,16977,27809
32768,17050,27686
32652,17062,27615
32608,17125,27588
32613,17218,27780
32660,17129,27756
32732,17124,27751
32801,17021,27748
32848,17019,27631
32884,16960,27796
32905,17036,27815
32868,17029,27676
32821,17061,27829
32744,17163,27897
32702,17153,27679
32712,17105,27839
32765,17091,27743
32860,17018,27805
32884,17041,27871
32920,16964,27888
32881,17030,27938
32802,17024,27745
32741,17063,27897
32696,17137,27849
32660,17151,27770
32688,17107,27902
32782,17093,27985
32852,17015,27782
32868,17035,27938
32884,16978,27876
32849,17044,27932
32812,17035,27788
32761,17065,27974
32688,17107,28005
32668,17134,28057
32672,17109,27880
32720,17102,28009
32812,17015,28029
32876,17004,27921
32884,16956,28073
32824,16994,28053
32772,17008,27911
32700,17131,28005
32644,17155,27924
32612,17151,28031
32636,17109,28138
32668,17100,27967
32724,17021,28120
32780,17047,28127
32805,16972,27968
32796,16967,28144
32748,17065,28100
32685,17079,28055
32660,17187,28005
32632,17142,28175
32656,17115,28261
32732,17144,28020
32844,17033,28223
32912,17038,28104
32908,16959,28212
32916,17035,28250
32916,17029,28307
32820,17077,28264
32704,17097,28236
32594,17167,28141
32506,17119,28296
32560,17159,28334
32664,17030,28316
32772,16968,28221
32976,16999,28181
33244,16968,28344
33536,17070,28240
33852,17073,28406
34208,17108,28214
34584,17162,28372
34916,17105,28322
35424,17109,28295
36064,17031,28399
36676,17045,28384
37012,16965,28340
37036,17037,28480
36896,17055,28285
36412,17197,28429
35840,17135,28378
35304,17133,28495
34720,17177,28262
34068,17096,28397
33116,17029,28532
32188,16997,28332
31900,16963,28329
31996,17014,28380
32152,17020,28532
32260,17088,28356
32380,17169,28356
32436,17136,28480
32532,17173,28576
32548,17082,28375
32556,17065,28364
32548,16977,28343
32516,16957,28540
32452,16999,28551
32368,17017,28436
32265,17125,28380
32164,17125,28565
32120,17141,28650
32169,17118,28445
32252,17067,28573
32316,17104,28607
32388,16995,28453
32412,16959,28629
32372,17015,28585
32324,17017,28553
32261,17119,28689
32205,17126,28520
32168,17129,28652
32204,17175,28590
32256,17086,28678
32348,17016,28572
32424,17048,28716
32516,16969,28590
32508,16973,28704
32421,17033,28545
32372,17065,28748
32333,17143,28688
32304,17125,28820
32332,17177,28626
32384,17080,28781
32436,17014,28666
32500,17006,28796
32538,16972,28596
32552,16967,28679
32524,17040,28749
32432,17067,28637
32412,17169,28718
32380,17143,28678
32421,17118,28822
32480,17124,28736
32556,17025,28749
32628,17038,28867
32656,16977,28710
32656,16971,28848
32569,17034,28832
32500,17064,28768
32476,17125,28950
32481,17124,28812
32513,17157,28709
32612,17071,28913
32708,17066,28918
32784,16982,28872
32840,16954,28865
32764,17015,28816
32720,17033,28865
32684,17091,28900
32592,17186,28869
32608,17145,29023
32633,17104,28907
32673,17085,29082
32748,17019,29022
32840,16970,29029
32860,16982,29013
32888,16992,29064
32812,17036,28996
32760,17067,29015
32696,17163,29071
32712,17143,29136
32741,17109,29061
32828,17086,29109
32908,17014,29053
32976,16972,29076
32976,17009,29063
32968,17009,28914
32928,17030,28924
32896,17069,28880
32860,17148,28903
32870,17136,28881
32862,17109,28920
32920,17123,28820
33004,17021,28871
33044,17039,28873
33064,16977,28920
33036,16977,28807
32948,17117,28869
32832,17082,28766
32784,17109,28796
32766,17178,28708
32805,17131,28900
32908,17065,28773
32980,17064,28903
33024,16990,28814
33048,16956,28828
33028,17059,28773
32940,17047,28645
32864,17075,28729
32800,17172,28652
32784,17135,28735
32796,17211,28763
32836,17086,28512
32866,17013,28588
32904,17037,28484
32916,16975,28622
32864,16973,28500
32810,17113,28572
32728,17105,28408
32672,17115,28470
32636,17189,28434
32633,17134,28553
32652,17070,28404
32720,17062,28469
32768,16991,28358
32752,17022,28576
32688,16993,28493
32648,17028,28529
32580,17135,28479
32500,17134,28455
32448,17130,28433
32496,17165,28516
32564,17071,28258
32645,17081,28487
32652,16995,28406
32648,16956,28463
32632,17063,28216
32592,17052,28292
32520,17076,28325
32452,17167,28221
32424,17153,28297
32416,17103,28255
32512,17118,28359
32586,17023,28380
32592,16977,28176
32604,17013,28351
32576,16986,28407
32476,17039,28362
32420,17070,28420
32384,17173,28175
32360,17154,28252
32389,17111,28287
32424,17119,28159
32456,17031,28333
32520,16967,28404
32600,17017,28357
32588,17001,28409
32513,17037,28353
32428,17069,28302
32396,17157,28202
32348,17147,28344
32380,17109,28391
32412,17129,28157
32504,17035,28237
32524,16987,28160
32496,16973,28404
32512,16986,28332
32500,17020,28199
32476,17129,28364
32424,17133,28381
32408,17147,28162
32452,17113,28240
32496,17064,28216
32584,17097,28283
32660,16996,28354
32628,16972,28372
32604,17047,28324
32528,17039,28231
32484,17077,28388
32448,17178,28440
32420,17145,28207
32452,17109,28389
32516,17124,28419
32596,17031,28276
32648,16970,28411
32676,16989,28485
32632,16996,28423
32556,17020,28356
32490,17138,28315
32468,17121,28460
32448,17129,28528
32486,17174,28327
32560,17075,28476
32632,17016,28560
32628,16969,28353
32660,17007,28508
32628,16993,28432
32644,17020,28360
32596,17116,28527
32502,17127,28488
32466,17133,28550
32480,17109,28576
32508,17127,28548
32629,17039,28455
32680,16990,28420
32668,16955,28567
32629,17018,28624
32604,17044,28409
32560,17071,28478
32504,17174,28457
32504,17159,28590
32497,17126,28464
32596,17061,28615
32668,17077,28668
32712,16989,28462
32756,16956,28508
32704,17031,28488
32612,17029,28652
32565,17069,28718
32508,17135,28476
32524,17134,28644
32544,17106,28677
32632,17099,28542
32767,17018,28572
32830,17060,28640
32860,16964,28695
32789,16980,28742
32708,17083,28517
32648,17081,28693
32592,17109,28732
32528,17159,28588
32592,17108,28721
32684,17125,28655
32744,17017,28731
32808,17033,28590
32793,16974,28570
32732,17044,28748
32668,17033,28671
32596,17071,28781
32564,17178,28551
32560,17141,28644
32589,17111,28783
32640,17154,28556
32704,17037,28736
32748,16966,28745
32784,17029,28615
32752,17027,28732
32718,17042,28788
32629,17071,28573
32572,17172,28742
32528,17144,28704
32585,17105,28655
32656,17121,28764
32721,17026,28743
32772,17056,28839
32784,16999,28614
32736,16989,28775
32672,17020,28777
32632,17091,28686
32572,17111,28790
32572,17163,28676
32608,17112,28780
32684,17064,28636
32760,17012,28729
32800,17045,28671
32812,16978,28820
32760,16977,28860
32693,17039,28679
32616,17075,28836
32564,17162,28790
32564,17132,28692
32592,17174,28822
32664,17075,28868
32737,17085,28704
32792,16986,28869
32796,16954,28781
32752,17039,28752
32704,17043,28865
32630,17079,28930
32584,17191,28745
32580,17153,28876
32612,17115,28865
32704,17140,28968
32762,17025,28772
32796,16964,28908
32828,16990,28855
32812,16985,28946
32776,17075,28789
32729,17071,28788
32672,17181,28935
32648,17141,28820
32672,17105,28902
32752,17127,28752
32848,17023,28946
32888,17035,28852
32936,16976,28852
32936,17041,28812
32844,17037,28965
32772,17148,28959
32692,17132,29004
32668,17125,28911
32720,17121,28813
32736,17063,29005
32816,17047,28964
32880,16968,29077
32892,16975,28935
32852,16976,29041
32784,17106,28951
32748,17089,29149
32692,17197,29070
32676,17138,28948
32720,17101,29092
32824,17109,29004
32896,17028,28997
32968,16970,29120
32974,17045,29049
32912,17044,29004
32844,17061,29116
32736,17096,29220
32644,17119,28964
32608,17219,29167
32624,17148,29200
32696,17084,29056
32796,17016,29016
32885,16965,29130
32920,17003,29300
32880,17018,29056
32788,17037,29188
32708,17078,29314
32688,17175,29130
32672,17148,29262
32732,17106,29197
32776,17116,29319
32840,17027,29236
32885,16965,29169
32896,16999,29308
32892,16988,29191
32832,17026,29349
32756,17101,29140
32697,17124,29247
32704,17125,29403
32704,17146,29213
32792,17060,29360
32860,17107,29372
32908,16994,29238
32956,16956,29228
32933,17023,29397
32852,17029,29343
32720,17122,29434
32664,17116,29212
32661,17184,29419
32696,17126,29399
32772,17060,29311
32832,17068,29436
32908,16992,29369
32920,17020,29364
32900,16990,29529
32845,17109,29321
32768,17084,29480
32712,17177,29480
32714,17143,29447
32766,17171,29476
32824,17079,29332
32884,17070,29511
32924,16988,29428
32956,17056,29578
32884,17001,29329
32848,17028,29508
32772,17118,29595
32720,17119,29428
32684,17178,29551
32728,17116,29516
32808,17126,29636
32864,17021,29404
32920,16968,29574
32932,17020,29540
32848,16998,29564
32768,17023,29382
32720,17113,29572
32704,17127,29677
32660,17131,29476
32696,17134,29620
32744,17069,29509
32805,17084,29612
32880,16983,29466
32877,16961,29567
32864,17037,29685
32776,17029,29567
32684,17114,29524
32670,17122,29667
32668,17128,29738
32692,17168,29454
32737,17081,29665
32832,17007,29565
32880,17003,29717
32896,16969,29676
32876,17044,29678
32834,17044,29665
32784,17090,29652
32760,17127,29692
32748,17124,29598
32768,17126,29812
32828,17063,29601
32864,17079,29736
32904,16996,29824
32906,16956,29625
32868,17025,29752
32792,17030,29733
32728,17135,29733
32644,17126,29746
32636,17196,29606
32680,17129,29797
32768,17124,29792
32841,17020,29796
32892,16968,29737
32929,16971,29657
32928,17064,29636
32860,17043,29824
32776,17090,29819
32756,17121,29737
32756,17124,29770
32781,17130,29852
32864,17058,29732
32908,17031,29733
32960,16968,29767
32976,16968,29681
32936,17075,29887
32892,17036,29887
32840,17143,29869
32832,17122,29788
32828,17154,29847
32872,17107,29807
32936,17079,29943
32992,17080,29899
33020,16990,29902
33004,16950,29756
32984,17024,29967
32904,17027,29932
32808,17127,29877
32768,17115,29988
32764,17168,29917
32800,17115,29812
32842,17142,30016
32880,17026,29912
32925,17031,29893
32929,16975,30109
32920,17053,30085
32882,17043,29937
32848,17137,29922
32797,17120,29950
32728,17196,29884
32728,17119,30070
32692,17068,30143
32708,17000,29967
32736,16999,29888
32840,16956,30087
33008,16990,30101
33192,17020,30080
33453,17159,30084
33804,17131,30013
34212,17173,29925
34604,17125,30136
34940,17125,30113
35421,17026,30210
36096,17076,30189
36692,16985,30030
36940,16982,30173
36960,17036,30084
36796,17100,30106
36324,17125,30271
35768,17204,30148
35312,17122,30077
34752,17135,30215
34076,17043,30125
33148,16980,30301
32172,16989,30264
31860,17071,30076
31924,17042,30249
32074,17173,30229
32236,17140,30181
32348,17132,30337
32432,17175,30183
32532,17075,30128
32576,17062,30288
32560,16999,30165
32548,16963,30357
32464,17015,30152
32404,17029,30308
32324,17131,30191
32225,17133,30309
32220,17127,30207
32256,17120,30122
32313,17126,30117
32360,17021,30356
32340,16972,30311
32321,16979,30286
32287,17046,30301
32224,17036,30335
32142,17117,30440
32072,17124,30396
32100,17189,30284
32132,17107,30270
32188,17095,30237
32248,17015,30438
32268,17023,30404
32300,16973,30372
32236,16981,30527
32164,17075,30333
32104,17085,30490
32076,17189,30364
32064,17140,30545
32112,17190,30397
32181,17071,30341
32276,17076,30527
32364,16989,30492
32380,16958,30620
32376,16997,30431
32292,17029,30540
32224,17073,30588
32188,17108,30343
32224,17173,30530
32276,17118,30605
32324,17060,30400
32412,17007,30561
32476,17037,30666
32472,16997,30464
32460,16994,30612
32373,17027,30697
32328,17132,30464
32278,17136,30540
32320,17127,30637
32352,17192,30677
32421,17106,30759
32488,17023,30676
32540,16983,30644
32520,16963,30504
32484,17052,30700
32464,17040,30838
32440,17079,30645
32412,17191,30756
32472,17157,30685
32516,17120,30768
32592,17074,30713
32680,17002,30837
32718,16973,30841
32741,17013,30664
32692,16999,30804
32644,17045,30738
32592,17086,30828
32573,17115,30808
32596,17156,30877
32672,17103,30812
32752,17139,30684
32813,17025,30844
32856,16971,30913
32896,17023,30733
32876,17009,30836
32798,17038,30872
32732,17082,30841
32676,17164,30867
32708,17141,30740
32762,17109,30818
32832,17073,30780
32920,17007,30871
32929,16986,30671
32948,16955,30785
32928,17033,30855
32884,17040,30556
32828,17087,30679
32748,17112,30629
32744,17158,30732
32768,17106,30592
32836,17129,30607
32949,17046,30666
33012,16988,30605
32976,16967,30647
32932,16988,30716
32892,17029,30516
32806,17139,30613
32768,17132,30620
32728,17148,30612
32728,17169,30551
32800,17067,30591
32900,17080,30406
32933,17000,30460
32917,16962,30463
32872,16977,30501
32768,17099,30372
32708,17145,30424
32680,17136,30489
32656,17139,30457
32700,17172,30425
32750,17080,30469
32824,17100,30369
32820,16997,30428
32772,16972,30292
32708,17044,30396
32623,17052,30215
32522,17149,30364
32460,17138,30468
32456,17214,30281
32432,17132,30249
32500,17065,30236
32564,17008,30279
32601,16998,30372
32600,16963,30308
32540,17049,30247
32472,17047,30365
32404,17095,30432
32356,17117,30348
32364,17183,30381
32417,17122,30222
32468,17055,30332
32525,17003,30245
32578,17044,30349
32585,16986,30372
32561,16989,30196
32464,17103,30264
32396,17097,30329
32361,17132,30399
32376,17127,30486
32400,17166,30282
32456,17072,30427
32532,17009,30343
32596,17027,30372
32592,16972,30447
32576,16999,30493
32517,17028,30343
32472,17149,30458
32424,17131,30436
32432,17207,30376
32466,17122,30509
32504,17060,30548
32568,17060,30459
32609,16983,30542
32620,16955,30441
32632,16999,30641
32568,17023,30421
32520,17155,30552
32477,17126,30686
32470,17129,30484
32533,17101,30608
32620,17111,30584
32656,17017,30709
32700,16965,30776
32708,17019,30518
32648,17004,30717
32600,17038,30734
32600,17079,30807
32560,17172,30884
32545,17134,30703
32544,17112,30848
32636,17056,30743
32745,17066,30793
32784,17023,30832
32788,16983,30949
32768,16999,31000
32700,17025,31013
32673,17075,31109
32644,17180,31072
32644,17141,31111
32716,17121,31122
32768,17061,31248
32800,17004,30967
32840,17031,31111
32852,16990,31140
32829,16992,31239
32764,17045,31228
32684,17081,31301
32672,17115,31239
32664,17188,31302
32652,17136,31361
32708,17068,31437
32764,17015,31532
32852,16968,31497
32904,17024,31589
32852,17023,31320
32796,17051,31500
32746,17079,31568
32684,17182,31628
32672,17139,31557
32716,17110,31580
32768,17052,31720
32860,17063,31785
32872,16988,31668
32882,16952,31824
32824,17020,31725
32764,17046,31777
32678,17079,31884
32632,17211,31988
32656,17152,31760
32672,17104,31982
32717,17052,32063
32772,17060,32062
32920,16984,32025
33005,16962,31966
33000,17051,32119
32912,17071,32094
32828,17092,32255
32760,17135,32226
32746,17124,32247
32780,17146,32332
32868,17065,32376
32936,17004,32242
33004,17037,32439
33016,16972,32567
33012,16973,32284
32944,17080,32556
32844,17095,32471
32788,17116,32553
32772,17183,32656
32821,17123,32578
32860,17048,32804
32910,17055,32518
32942,16985,32679
32952,16955,32708
32900,17044,32854
32820,17047,32988
32752,17074,32840
32700,17121,32982
32685,17181,33112
32696,17112,32954
32728,17051,33104
32812,17081,33209
32848,16997,33041
32880,16966,33181
32848,16989,33184
32796,17026,33287
32749,17136,33448
32692,17137,33298
32708,17130,33429
32740,17096,33556
32820,17084,33420
32904,17013,33565
32940,16965,33616
32916,17034,33503
32909,17023,33567
32824,17053,33629
32759,17079,33791
32684,17155,33842
32700,17144,33772
32782,17103,33842
32824,17123,33868
32912,17033,33976
32956,16970,34104
32918,17044,34093
32844,16999,34064
32800,17029,34196
32736,17147,34230
32704,17140,34270
32704,17140,34368
32733,17104,34404
32826,17057,34385
32908,17092,34501
32961,17020,34611
32960,16971,34524
32986,16982,34660
32949,17056,34661
32920,17073,34886
32904,17131,34773
32920,17197,34796
32957,17119,34932
33036,17122,34957
33080,17027,35152
33164,16964,35006
33176,17017,35132
33120,16989,35301
33048,17089,35356
32958,17102,35121
32896,17185,35406
32892,17144,35567
32944,17095,35439
32984,17093,35596
33048,17025,35615
33092,16964,35628
33096,17026,35660
33068,17013,35752
33004,17037,35850
32928,17082,35881
32872,17118,35993
32876,17177,36208
32892,17117,35887
32944,17068,36096
33020,16996,36309
33032,17026,36197
32944,16986,36325
32892,16998,36486
32848,17028,36537
32794,17147,36479
32768,17141,36711
32810,17120,36639
32864,17116,36681
32904,17073,36864
33020,17002,37081
33136,16964,36793
33160,16985,37037
33140,16994,37100
33104,17024,37204
33068,17110,37412
32960,17119,37311
32960,17203,37444
32960,17114,37521
32992,17063,37503
33025,16996,37612
33064,17001,37796
33073,16973,37463
33064,16978,37775
32972,17092,37650
32872,17122,38045
32850,17135,37968
32896,17130,38029
32924,17093,38237
32988,17114,38272
33073,17023,38438
33092,16961,38212
33076,16989,38489
33000,17001,38684
32932,17024,38612
32884,17124,38585
32840,17123,38905
32804,17189,38800
32840,17122,38932
32900,17052,38933
33004,17044,39180
33076,16959,39169
33088,16967,39120
33068,17054,38919
32992,17039,39268
32944,17174,39519
32836,17159,39081
32816,17128,39508
32856,17157,39740
32916,17065,39620
32986,17092,39741
33020,16987,39812
32976,17027,39750
32904,16993,39879
32852,17064,40135
32768,17076,40166
32724,17158,39792
32736,17125,40197
32792,17140,40191
32888,17051,40471
32968,17038,40196
33004,16980,40448
33004,16956,40700
32972,16999,40641
32888,17031,40605
32744,17099,40765
32712,17117,40757
32716,17173,41007
32764,17108,40727
32836,17051,41028
32908,17026,41237
32952,16967,40737
32972,16959,41231
32964,17037,41184
32924,17039,41349
32888,17083,41493
32876,17146,41424
32884,17143,41527
32892,17096,41693
32932,17095,41676
33004,17005,41704
33068,16958,41799
33057,16998,41893
33036,16996,41933
32980,17029,41972
32884,17112,42101
32860,17117,42300
32864,17185,42069
32880,17106,42312
32937,17121,42310
32976,17026,42356
33080,16962,42508
33084,17021,42488
33008,16994,42692
32925,17030,42700
32880,17143,42705
32846,17131,42532
32853,17120,42940
32873,17122,43028
32916,17047,43047
32992,17028,42729
33020,16971,43140
33000,17020,43321
32952,17001,43249
32868,17028,43421
32772,17087,43462
32696,17109,43553
32678,17154,43484
32732,17097,43714
32807,17102,43590
32888,17009,43744
32916,16963,43911
32924,16981,43797
32888,16981,43988
32844,17087,44038
32782,17095,44097
32732,17190,44129
32716,17176,44108
32745,17110,44356
32776,17047,44335
32848,17084,44191
32904,16981,44517
32924,16954,44570
32904,17046,44472
32857,17063,44722
32764,17088,44733
32768,17117,44878
32752,17183,44845
32692,17116,44800
32696,17046,44956
32732,17063,44975
32736,16972,45177
32760,16953,45172
32848,17033,44956
32954,17036,45205
33168,17077,45216
33444,17156,45431
33817,17132,45476
34292,17094,45590
34733,17066,45469
35104,17102,45633
35632,16982,45661
36257,16957,45712
36748,17031,45806
37060,17040,45575
36984,17190,45959
36741,17139,45868
36260,17127,45935
35526,17136,46044
34960,17075,46094
34537,17008,46007
33945,17011,46253
32933,16972,46199
31916,17028,46241
31620,17052,46423
31688,17145,46336
31936,17127,46471
32176,17129,46181
32321,17124,46599
32432,17056,46623
32540,17060,46463
32624,16983,46708
32642,17012,46757
32568,17001,46406
32464,17031,46884
32368,17101,46892
32332,17120,46852
32312,17176,46991
32320,17111,46956
32388,17061,47049
32456,16997,47104
32468,17017,47068
32444,16979,47150
32412,17054,47220
32336,17052,47252
32292,17152,47278
32224,17136,47172
32208,17123,47420
32309,17157,47408
32380,17111,47441
32448,17021,47505
32504,16968,47572
32516,16959,47576
32496,17004,47638
32472,17031,47680
32406,17082,47717
32341,17151,47708
32360,17124,47773
32424,17146,47680
32502,17052,47867
32484,17057,47862
32540,16975,47852
32572,16953,47982
32545,17031,47968
32472,17044,47957
32424,17156,48028
32416,17135,48012
32428,17123,48069
32476,17157,48157
32533,17065,48088
32572,16997,48116
32620,17012,48263
32644,16973,48247
32628,16986,48181
32596,17089,48353
32560,17093,48297
32584,17177,48383
32560,17143,48164
32592,17098,48420
32692,17084,48492
32788,17009,48076
32832,17033,48536
32848,16977,48532
32816,16980,48485
32752,17061,48623
32684,17081,48576
32660,17168,48660
32700,17130,48663
32768,17133,48578
32792,17049,48263
32860,17009,48775
32912,17012,48773
32944,16958,48709
32924,17009,48821
32840,17036,48647
32788,17185,48804
32740,17133,48844
32748,17124,48772
32772,17125,48866
32834,17054,48825
32912,17060,48903
32932,16981,48693
32964,17022,48896
32956,16999,48892
32932,17031,48716
32876,17125,48928
32832,17129,48903
32844,17206,48837
32904,17117,48844
32941,17109,48903
32992,17014,48903
33060,17052,48829
33036,16966,48709
32976,17055,48887
32948,17048,48789
32879,17089,48676
32836,17184,48837
32823,17135,48812
32856,17103,48404
32924,17048,48708
32976,17038,48772
33016,16965,48636
32968,17004,48665
32921,16996,48631
32884,17031,48668
32824,17112,48485
32756,17121,48621
32729,17206,48518
32752,17124,48556
32796,17049,48192
32888,17049,48500
32921,16964,48381
32904,17025,48423
32821,17003,48388
32724,17029,48308
32638,17157,48249
32560,17140,48295
32548,17132,48148
32574,17097,48175
32632,17087,48111
32672,16998,48124
32732,17010,48000
32688,16977,48006
32632,16983,47948
32544,17080,47893
32490,17094,47812
32440,17116,47705
32428,17176,47821
32460,17114,47708
32508,17046,47568
32568,17029,47665
32576,16983,47577
32597,17037,47483
32576,17018,47495
32512,17039,47385
32428,17149,47332
32356,17135,46943
32352,17190,47276
32380,17109,47137
32456,17047,47128
32552,17018,46972
32580,16965,47044
32532,16996,46927
32472,16982,46855
32380,17071,46558
32318,17089,46781
32272,17205,46636
32288,17183,46501
32376,17105,46173
32480,17049,46484
32556,17054,46373
32560,16969,46313
32532,17025,45908
32517,16999,46127
32456,17031,46137
32406,17112,45957
32400,17120,45659
32433,17185,45925
32460,17103,45764
32496,17044,45756
32556,17022,45386
32632,16962,45644
32638,16999,45465
32621,16990,45447
32553,17039,45142
32432,17123,45281
32384,17135,45209
32384,17124,44820
32420,17158,44952
32528,17073,44948
32620,17004,44596
32661,16965,44728
32676,16997,44753
32622,16996,44372
32548,17032,44647
32500,17143,44397
32456,17132,44423
32456,17208,44259
32452,17116,44263
32580,17052,44167
32668,17091,44116
32708,16985,43916
32704,16964,43975
32652,16985,43727
32592,17085,43818
32548,17107,43468
32488,17202,43687
32496,17142,43428
32544,17095,43517
32612,17092,43055
32672,17005,43344
32708,17025,43143
32712,16966,43222
32660,17047,42928
32556,17053,43015
32496,17149,42912
32512,17126,42781
32524,17145,42820
32560,17092,42599
32612,17093,42181
32672,17015,42456
32705,17029,42388
32732,16968,42338
32678,16989,42245
32608,17031,42180
32552,17120,41988
32508,17126,41983
32496,17180,41804
32572,17108,41912
32656,17100,41654
32748,17008,41604
32788,16961,41701
32788,17012,41109
32720,16994,41241
32672,17028,41220
32608,17123,41213
32585,17122,41049
32564,17188,40967
32650,17112,40959
32684,17049,40922
32760,17045,40552
32792,16986,40605
32820,16962,40680
32812,17021,40509
32752,17033,40292
32684,17144,40418
32620,17132,40255
32632,17120,40116
32656,17175,40028
32725,17068,39943
32776,16989,40060
32848,16999,39768
32852,16959,39751
32820,17029,39610
32780,17033,39622
32684,17132,39500
32627,17136,39215
32628,17122,39278
32641,17135,39236
32708,17046,39076
32760,17049,39033
32788,16964,38913
32797,17020,39001
32768,17007,38649
32736,17101,38722
32700,17105,38614
32608,17116,38527
32600,17180,38449
32621,17112,38493
32716,17045,37989
32804,17038,38107
32826,16961,38148
32808,17023,38025
32776,17012,38004
32736,17048,37861
32688,17081,37908
32656,17211,37708
32656,17148,37720
32696,17108,37536
32748,17054,37410
32828,16994,37509
32894,17025,37246
32872,16977,37222
32852,16986,37108
32792,17093,36994
32718,17103,36668
32684,17116,36929
32696,17182,36912
32716,17103,36677
32828,17044,36697
32896,17034,36591
32904,16978,36524
32904,16961,36436
32880,17048,36221
32828,17036,36416
32788,17161,36092
32704,17156,36069
32673,17140,36042
32700,17114,35943
32744,17049,35974
32833,17094,35832
32888,17016,35724
32900,16975,35824
32840,16981,35391
32808,17031,35428
32732,17079,35408
32680,17190,35396
32720,17136,35457
32772,17099,35010
32876,17044,35140
32997,17055,35196
33057,16980,34782
33056,16965,34859
32992,16983,34852
32896,17093,34860
32788,17106,34904
32780,17140,34452
32774,17124,34608
32844,17143,34645
32864,17058,34528
32952,17002,34424
32948,16963,34300
32965,17029,34197
32908,17023,34191
32848,17047,34192
32776,17101,34148
32728,17131,34039
32736,17136,33932
32756,17095,33920
32816,17125,33935
32880,17060,33807
32924,16992,33812
32940,16969,33706
32892,16986,33747
32828,17031,33309
32748,17145,33376
32728,17140,33481
32692,17119,33405
32716,17146,33245
32788,17075,33052
32848,17018,33093
32868,16959,33124
32868,17021,33109
32824,17025,33153
32772,17039,32912
32733,17140,32716
32692,17140,32893
32700,17120,32721
32720,17137,32861
32781,17069,32722
32848,16996,32599
32848,17011,32714
32864,16964,32464
32833,17055,32262
32737,17047,32424
32676,17085,32412
32656,17186,32354
32672,17144,32188
32700,17093,32228
32776,17090,32207
32828,17001,32084
32844,17052,32132
32820,16978,31949
32776,16981,31999
32708,17078,31952
32636,17089,31884
32640,17159,31618
32652,17123,31800
32628,17124,31761
32716,17041,31599
32800,17015,31447
32884,16961,31572
32864,16973,31663
32780,17040,31499
32728,17052,31388
32656,17092,31304
32628,17112,31372
32692,17178,31389
32728,17116,31140
32784,17121,31220
32832,17013,31248
32896,16961,31007
32880,17013,31097
32872,17009,31148
32848,17103,30896
32792,17100,30980
32724,17189,30832
32752,17137,30927
32762,17151,30677
32792,17065,30792
32848,17092,30761
32872,16983,30748
32848,16954,30454
32800,17036,30615
32708,17044,30689
32676,17156,30437
32657,17136,30527
32692,17119,30436
32736,17111,30437
32820,17141,30265
32869,17007,30351
32924,16961,30324
32876,16987,30196
32800,16984,30094
32756,17063,30185
32668,17083,30174
32640,17148,30020
32656,17128,30102
32688,17152,29957
32756,17047,30096
32884,16994,29799
32884,16985,29977
32896,17038,29860
32844,16995,29798
32760,17031,29862
32668,17113,29820
32665,17119,29787
32716,17165,29786
32732,17093,29628
32800,17062,29520
32852,16993,29677
32848,17012,29668
32844,16970,29520
32805,17058,29452
32728,17053,29562
32712,17082,29497
32692,17132,29551
32670,17120,29387
32686,17117,29445
32736,17057,29376
32812,16993,29253
32880,16988,29353
32908,16960,29295
32864,16987,29319
32836,17092,29113
32784,17103,29175
32736,17119,29182
32684,17157,29000
32660,17097,29180
32648,17103,29159
32720,16999,29154
32780,17029,28940
32928,16970,29022
33084,17057,29112
33292,17056,28874
33588,17137,28856
33928,17131,28972
34325,17205,28901
34694,17109,28989
35060,17044,28757
35588,17040,28821
36220,16985,28741
36784,16957,28816
36974,17042,28634
36912,17062,28751
36652,17121,28716
36124,17129,28534
35597,17169,28692
35028,17103,28741
34506,17103,28545
33776,17017,28642
32680,17066,28533
31944,16991,28533
31796,16995,28588
31904,17042,28486
32045,17130,28400
32200,17129,28531
32312,17177,28486
32388,17106,28477
32484,17134,28456
32546,17020,28319
32532,16964,28407
32516,17004,28486
32448,16993,28294
32328,17081,28377
32224,17089,28359
32140,17148,28412
32164,17127,28192
32204,17140,28133
32244,17057,28189
32300,17076,28207
32352,16980,28274
32356,16956,28140
32320,17013,28308
32233,17034,28127
32148,17137,28222
32112,17127,28132
32142,17175,28089
32232,17095,28028
32288,17101,28173
32368,17005,28084
32396,17021,28117
32428,16978,27957
32424,16981,28099
32344,17057,28161
32288,17091,27926
32240,17165,28080
32260,17138,28129
32320,17089,27911
32405,17061,27913
32432,16992,28020
32497,17011,28015
32496,16981,27820
32462,16996,27933
32392,17031,27863
32341,17136,27957
32320,17127,27972
32320,17137,27749
32336,17163,27880
32424,17060,27879
32482,17071,27793
32556,16981,27866
32578,16959,27833
32520,17049,27852
32473,17055,27692
32413,17085,27825
32404,17183,27759
32380,17135,27649
32428,17093,27783
32489,17102,27685
32556,17009,27758
32592,17042,27641
32648,16973,27590
32588,16983,27737
32508,17053,27804
32452,17084,27593
32420,17164,27740
32429,17127,27683
32492,17159,27732
32528,17052,27568
32608,17068,27704
32660,16980,27576
32685,17039,27636
32696,17016,27518
32633,17039,27652
32600,17152,27577
32568,17129,27606
32596,17119,27472
32656,17147,27601
32736,17049,27476
32828,17071,27456
32876,17001,27551
32881,16975,27560
32836,16984,27364
32792,17090,27481
32773,17108,27333
32716,17125,27480
32728,17184,27508
32768,17138,27428
32844,17052,27464
32904,16991,27281
32936,17007,27346
32940,16954,27309
32940,17026,27373
32856,17057,27158
32808,17085,27118
32768,17131,27279
32768,17214,27224
32812,17106,27117
32852,17042,27254
32832,17051,27074
32900,16973,26988
32932,16953,27143
32852,17046,27007
32784,17047,27156
32686,17087,26928
32628,17174,27060
32616,17127,26932
32704,17151,26957
32788,17063,26852
32832,16989,26978
32885,16974,26949
32876,16956,26831
32836,17002,26924
32770,17122,26748
32673,17116,26881
32592,17124,26740
32584,17178,26693
32600,17102,26807
32620,17092,26767
32660,17015,26800
32712,16957,26647
32712,17004,26636
32644,16984,26761
32568,17049,26541
32488,17145,26560
32392,17125,26645
32408,17185,26696
32464,17105,26489
32536,17124,26493
32552,17012,26561
32600,16958,26548
32592,16985,26443
32548,16999,26503
32430,17119,26407
32344,17113,26549
32296,17112,26579
32300,17159,26376
32356,17094,26532
32424,17135,26564
32452,17001,26353
32460,17041,26511
32464,16968,26444
32433,17051,26333
32372,17056,26499
32334,17087,26519
32300,17173,26368
32306,17129,26384
32336,17171,26316
32372,17073,26473
32429,16997,26515
32504,16960,26309
32500,16985,26465
32493,16989,26464
32432,17089,26309
32364,17106,26464
32357,17116,26438
32380,17172,26305
32404,17103,26436
32480,17037,26464
32552,17046,26455
32592,16990,26460
32584,16977,26282
32628,16988,26436
32560,17094,26489
32476,17094,26293
32432,17119,26456
32442,17139,26348
32512,17145,26498
32593,17043,26329
32653,17062,26453
32712,16972,26372
32708,16955,26415
32676,17041,26324
32570,17041,26468
32480,17129,26377
32457,17116,26472
32461,17138,26440
32524,17151,26304
32596,17055,26476
32648,17055,26359
32677,16969,26477
32672,17022,26325
32656,16998,26490
32604,17036,26450
32520,17103,26445
32448,17112,26417
32452,17148,26340
32476,17089,26509
32526,17062,26440
32636,16990,26555
32696,17005,26368
32701,16957,26519
32660,17052,26584
32612,17055,26387
32532,17177,26393
32470,17133,26565
32464,17168,26564
32532,17090,26461
32584,17070,26564
32661,16990,26413
32701,16977,26425
32664,16957,26589
32668,16999,26471
32624,17033,26611
32549,17103,26441
32552,17117,26476
32528,17146,26494
32548,17085,26524
32652,17077,26506
32716,16992,26583
32768,17007,26649
32756,16978,26471
32720,16984,26607
32696,17070,26648
32660,17100,26477
32596,17120,26622
32584,17169,26581
32636,17105,26661
32686,17047,26697
32764,17033,26652
32796,16972,26536
32780,17033,26600
32746,16999,26508
32648,17031,26639
32548,17143,26679
32532,17133,26503
32552,17119,26650
32640,17125,26631
32692,17055,26526
32780,16994,26617
32788,17031,26514
32796,16977,26670
32760,17063,26552
32684,17049,26700
32604,17173,26504
32564,17143,26663
32544,17121,26541
32578,17127,26638
32680,17060,26653
32756,16992,26535
32770,16959,26486
32804,17007,26644
32737,17012,26565
32692,17053,26649
32608,17080,26620
32572,17117,26505
32573,17181,26549
32596,17124,26474
32669,17057,26645
32744,16991,26645
32772,16983,26489
32808,16976,26619
32786,16982,26671
32718,17084,26495
32646,17104,26644
32608,17116,26692
32616,17188,26501
32644,17097,26575
32720,17041,26672
32780,17007,26462
32884,16956,26638
32932,16998,26607
32868,16983,26539
32812,17102,26665
32756,17108,26487
32721,17127,26620
32724,17201,26616
32780,17124,26475
32828,17056,26643
32901,17085,26548
32945,16978,26684
32920,16951,26486
32864,17053,26631
32785,17057,26672
32752,17087,26484
32724,17196,26655
32700,17160,26703
32788,17108,26508
32845,17039,26612
32894,17054,26594
32944,16975,26685
32904,16956,26699
32872,16996,26532
32824,17053,26677
32772,17164,26582
32745,17129,26647
32764,17121,26711
32820,17141,26693
32876,17053,26751
32904,17068,26584
32904,16996,26594
32872,16973,26631
32852,16987,26623
32804,17095,26757
32748,17099,26798
32696,17117,26624
32688,17181,26677
32756,17103,26740
32828,17039,26815
32892,17051,26796
32920,16980,26677
32924,16975,26761
32888,16989,26798
32820,17065,26697
32716,17097,26834
32636,17114,26922
32644,17169,26720
32676,17099,26895
32744,17044,26933
32820,17057,26759
32864,16971,26769
32852,17047,26885
32814,17004,26956
32736,17039,26964
32652,17102,26798
32592,17195,26803
32668,17139,26863
32724,17167,26999
32792,17061,27004
32844,17068,27004
32880,16980,26935
32885,16954,27086
32844,17037,26881
32768,17055,26892
32686,17175,27080
32612,17132,26986
32620,17122,27060
32702,17140,26926
32778,17044,27108
32860,17073,27010
32904,16975,27181
32904,17025,26989
32832,17013,27159
32800,17039,27053
32736,17122,27232
32669,17116,27127
32704,17176,27033
32748,17100,27213
32808,17076,27222
32892,16991,27209
32928,17009,27125
32944,16971,27236
32928,16989,27105
32812,17090,27111
32733,17108,27280
32672,17117,27244
32656,17141,27338
32704,17088,27274
32820,17084,27173
32924,16997,27197
32984,16958,27346
32980,16975,27309
32928,16989,27369
32888,17031,27205
32828,17148,27369
32800,17137,27323
32784,17122,27429
32820,17102,27239
32841,17039,27266
32917,17002,27277
32920,17023,27425
32928,16974,27343
32876,16988,27466
32822,17079,27273
32784,17101,27429
32748,17115,27519
32720,17203,27308
32758,17115,27445
32848,17053,27436
32908,16992,27497
32980,17015,27456
33012,16989,27508
33008,16999,27364
32972,17034,27532
32856,17151,27463
32804,17141,27498
32832,17201,27404
32880,17111,27421
32948,17037,27413
32996,17026,27573
33096,16983,27556
33092,16951,27585
33025,17032,27557
32942,17060,27421
32848,17087,27608
32821,17133,27543
32840,17120,27682
32885,17087,27477
32952,17075,27636
33036,16997,27607
33060,16956,27684
33048,17023,27493
33040,16997,27655
