ECG,EDA,RR
32800,8100,31508
32832,8105,31650
32852,8044,31654
32816,8023,31789
32760,8007,31740
32740,8047,31399
32636,8039,31688
32504,8108,31652
32448,8125,31671
32508,8107,31668
32664,8191,31405
32697,8099,31673
32680,8058,31751
32676,8007,31639
32636,8018,31445
32560,8014,31737
32412,8073,31615
32292,8089,31812
32232,8098,31468
32256,8163,31720
32316,8138,31788
32384,8082,31769
32496,8090,31780
32684,8047,31750
32744,8036,31729
32681,8019,31814
32576,8079,31714
32474,8098,31949
32400,8101,31786
32393,8186,31599
32384,8126,31885
32476,8084,31751
32602,8059,31901
32692,8073,31894
32708,8027,31866
32670,8027,32063
32576,8042,31717
32528,8075,31917
32524,8129,32092
32472,8151,31900
32525,8117,31933
32576,8083,32039
32688,8104,31789
32728,8044,31897
32745,8013,32128
32688,8033,31820
32592,8065,32066
32514,8079,32128
32442,8114,32077
32396,8148,31892
32513,8122,32129
32692,8139,32159
32817,8083,32068
32952,8033,32247
32968,8017,32158
32880,8080,32013
32752,8081,32157
32613,8106,32207
32464,8124,32278
32388,8163,32172
32400,8133,32288
32518,8125,32301
32677,8063,32321
32830,8079,32207
32900,8052,32367
32908,8040,32287
32840,8073,32407
32700,8077,32212
32648,8147,32451
32608,8158,32425
32604,8114,32524
32716,8133,32212
32812,8081,32519
32924,8036,32687
32960,8063,32503
32908,8051,32615
32832,8069,32580
32704,8124,32695
32604,8122,32584
32652,8173,32693
32728,8139,32710
32837,8101,32868
32908,8113,32676
32928,8055,32798
32904,8031,32800
32880,8091,32854
32760,8075,32567
32660,8100,32807
32528,8127,32987
32440,8182,32612
32488,8160,32909
32576,8109,33063
32776,8111,32901
32976,8081,32995
33092,8038,32998
33060,8075,32908
32944,8099,33150
32852,8099,32775
32716,8174,33055
32656,8167,33215
32616,8136,33014
32668,8159,33152
32801,8107,33081
32900,8064,33244
32988,8041,32949
33012,8098,33263
32900,8098,33245
32748,8105,33342
32726,8163,33282
32720,8151,33340
32788,8172,33332
32888,8122,33239
32906,8132,33516
32940,8085,33277
32910,8047,33432
32808,8097,33392
32660,8097,33380
32582,8113,33489
32552,8143,33639
32572,8205,33420
32692,8157,33505
32826,8126,33693
32916,8143,33508
32991,8080,33569
33008,8061,33650
32972,8069,33669
32872,8101,33644
32788,8119,33799
32696,8187,33676
32640,8161,33486
32684,8258,33716
32792,8153,33761
32928,8102,33828
33076,8106,33822
33172,8073,33669
33176,8071,33825
33130,8128,33679
33020,8138,33952
32856,8164,33775
32722,8198,33847
32684,8188,33737
32800,8133,34007
32892,8155,33612
32996,8084,33879
32996,8068,34037
32888,8158,33884
32686,8119,33845
32528,8129,33922
32460,8197,33944
32496,8203,33855
32526,8168,33932
32624,8188,33972
32732,8127,33995
32856,8127,33944
32956,8105,34055
32936,8082,34121
32792,8148,34100
32700,8158,33995
32622,8169,33942
32744,8217,33927
32904,8191,34013
33048,8167,34181
33228,8125,33993
33276,8093,34105
33308,8143,33956
33272,8133,34183
33244,8138,33952
33184,8153,34141
33148,8180,34087
33140,8187,34069
33234,8221,34164
33324,8179,34151
33300,8125,34049
33209,8132,34311
33149,8098,34030
33089,8107,34207
32996,8120,34151
32888,8161,34141
32828,8183,34342
32804,8199,34188
32832,8210,33909
32984,8164,34239
33092,8137,34213
33156,8125,34320
33143,8102,34159
33076,8097,34251
32944,8147,34199
32824,8148,34223
32744,8183,34289
32668,8213,34191
32693,8213,34244
32724,8165,34250
32781,8183,34120
32852,8115,34360
32916,8095,34182
32880,8181,34213
32728,8121,34149
32700,8199,34228
32600,8200,34210
32576,8199,34183
32625,8236,34328
32737,8178,34165
32884,8143,34245
33096,8153,34216
33200,8122,34148
33160,8101,34376
33032,8152,34332
32804,8187,34183
32580,8193,34252
32346,8313,34196
32196,8232,34405
32093,8189,34311
32048,8199,34276
32140,8113,34220
32212,8094,34076
32304,8151,34295
32385,8140,34191
32352,8156,34420
32260,8223,34311
32282,8224,34343
32428,8229,34237
32517,8207,34457
32772,8144,34295
33012,8111,34396
33137,8101,34407
33200,8110,34417
33356,8172,34080
33508,8185,34356
33576,8202,34548
33896,8310,34345
34496,8223,34105
35118,8186,34422
35748,8150,34310
36368,8134,34481
36656,8133,34480
36672,8109,34253
36444,8181,34463
36044,8197,34500
35648,8198,34415
35340,8231,34567
35044,8210,34505
34764,8225,34311
34432,8163,34525
34042,8111,34428
33693,8120,34372
33244,8113,34622
32864,8137,34509
32544,8212,34382
32324,8211,34604
32196,8209,34400
32136,8241,34470
32230,8195,34490
32324,8180,34246
32396,8119,34412
32404,8114,34337
32368,8109,34361
32248,8169,34287
32124,8199,34361
31997,8198,34344
31937,8259,34365
31936,8217,34017
32012,8183,34337
32108,8155,34326
32180,8135,34460
32286,8101,34350
32384,8144,34023
32388,8161,34221
32292,8176,34375
32188,8204,34107
32164,8209,34380
32180,8267,34532
32268,8214,34305
32464,8175,34428
32512,8133,34600
32474,8127,34327
32428,8136,34471
32340,8147,34613
32268,8170,34520
32168,8205,34567
32160,8267,34580
32228,8235,34588
32340,8202,34567
32416,8176,34751
32432,8120,34617
32384,8160,34672
32319,8145,34623
32269,8169,34801
32169,8167,34409
32085,8212,34743
32104,8271,34927
32252,8259,34764
32360,8234,34847
32472,8192,34861
32668,8137,34917
32748,8121,34840
32676,8129,34943
32548,8156,34980
32420,8214,35025
32300,8246,34916
32280,8221,35022
32284,8322,34912
32344,8229,35148
32448,8185,34751
32596,8149,35068
32684,8119,34948
32708,8169,35223
32676,8163,35124
32572,8190,34932
32485,8282,35144
32528,8255,35093
32636,8229,35079
32768,8199,35112
32952,8218,34863
33016,8153,35174
33052,8129,35101
33000,8140,35311
32934,8209,35100
32864,8227,35217
32775,8253,35069
32720,8236,35346
32708,8233,35153
32689,8241,35247
32728,8193,35138
32808,8159,35249
32836,8139,35253
32844,8148,35146
32800,8288,35369
32696,8230,35194
32636,8267,34959
32660,8250,35295
32772,8266,35235
32960,8229,35428
33068,8183,35245
33188,8192,35324
33230,8165,35296
33212,8158,35271
33104,8174,35367
32996,8201,35396
32960,8232,35188
33076,8293,35400
33248,8246,35281
33310,8233,35446
33465,8192,35439
33517,8151,35591
33517,8186,35567
33404,8182,35148
33226,8175,35508
33112,8218,35444
33068,8237,35696
33156,8300,35210
33276,8249,35557
33416,8212,35719
33496,8205,35613
33572,8149,35796
33524,8180,35575
33396,8171,35680
33188,8207,35863
33036,8206,35461
32968,8235,35662
32876,8316,35810
32778,8268,35791
32732,8249,35807
32676,8178,35869
32624,8202,35892
32504,8167,35621
32384,8165,35904
32313,8192,36110
32324,8205,35776
32320,8292,36036
32417,8262,36022
32516,8242,36069
32698,8221,36049
32904,8219,35813
32988,8167,36142
32932,8145,36309
32824,8216,36144
32712,8196,36271
32572,8220,36268
32440,8242,36255
32350,8256,36348
32324,8260,36287
32460,8226,36543
32608,8181,36310
32748,8206,36436
32828,8169,36481
32772,8168,36503
32657,8292,36466
32524,8222,36525
32369,8255,36504
32368,8255,36703
32462,8269,36512
32600,8240,36610
32668,8197,36732
32700,8150,36665
32776,8189,36693
32676,8167,36740
32545,8178,36817
32412,8235,36467
32348,8260,36772
32324,8252,36951
32404,8293,36800
32700,8232,36487
32860,8193,36884
32908,8191,36815
32932,8164,36972
32788,8165,36706
32576,8194,36991
32364,8208,36988
32292,8294,37143
32244,8286,37092
32236,8249,36879
32344,8260,37135
32468,8225,37144
32623,8180,36757
32764,8186,37119
32784,8166,37357
32726,8199,37189
32664,8221,37260
32628,8295,37261
32556,8264,37167
32548,8289,37471
32520,8261,37249
32576,8217,37273
32592,8166,37536
32652,8214,37445
32568,8210,37444
32513,8220,37164
32480,8242,37511
32569,8261,37657
32628,8266,37596
32680,8273,37613
32664,8266,37737
32732,8213,37276
32812,8293,37617
32768,8198,37701
32664,8200,37767
32528,8213,37915
32452,8248,37528
32320,8293,37917
32328,8268,37461
32396,8296,37862
32508,8270,37980
32656,8222,38053
32728,8193,37969
32740,8272,37972
32684,8193,37732
32604,8204,38076
32568,8274,37956
32516,8292,38191
32476,8281,38159
32512,8268,38213
32632,8250,37815
32752,8223,38212
32788,8179,38222
32788,8174,38293
32764,8214,38404
32716,8215,38308
32712,8239,38380
32661,8273,38559
32664,8279,38469
32756,8271,38597
32933,8303,38329
33145,8239,38535
33176,8192,38500
33088,8293,38663
32916,8218,38357
32924,8219,38633
32860,8244,38757
32748,8273,38456
32701,8283,38684
32854,8348,38852
33020,8287,38782
33104,8235,38736
33144,8193,38975
33053,8174,38892
32868,8250,38871
32696,8226,39046
32612,8269,38544
32564,8279,38937
32510,8294,39160
32576,8331,38639
32644,8312,38956
32865,8263,39108
33020,8223,39132
33096,8190,39196
33052,8190,39234
32948,8218,39188
32805,8332,39185
32728,8322,39412
32776,8304,39252
32848,8295,39332
32988,8285,39493
33104,8239,39329
33188,8194,39375
33180,8186,39429
33120,8215,39431
32992,8221,39442
32764,8309,39417
32548,8321,39558
32412,8319,39421
32508,8316,39559
32676,8265,39524
32805,8233,39732
32888,8199,39631
32879,8286,39204
32852,8257,39540
32944,8224,39523
33081,8300,39726
33084,8329,39652
33066,8324,39830
33120,8307,39335
33204,8283,39746
33304,8242,39904
33388,8211,39911
33388,8233,39685
33362,8234,39871
33292,8227,39910
33296,8300,39920
33344,8310,40003
33345,8313,39804
33338,8292,39980
33400,8289,39901
33452,8249,40029
33508,8254,40153
33528,8215,40033
33504,8215,39607
33316,8267,40077
33248,8261,40079
33176,8314,40071
33144,8335,40138
33120,8299,40161
33116,8340,40130
33036,8287,40095
33017,8237,40265
33020,8229,39888
32972,8223,40199
32958,8232,40372
32820,8269,40231
32760,8318,40237
32732,8319,40262
32700,8305,40285
32804,8325,39892
32916,8281,40295
33110,8235,40388
33160,8211,40292
33180,8227,40340
33049,8295,40411
32872,8292,40455
32708,8339,40372
32541,8322,40279
32460,8313,40537
32508,8334,40394
32634,8277,40308
32784,8229,40565
32748,8305,39989
32632,8262,40348
32413,8279,40540
32128,8289,40500
31952,8318,40693
31912,8327,40153
31988,8364,40455
32145,8317,40548
32412,8279,40610
32544,8345,40765
32556,8255,40509
32569,8265,40577
32620,8261,40717
32704,8354,40722
32884,8342,40860
33030,8341,40708
33072,8372,40754
33112,8319,40691
33440,8281,40886
33636,8287,40638
33640,8243,40801
33768,8242,40812
34208,8320,40813
34636,8325,40877
35017,8329,40821
35500,8377,41068
35920,8351,40686
36285,8313,40903
36432,8313,40935
36336,8254,40855
36144,8237,41028
35828,8291,40926
35520,8281,40948
35096,8305,40842
34652,8343,41135
34226,8383,40934
33744,8353,40976
33376,8327,41091
33048,8293,40606
32780,8261,40956
32492,8274,41065
32314,8265,40740
32190,8301,40828
32108,8319,40916
31989,8345,40863
31940,8416,40693
32020,8359,40960
32056,8325,40732
32120,8293,40753
32172,8300,40708
32224,8285,40768
32206,8260,40276
32165,8329,40711
32120,8343,40636
32084,8346,40839
32064,8360,40412
32096,8381,40732
32140,8335,40593
32325,8305,40858
32568,8316,40711
32604,8277,40703
32549,8269,40860
32449,8292,40740
32328,8320,40656
32264,8395,40933
32173,8384,40320
32048,8371,40805
32066,8343,40720
32124,8311,40756
32188,8299,41055
32166,8279,40924
32182,8281,40801
32068,8301,40954
31956,8382,40989
31904,8405,41177
31912,8394,40551
32069,8377,41004
32232,8355,41204
32300,8324,41113
32372,8309,40876
32464,8274,41164
32492,8284,41053
32468,8348,41276
32385,8357,40711
32344,8408,41089
32348,8390,41304
32332,8375,40994
32444,8388,41268
32513,8337,41290
32524,8299,41255
32542,8283,41281
32556,8301,41348
32404,8351,41261
32172,8370,41203
31940,8397,41346
31893,8393,40949
32014,8387,41292
32188,8388,41423
32389,8351,41051
32493,8309,41161
32556,8291,41391
32558,8305,40822
32461,8368,41255
32372,8387,41454
32240,8412,41276
32389,8427,41417
32512,8409,41016
32641,8384,41125
32756,8365,41293
32888,8315,41243
32976,8353,41207
32964,8343,41332
32852,8337,41295
32680,8390,41173
32526,8403,41146
32549,8462,41274
32632,8428,41249
32724,8384,41115
32880,8366,41264
33108,8324,40861
33124,8367,41007
33056,8353,41044
32968,8359,41079
32800,8389,40944
32680,8414,41132
32716,8468,40535
32760,8431,40989
32934,8419,41087
33108,8372,40865
33197,8332,40896
33196,8377,40975
33152,8363,40408
33096,8375,40820
33036,8443,40848
33028,8451,40980
32936,8438,40923
32952,8457,40749
33060,8407,40760
33100,8381,40636
33121,8375,40882
33200,8353,40676
33148,8345,40711
33092,8372,40852
33016,8453,40641
33020,8453,40612
32944,8460,40789
32936,8439,40591
32940,8476,40617
33012,8412,40519
33012,8371,40649
32912,8345,40481
32804,8360,40511
32617,8384,40599
32484,8461,40530
32337,8472,40410
32330,8489,40452
32352,8449,40486
32360,8478,40613
32340,8419,40140
32364,8375,40340
32325,8356,40521
32180,8369,40397
32121,8431,40400
32076,8444,40307
32101,8464,40300
32132,8505,40308
32214,8482,40189
32332,8437,40359
32480,8445,39916
32600,8399,40229
32586,8420,40159
32440,8389,40129
32344,8403,40309
32320,8500,39724
32281,8472,40087
32176,8485,40049
32216,8505,40004
32288,8474,40175
32326,8424,39695
32412,8416,40004
32533,8379,40013
32396,8430,39983
32368,8442,39482
32393,8434,39823
32356,8517,39993
32348,8491,39847
32352,8526,39877
32408,8492,39812
32468,8437,39840
32448,8434,39799
32446,8400,39806
32432,8442,39768
32357,8437,39808
32328,8455,39728
32280,8491,39757
32368,8537,39890
32521,8524,39735
32704,8473,39751
32812,8471,39760
32836,8403,39703
32769,8402,39665
32644,8464,39717
32504,8469,39711
32368,8495,39854
32249,8500,39669
32248,8577,39687
32348,8533,39626
32520,8492,39609
32625,8457,39717
32808,8466,39637
32820,8423,39573
32824,8423,39588
32836,8444,39559
32732,8506,39748
32521,8537,39136
32388,8524,39617
32278,8568,39440
32352,8517,39405
32509,8497,39545
32628,8441,39513
32676,8475,39396
32617,8465,39550
32520,8475,39452
32436,8484,39367
32350,8564,39559
32317,8554,39405
32377,8559,39540
32472,8533,39375
32662,8495,39289
32828,8500,39467
32924,8450,38980
32906,8448,39263
32820,8477,39396
32692,8553,39233
32588,8567,39281
32480,8569,39148
32512,8554,39157
32536,8523,39300
32636,8550,39094
32812,8490,39084
32938,8472,39199
32849,8463,38615
32876,8542,39017
32800,8535,39110
32708,8559,39049
32640,8574,38959
32626,8559,38830
32693,8546,39039
32714,8558,38836
32804,8514,38703
32944,8481,38777
32949,8474,38776
32880,8502,38696
32746,8555,38825
32736,8581,38655
32752,8574,38679
32772,8596,38629
32832,8562,38550
32840,8533,38649
32836,8507,38535
32840,8487,38502
32904,8585,38607
32908,8532,38470
32777,8535,38241
32632,8616,38471
32608,8613,38557
32580,8617,38360
32652,8561,38404
32680,8545,38265
32741,8533,38472
32764,8525,38350
32740,8512,38340
32668,8523,38190
32624,8550,37981
32548,8636,38247
32476,8634,38407
32504,8615,38188
32631,8587,38235
32788,8550,38235
32884,8516,38135
32976,8503,38143
33048,8549,38313
33032,8548,37978
33072,8588,38076
33040,8600,38279
32980,8614,37916
32948,8706,38117
32893,8644,38236
32792,8613,38101
32736,8577,38223
32720,8514,37949
32693,8527,37998
32656,8557,37824
32549,8572,38007
32508,8615,38128
32478,8674,37937
32474,8636,37981
32480,8601,37968
32548,8583,37839
32570,8588,37908
32576,8551,37908
32524,8539,37881
32492,8569,37495
32492,8586,37810
32412,8668,37941
32448,8652,37711
32500,8644,37767
32533,8647,37869
32708,8598,37676
32927,8596,37288
33144,8556,37652
33200,8583,37566
33196,8580,37744
33192,8594,37604
33108,8673,37572
33137,8667,37444
33152,8659,37628
33189,8642,37206
33248,8645,37429
33313,8581,37518
33400,8556,37428
33348,8563,37541
33180,8607,37347
32988,8625,37392
32861,8660,37223
32772,8673,37436
32807,8694,37085
32840,8662,37164
32856,8635,37212
32894,8618,37320
32916,8604,36908
32944,8580,37173
32941,8643,37127
32808,8661,37145
32712,8671,37183
32708,8723,37109
32758,8692,37082
32857,8658,37053
32900,8693,37180
32984,8619,36744
33024,8604,37028
33009,8582,37188
32840,8641,36991
32702,8633,36661
32612,8706,36999
32608,8699,37025
32672,8703,36839
32792,8670,36830
32900,8750,36960
32912,8649,36964
32970,8605,37062
32956,8605,36908
32928,8705,36955
32872,8676,36919
32860,8701,36870
32776,8703,36909
32736,8751,37050
32644,8700,36908
32612,8664,36807
32469,8697,37028
32332,8620,36536
32244,8621,36784
32168,8687,37021
32024,8671,36639
32004,8692,36932
32041,8745,36877
32100,8717,37023
32218,8753,36857
32557,8681,36919
32705,8635,36887
32876,8646,36930
33124,8625,36501
33260,8703,36733
33372,8702,36885
33629,8711,36869
34024,8773,36735
34484,8764,36927
34864,8834,36500
35408,8719,36769
36024,8694,36775
36656,8637,36785
37052,8679,36900
37277,8671,36832
37292,8684,36681
37124,8772,36846
36880,8766,36806
36516,8756,36802
36176,8728,36726
35797,8722,36399
35468,8676,36700
35097,8650,36792
34632,8724,36732
34128,8692,36759
33600,8713,36568
33116,8743,36666
32789,8767,36761
32576,8793,36355
32432,8749,36557
32324,8767,36703
32292,8706,36180
32196,8675,36413
32100,8742,36580
31893,8695,36389
31725,8708,36441
31688,8794,36528
31692,8783,36128
31716,8779,36348
31781,8749,36394
31852,8802,36376
31982,8722,36288
32044,8687,36285
32088,8676,36340
32024,8721,36468
31936,8756,36292
31852,8762,36309
31824,8799,36286
31956,8785,36287
32088,8766,36286
32285,8742,36414
32424,8697,36293
32352,8685,36388
32197,8690,35932
31972,8746,36239
31788,8736,36268
31684,8787,36420
31584,8793,36207
31654,8825,36282
31788,8778,36225
31973,8767,36269
32148,8709,36295
32236,8709,36097
32287,8693,36256
32204,8751,36191
32080,8753,36337
32004,8823,36199
31946,8834,36167
32000,8801,36238
32052,8843,36353
32096,8767,36133
32192,8727,36231
32273,8728,36167
32276,8705,36170
32240,8749,36320
32218,8747,36308
32202,8822,36152
32208,8843,35913
32240,8811,36163
32300,8839,36048
32352,8799,36258
32432,8744,35930
32437,8717,36100
32388,8710,36285
32392,8785,35829
32336,8801,36079
32296,8801,35996
32164,8818,36108
32193,8842,36108
32286,8815,36061
32380,8877,36113
32485,8764,35725
32568,8728,35983
32544,8721,36113
32484,8786,36049
32440,8791,36161
32416,8809,35764
32388,8830,35896
32408,8872,36101
32456,8839,36005
32560,8799,36141
32710,8753,35622
32808,8735,35887
32808,8778,35903
32736,8763,35948
32609,8777,35874
32500,8817,35817
32486,8886,35846
32488,8868,35890
32504,8850,35887
32620,8803,35778
32756,8769,35868
32944,8779,35829
32980,8759,35934
32920,8777,35503
32912,8836,35797
32844,8870,35892
32756,8868,35607
32764,8879,35703
32879,8834,35847
32916,8857,35437
32972,8794,35648
33104,8783,35788
33160,8757,35545
33109,8847,35644
33077,8838,35748
33088,8849,35526
33036,8889,35601
33068,8875,35688
33082,8849,35220
33164,8847,35508
33197,8798,35649
33214,8772,35500
33160,8766,35533
33096,8825,35423
32956,8823,35484
32850,8841,35324
32698,8869,35460
32740,8920,35397
32868,8917,35367
32948,8878,35388
32992,8836,35477
32961,8799,35384
32884,8802,35381
32756,8791,35293
32592,8820,35356
32440,8935,35457
32352,8904,35247
32400,8909,35321
32456,8868,35311
32601,8841,35207
32694,8845,35283
32736,8804,35335
32728,8806,35005
32588,8797,35184
32376,8874,35317
32280,8871,35141
32232,8903,35181
32272,8889,35134
32388,8919,35158
32476,8882,35013
32524,8830,35119
32692,8801,35133
32748,8785,35247
32716,8804,35097
32672,8876,35212
32652,8888,35028
32572,8918,35023
32556,8921,35092
32630,8912,34988
32714,8868,35006
32792,8850,34984
32852,8812,34943
32760,8807,34944
32646,8811,35124
32528,8838,34768
32468,8907,34901
32440,8915,35036
32484,8928,34948
32600,8901,35073
32636,8867,34900
32676,8834,34841
32748,8805,34823
32686,8805,34752
32600,8887,34769
32556,8878,34831
32480,8892,34911
32432,8935,34852
32448,8916,34965
32556,8898,34822
32596,8910,34836
32708,8855,34951
32764,8825,34679
32740,8806,34756
32688,8817,34871
32588,8890,34463
32436,8900,34725
32417,8943,34791
32456,8919,34797
32516,8951,34661
32592,8891,34925
32744,8857,34445
32908,8890,34727
32988,8833,34896
32952,8839,34694
32880,8850,34745
32732,8951,34887
32600,8943,34567
32596,8947,34757
32596,8926,34844
32600,8887,34673
32576,8854,34628
32673,8829,34657
32631,8829,34774
32564,8933,34420
32504,8904,34614
32457,8911,34676
32400,8933,34757
32484,8931,34885
32576,8923,34711
32600,8898,34757
32728,8911,34660
32833,8858,34743
32809,8856,34735
32808,8871,34703
32676,8895,34820
32560,8914,34391
32468,8962,34729
32437,8967,34408
32492,8930,34629
32588,8906,34801
32736,8892,34620
32840,8840,34700
32848,8837,34636
32796,8878,34608
32717,8907,34673
32648,8915,34591
32536,8993,34636
32524,8975,34666
32537,8948,34765
32608,8915,34317
32660,8879,34531
32808,8853,34604
32896,8886,34645
32848,8881,34612
32737,8908,34357
32632,8932,34628
32516,8955,34655
32504,8961,34637
32532,8972,34271
32620,8950,34573
32661,8891,34581
32737,8852,34476
32780,8857,34514
32817,8917,34617
32876,8936,34564
32824,8946,34645
32752,8962,34628
32726,9015,34423
32756,8988,34528
32840,8937,34503
32912,8929,34503
32912,8874,34529
32872,8865,34620
32773,8875,34439
32716,8951,34508
32704,8957,34432
32676,8967,34607
32716,8975,34285
32777,8997,34512
32840,8938,34500
32916,8956,34364
32956,8893,34620
32960,8875,34417
32864,8911,34500
32733,8916,34449
32640,8937,34357
32564,9024,34477
32520,8996,34535
32596,8975,34252
32728,8997,34469
32829,8953,34360
32917,8909,34548
32961,8876,34409
32920,8934,34108
32820,8945,34437
32736,8951,34368
32656,9028,34540
32665,9014,34336
32724,8980,34412
32820,9006,34245
32865,8936,34524
33044,8908,34338
33076,8890,34364
32973,8947,34322
32812,8936,34325
32662,8963,34391
32600,9060,34281
32552,9030,34292
32708,9000,34439
32900,8969,34257
33024,8965,34327
33109,8937,34303
33056,8895,34421
32888,8913,33968
32620,8984,34191
32424,8996,34318
32280,9023,34278
32293,9029,34360
32428,9016,34288
32540,8980,34376
32606,8957,33943
32716,9019,34396
32876,8954,33993
32956,8931,34183
32996,8947,34389
32932,8977,33928
32996,9055,34112
32932,9044,34261
32916,9024,34247
32944,9001,34345
33016,8957,34010
33077,8929,34191
33096,8955,34213
33065,8954,34120
33036,8991,34205
32985,8986,34116
32952,9047,34326
32944,9047,33999
33012,9025,34175
32985,9043,34125
33032,8994,34103
33096,8954,34172
33120,8941,34311
33032,8937,34092
32860,9020,34161
32728,9032,34298
32592,9054,34085
32576,9077,34094
32637,9037,34172
32793,9059,33925
32908,9002,34124
33016,8983,34201
33056,8949,34154
33024,8948,34281
32936,9012,34063
32804,9031,34156
32732,9044,34140
32697,9087,34125
32736,9076,33969
32738,9021,34109
32824,9037,34169
32964,8995,34109
33004,8985,34183
32992,8988,34023
32944,8983,34104
32828,9055,34012
32760,9066,34055
32652,9069,33738
32653,9059,34001
32716,9075,34183
32752,9013,34007
32736,8972,33752
32652,9008,33985
32472,8982,34068
32304,8999,34004
32130,9049,33685
31928,9063,33989
31920,9101,33997
31976,9070,34068
32065,9098,33833
32220,9035,33680
32376,9033,33981
32456,8980,33860
32608,9007,34033
32689,9005,33663
32758,9079,33924
32958,9102,34023
33220,9092,33799
33444,9079,33924
33800,9102,34055
34198,9049,33853
34644,8995,33945
35176,9016,33786
35652,9017,34020
36176,9081,33857
36733,9082,33594
37228,9081,33901
37472,9133,34013
37592,9117,33839
37484,9060,33888
37340,9096,33928
37068,9045,33912
36656,9008,33927
36108,8994,33828
35492,9058,33883
34796,9087,34039
34128,9093,33739
33516,9133,33844
33105,9124,33885
32829,9070,33900
32660,9087,33764
32536,9034,33825
32388,8998,33866
32296,9050,33967
32148,9037,33655
32016,9057,33792
31904,9117,33777
31918,9111,33780
31936,9142,33445
31988,9088,33764
32026,9098,33796
32084,9033,33822
32020,9106,33433
31972,9024,33745
31820,9039,33735
31768,9084,33772
31677,9110,33500
31620,9142,33689
31652,9132,33831
31712,9091,33598
31808,9084,33727
31964,9033,33724
32056,9012,33647
32064,9073,33701
31996,9071,33745
31940,9092,33684
31833,9126,33693
31798,9131,33728
31817,9120,33728
31964,9109,33845
32044,9075,33477
32132,9085,33564
32212,9044,33669
32192,9033,33719
32112,9057,33862
31996,9103,33542
31914,9124,33700
31920,9176,33857
31975,9148,33468
32042,9105,33692
32100,9124,33879
32152,9060,33746
32136,9027,33658
32144,9078,33767
32101,9073,33790
32057,9086,33857
32017,9209,33729
32002,9155,33785
32041,9131,33743
32092,9126,33889
32132,9084,33812
32188,9087,33814
32265,9064,33765
32258,9044,33924
32164,9106,33575
32142,9123,33813
32132,9132,33912
32136,9202,33813
32172,9148,33701
32233,9122,33813
32340,9129,33799
32465,9064,33748
32519,9089,33914
32501,9070,33719
32428,9119,33772
32408,9108,33632
32400,9135,33908
32360,9170,33700
32386,9148,33765
32481,9146,33598
32604,9104,33834
32708,9073,33706
32772,9055,33706
32737,9074,33570
32624,9078,33811
32510,9130,33362
32424,9152,33607
32392,9163,33695
32488,9177,33625
32576,9143,33565
32676,9153,33633
32756,9098,33310
32888,9057,33528
32916,9099,33505
32873,9085,33672
32760,9144,33234
32612,9165,33452
32558,9160,33484
32556,9198,33513
32632,9156,33516
32804,9140,33167
32912,9082,33455
32988,9067,33359
32992,9102,33415
32916,9128,33421
32856,9123,33287
32800,9185,33543
32752,9175,33352
32804,9199,33407
32912,9150,33337
33012,9176,33495
33092,9119,33385
33142,9102,33250
33100,9169,33468
33007,9113,33236
32928,9123,33323
32864,9231,33409
32745,9199,33047
32736,9187,33285
32812,9199,33431
32916,9166,33188
32964,9099,33180
32940,9115,33345
32932,9090,33092
32816,9157,33221
32708,9152,33353
32611,9179,32999
32544,9203,33276
32584,9191,33196
32596,9183,33384
32664,9143,32979
32760,9151,33192
32804,9115,33373
32738,9126,33190
32676,9117,33313
32580,9204,33218
32480,9207,33076
32440,9207,33196
32428,9263,33208
32542,9200,33287
32670,9180,33086
32764,9119,33181
32788,9126,33159
32676,9136,33052
32569,9120,33026
32472,9213,33119
32404,9221,33118
32341,9229,33030
32404,9263,33062
32512,9226,33085
32648,9168,33173
32764,9131,32764
32800,9163,33009
32724,9139,33044
32615,9143,33001
32472,9167,32945
32460,9228,33105
32460,9227,32983
32476,9214,33098
32545,9234,32775
32652,9177,32964
32710,9141,33034
32758,9160,32932
32768,9134,33045
32708,9149,32652
32608,9180,32921
32581,9256,32879
32520,9249,32885
32570,9228,32775
32644,9235,32860
32736,9187,32949
32848,9186,32741
32852,9155,32812
32800,9137,32916
32709,9191,32517
32628,9207,32692
32548,9223,32789
32541,9296,32789
32616,9278,32821
32708,9255,32665
32824,9190,32737
32876,9204,32763
32906,9153,32629
32892,9148,32719
32804,9188,32580
32680,9198,32696
32588,9269,32685
32512,9269,32557
32540,9253,32578
32621,9253,32668
32712,9218,32646
32788,9163,32615
32832,9202,32696
32776,9191,32332
32696,9231,32583
32676,9219,32713
32656,9244,32436
32646,9292,32549
32676,9263,32500
32720,9262,32495
32828,9233,32512
32893,9183,32532
32920,9205,32481
32798,9182,32579
32705,9190,32310
32612,9238,32441
32513,9263,32526
32492,9280,32293
32600,9301,32407
32684,9255,32256
32736,9273,32356
32764,9197,32077
32789,9171,32296
32744,9223,32316
32708,9231,32439
32660,9231,32159
32576,9306,32276
32532,9285,32247
32568,9321,32124
32676,9281,32141
32720,9239,32228
32764,9250,32067
32749,9190,32301
32716,9251,32078
32632,9234,32164
32572,9340,32023
32568,9307,32116
32544,9309,32114
32580,9292,31975
32736,9307,32154
32904,9279,31832
33044,9209,31949
33108,9235,32004
33080,9207,32045
32992,9217,31916
32860,9349,31924
32676,9302,32007
32553,9306,31972
32524,9333,32014
32596,9297,31944
32696,9308,31925
32796,9231,32021
32932,9202,31876
32925,9249,31927
32880,9251,31847
32752,9258,31820
32725,9331,31901
32708,9345,31775
32760,9313,31780
32812,9289,31791
32852,9307,31780
32888,9240,31774
32972,9210,31885
32932,9251,31564
32836,9271,31751
32740,9265,31917
32604,9332,31613
32564,9327,31782
32616,9424,31885
32740,9319,31668
32888,9285,31665
33000,9242,31663
33068,9249,31733
33032,9259,31839
32972,9255,31556
32880,9311,31641
32836,9330,31663
32772,9336,31680
32768,9378,31783
32761,9324,31441
32796,9290,31507
32837,9302,31653
32944,9246,31577
32888,9240,31431
32836,9295,31513
32796,9308,31543
32758,9341,31599
32776,9373,31448
32776,9351,31477
32864,9365,31484
32908,9308,31396
32909,9276,31460
32980,9292,31429
32948,9269,31305
32850,9276,31396
32768,9346,31132
32644,9356,31316
32592,9409,31463
32648,9381,31231
32754,9345,31304
32880,9371,31413
32975,9312,31020
33020,9277,31291
33021,9271,31015
32964,9297,31261
32864,9386,31111
32764,9383,31173
32716,9387,31295
32752,9428,31117
32876,9387,30919
32964,9332,31093
33044,9339,31036
33056,9293,31111
33012,9284,31204
32894,9346,30968
32801,9350,31058
32736,9382,31044
32728,9436,30951
32720,9411,31004
32756,9375,31012
32773,9351,30847
32877,9349,30919
32892,9317,30821
32776,9329,30855
32620,9337,30896
32474,9398,30868
32436,9420,30929
32440,9442,30727
32460,9410,30899
32552,9441,30636
32708,9383,30735
32840,9328,30855
32952,9305,30721
32997,9361,30812
33004,9370,30668
32956,9381,30700
32908,9436,30604
32897,9421,30478
32972,9437,30625
33104,9398,30310
33152,9409,30521
33224,9375,30621
33280,9327,30229
33240,9367,30317
33148,9369,30343
33045,9383,30420
32948,9424,30487
32877,9461,30253
32890,9463,30292
32892,9417,30324
32940,9420,30037
33028,9369,30189
33064,9333,30343
32933,9413,29943
32832,9401,30067
32756,9422,30088
32708,9450,30109
32684,9477,30156
32712,9454,29940
32792,9462,30033
32860,9419,30139
32892,9374,29887
32934,9402,29940
32885,9380,30061
32840,9390,29809
32788,9418,29876
32676,9499,29903
32660,9488,29829
32704,9482,29673
32798,9453,29548
32844,9431,29850
32892,9392,29739
32913,9423,29756
32908,9402,29468
32865,9427,29523
32740,9461,29681
32632,9477,29608
32612,9487,29554
32672,9483,29548
32736,9506,29652
32748,9469,29429
32776,9404,29445
32676,9430,29492
32437,9402,29199
32228,9516,29292
32084,9453,29503
31976,9483,29132
31908,9529,29357
31960,9501,29261
32030,9558,29245
32144,9481,29311
32350,9429,29236
32552,9445,29264
32762,9427,29260
33028,9432,29225
33248,9460,29033
33408,9545,29153
33645,9534,29085
34081,9519,29157
34573,9554,29221
35180,9485,28901
35740,9504,29132
36300,9449,29004
36839,9430,28998
37224,9446,29060
37388,9554,29202
37332,9551,29065
37113,9555,29198
36916,9548,28831
36649,9508,28964
36344,9518,29066
36036,9480,29052
35629,9454,29050
35086,9445,29022
34440,9460,29039
33864,9478,29020
33344,9531,29124
32932,9584,28977
32620,9570,29004
32532,9532,28831
32408,9502,28880
32352,9467,28975
32300,9475,28887
32204,9466,28972
32076,9485,28624
31912,9489,28718
31904,9533,28745
31848,9595,28792
31852,9572,28848
31896,9541,28789
31982,9508,28733
32032,9468,28671
32054,9476,28676
32024,9452,28746
31976,9503,28841
31872,9536,28754
31732,9545,28653
31648,9561,28657
31700,9603,28669
31746,9555,28693
31824,9533,28775
31924,9579,28908
32048,9473,28608
32128,9467,28758
32104,9484,28796
32021,9514,28780
31908,9589,28836
31741,9585,28797
31721,9561,28661
31756,9583,28736
31841,9539,28807
31893,9497,28931
32000,9510,28612
32056,9507,28759
32020,9561,28755
32040,9551,28844
32045,9565,28641
32036,9614,28831
32148,9587,28781
32196,9565,28905
32200,9560,28752
32216,9512,28846
32181,9490,28949
32112,9517,28817
32152,9539,28597
32157,9588,28839
32152,9578,28809
32052,9590,28836
32117,9609,28836
32132,9573,28864
32164,9552,28636
32204,9541,28758
32246,9495,28814
32172,9536,28825
32064,9532,28937
31956,9541,28571
31856,9614,28655
31876,9611,28845
32012,9607,28772
32172,9609,28724
32269,9562,28781
32428,9568,28781
32544,9519,28877
32532,9500,28559
32485,9552,28747
32436,9554,28844
32397,9629,28628
32380,9641,28701
32421,9607,28750
32425,9616,28737
32508,9569,28684
32596,9557,28766
32640,9516,28617
32617,9574,28697
32570,9541,28824
32457,9559,28548
32320,9647,28668
32260,9643,28780
32240,9637,28689
32292,9621,28750
32376,9574,28592
32484,9542,28655
32632,9543,28736
32680,9519,28591
32638,9583,28661
32560,9573,28521
32552,9596,28716
32552,9648,28437
32620,9631,28604
32728,9655,28765
32808,9638,28548
32900,9578,28532
32972,9538,28503
32988,9556,28397
32944,9556,28674
32877,9573,28609
32864,9631,28476
32816,9637,28704
32813,9687,28348
32896,9636,28549
32976,9615,28390
33032,9563,28503
33052,9562,28628
32964,9538,28332
32884,9605,28423
32780,9605,28507
32692,9626,28578
32624,9645,28709
32588,9694,28581
32714,9655,28600
32828,9628,28358
32929,9574,28551
32996,9588,28507
32952,9561,28612
32856,9572,28489
32780,9630,28521
32672,9668,28651
32640,9661,28676
32660,9716,28423
32716,9665,28551
32809,9650,28570
32896,9588,28648
32932,9555,28697
32876,9561,28706
32736,9580,28689
32616,9649,28745
32550,9671,28800
32546,9691,28781
32581,9694,28912
32644,9699,28821
32744,9639,28592
32829,9696,28842
32872,9589,28806
32818,9572,28820
32660,9630,28916
32493,9621,28828
32404,9717,28924
32336,9681,28964
32436,9721,28892
32608,9692,29024
32848,9656,29023
32984,9603,29004
33040,9627,29095
33064,9613,29102
33044,9599,29245
32892,9666,29058
32708,9674,29170
32614,9695,29325
32548,9691,29023
32594,9721,29146
32694,9685,29191
32736,9634,29301
32796,9601,29420
32780,9598,29112
32740,9637,29285
32640,9654,29402
32540,9677,29392
32492,9709,29433
32536,9755,29225
32681,9709,29435
32840,9698,29591
32956,9628,29328
33004,9649,29496
32968,9636,29569
32908,9663,29602
32804,9688,29597
32672,9697,29575
32600,9713,29717
32608,9716,29473
32676,9708,29586
32815,9727,29479
32920,9664,29564
33000,9651,29622
32990,9617,29645
32896,9640,29652
32800,9695,29774
32736,9703,29766
32669,9742,29911
32716,9731,29572
32748,9737,29816
32848,9691,29812
32921,9682,29796
32992,9637,29904
32965,9667,29773
32880,9647,30032
32868,9707,29876
32796,9738,29972
32728,9740,30010
32782,9778,29831
32944,9748,29953
33100,9702,30015
33116,9686,30052
33068,9644,30173
32944,9686,29947
32800,9679,30087
32664,9685,30201
32569,9738,29957
32528,9750,30099
32572,9810,30210
32696,9755,30040
32844,9703,30102
32972,9730,30129
33076,9679,30181
33061,9673,30166
32960,9665,30081
32886,9747,30188
32740,9753,30308
32672,9780,30002
32692,9757,30064
32781,9745,30100
32862,9739,30214
32960,9709,30111
32976,9658,30268
32924,9682,29992
32788,9671,30188
32712,9703,30332
32604,9755,30114
32548,9766,30197
32620,9769,30093
32704,9791,30105
32880,9748,30214
32968,9694,30207
33056,9679,30209
33070,9668,29965
32956,9735,30130
32820,9735,30181
32712,9778,30201
32636,9778,30319
32672,9820,30000
32852,9776,30078
33024,9743,30103
33182,9707,30200
33252,9710,30276
33278,9701,30152
33250,9697,30108
33112,9717,30100
32960,9756,30204
32882,9826,30311
32869,9796,29996
32880,9800,30244
32952,9747,29959
33018,9709,30173
33056,9684,30049
33036,9716,30211
32973,9725,30183
32912,9738,30245
32772,9762,30356
32712,9784,30253
32772,9828,30285
32880,9809,29999
32972,9773,30294
33076,9727,30005
33140,9699,30389
33208,9709,30300
33128,9703,30284
33016,9729,30028
32917,9774,30306
32908,9814,30189
32876,9824,30292
32956,9789,30380
33060,9752,30300
33092,9779,30324
33112,9723,30158
33120,9709,30191
33028,9717,30150
32885,9741,30304
32772,9842,30470
32744,9828,30113
32764,9811,30296
32792,9787,30388
32862,9762,30396
32940,9774,30476
32928,9718,30396
32828,9709,30535
32761,9723,30289
32641,9744,30380
32552,9836,30427
32524,9829,30450
32620,9838,30580
32820,9797,30463
32956,9767,30591
33024,9777,30221
33076,9737,30500
33032,9741,30336
32842,9719,30437
32756,9757,30551
32704,9820,30492
32629,9839,30372
32644,9812,30519
32792,9867,30528
32869,9799,30580
32932,9741,30439
32960,9773,30527
32956,9745,30519
32780,9740,30425
32625,9757,30524
32564,9793,30599
32548,9856,30341
32564,9844,30427
32684,9834,30476
32800,9777,30563
32828,9769,30567
32848,9721,30425
32872,9740,30599
32816,9785,30572
32728,9785,30340
32664,9844,30599
32616,9827,30431
32637,9820,30607
32670,9833,30569
32773,9785,30468
32812,9741,30572
32884,9748,30618
32903,9732,30760
32824,9732,30543
32782,9791,30652
32644,9813,30806
32532,9815,30685
32468,9866,30620
32416,9831,30628
32520,9780,30709
32598,9793,30844
32720,9721,30511
32832,9713,30742
32848,9766,30914
32924,9777,30809
32920,9797,30588
32856,9862,30825
32828,9841,30853
32873,9831,30915
33024,9787,31047
33164,9758,30801
33176,9761,30972
33140,9738,31094
33096,9745,30852
32992,9766,31032
32872,9847,31145
32712,9850,30817
32668,9855,31063
32748,9818,31216
32936,9843,31021
33116,9777,31141
33221,9764,31111
33120,9729,31247
32948,9749,31209
32789,9810,31204
32728,9830,31327
32852,9847,31162
33008,9879,31279
33072,9841,31199
33106,9809,31396
33169,9773,31104
33132,9788,31316
33060,9751,31294
32956,9759,31407
32780,9865,31150
32684,9859,31329
32568,9858,31500
32569,9851,31223
32580,9881,31403
32688,9848,31430
32768,9789,31409
32748,9769,31556
32672,9748,31608
32636,9805,31680
32556,9829,31656
32449,9855,31749
32417,9868,31700
32468,9863,31846
32632,9847,31487
32896,9840,31784
33164,9824,31916
33241,9769,31855
33160,9759,31976
33016,9771,31894
32780,9806,31960
32566,9841,31879
32328,9937,31805
32192,9908,31980
32080,9848,32124
32028,9866,31837
31977,9828,32070
32078,9776,32243
32128,9802,32159
32064,9824,32108
32020,9916,32343
31944,9878,32247
31968,9880,32249
32205,9949,32263
32444,9884,32343
32748,9845,32220
33108,9862,32311
33300,9797,32409
33444,9781,32538
33508,9857,32470
33704,9846,32508
33684,9869,32431
33744,9932,32551
34156,9930,32424
34716,9874,32592
35280,9897,32621
35824,9835,32760
36356,9789,32415
36604,9809,32676
36444,9830,32736
36200,9876,32814
35836,9879,32668
35520,9892,32745
35276,9928,32871
35048,9908,32676
34756,9862,32742
34412,9867,32857
33977,9836,32544
33580,9801,32825
33160,9857,32954
32852,9853,32741
32544,9880,32815
32308,9906,32677
32224,9942,32713
32144,9897,32517
32188,9907,32741
32269,9845,32797
32344,9846,32772
32332,9807,32654
32193,9855,32756
32028,9881,32585
31924,9901,32751
31928,9916,32871
31976,9941,32486
32176,9906,32682
32352,9879,32705
32448,9848,32647
32552,9825,32719
32565,9814,32680
32476,9836,32532
32369,9889,32769
32284,9899,32775
32220,9921,32832
32180,9982,32963
32052,9925,32782
32020,9884,32941
32108,9863,33016
32246,9875,33060
32388,9837,32948
32536,9836,33074
32609,9862,33148
32524,9941,33292
32400,9962,33213
32356,9961,33268
32311,9932,33165
32336,9912,33208
32369,9899,33524
32425,9863,33428
32508,9848,33378
32562,9863,33372
32672,9877,33479
32637,9902,33373
32444,9948,33586
32368,9935,33639
32388,9975,33692
32421,9915,33856
32428,9869,33554
32408,9837,33864
32320,9863,34019
32284,9854,33997
32224,9867,33964
32088,9903,34005
32020,9950,34097
32036,9933,34169
32096,9989,34183
32240,9941,34167
32364,9895,34236
32496,9847,34380
32576,9837,34364
32542,9841,34428
32428,9909,34370
32440,9913,34476
32412,9938,34372
32332,9942,34589
32357,9963,34604
32512,9913,34599
32750,9873,34784
32760,9879,34652
32720,9845,34749
32680,9843,34780
32672,9906,34732
32648,9934,34874
32488,9934,34897
32538,9972,34895
32680,9940,35044
32864,9924,35015
32916,9869,34929
32972,9848,35212
33048,9861,34859
33054,9871,35109
32920,9879,35215
32884,9903,35263
32888,9983,35157
32872,9956,35318
32972,9971,35436
33080,9917,35385
33096,9875,35460
33092,9894,35476
33024,9853,35517
32984,9854,35568
32983,9919,35508
32900,9937,35772
32816,9942,35612
33044,9970,35722
33278,9949,35620
33386,9959,35862
33360,9897,35591
33301,9892,35885
33177,9858,35932
33086,9864,36089
33060,9883,36004
32992,9916,36125
32946,9944,35764
32988,9955,35988
33056,9979,36140
33156,9933,36057
33220,9925,36157
33336,9862,36248
33441,9850,36164
33436,9953,36431
33264,9911,36006
33166,9927,36287
32972,9970,36375
32753,9951,36475
32720,9940,36536
32602,9985,36502
32686,9910,36540
32892,9876,36556
33020,9841,36773
33056,9882,36559
32924,9911,36696
32812,9907,36865
32644,9984,36565
32532,9961,36740
32512,9943,36905
32621,9922,36749
32762,9924,36890
32900,9889,37043
32984,9843,36868
32848,9876,36988
32708,9884,36857
32487,9917,36977
32304,9977,37012
32092,9965,37052
32064,9940,37127
31996,9971,37300
31992,9909,37094
32129,9860,37173
32288,9893,37284
32313,9879,36948
32332,9916,37263
32340,9911,37353
32404,9990,37356
32352,9969,37244
32368,9987,37332
32428,9946,37467
32538,9905,37468
32488,9869,37500
32448,9859,37422
32416,9870,37540
32336,9895,37689
32238,9916,37587
32217,10046,37599
32364,9961,37648
32436,9980,37716
32572,9949,37743
32592,9916,37766
32644,9890,37903
32642,9855,37823
32492,9862,37960
32400,9889,37846
32220,9957,37792
32056,9974,37957
32180,9988,37956
32328,9957,38103
32488,9928,38016
32588,9892,38064
32600,9901,38024
32613,9865,38052
32568,9887,38244
32532,9886,38159
32676,9921,38151
32670,9985,38229
32597,9974,38236
32444,9983,38292
32365,9927,38324
32268,9903,38343
32284,9890,38407
32376,9869,38343
32386,9863,38420
32428,9922,38308
32544,9953,38516
32520,9959,38144
32564,9997,38505
32720,9968,38563
32685,9930,38542
32620,9908,38559
32608,9895,38778
32676,9864,38644
32628,9866,38695
32592,9917,38685
32516,9925,38740
32538,9960,38343
32560,9977,38816
32592,9957,38693
32532,9932,38919
32672,9930,38637
32796,9877,38889
32860,9854,39102
32902,9905,38833
32910,9904,38975
32821,9917,39055
32732,9999,39010
32726,9990,39039
32852,9985,39137
32928,9951,39115
32960,9903,39235
32952,9907,39200
32976,9863,39364
33020,9897,39248
32966,9915,39379
32972,9914,39319
32886,9952,39429
32897,10016,39362
32796,9972,39269
32816,9933,39457
32900,9975,39463
32936,9900,39596
33124,9861,39365
33218,9865,39484
33268,9921,39543
33280,9931,39605
33192,9961,39740
32972,10015,39684
32924,9969,39234
32864,9939,39660
32764,9986,39885
32704,9890,39431
32712,9846,39804
32716,9893,39721
32712,9917,40000
32668,9917,39836
32576,9979,39916
32636,9975,39924
32808,9959,39984
32892,9948,39964
32984,9909,39942
33054,9863,40040
32992,9890,40068
32928,9872,40246
32852,9886,39901
32836,9958,40135
32760,9967,40343
32796,9978,39748
32856,9957,40231
32880,9964,40213
33064,9907,40295
33112,9939,40454
33092,9877,39877
32972,9864,40270
32844,9925,40512
32748,9935,40400
32769,9961,40573
32880,9972,40105
32900,9957,40479
33036,9980,40615
33190,9925,40567
33308,9892,40676
33304,9856,40199
33092,9865,40485
32916,9907,40788
32784,9932,40286
32592,9953,40597
32568,9995,40820
32720,9984,40707
32768,9937,40693
32904,9936,40871
32952,9900,40804
32976,9850,40924
32928,9914,40759
32801,9898,40870
32632,9915,41052
32516,9999,40471
32420,10003,41093
32336,9964,40613
32438,9930,40927
32689,9910,41032
32793,9908,41024
32740,9861,41085
32692,9860,40912
32596,9887,41070
32316,9926,41261
32292,9967,40643
32412,9963,41097
32604,9994,41287
32728,9957,41188
32848,9959,41233
32872,9882,41324
32888,9853,41124
33064,9906,41292
33028,9917,41500
32996,9923,40867
33004,9965,41285
33056,9969,41366
33120,9983,41431
33197,9949,41460
33216,9910,41465
33181,9910,41078
33132,9868,41455
33125,9919,41674
33030,9900,41381
33125,9922,41596
33085,9951,41700
33053,10001,41654
33104,9968,41607
33102,9945,41540
33056,9910,41704
33092,9975,41694
33140,9889,41631
32968,9876,41844
32716,9892,41716
32576,9914,41658
32528,9950,41756
32644,10005,41809
32712,9988,41984
32824,9951,41785
32900,9917,41856
33040,9877,42004
33028,9861,41830
33008,9915,41855
32944,9923,42047
32909,9932,41692
32780,9977,41911
32636,9965,42023
32580,9960,41875
32621,10040,41918
32600,9921,42021
32572,9920,41931
32660,9879,41815
32684,9877,42030
32728,9885,41919
32772,9957,41848
32725,9993,41991
32748,9988,41447
32720,9971,41821
32681,9965,41954
32532,9918,41940
32428,9887,41961
32344,9904,41905
32230,9892,41948
32116,9898,41928
31944,9918,41729
31940,9962,41821
31972,10015,41900
32221,10029,41807
32408,9979,42025
32568,9937,41933
32580,9893,41863
32648,9920,42037
32744,9892,41967
32712,9896,41492
32760,9962,41956
32754,10005,42151
32633,9988,41508
32704,9973,41959
32961,9981,41937
33221,9947,42085
33316,9889,41545
33356,9901,41972
33580,9884,42174
34164,9894,42016
34752,9960,42057
35332,9986,42047
35916,9971,42247
36240,10057,41787
36305,9957,42151
36125,9928,42046
35879,9896,42261
35680,9863,42164
35439,9907,42141
35120,9910,42058
34804,9925,42308
34286,9998,42224
33724,9998,42261
33320,10002,42192
32924,9950,42247
32672,9957,42164
32553,9912,42272
32592,9868,42196
32576,9876,42168
32432,9989,41900
32156,9961,42079
31936,9995,41876
31680,9988,42057
31660,10001,42178
31770,9964,42095
31964,9920,42148
32104,9886,42119
32236,9900,42000
32352,9901,42137
32388,9889,42102
32353,9988,42198
32301,9986,41832
32100,9984,42077
32020,10002,42184
32089,9951,42141
32204,9925,42219
32200,9956,42148
32244,9916,42245
32220,9907,41875
32169,9897,42212
32028,9927,42354
31904,9965,41799
31824,10010,42156
31804,9984,42318
31832,9953,42308
31936,10017,42397
32056,9918,41957
32174,9886,42426
32219,9885,42320
32176,9903,42364
32166,9922,42007
32068,9952,42308
32046,10020,42424
32165,9985,42492
32388,9952,42623
32612,9981,42068
32796,9902,42517
32824,9869,42580
32716,9897,42503
32532,9924,42564
32316,9918,42678
32032,9996,42372
31780,10006,42513
31833,10003,42692
32024,9955,42524
32204,9931,42564
32372,9922,42503
32460,9901,42551
32448,9875,42569
32386,9935,42473
32288,9931,42533
32284,9958,42519
32208,10062,42286
32184,10003,42357
32316,9970,42393
32494,9954,42438
32669,9894,42565
32780,9876,42420
32784,9976,42525
32700,9921,42348
32652,9957,42383
32598,9960,41837
32552,9980,42388
32550,9991,42253
32556,10011,42388
32592,9959,42215
32586,9917,42327
32656,9883,42191
32716,9883,42207
32748,9903,42140
32664,9996,42188
32600,10012,42031
32580,10012,42133
32625,9997,42000
32756,9967,42007
32928,9943,41564
33164,9955,41804
33276,9895,41897
33304,9887,41360
33292,9926,41844
33225,9948,41937
33104,10026,41727
33024,10015,41735
32884,10018,41824
32848,9971,41479
32948,9991,41595
33084,9932,41644
33180,9907,41524
33172,9907,41581
33173,9913,41521
33092,9983,41661
32948,9988,41136
32832,10000,41319
32812,10060,41444
32936,9993,41380
33098,9953,41415
33156,9919,41076
33140,9937,41274
33084,9911,41447
33032,9945,40829
32942,9943,41110
32864,9982,41191
32778,10050,41180
32784,10034,41273
32817,10014,41140
32856,9960,41088
32852,9927,41108
32832,9949,41052
32740,9926,41236
32640,9935,41064
32636,9970,41145
32552,9980,41002
32532,10042,41020
32560,10020,40964
32576,10011,41109
32560,9955,40856
32484,9962,40956
32492,9925,41086
32505,9906,40936
32452,9926,40911
32436,9964,40839
32244,9993,41001
32108,10015,40860
32080,10049,40980
32106,10010,40588
32216,9980,40733
32260,9921,40820
32304,9905,40725
32356,9909,40745
32285,9967,40704
32232,9972,40675
32180,10011,40620
32201,10016,40485
32244,10016,40628
32352,10023,40572
32456,9979,40676
32725,9956,40509
32932,9903,40455
32968,9927,40452
32820,9937,40418
32596,9951,40527
32340,9986,40391
32252,10013,40516
32212,10057,40351
32277,10028,40402
32344,9990,40293
32456,9948,40436
32624,9906,40180
32640,9916,40169
32524,9930,40190
32499,10038,40032
32520,10010,40161
32400,10047,40130
32420,10024,40236
32496,10002,40071
32592,10042,40052
32697,9981,40055
32812,9935,40124
32864,9935,39991
32838,9929,40130
32768,10021,39943
32652,10004,40037
32512,10021,39440
32502,10017,39877
32552,10039,39812
32644,9991,39741
32712,9963,39781
32749,9911,39820
32741,9963,39893
32684,9949,39759
32612,9974,39767
32664,9993,39885
32621,10049,39683
32600,10020,39721
32668,10045,39612
32772,9993,39828
32908,9942,39489
32903,9919,39639
32845,9921,39584
32728,9934,39540
32568,9996,39621
32512,10012,39572
32508,10021,39520
32656,10071,39648
32789,10032,39132
32877,10011,39668
32920,9979,39100
33008,9912,39431
32933,9920,39525
32826,9933,39471
32676,10057,39566
32544,10041,39431
32504,10053,39374
32581,10077,39421
32572,10022,39271
32740,9991,39325
32804,9953,39352
32864,9959,39420
32868,9953,39121
32844,9937,39289
32784,10013,39421
32708,10020,39047
32628,10038,39240
32572,10029,39122
32672,10048,39343
32756,10020,39151
32816,9954,39175
32832,9976,39029
32836,9963,39151
32828,9955,39117
32740,9967,39047
32664,10000,39143
32656,10077,38663
32716,10056,38997
32728,10034,39167
32788,9991,38981
32828,9980,38991
32921,9930,38992
32896,9957,38828
32824,9955,39020
32730,9967,38895
32636,10011,38858
32596,10052,38960
32572,10037,38440
32637,10077,38708
32700,10028,38808
32740,9967,38818
32864,9960,38880
32948,9933,38368
32909,9985,38606
32800,9987,38799
32648,10013,38697
32492,10106,38621
32485,10065,38783
32512,10043,38559
32512,9999,38583
32640,9963,38660
32717,9967,38589
32833,9965,38439
32857,9952,38612
32821,9974,38542
32780,10045,38388
32744,10052,38642
32668,10047,38428
32780,10031,38454
32809,10039,38460
32844,10000,38492
32845,9941,38407
32880,9995,38246
32904,9976,38490
32745,9990,38277
32592,10013,38327
32492,10135,38444
32492,10080,38206
32560,10061,38256
32648,10006,38120
32760,10031,38261
32846,9959,38018
32816,9949,38159
32784,9959,38199
32716,9983,38109
32680,10020,38213
32628,10083,37701
32600,10061,37997
32633,10033,38168
32764,10031,37772
32918,10021,37836
32960,9981,37983
32917,9970,37916
32809,9958,37839
32645,10084,37895
32628,10047,37865
32600,10073,37852
32608,10067,37809
32808,10043,37782
32835,10025,37796
32808,10046,37748
32776,9961,37661
32753,9948,37765
32692,9999,37669
32636,9994,37695
32544,10120,37630
32456,10058,37823
32464,10068,37469
32504,10051,37624
32580,10060,37759
32632,10011,37635
32737,9972,37620
32793,9954,37623
32852,10004,37593
32854,10022,37453
32860,10029,37600
32788,10093,37563
32784,10095,37445
32937,10053,37519
33152,10071,37480
33293,10015,37476
33464,9974,37477
33536,9957,37639
33488,10017,37500
33380,10023,37572
33180,10045,37422
33025,10064,37424
32976,10067,37450
32996,10106,37441
33081,10041,37540
33096,10002,37406
33120,10009,37441
33016,9993,37423
32908,9978,37373
32704,10023,37421
32608,10040,37524
32492,10064,37432
32489,10080,37396
32520,10076,37247
32736,10040,37447
32904,10101,37021
33068,9989,37340
33106,9994,37480
33077,9972,36989
33004,10079,37292
32884,10081,37298
32768,10087,37303
32712,10103,37159
32676,10065,37119
32736,10041,37100
32784,10042,37079
32884,9988,37215
32992,9959,37184
32951,10028,37180
32860,10014,36925
32744,10041,37007
32708,10071,36894
32672,10127,37103
32773,10101,37074
32820,10066,37207
32752,10029,37053
32654,9994,37055
32417,9973,36999
32132,9981,37101
31944,10013,36982
31816,10103,37085
31796,10127,36935
31956,10124,36985
32120,10079,36899
32224,10042,36825
32400,10058,36871
32648,10003,36867
32708,10007,36964
32856,10016,36820
33148,10031,36828
33309,10044,36698
33465,10109,36723
33840,10108,36716
34356,10085,36641
34952,10056,36697
35448,10100,36729
36002,10023,36761
36400,9991,36743
36680,10004,36843
36844,10012,36336
36912,10074,36589
36880,10082,36850
36776,10146,36631
36636,10101,36628
36544,10054,36796
36352,10132,36359
36008,10006,36537
35620,9984,36628
35036,9989,36569
34456,10019,36497
33824,10085,36698
33198,10094,36373
32652,10116,36717
32292,10078,36612
32236,10049,36741
32320,10084,36597
32352,10016,36695
32270,9991,36540
32144,9996,36637
31984,10012,36503
31792,10047,36567
31648,10103,36468
31580,10090,36317
31652,10079,36407
31732,10092,36299
31824,10037,36367
31840,9993,36359
31908,9976,36304
31876,9995,36452
31888,10054,36148
31828,10081,36541
31728,10096,36084
31725,10101,36415
31816,10078,36231
31816,10095,36301
31876,10038,36340
31993,9996,36372
32092,10036,36527
32116,10019,36395
32021,10019,36272
31877,10091,36367
31692,10095,36404
31660,10093,36524
31760,10146,36421
31968,10096,36420
32117,10039,36421
32260,9996,36503
32296,10066,36407
32280,10021,36556
32133,10024,36423
31960,10050,36564
31888,10088,36101
31958,10138,36398
32100,10104,36262
32020,10073,36302
32048,10063,36315
32072,10025,36487
32052,9984,36076
32124,9989,36417
32160,10093,36080
32200,10072,36318
32128,10095,36351
32108,10111,36292
32108,10081,36356
32237,10069,36377
32337,10075,36516
32405,10010,36043
32440,9997,36470
32456,10007,36031
32404,10021,36381
32336,10079,36315
32288,10100,36354
32272,10128,36209
32316,10085,36421
32300,10137,35965
32372,10057,36279
32400,10036,36444
32416,9988,36109
32329,10067,36244
32232,10043,36421
32252,10059,36270
32200,10118,36384
32167,10095,36249
32356,10093,36257
32488,10117,36004
32576,10048,36162
32632,10014,36196
32692,9991,36212
32681,10025,36053
32589,10036,36111
32500,10058,36160
32396,10126,36268
32332,10132,36121
32360,10094,36151
32452,10095,35950
32601,10057,35958
32812,10059,35992
33004,10034,36075
33048,10023,35700
32932,10035,35996
32788,10057,35919
32696,10100,35847
32648,10109,35621
32668,10141,36079
32800,10092,35909
32897,10069,36064
32916,10007,35877
32964,10002,36007
32940,10042,35828
32985,10048,35888
32916,10083,35463
32862,10112,35817
32846,10117,35772
32893,10105,35873
32916,10079,35473
32972,10082,35663
32945,10035,35760
33060,10004,35724
33092,10007,35812
33028,10075,35701
32920,10099,35760
32840,10117,35668
32856,10127,35750
32864,10137,35636
32880,10079,35621
32940,10132,35633
32960,10054,35748
32968,10044,35596
32912,10047,35684
32821,10065,35576
32752,10079,35575
32696,10120,35484
32612,10124,35529
32712,10116,35501
32734,10082,35583
32796,10053,35479
32908,10033,35175
33029,10004,35620
32980,10021,35476
32784,10031,35503
32730,10061,35445
32640,10105,35527
32577,10114,35356
32668,10174,35164
32724,10114,35250
32736,10065,35316
32812,10023,35348
32822,9999,35493
32708,10082,35021
32648,10067,35207
32604,10081,35287
32609,10125,35303
32668,10118,35444
32720,10107,35300
32820,10083,35388
32948,10108,35255
33044,10035,35252
33000,10014,34939
32868,10016,35214
32737,10079,34951
32633,10087,35026
32588,10111,34938
32549,10124,35206
32516,10106,35127
32684,10153,35233
32792,10096,35109
32828,10051,35013
32964,10018,34909
32962,10042,34830
32812,10043,35155
32741,10065,34992
32728,10101,34959
32800,10117,34845
32848,10154,34881
32872,10117,34816
32924,10073,34613
32934,10037,35046
32932,10013,34909
32840,10017,35023
32764,10143,34891
32612,10113,34812
32564,10128,34761
32516,10141,34708
32657,10125,34698
32744,10114,34800
32808,10071,34789
32840,10031,34853
32868,10056,34823
32792,10035,34832
32654,10063,34580
32528,10069,34685
32489,10165,34529
32474,10169,34633
32564,10126,34787
32704,10101,34756
32680,10071,34815
32728,10054,34721
32756,10035,34823
32740,10024,34717
32716,10142,34780
32664,10105,34677
32536,10132,34778
32496,10128,34655
32424,10118,34605
32508,10102,34512
32668,10109,34576
32784,10057,34656
32896,10040,34620
32900,10025,34753
32796,10044,34613
32741,10112,34695
32644,10123,34486
32532,10125,34444
32528,10121,34461
32557,10130,34516
32656,10099,34557
32804,10036,34554
32864,10063,34629
32936,10045,34533
32864,10054,34376
32801,10081,34578
32764,10155,34175
32741,10141,34364
32753,10129,34469
32828,10103,34397
32864,10126,34472
32920,10052,34445
32944,10045,34544
32825,10032,34415
32640,10095,34268
32500,10095,34397
32468,10125,34085
32424,10137,34350
32504,10145,34401
32660,10112,34292
32840,10081,34346
32940,10077,34487
32948,10034,34045
32900,10040,34311
32784,10049,34204
32736,10136,34242
32644,10130,34397
32597,10131,34092
32636,10127,34225
32684,10135,34372
32809,10095,34125
32900,10049,34206
32885,10069,34343
32844,10055,33893
32704,10052,34119
32604,10084,34229
32494,10135,33837
32512,10138,34055
32588,10180,34172
32657,10121,33793
32813,10090,33985
32956,10044,34132
33008,10057,33936
32992,10043,34051
32917,10141,33885
32832,10105,34093
32736,10121,33693
32640,10131,33826
32764,10173,34000
32804,10124,33583
32832,10092,33779
32928,10098,33961
32952,10051,33705
32948,10037,33772
32864,10057,33693
32788,10085,33604
32756,10124,33604
32672,10174,33639
32704,10144,33575
32848,10117,33548
32958,10089,33661
33064,10096,33485
33117,10066,33406
33176,10063,33405
33140,10057,33405
33004,10114,33319
32864,10130,33237
32865,10137,33296
32904,10175,33119
32956,10128,33205
33000,10094,33199
33004,10052,33156
32950,10039,32867
32784,10077,32980
32668,10079,33052
32552,10106,33057
32444,10144,33148
32493,10148,32706
32744,10139,32901
32980,10221,32992
33110,10133,32925
33212,10079,32745
33265,10047,32801
33184,10040,32853
33012,10140,32941
32832,10124,32519
32641,10123,32676
32428,10149,32639
32392,10184,32645
32504,10134,32723
32592,10093,32816
32716,10054,32407
32836,10073,32623
32868,10039,32516
32844,10072,32593
32816,10087,32703
32812,10125,32327
32828,10186,32501
32904,10176,32615
32980,10148,32548
33128,10115,32423
33140,10067,32460
33172,10040,32557
33180,10048,32668
33149,10067,32293
33056,10121,32509
33020,10135,32647
33072,10149,32282
33113,10224,32484
33129,10149,32616
33192,10112,32515
33268,10076,32608
33348,10055,32399
33306,10040,32519
33132,10066,32514
33016,10125,32423
32908,10138,32524
32841,10148,32460
32780,10148,32561
32904,10167,32543
32934,10124,32657
32980,10070,32516
32952,10050,32404
32960,10046,32413
32988,10061,32406
32808,10186,32508
32681,10153,32563
32616,10163,32544
32736,10146,32508
32832,10202,32589
32985,10136,32672
33069,10089,32431
33210,10054,32529
33132,10052,32677
32956,10062,32405
32852,10093,32641
32612,10166,32560
32513,10171,32621
32604,10174,32677
32637,10123,32605
32748,10102,32589
32833,10089,32695
32828,10060,32791
32608,10052,32483
32384,10085,32564
32214,10096,32633
31968,10127,32707
31908,10236,32850
32066,10158,32689
32256,10154,32865
32393,10110,32452
32512,10074,32638
32492,10044,32837
32383,10054,32701
32320,10068,32518
32384,10107,32772
32341,10132,32687
32496,10151,32705
32840,10191,32775
33164,10154,32679
33452,10132,32815
33804,10071,32529
34224,10050,32749
34556,10043,32829
34823,10068,32825
35236,10093,32924
35672,10130,32797
36104,10222,32835
36504,10180,32820
36840,10143,32838
37088,10112,32916
37072,10069,32639
36940,10075,32767
36576,10062,32848
36221,10084,32980
35861,10083,32583
35404,10124,32792
34752,10176,32951
34191,10152,32847
33661,10143,32761
33204,10099,32781
32936,10057,32804
32820,10040,32919
32749,10069,32767
32688,10074,32775
32528,10115,32801
32388,10121,32807
32368,10134,32775
32336,10140,32552
32288,10159,32760
32252,10108,32884
32276,10063,32652
32174,10039,32764
32080,10068,32911
31988,10070,32564
31800,10091,32752
31649,10118,32787
31672,10139,32828
31760,10155,32725
32025,10123,32808
32216,10146,32847
32316,10082,32714
32401,10040,32912
32430,10038,32884
32276,10088,32888
32116,10100,32836
32000,10156,33093
31908,10151,32895
31885,10139,32976
31944,10134,33007
32065,10094,32893
32132,10059,33012
32225,10063,33146
32260,10030,32993
32144,10102,33138
32096,10111,33015
32072,10119,33276
31973,10145,32911
31956,10132,33103
32057,10122,33247
32197,10120,33279
32380,10063,33184
32469,10052,33287
32428,10047,33366
32384,10051,33495
32280,10077,33427
32149,10118,33515
32080,10226,33445
32144,10166,33341
32228,10140,33493
32212,10085,33520
32317,10055,33575
32400,10060,33444
32392,10060,33603
32460,10057,33716
32488,10073,33627
32428,10118,33611
32420,10135,33405
32536,10170,33662
32636,10124,33823
32668,10097,33493
32712,10056,33600
32768,10033,33453
32732,10068,33613
32600,10078,33585
32476,10100,33637
32342,10119,33864
32332,10136,33789
32381,10178,33872
32440,10154,33559
32544,10127,33687
32676,10075,33836
32736,10038,33532
32772,10079,33822
32660,10063,33991
32704,10085,33663
32728,10201,33846
32712,10166,33887
32740,10137,33797
32868,10122,33909
33200,10129,34017
33404,10072,33822
33414,10031,33916
33248,10076,33881
33012,10059,33942
32893,10081,34046
32780,10178,33757
32780,10164,33927
32840,10152,34049
32988,10136,33793
33104,10098,33828
33085,10059,34055
33172,10065,33754
33196,10052,33957
33180,10054,34116
33188,10077,33744
33124,10119,33912
33085,10181,34064
33200,10159,34037
33264,10136,33988
33256,10111,34015
33204,10063,34055
33172,10036,34164
33120,10035,34157
33108,10089,34311
33109,10099,34077
33132,10135,34224
33069,10140,34373
33093,10242,34086
33208,10148,34285
33272,10109,34423
33300,10068,34063
33302,10079,34382
33278,10046,34415
33152,10051,34368
33174,10107,34463
33240,10130,34461
33112,10136,34652
33036,10170,34487
33028,10136,34567
32932,10103,34729
32760,10066,34533
32660,10071,34679
32640,10043,34663
32484,10046,34836
32385,10077,34420
32265,10150,34743
32212,10146,34846
32253,10141,34882
32292,10190,34591
32360,10107,34876
32416,10065,35036
32580,10032,34736
32652,10077,34920
32644,10076,35124
32576,10089,34796
32456,10136,34947
32309,10140,35017
32276,10133,35063
32236,10121,35204
32292,10116,34999
32448,10069,35141
32524,10050,35286
32445,10047,35100
32333,10058,35156
32401,10095,35156
32412,10125,35231
32384,10163,35348
32330,10144,35291
32340,10119,35249
32392,10138,35144
32532,10095,35312
32612,10045,35008
32738,10028,35323
32720,10147,35268
32588,10111,35240
32536,10127,35286
32592,10137,35439
32628,10142,35261
32576,10160,35004
32620,10106,35303
32572,10069,35492
32568,10037,35248
32528,10076,35344
32500,10072,35494
32549,10100,35212
32663,10112,35401
32756,10188,35256
32868,10161,35484
32888,10141,35095
32869,10102,35407
32740,10091,35532
32608,10038,35598
32460,10037,35453
32452,10089,35161
32472,10118,35445
32436,10134,35505
32372,10152,35566
32429,10151,35655
32508,10152,35517
32552,10127,35580
32584,10092,35718
32644,10044,35650
32562,10046,35805
32472,10080,35360
32520,10083,35607
32484,10121,35675
32456,10143,35772
32344,10151,35824
32316,10209,35476
32497,10187,35784
32648,10079,35588
32812,10128,35776
32780,10071,35900
32705,10083,35904
32596,10084,35964
32472,10108,35669
32500,10141,35993
32468,10153,35904
32577,10194,35980
32668,10149,36060
32757,10102,36084
32856,10075,36121
32864,10039,36079
32804,10053,36229
32808,10118,36146
32788,10150,36127
32688,10153,36343
32664,10175,36077
32700,10129,36188
32669,10159,36335
32732,10079,36265
32934,10049,36284
32877,10042,36223
32796,10099,36330
32776,10095,36332
32616,10114,36332
32538,10139,36485
32604,10149,36007
32753,10166,36430
32832,10126,36136
32924,10107,36311
32965,10035,36477
32849,10080,36404
32756,10085,36300
32633,10081,36398
32564,10189,36445
32476,10172,36452
32508,10167,36359
32550,10152,36417
32596,10121,36468
32748,10090,36490
32838,10038,36629
32940,10094,36159
32908,10079,36525
32776,10077,36649
32628,10172,36166
32413,10157,36505
32382,10157,36653
32372,10129,36576
32584,10136,36481
32848,10093,36685
32965,10066,36470
33024,10045,36628
33029,10053,36644
32908,10079,36743
32812,10110,36369
32600,10149,36567
32496,10189,36613
32404,10142,36705
32476,10136,36826
32624,10073,36739
32788,10030,36850
32924,10053,36737
32960,10086,36629
32904,10089,36772
32736,10108,36769
32616,10142,36672
32608,10181,36778
32608,10137,36822
32812,10105,36963
33121,10067,36481
33284,10092,36847
33300,10065,36929
33072,10067,36781
32820,10082,36871
32576,10112,37038
32444,10131,36567
32296,10169,36889
32349,10132,37071
32588,10092,36589
32828,10158,36820
32949,10085,36795
32936,10039,36938
32920,10056,37109
32884,10073,36898
32849,10132,37025
32645,10137,37036
32488,10143,36969
32490,10121,37028
32708,10110,37205
32864,10068,37031
33056,10081,36790
33024,10036,37110
32940,10037,37117
32848,10109,37111
32732,10111,37174
32812,10134,37253
32868,10134,37172
33012,10136,36999
33152,10113,37159
33024,10061,37269
32954,10033,37231
32920,10089,37332
32860,10083,37245
32748,10125,37294
32670,10160,37232
32592,10122,37151
32668,10153,37124
32744,10125,37157
32760,10084,37164
32773,10106,37308
32828,10037,37284
32932,10017,37423
32968,10061,37225
32808,10085,37300
32636,10095,37316
32501,10127,37255
32540,10124,37255
32557,10113,37177
32608,10082,37255
32732,10083,37300
32817,10036,37445
32836,10015,36994
32804,10029,37312
32692,10100,37269
32564,10117,37289
32612,10149,37442
32708,10126,36959
32656,10104,37327
32730,10092,37183
32878,10047,37356
32904,10057,37334
32856,10023,37428
32822,10025,37237
32766,10099,37260
32680,10107,37351
32638,10143,37316
32572,10118,37308
32468,10145,37321
32368,10089,37320
32176,10051,37319
32128,10036,37293
32016,10020,37304
31936,10035,37341
31964,10047,37327
31932,10101,37255
32016,10130,37277
32133,10119,37325
32236,10136,37442
32404,10094,37210
32654,10048,37287
32880,10035,37277
33172,10011,37344
33248,10067,37319
33152,10084,37439
33120,10100,37015
33312,10119,37191
33452,10125,37295
33460,10105,37303
33782,10146,37416
34348,10074,37300
34836,10043,37212
35338,10005,37332
35764,10052,36933
36152,10057,37286
36377,10118,37456
36264,10118,36964
35936,10116,37345
35676,10123,37247
35461,10094,37287
35296,10036,37349
35047,10029,37230
34744,9999,37444
34294,10055,37277
33848,10039,37321
33396,10112,37308
32965,10154,37314
32664,10131,37220
32544,10127,37312
32532,10073,37263
32556,10037,37396
32508,10036,37165
32408,10007,37239
32252,10029,37339
32036,10034,37108
31896,10129,37175
31836,10107,37151
31841,10137,37253
31886,10103,36795
31920,10070,37017
32020,10075,37276
32175,10022,37137
32334,9996,37165
32359,10046,37052
32260,10047,37103
32212,10058,37177
32064,10133,37039
32000,10111,37263
31934,10090,37191
32001,10062,37190
32168,10066,37167
32324,10007,37226
32384,9990,37127
32352,10049,37351
32244,10046,36977
32176,10092,37193
32032,10093,37292
31904,10127,37333
31908,10093,37201
31996,10116,37284
32152,10041,37156
32285,9988,37396
32412,10035,37201
32437,10021,37319
32416,10025,37231
32356,10094,37404
32186,10103,37414
32105,10098,37249
32244,10110,37324
32300,10083,37408
32372,10023,37376
32380,10037,37325
32308,10013,37317
32224,10026,37241
32216,10028,37205
32212,10053,37317
32252,10130,37268
32404,10105,37140
32496,10087,37249
32612,10052,37247
32720,10062,37135
32800,10002,37236
32730,9982,36925
32580,10013,37228
32452,10022,37067
32300,10065,37310
32148,10083,36925
32228,10123,37109
32340,10081,37285
32440,10118,36986
32628,10031,37152
32688,10005,37261
32724,9975,37089
32676,10043,36972
32604,10053,37036
32640,10055,37089
32636,10084,36934
32630,10120,37044
32781,10084,37028
33044,10061,37137
33144,10019,36653
33228,9978,36863
33132,9977,36911
32928,10033,36911
32744,10017,36887
32754,10085,36985
32705,10085,36915
32708,10085,36754
32816,10090,36983
32910,10044,36828
32984,10056,36855
33060,9999,36709
33088,9965,36924
33084,10015,36685
32988,10023,36813
32952,10076,36796
32964,10086,36830
33088,10134,36844
33188,10073,36549
33373,10097,36740
33508,10016,36421
33624,10047,36695
33525,10004,36765
33308,10007,36724
33141,10022,36705
33160,10066,36719
33116,10069,36837
33024,10121,36613
33116,10084,36663
33192,10065,36807
33233,10041,36665
33220,9994,36615
33052,9967,36659
32944,10025,36815
32960,10029,36646
33004,10037,36665
32988,10177,36761
32997,10120,36298
32912,10084,36511
32929,10051,36597
32932,10022,36496
33008,9985,36389
32962,9968,36749
32800,9983,36696
32600,10033,36404
32520,10056,36459
32473,10065,36516
32448,10171,36615
32448,10094,36567
32452,10057,36656
32480,10022,36546
32568,9968,36413
32560,9986,36544
32544,9980,36525
32460,9999,36645
32384,10029,36515
32361,10099,36608
32344,10097,36125
32360,10049,36423
32500,10066,36381
32673,10007,36391
32832,9961,36511
32960,9980,36156
32940,9996,36324
32789,9991,36417
32608,10064,36340
32493,10068,36303
32337,10067,36304
32220,10084,36262
32218,10024,36260
32352,10033,36196
32445,9991,36271
32492,9955,36239
32548,9989,36168
32560,9987,36293
32489,10082,36174
32408,10084,36197
32432,10074,36223
32524,10046,36231
32640,10066,36055
32736,10022,36113
32756,9970,36206
32704,9945,36039
32684,10014,36103
32656,10019,36127
32567,10038,35987
32476,10057,35999
32441,10053,36089
32413,10140,36038
32444,10059,36136
32572,10006,35694
32692,9983,35919
32805,9945,35964
32840,9959,35657
32870,10010,35891
32808,10044,36057
32620,10053,35913
32534,10053,35895
32477,10040,35637
32440,10025,35847
32553,10020,35941
32676,9962,35873
32692,9937,35839
32725,9958,35886
32648,10020,35829
32616,10025,35957
32660,10062,35904
32708,10093,35820
32744,10055,35999
32772,10013,35876
32708,10036,35887
32644,9952,35975
32669,9935,35716
32637,10033,35903
32600,9994,35792
32636,10004,35905
32568,10066,35725
32592,10064,35838
32628,10037,36002
32652,10021,35647
32740,9977,35826
32878,9988,35889
33074,9946,35891
33120,9947,35879
33044,9991,35873
32896,10002,35854
32708,10077,35749
32572,10055,35900
32572,10031,35849
32690,10049,35772
32805,9999,35948
32928,9948,35845
33008,9953,35807
32889,9940,35996
32794,9996,35785
32728,10020,35834
32650,10039,35996
32696,10053,35791
32848,10021,35823
32948,10045,35972
33000,9987,35693
32896,9931,35841
32836,9969,35948
32833,9953,35495
32789,9964,35804
32730,10026,35927
32677,10033,35583
32673,10040,35815
32720,10039,35733
32832,9999,35839
32904,9996,35669
32988,9935,35813
32944,9971,35844
32900,9948,35733
32704,9959,35759
32544,10008,35933
32528,10048,35685
32566,10037,35782
32628,10033,35758
32748,9995,35784
32904,10012,35765
32996,9949,35877
33028,9928,35760
32944,9927,35885
32804,9993,35397
32684,9991,35669
32572,10019,35732
32488,10031,35714
32517,10042,35860
32617,10012,35381
32724,9974,35664
32932,9967,35775
33004,9932,35416
33012,9925,35665
32956,9970,35793
32864,10009,35318
32834,10013,35527
32796,10029,35571
32820,10047,35588
32860,10017,35728
32894,9958,35232
32916,9944,35558
32896,9912,35405
32788,9968,35525
32712,9957,35506
32644,9980,35494
32568,10021,35400
32609,10038,35456
32696,10014,35364
32801,9991,35340
32848,9977,35396
32980,9954,35441
33028,9911,35340
32920,9946,35169
32876,9965,35230
32786,9978,35292
32681,10050,35380
32661,10030,34993
32772,10012,35199
32812,10038,35213
32864,9978,35108
32920,9924,34853
32933,9949,35092
32840,9952,35156
32740,9947,35138
32604,9984,34839
32496,10002,35021
32493,10042,35030
32551,10013,35002
32648,10022,34718
32720,9967,34949
32756,9919,34766
32772,9949,34889
32696,9927,34557
32732,10018,34823
32764,9993,34913
32801,10011,34797
32856,10094,34711
32868,10033,34852
33028,9993,34660
33112,9958,34737
33220,9947,34671
33316,9913,34626
33292,9928,34727
33120,9945,34367
33016,10023,34599
32946,10020,34700
32900,10037,34509
32888,10004,34593
32960,10023,34504
32992,9967,34673
33068,9932,34245
33088,9907,34423
33036,9957,34591
32932,9964,34477
32829,9983,34566
32728,10014,34451
32740,10028,34429
32816,10009,34182
32836,10085,34245
32777,9975,34460
32888,9926,34329
32932,9904,34225
32860,9926,34359
32764,9937,34296
32724,10003,34136
32660,10021,34223
32632,10021,34212
32664,10007,34285
32717,10022,34220
32788,9969,34277
32940,9934,34167
32933,9909,34085
32864,9919,34156
32780,9948,34087
32712,9959,34177
32677,10027,34063
32700,10015,33969
32716,10048,34113
32772,9994,34009
32853,9955,33917
32896,9970,33886
32816,9927,33904
32644,9921,33879
32360,9928,33922
32100,10001,33769
31896,10013,33857
31724,10014,33540
31816,10023,33828
31916,10000,33951
32112,9953,33614
32260,9956,33721
32424,9938,33865
32628,9914,33445
32692,9932,33652
32734,10034,33630
32941,10035,33641
33140,10037,33761
33332,10011,33343
33604,9988,33528
34112,9996,33612
34684,9948,33565
34980,9908,33415
35296,9958,33628
35684,9949,33500
36012,9966,33380
36288,10034,33580
36616,10020,33375
36864,10057,33460
36952,9995,33303
36848,9961,33440
36613,9956,33366
36308,9906,33354
35888,9974,33461
35400,9966,33347
34888,9972,33216
34412,10002,33220
33872,10051,33285
33460,10023,33283
33112,10019,32961
32824,9960,33174
32592,9919,33068
32508,10010,33131
32383,9943,33086
32244,9946,32964
32104,9981,33013
31956,10005,33105
31856,10076,32876
31836,10026,32933
31884,9988,32945
32012,9964,32789
32032,9943,32878
32093,9925,32975
32045,9913,32695
31961,10024,32797
31812,9987,32921
31712,10010,32711
31648,10020,32787
31704,10034,32756
31824,10021,32660
31912,9966,32736
32048,9960,32839
32125,9925,32492
32112,9915,32749
31956,10009,32740
31864,9967,32729
31708,10007,32834
31556,10055,32620
31504,10024,32736
31628,10000,32805
31772,9965,32487
31940,9975,32695
32084,9926,32724
32164,10015,32686
32208,9973,32645
32176,9979,32713
32100,10012,32744
32080,10020,32567
32084,10020,32705
32132,10035,32775
32125,9986,32612
32194,9964,32700
32192,9911,32630
32144,9919,32466
32080,9981,32620
31997,10004,32647
31900,10022,32673
31897,10044,32685
31944,10027,32644
32116,9991,32673
32224,9969,32551
32328,9947,32621
32448,9913,32569
32400,9948,32585
32198,9950,32701
32096,10028,32558
32005,10018,32669
31894,10116,32471
32028,10049,32575
32276,10019,32590
32448,9973,32532
32596,9941,32260
32660,9951,32484
32590,9942,32539
32492,9960,32222
32388,9975,32389
32261,10051,32533
32165,10047,32415
32212,10025,32308
32308,10037,32422
32444,9998,32287
32572,9953,32409
32616,9929,32103
32633,9953,32340
32568,9975,32463
32448,9979,32215
32452,10031,32295
32376,10079,32145
32405,10059,32356
32464,10020,31998
32612,9995,32208
32772,9941,32174
32836,9930,32152
32800,9972,31877
32740,9970,32123
32657,9990,32156
32608,10026,31820
32616,10041,31978
32661,10033,31925
32800,10016,31955
32928,9987,31989
32968,9995,31687
32960,9957,31896
32844,9957,31820
32840,9965,31999
32724,10038,31780
32676,10055,31870
32652,10055,31802
32720,10041,31879
32756,10053,31545
32900,10002,31689
33096,9956,31832
33188,9942,31494
33188,9973,31727
33124,9985,31791
32960,10001,31690
32812,10036,31449
32694,10079,31683
32712,10070,31604
32764,10023,31797
32888,10042,31572
32952,9990,31494
33013,9949,31645
32952,9973,31615
32800,9989,31531
32660,10000,31697
32549,10050,31359
32586,10093,31552
32628,10053,31502
32760,10070,31465
32864,10010,31711
32940,9964,31485
32988,9990,31329
32868,9967,31546
32669,9977,31596
32469,10007,31497
32372,10083,31281
32368,10071,31519
32384,10055,31399
32402,10036,31628
32476,10045,31325
32568,10005,31494
32676,9958,31356
32730,9959,31550
32661,9990,31367
32612,10052,31449
32504,10069,31341
32380,10063,31527
32348,10095,31263
32445,10076,31389
32592,10007,31359
32720,10020,31293
32825,9969,31355
32704,9965,31364
32544,10021,31300
32474,10020,31076
32384,10093,31303
32332,10105,31419
32404,10067,31145
32484,10071,31259
32631,10042,31369
32729,9990,31058
32848,9992,31192
32816,9978,31357
32716,9998,31063
32680,10055,31180
32584,10089,31327
32510,10085,30966
32532,10106,31180
32580,10061,31029
32704,10061,31132
32768,10007,31141
32792,9972,31043
32732,9988,31165
32652,10051,31188
32584,10076,31078
32472,10104,30935
32424,10092,31095
32372,10117,30956
32509,10084,31052
32612,10039,31012
32624,10002,31151
32638,10015,30930
32549,9991,30912
32521,10052,30784
32572,10068,31013
32559,10084,31022
32572,10094,30873
32592,10142,30972
32692,10084,30942
32812,10047,30981
32889,10048,30881
32908,10006,30974
32824,10020,30863
32688,10026,30893
32525,10045,30967
32476,10167,30820
32420,10132,30996
32468,10127,30835
32636,10082,30744
32764,10082,30916
32872,10049,30896
32924,9998,30912
32900,10054,30641
32782,10049,30863
32704,10089,30938
32624,10095,30635
32613,10202,30842
32596,10157,30818
32660,10118,30876
32652,10079,31009
32696,10051,30888
32638,10031,31012
32644,10048,30776
32632,10038,30899
32632,10071,30809
32524,10142,30776
32584,10130,30871
32628,10118,30761
32740,10100,30975
32892,10120,30877
33072,10070,30776
33080,10035,30873
32986,10051,30901
32844,10049,31015
32696,10077,30631
32564,10122,30872
32500,10237,31020
32544,10163,30657
32688,10130,30854
32784,10104,30791
32916,10055,30885
32984,10030,30741
33044,10061,31017
33016,10085,30689
32941,10091,30769
32821,10175,30996
32768,10154,30811
32832,10138,30653
32792,10164,30892
32782,10116,31021
32849,10085,30809
32912,10044,30874
32944,10047,30992
32892,10124,30779
32857,10125,30908
32796,10169,30972
32752,10151,30800
32850,10185,30892
32917,10137,30860
32940,10103,30886
32994,10070,30889
32980,10077,30866
32882,10071,30797
32808,10093,30813
32728,10112,30873
32656,10240,30858
32640,10191,30813
32698,10182,30852
32884,10147,30781
33040,10113,30750
33124,10091,30825
33185,10109,30651
33172,10081,30840
32996,10096,30795
32864,10148,30953
32780,10169,30727
32680,10250,30809
32680,10207,30815
32709,10172,30617
32820,10130,30837
32928,10119,30805
33012,10109,30829
33028,10085,30863
32960,10138,30621
32904,10164,30811
32797,10172,30838
32797,10239,30733
32832,10214,30549
32868,10194,30780
32928,10139,30656
32900,10165,30705
32956,10102,30520
33036,10109,30628
33036,10119,30776
32892,10167,30719
32736,10205,30736
32704,10200,30707
32708,10249,30839
32736,10196,30637
32756,10162,30612
32792,10127,30684
32752,10106,30600
32826,10149,30660
32876,10152,30818
32828,10163,30591
32717,10241,30479
32732,10228,30542
32733,10215,30727
32856,10257,30434
32956,10204,30583
33100,10155,30757
33132,10117,30551
33140,10147,30646
33101,10167,30535
33020,10170,30753
33000,10238,30564
33029,10235,30382
33116,10249,30565
33228,10212,30619
33332,10190,30473
33460,10149,30509
33512,10127,30610
33472,10135,30708
33288,10229,30381
33048,10207,30625
32836,10233,30672
32752,10247,30711
32732,10310,30480
32865,10226,30604
32980,10190,30588
33068,10197,30672
33052,10167,30655
32968,10145,30518
32864,10181,30623
32850,10196,30636
32740,10260,30609
32648,10279,30634
32624,10249,30637
32716,10289,30437
32790,10217,30669
32901,10172,30530
32924,10194,30692
32896,10166,30684
32894,10185,30431
32844,10307,30699
32832,10258,30575
32808,10270,30801
32776,10280,30840
32817,10243,30680
32916,10279,30616
32968,10193,30735
33056,10172,30709
33108,10169,30808
33054,10263,30580
32960,10251,30694
32841,10273,30807
32676,10279,30580
32576,10374,30782
32524,10292,30662
32464,10237,30798
32308,10200,30871
32188,10213,30704
32148,10197,30793
32144,10225,30919
32036,10239,30617
32044,10275,30820
32018,10377,30827
32112,10331,30727
32402,10277,30831
32661,10242,30684
32908,10284,30916
33228,10217,30631
33496,10215,30798
33704,10254,30785
33920,10254,30594
34276,10343,30717
34716,10350,30745
35160,10330,30793
35633,10300,30768
36112,10287,30855
36680,10215,30788
37228,10246,30798
37440,10229,30872
37396,10243,30877
37176,10255,30776
36852,10307,30885
36544,10351,30879
36196,10339,30791
35896,10292,30844
35572,10270,30993
35168,10274,30631
34660,10244,30737
34120,10237,30808
33616,10250,30887
33160,10273,30824
32728,10340,30982
32484,10335,30730
32360,10326,30828
32272,10354,30700
32261,10291,30864
32296,10239,30701
32292,10246,30485
32293,10239,30725
32090,10283,30725
31972,10287,30573
31820,10317,30569
31768,10402,30792
31776,10367,30537
31828,10326,30660
31916,10289,30602
31980,10285,30503
31964,10236,30605
31988,10280,30688
31912,10276,30478
31812,10290,30556
31696,10373,30538
31660,10378,30485
31680,10345,30622
31726,10388,30396
31872,10330,30460
31968,10277,30440
32068,10338,30324
32040,10283,30442
32040,10294,30153
31989,10329,30386
31900,10341,30206
31784,10395,30226
31752,10367,30380
31824,10341,30189
31912,10335,30183
32044,10299,30247
32184,10255,30155
32264,10275,30181
32288,10285,30052
32224,10342,30188
32132,10391,30036
32036,10409,30188
32048,10385,30200
32156,10375,30145
32272,10329,30096
32296,10315,29991
32308,10297,30047
32320,10308,29886
32260,10309,30040
32172,10325,29979
32058,10380,29972
32044,10381,29935
32080,10451,29935
32164,10365,29801
32284,10378,29846
32351,10309,29814
32432,10286,29919
32489,10279,29722
32436,10347,29805
32345,10345,29664
32308,10377,29840
32296,10393,29597
32369,10416,29677
32445,10391,29610
32536,10339,29557
32616,10343,29581
32640,10298,29325
32649,10297,29509
32616,10374,29439
32524,10356,29537
32456,10383,29324
32342,10400,29393
32309,10435,29287
32324,10395,29445
32480,10355,29247
32592,10401,29253
32612,10324,29157
32585,10327,29288
32480,10322,28935
32428,10402,29072
32480,10417,29135
32520,10434,28934
32608,10409,29012
32694,10392,28950
32806,10396,28841
32953,10333,28655
33064,10309,28847
33056,10306,28831
33009,10332,28801
32888,10364,28805
32774,10450,28500
32736,10433,28667
32756,10415,28628
32812,10399,28497
32876,10365,28639
32996,10331,28309
33164,10374,28395
33180,10353,28423
33180,10354,28192
33088,10387,28332
33056,10407,28428
32948,10468,28190
32977,10426,28061
33074,10401,28223
33108,10377,28325
33108,10405,27972
33157,10348,28104
33088,10343,28197
32998,10359,27941
32862,10375,28062
32764,10415,28150
32684,10471,27793
32720,10440,27958
32776,10409,27952
32960,10423,27924
32976,10359,27791
33096,10332,27869
33020,10332,27943
32897,10355,27706
32745,10418,27801
32621,10449,27804
32540,10444,27637
32550,10435,27716
32605,10431,27698
32688,10413,27621
32752,10357,27696
32744,10351,27639
32760,10342,27488
32697,10356,27567
32508,10454,27439
32492,10447,27615
32439,10448,27570
32488,10525,27399
32573,10441,27258
32716,10396,27462
32884,10396,27391
32996,10351,27428
32965,10343,27437
32856,10404,27305
32766,10404,27224
32664,10428,27316
32761,10487,27268
32796,10459,27333
32876,10426,27159
32884,10436,27015
33000,10381,27197
33044,10355,27128
33000,10348,27201
32880,10415,26927
32760,10421,27108
32660,10444,26981
32628,10486,27076
32664,10465,27134
32720,10435,26894
32820,10451,27000
32916,10391,26842
32988,10364,27014
32984,10353,26764
32896,10413,26895
32820,10424,26868
32733,10441,26959
32669,10473,26788
32636,10461,26669
32656,10471,26819
32790,10453,26631
32900,10380,26729
32924,10350,26852
32908,10404,26628
32804,10393,26740
32668,10410,26580
32584,10488,26751
32564,10479,26580
32570,10463,26684
32632,10467,26559
32704,10423,26708
32752,10379,26497
32804,10357,26644
32736,10418,26688
32641,10407,26638
32548,10416,26569
32420,10500,26488
32400,10491,26623
32506,10478,26496
32596,10452,26561
32704,10453,26399
32784,10405,26599
32780,10370,26573
32760,10396,26477
32632,10422,26639
32632,10422,26461
32576,10507,26562
32536,10492,26452
32597,10480,26661
32712,10467,26430
32806,10504,26380
32864,10430,26527
32888,10404,26469
32874,10459,26612
32720,10423,26432
32620,10437,26554
32474,10465,26491
32400,10538,26420
32380,10497,26543
32520,10458,26493
32592,10508,26572
32660,10429,26444
32696,10402,26533
32665,10393,26612
32616,10435,26328
32532,10437,26485
32505,10513,26532
32492,10519,26394
32480,10500,26529
32580,10468,26453
32744,10440,26536
32900,10409,26520
32908,10427,26530
32776,10425,26428
32609,10452,26532
32600,10464,26527
32544,10481,26393
32596,10502,26500
32594,10495,26546
32676,10500,26460
32712,10454,26311
32812,10447,26493
32848,10407,26444
32812,10407,26498
32812,10435,26528
32736,10452,26585
32701,10495,26517
32668,10522,26384
32684,10502,26456
32752,10477,26519
32856,10453,26401
32985,10443,26615
33068,10407,26400
33124,10406,26373
32999,10433,26396
32884,10455,26501
32764,10487,26405
32672,10513,26329
32664,10517,26372
32748,10484,26469
32824,10460,26567
32908,10441,26341
32952,10404,26473
32948,10476,26506
32920,10448,26333
32793,10469,26324
32692,10527,26332
32644,10511,26454
32712,10558,26468
32796,10509,26247
32856,10479,26308
32849,10431,26465
32856,10435,26239
32788,10420,26427
32760,10436,26552
32700,10495,26300
32628,10532,26434
32533,10524,26313
32526,10536,26428
32604,10520,26421
32760,10468,26318
32825,10473,26328
32933,10425,26422
32916,10429,26348
32860,10451,26309
32759,10469,26386
32670,10514,26469
32600,10563,26220
32636,10539,26298
32726,10499,26452
32764,10516,26222
32796,10443,26332
32948,10437,26292
32916,10425,26311
32794,10444,26263
32792,10519,26261
32752,10533,26273
32697,10561,26368
32660,10523,26473
32759,10554,26394
32752,10485,26271
32836,10442,26311
32929,10458,26393
32888,10450,26263
32816,10449,26380
32702,10508,26215
32564,10538,26254
32424,10532,26277
32376,10575,26367
32372,10522,26476
32460,10485,26275
32504,10480,26381
32596,10442,26489
32692,10425,26174
32700,10496,26345
32612,10493,26471
32528,10516,26301
32509,10578,26200
32636,10567,26381
32828,10518,26256
32944,10525,26285
32992,10459,26358
32993,10431,26236
33004,10436,26254
32984,10484,26361
32909,10499,26402
32832,10524,26245
32840,10569,26346
32921,10548,26451
33040,10540,26205
33116,10492,26372
33120,10504,26364
33101,10463,26247
33052,10455,26382
33068,10463,26476
32975,10483,26202
32820,10577,26377
32770,10572,26441
32726,10549,26264
32801,10525,26388
32840,10495,26351
32958,10455,26261
33040,10475,26390
33024,10455,26292
32984,10499,26401
32884,10503,26356
32840,10527,26274
32832,10591,26204
32940,10550,26388
32984,10524,26469
32998,10504,26448
33068,10452,26304
33048,10450,26300
33020,10441,26434
32968,10455,26500
32884,10539,26237
32797,10547,26314
32872,10548,26437
32897,10541,26257
32956,10557,26405
32980,10525,26560
32936,10464,26340
32972,10465,26458
32932,10459,26397
32772,10462,26568
32632,10517,26358
32424,10540,26492
32244,10597,26455
32069,10577,26465
32028,10540,26513
32124,10506,26592
32129,10461,26532
32352,10437,26601
32428,10488,26364
32341,10493,26466
32244,10485,26479
32324,10558,26588
32277,10557,26393
32500,10636,26551
32876,10540,26708
33148,10500,26460
33422,10485,26616
33728,10444,26592
34164,10496,26708
34564,10478,26540
34777,10492,26679
35160,10566,26561
35676,10578,26810
36260,10545,26608
36761,10544,26727
37100,10507,26723
37180,10505,26796
36997,10446,26837
36676,10531,26625
36248,10481,26793
35796,10511,26960
35349,10591,26728
34920,10576,26863
34512,10560,26850
34124,10527,26780
33772,10502,26951
33416,10505,26903
33068,10465,26797
32744,10457,26806
32424,10460,26930
32169,10483,26888
31984,10524,26941
31868,10595,27024
31893,10564,26767
31937,10542,26887
31968,10496,26981
31952,10455,26946
32026,10486,27023
32008,10455,26867
32028,10488,26951
31901,10485,27097
31792,10528,27015
31744,10587,27142
31768,10577,27045
31866,10552,27141
31980,10521,26880
32116,10467,26989
32068,10437,27004
32025,10436,27140
31932,10505,27143
31792,10528,27177
31676,10561,27284
31580,10567,27232
31604,10550,27271
31666,10521,27155
31780,10554,27281
31936,10494,27308
31998,10465,27320
32000,10459,27383
31944,10461,27348
31888,10492,27408
31808,10533,27281
31760,10543,27381
31784,10534,27453
31876,10546,27269
32004,10494,27458
32160,10495,27359
32284,10436,27593
32289,10475,27412
32242,10481,27308
32113,10481,27417
31984,10560,27593
31956,10549,27420
31937,10600,27402
31996,10533,27588
32096,10497,27543
32206,10507,27583
32260,10447,27604
32276,10457,27716
32124,10458,27476
32060,10481,27596
32020,10556,27716
31996,10563,27472
32072,10546,27524
32192,10548,27587
32240,10503,27574
32367,10452,27437
32412,10511,27525
32388,10519,27564
32336,10490,27580
32220,10487,27396
32172,10541,27400
32100,10563,27365
32138,10551,27420
32316,10531,27437
32412,10486,27376
32436,10496,27495
32548,10438,27238
32544,10427,27328
32560,10479,27258
32512,10505,27316
32432,10512,27061
32326,10578,27228
32328,10550,27176
32468,10516,27203
32620,10542,26996
32780,10466,27096
32897,10436,26999
32769,10469,26905
32728,10466,26999
32648,10471,26960
32544,10527,27036
32572,10537,26796
32614,10571,26869
32740,10546,26849
32856,10490,26644
32944,10485,26759
33028,10463,26869
33020,10427,26597
32982,10475,26688
32904,10487,26550
32832,10549,26734
32704,10545,26482
32684,10531,26581
32808,10563,26537
32940,10522,26503
33076,10476,26409
33168,10443,26305
33108,10448,26300
33084,10441,26336
33008,10509,26392
32992,10516,26311
32884,10529,26335
32928,10565,26177
33037,10517,26141
33141,10489,26230
33028,10477,26269
33108,10452,26220
33072,10435,26236
33008,10441,26004
32923,10468,26103
32768,10500,26116
32668,10613,26195
32660,10558,25902
32736,10520,26032
32662,10487,26073
32752,10447,26009
32856,10466,25945
32852,10437,26016
32756,10469,25982
32640,10545,25816
32580,10519,25810
32485,10531,25932
32496,10530,25991
32448,10541,25697
32492,10501,25873
32600,10441,25815
32680,10453,25812
32640,10430,25647
32560,10435,25810
32648,10463,25914
32503,10505,25607
32313,10559,25780
32368,10541,25881
32460,10503,25732
32560,10510,25636
32676,10444,25637
32680,10423,25596
32704,10414,25722
32648,10444,25593
32556,10454,25630
32484,10570,25700
32460,10529,25700
32436,10517,25596
32508,10538,25653
32568,10480,25532
32652,10441,25718
32684,10440,25446
32732,10412,25623
32684,10442,25696
32620,10477,25607
32516,10489,25497
32500,10554,25516
32512,10529,25586
32624,10499,25679
32760,10479,25572
32796,10438,25368
32789,10427,25542
32720,10410,25434
32700,10479,25511
32608,10479,25493
32518,10516,25365
32477,10515,25352
32552,10511,25437
32623,10535,25357
32724,10477,25477
32816,10458,25551
32944,10397,25332
32932,10444,25457
32826,10435,25541
32680,10459,25470
32620,10494,25567
32536,10512,25463
32505,10539,25364
32616,10497,25343
32728,10463,25441
32794,10496,25337
32821,10429,25449
32877,10398,25513
32821,10435,25342
32700,10444,25465
32592,10477,25444
32501,10544,25336
32560,10515,25456
32596,10487,25408
32672,10527,25381
32740,10462,25451
32929,10405,25351
33004,10397,25534
32924,10465,25299
32884,10477,25401
32796,10489,25488
32754,10527,25292
32724,10529,25402
32792,10484,25424
32854,10460,25317
32950,10469,25381
33014,10413,25260
33000,10398,25429
32876,10412,25205
32770,10467,25386
32760,10495,25255
32708,10506,25469
32748,10532,25294
32864,10489,25205
32984,10479,25259
33000,10447,25247
32980,10402,25367
33000,10390,25296
32901,10416,25395
32804,10495,25198
32804,10508,25345
32725,10524,25465
32736,10505,25196
32713,10479,25335
32752,10492,25447
32872,10447,25349
32876,10414,25463
32900,10401,25226
32886,10409,25367
32728,10469,25273
32732,10489,25221
32620,10491,25335
32632,10531,25360
32684,10494,25244
32788,10472,25364
32872,10409,25179
32932,10431,25339
32848,10423,25280
32736,10402,25307
32680,10431,25304
32620,10470,25339
32588,10531,25153
32684,10512,25249
32796,10505,25354
32920,10464,25052
32992,10431,25318
33068,10388,25077
33060,10414,25175
33012,10429,25186
32920,10431,25092
32820,10551,24979
32740,10500,25069
32808,10486,25179
32868,10504,25055
32937,10460,24855
33036,10463,25021
33044,10409,24940
32970,10419,25061
32876,10421,24775
32736,10457,24903
32644,10465,24982
32575,10512,24850
32624,10487,24757
32695,10503,24710
32782,10468,24818
32884,10404,24877
33001,10418,24703
32984,10390,24620
32877,10397,24708
32831,10464,24801
32776,10469,24549
32652,10478,24703
32688,10494,24664
32776,10468,24623
32824,10466,24623
32968,10412,24447
33017,10377,24583
32985,10382,24548
32916,10391,24502
32852,10457,24378
32804,10466,24471
32672,10479,24610
32692,10535,24351
32750,10477,24481
32836,10444,24534
32872,10448,24279
33020,10397,24414
33052,10383,24442
33004,10389,24239
32903,10430,24201
32816,10453,24338
32736,10519,24296
32672,10485,24309
32744,10474,24190
32836,10439,24388
32964,10447,24143
33068,10395,24278
33124,10368,24141
33116,10409,24328
33030,10436,24095
32900,10504,24084
32780,10484,24147
32676,10479,24229
32604,10481,24053
32600,10444,24193
32668,10424,24191
32780,10417,24100
32800,10391,24040
32664,10418,24187
32560,10415,24267
32460,10485,24005
32432,10490,24141
32484,10479,24113
32676,10558,24172
32852,10463,24085
33037,10404,24237
33116,10372,24028
33140,10370,24076
33060,10421,24060
32952,10430,24212
32932,10469,24278
32836,10482,24076
32868,10475,24209
33022,10495,24356
33132,10440,24142
33220,10421,24174
33248,10379,24175
33140,10364,24327
33029,10421,24397
32876,10426,24193
32706,10466,24339
32585,10502,24229
32496,10506,24373
32548,10471,24383
32660,10425,24321
32756,10393,24485
32892,10404,24428
32960,10368,24535
32904,10381,24372
32796,10480,24572
32704,10470,24540
32652,10491,24470
32638,10493,24633
32656,10447,24637
32740,10460,24577
32852,10407,24748
32900,10389,24591
32856,10361,24769
32768,10386,24702
32676,10389,24891
32572,10461,24698
32548,10468,24881
32532,10497,24833
32552,10454,24959
32729,10430,24981
32868,10379,25070
32928,10353,24901
32912,10391,25063
32744,10382,25195
32581,10413,24986
32396,10423,24980
32212,10497,25176
32108,10448,25221
31996,10479,25253
31981,10421,25187
32100,10378,25428
32144,10433,25237
32168,10385,25404
32169,10368,25545
32092,10387,25399
32093,10453,25391
32236,10460,25575
32340,10449,25597
32614,10430,25741
32924,10449,25579
33200,10382,25607
33460,10349,25801
33774,10371,25729
34180,10385,25956
34517,10380,25812
34853,10420,25976
35284,10473,26053
35873,10467,25932
36536,10427,26102
37056,10492,26042
37456,10390,26316
37536,10349,26092
37312,10340,26298
36973,10349,26244
36460,10407,26416
35908,10428,26453
35388,10469,26546
34924,10458,26522
34512,10420,26580
34068,10431,26487
33661,10373,26743
33312,10332,26477
32972,10355,26688
32688,10361,26770
32445,10373,26684
32264,10425,26604
32109,10468,26838
32032,10456,26612
32004,10435,26814
32056,10405,26964
32176,10369,26721
32324,10351,26909
32324,10325,26885
32209,10376,26988
32176,10383,26979
32120,10412,26848
32050,10458,26932
31992,10460,26980
31948,10422,27103
31956,10399,27172
31968,10361,27020
32000,10321,27261
32016,10321,27417
32081,10376,27214
32036,10385,27396
32028,10417,27517
32072,10434,27505
32100,10436,27654
32128,10421,27582
32265,10392,27699
32277,10351,27557
32288,10322,27707
32232,10341,27708
32156,10338,27801
32092,10359,27860
31949,10428,27839
31840,10421,28049
31901,10508,27921
32032,10429,27832
32164,10404,28036
32349,10385,27973
32424,10340,28240
32439,10319,28122
32440,10351,28011
32352,10359,28272
32291,10436,28164
32289,10438,28254
32314,10493,28488
32380,10413,28324
32448,10375,28327
32476,10374,28247
32496,10347,28509
32540,10311,28513
32416,10333,28463
32352,10359,28509
32260,10383,28613
32142,10407,28750
32092,10419,28453
32216,10435,28687
32324,10397,28588
32464,10337,28772
32613,10374,28566
32616,10333,28765
32584,10345,28821
32428,10342,28734
32224,10376,28889
32148,10434,28837
32165,10428,29012
32208,10391,28974
32364,10404,28829
32448,10343,29022
32568,10301,28905
32572,10395,29157
32457,10356,28874
32364,10356,29092
32285,10379,29252
32228,10403,29052
32212,10441,29175
32304,10404,29113
32469,10367,29335
32653,10372,29262
32768,10330,29060
32892,10315,29308
32840,10313,29260
32772,10336,29319
32748,10407,29229
32712,10415,29368
32768,10410,29391
32936,10446,29518
33093,10387,29289
33096,10327,29457
33236,10298,29440
33248,10309,29464
33184,10311,29396
33053,10333,29613
32868,10392,29516
32832,10401,29445
32804,10399,29572
32752,10413,29447
32816,10365,29727
32882,10321,29551
32920,10339,29541
32970,10295,29434
32912,10314,29626
32884,10330,29820
32992,10402,29686
33020,10399,29616
33076,10395,29785
33158,10415,29703
33222,10369,29847
33264,10328,29757
33252,10293,29868
33189,10311,29889
33160,10330,29948
33172,10322,29941
33184,10389,29937
33144,10415,29799
33088,10391,29988
33077,10426,30209
33040,10365,30196
33020,10316,30140
32960,10388,30095
32876,10316,30215
32892,10307,30230
32745,10324,30205
32480,10356,30404
32276,10416,30237
32230,10397,30397
32364,10367,30369
32580,10381,30489
32714,10313,30592
32784,10309,30610
32796,10299,30583
32592,10288,30485
32420,10335,30487
32340,10347,30402
32262,10421,30681
32340,10383,30703
32401,10397,30727
32362,10365,30759
32404,10306,30829
32640,10299,30727
32653,10274,30653
32608,10287,30902
32508,10353,30928
32420,10377,30871
32276,10387,31005
32196,10405,30975
32264,10362,31156
32268,10335,31021
32276,10339,30879
32300,10285,31143
32252,10293,31321
32188,10281,31148
32169,10353,31007
32285,10364,31319
32280,10367,31239
32344,10373,31399
32424,10351,31140
32476,10367,31351
32572,10311,31582
32676,10276,31419
32628,10296,31446
32588,10285,31591
32529,10309,31559
32500,10336,31711
32456,10396,31516
32536,10383,31712
32600,10348,31769
32656,10370,31846
32604,10290,31861
32736,10301,31879
32752,10266,31916
32684,10277,31940
32672,10296,32074
32681,10343,32014
32668,10373,32119
32656,10432,31999
32788,10370,32101
32924,10316,32327
32812,10286,31999
32749,10304,32239
32652,10290,32335
32556,10305,32385
32580,10309,32523
32544,10346,32244
32673,10362,32473
32796,10357,32586
32948,10341,32463
33056,10335,32622
33108,10285,32548
33080,10299,32813
32892,10252,32652
32653,10264,32767
32396,10305,32773
32268,10329,32787
32292,10445,32985
32348,10373,32855
32432,10343,32980
32561,10310,33015
32728,10301,33052
32856,10258,32857
32868,10245,33059
32829,10290,33321
32740,10291,33149
32624,10310,33268
32452,10379,33191
32356,10359,33392
32369,10356,33135
32516,10307,33440
32732,10273,33625
32860,10288,33459
32960,10247,33593
32894,10250,33614
32868,10318,33798
32840,10329,33700
32850,10357,33742
32920,10348,33669
32932,10331,33895
32925,10340,33620
32936,10288,33926
32900,10258,33949
32916,10235,34090
32848,10267,33756
32784,10273,34124
32796,10336,34143
32812,10343,34161
32864,10340,33919
32921,10357,34249
32961,10322,34188
32962,10355,34469
33040,10242,34460
33032,10220,34356
32936,10279,34488
32788,10293,34479
32760,10343,34511
32748,10343,34601
32808,10334,34468
32876,10319,34657
32992,10313,34567
33112,10267,34684
33128,10236,34780
33054,10219,34823
32996,10238,34759
32868,10294,34876
32816,10303,34948
32740,10330,34865
32780,10329,34969
32900,10310,35065
33052,10322,34949
33137,10259,35030
33164,10226,35005
33112,10220,35160
33016,10308,35142
32864,10284,35010
32783,10311,35119
32712,10317,35206
32816,10386,35344
32892,10325,35168
33038,10303,35253
33200,10245,35189
33300,10265,35345
33336,10233,35309
33222,10238,35231
33093,10283,35271
32908,10285,35364
32780,10314,35420
32702,10348,35330
32704,10303,35335
32716,10349,35425
32784,10290,35535
32768,10223,35272
32812,10205,35453
32752,10299,35554
32686,10277,35461
32656,10300,35492
32576,10319,35324
32584,10326,35356
32656,10330,35423
32657,10270,35372
32752,10263,35481
32968,10207,35404
33085,10246,35565
33064,10235,35179
33036,10254,35344
32934,10276,35414
32872,10352,35463
32904,10325,35436
33030,10300,35121
33080,10281,35417
33096,10279,35105
33133,10217,35541
33128,10208,35412
33065,10225,35551
32992,10235,35073
32900,10311,35396
32752,10309,35085
32692,10307,35250
32704,10374,35284
32804,10277,35332
32832,10226,35429
32836,10237,35180
32868,10206,35268
32766,10204,35359
32692,10271,35252
32581,10278,35372
32460,10300,34894
32412,10309,35089
32448,10313,35132
32564,10269,35132
32616,10223,35253
32724,10229,34801
32752,10195,35073
32725,10243,35215
32600,10238,35017
32576,10253,35071
32516,10319,34956
32489,10305,35007
32572,10280,35000
32665,10292,34916
32732,10229,34985
32756,10195,34945
32712,10183,34790
32600,10218,34932
32488,10229,34622
32438,10256,34839
32372,10306,34843
32368,10289,34823
32408,10328,34466
32449,10268,34702
32417,10244,34843
32364,10184,34375
32248,10217,34660
32072,10201,34549
31914,10213,34669
31828,10251,34565
31776,10323,34490
31888,10303,34521
32150,10277,34464
32313,10319,34294
32472,10241,34396
32752,10191,34333
32950,10183,34007
33058,10187,34176
33152,10267,34173
33156,10272,33999
33108,10325,34156
33192,10322,34097
33397,10271,34116
33492,10309,34071
33648,10226,33887
34068,10178,34101
34604,10189,33932
34956,10183,33640
35401,10242,33830
35873,10247,33961
36076,10320,33722
36112,10297,33773
35980,10263,33764
35804,10281,33439
35584,10221,33509
35344,10186,33564
35084,10157,33568
34716,10219,33422
34244,10218,33405
33680,10248,33445
33220,10265,33521
32876,10270,33057
32705,10289,33253
32652,10237,33228
32633,10199,33188
32656,10160,33233
32696,10193,32789
32656,10196,32988
32528,10194,33060
32396,10263,32712
32268,10282,32783
32180,10263,32826
32210,10265,32561
32280,10224,32694
32288,10235,32808
32320,10189,32582
32236,10210,32468
32104,10177,32580
32093,10193,32698
32084,10298,32516
32084,10276,32598
32116,10271,32640
32186,10257,32557
32284,10228,32487
32326,10180,32540
32344,10210,32540
32288,10170,32468
32228,10202,32211
32160,10208,32438
32064,10217,32590
32060,10284,32391
32116,10266,32453
32226,10258,32527
32308,10213,32126
32404,10186,32292
32492,10187,32325
32476,10149,32351
32452,10158,32453
32292,10258,32221
32144,10242,32290
32007,10242,32125
32030,10263,32292
32173,10236,32208
32384,10239,32164
32532,10189,32186
32624,10195,32288
32708,10176,32133
32717,10164,32271
32628,10181,32106
32576,10206,32073
32445,10283,32014
32416,10261,32093
32508,10231,32050
32596,10202,31855
32693,10175,32044
32732,10142,32003
32752,10147,31940
32728,10148,32119
32648,10233,31862
32576,10220,31975
32502,10231,31988
32464,10247,32036
32528,10270,31943
32638,10219,31951
32720,10192,31908
32784,10128,31821
32820,10177,31862
32760,10168,31950
32605,10180,31803
32540,10196,31876
32536,10309,31972
32540,10264,31745
32612,10248,31804
32808,10196,31765
32972,10163,31877
33092,10175,31495
33164,10141,31623
33125,10162,31820
33044,10165,31560
32904,10274,31546
32832,10264,31562
32832,10255,31622
32864,10237,31628
32962,10192,31573
33076,10163,31648
33140,10141,31616
33224,10127,31424
33216,10183,31455
33156,10172,31428
33072,10182,31276
32993,10300,31365
32968,10260,31430
32990,10221,31201
33096,10185,31273
33196,10198,31093
33316,10135,31317
33368,10124,31181
33324,10141,31258
33208,10155,30917
33208,10189,31073
33136,10246,31182
33072,10234,30945
33125,10215,30964
33232,10181,30968
33286,10189,30980
33334,10125,30830
33338,10119,30828
33252,10126,30904
33200,10149,30802
33124,10220,30753
33021,10242,30900
32992,10217,30847
33020,10242,30934
33052,10190,30551
33124,10143,30693
33184,10160,30816
33152,10113,30780
33116,10118,30770
33013,10186,30668
32820,10194,30743
32774,10232,30814
32760,10219,30743
32708,10192,30781
32814,10175,30449
32892,10180,30580
32968,10113,30740
33004,10125,30677
32908,10124,30565
32772,10135,30653
32633,10209,30660
32536,10209,30511
32452,10230,30540
32437,10220,30637
32516,10194,30629
32628,10133,30511
32712,10126,30730
32736,10100,30429
32708,10110,30565
32669,10174,30742
32640,10187,30518
32588,10196,30608
32560,10209,30551
32580,10187,30529
32680,10220,30613
32680,10145,30588
32720,10095,30534
32716,10128,30595
32624,10117,30749
32534,10121,30524
32492,10163,30616
32401,10187,30569
32397,10224,30541
32484,10178,30357
32592,10159,30465
32725,10156,30565
32776,10101,30352
32768,10079,30502
32684,10154,30512
32584,10159,30519
32548,10176,30684
32512,10185,30514
32512,10205,30619
32592,10181,30723
32700,10150,30465
32782,10147,30615
32886,10095,30548
32913,10078,30503
32908,10133,30597
32816,10136,30456
32757,10153,30581
32692,10178,30319
32665,10233,30419
32700,10193,30513
32764,10156,30539
32832,10110,30581
32900,10125,30431
32876,10082,30532
32832,10084,30500
32716,10158,30412
32577,10182,30395
32492,10212,30401
32492,10203,30480
32606,10177,30524
32748,10146,30471
32804,10149,30467
32840,10113,30318
32868,10080,30429
32832,10085,30574
32712,10148,30313
32688,10153,30449
32613,10175,30497
32572,10176,30365
32656,10202,30396
32728,10170,30457
32836,10118,30439
32966,10082,30383
32952,10073,30517
32901,10071,30209
32809,10142,30471
32704,10149,30349
32676,10177,30404
32760,10179,30481
32880,10159,30334
32984,10154,30463
33036,10099,30257
33096,10123,30453
33112,10086,30447
33014,10116,30604
32836,10105,30405
32665,10122,30477
32553,10221,30476
32620,10175,30501
32656,10149,30437
32740,10189,30533
32832,10132,30492
32908,10141,30573
32852,10080,30450
32896,10080,30575
32748,10093,30480
32752,10148,30465
32696,10163,30576
32656,10234,30536
32704,10171,30664
32809,10126,30516
32868,10136,30612
32932,10075,30520
32916,10048,30697
32848,10103,30369
32756,10097,30536
32652,10117,30724
32629,10190,30560
32568,10164,30457
32620,10212,30660
32698,10145,30717
32836,10087,30735
32884,10094,30492
32917,10056,30684
32876,10055,30588
32762,10082,30588
32660,10125,30692
32612,10166,30612
32576,10145,30612
32616,10181,30693
32701,10126,30569
32772,10085,30593
32860,10075,30412
32912,10041,30681
32892,10084,30524
32828,10081,30724
32740,10108,30644
32656,10175,30676
32636,10152,30641
32664,10140,30413
32736,10113,30473
32830,10135,30674
32892,10064,30494
32916,10044,30581
32820,10052,30691
32744,10071,30436
32661,10143,30493
32596,10158,30623
32561,10166,30444
32596,10137,30388
32644,10133,30248
32668,10089,30420
32684,10065,30335
32629,10064,30405
32572,10044,30288
32528,10078,30400
32468,10098,30380
32420,10165,30082
32397,10156,30330
32576,10128,30327
32768,10138,30372
32896,10087,30161
33028,10057,30231
33120,10030,30213
33152,10071,30068
33020,10076,30310
32917,10095,30095
32840,10153,30026
32836,10158,30116
32856,10137,30236
32940,10110,30104
33104,10100,29967
33254,10034,30105
33290,10027,29914
33224,10074,30065
33088,10075,30000
32933,10095,30089
32876,10125,30021
32904,10132,29916
32880,10116,29962
32844,10129,29780
32824,10074,29994
32836,10057,29895
32884,10020,30052
32808,10034,29744
32696,10100,29932
32584,10118,30043
32556,10126,29703
32528,10136,29836
32637,10127,29839
32768,10091,29884
32873,10085,29677
32970,10026,29876
33000,10045,29841
32960,10042,29848
32924,10053,29649
32852,10085,29845
32756,10137,29925
32740,10114,29932
32776,10150,29638
32856,10105,29869
32936,10061,29980
33005,10059,29889
33068,10009,29791
33052,10054,29605
32908,10076,29784
32799,10074,29940
32680,10141,29733
32572,10149,29815
32480,10107,29797
32421,10129,29924
32360,10071,29712
32264,10039,29786
32244,10007,29927
32224,10020,29767
32065,10071,29701
32048,10087,29692
32040,10114,29787
32044,10150,29657
32281,10108,29807
32496,10129,29729
32716,10063,29589
33040,10017,29725
33274,10032,29749
33486,10025,29722
33788,10079,29623
34136,10078,29466
34545,10109,29684
34984,10125,29551
35520,10112,29812
36060,10082,29589
36648,10101,29665
37073,10036,29677
37316,10004,29607
37284,10013,29701
36973,10146,29486
36748,10111,29583
36425,10132,29565
36024,10146,29701
35652,10109,29500
35256,10078,29636
34896,10044,29748
34488,10046,29513
34144,10026,29615
33708,10033,29639
33216,10032,29444
32741,10060,29556
32400,10115,29525
32164,10105,29644
32052,10137,29399
31992,10098,29447
32004,10045,29311
32037,10045,29470
32106,10005,29248
32044,9999,29375
31938,10066,29479
31824,10068,29259
31780,10101,29383
31776,10141,29223
31796,10107,29393
31804,10081,29359
31902,10046,29442
31961,10039,29240
31988,10007,29332
31980,10027,29405
31953,10029,29359
31885,10053,29319
31866,10116,29263
31920,10111,29369
32012,10113,29497
32040,10067,29143
32057,10032,29270
32116,10072,29367
32168,10016,29392
32172,10026,29266
32064,10061,29418
31932,10053,29431
31892,10084,29158
31834,10176,29394
31868,10127,29500
31924,10079,29413
32000,10049,29341
32152,10042,29532
32164,10003,29380
32092,9991,29282
31988,10039,29340
31860,10062,29496
31888,10079,29492
31968,10089,29373
32064,10105,29533
32156,10085,29541
32285,10028,29541
32368,9996,29365
32452,9978,29509
32392,10020,29597
32276,10021,29588
32156,10036,29720
32104,10141,29502
32036,10106,29606
32078,10091,29671
32196,10056,29559
32321,10089,29630
32428,10010,29495
32480,9981,29736
32420,10066,29412
32308,10022,29637
32224,10036,29600
32116,10070,29540
32110,10091,29660
32128,10113,29660
32334,10068,29589
32544,10023,29520
32776,10027,29657
32796,9995,29604
32708,9983,29753
32572,10019,29652
32456,10031,29435
32300,10077,29660
32172,10131,29755
32224,10092,29569
32366,10043,29679
32448,10061,29644
32572,10020,29703
32664,9982,29468
32608,9981,29559
32561,10043,29592
32520,10057,29695
32492,10077,29760
32540,10085,29628
32724,10068,29729
32864,10129,29785
33012,10055,29650
33144,10015,29748
33196,9978,29796
33088,9973,29762
32953,10038,29543
32840,10036,29732
32600,10061,29905
32476,10131,29692
32484,10085,29828
32604,10060,29935
32800,10031,29612
32972,9994,29718
33088,9991,29768
33052,9987,29828
32956,9996,29909
32876,10020,29908
32752,10057,30035
32659,10113,29685
32628,10095,29852
32676,10075,29948
32816,10020,29860
32872,10086,29991
32928,9962,29933
32976,10024,30004
32992,9996,30004
32952,10019,30111
32830,10097,29789
32672,10079,30013
32628,10062,30204
32704,10081,29922
32840,10028,30111
32848,9973,29989
32916,9985,30212
32920,9973,30033
32814,10071,30169
32708,10027,30172
32660,10048,30244
32576,10092,30111
32513,10089,30234
32600,10041,30118
32696,10020,30199
32804,9974,30265
32824,10005,30177
32800,9998,30268
32708,9999,30373
32640,10041,30311
32616,10052,30264
32576,10055,30223
32676,10106,30335
32744,10073,30448
32844,10019,30245
32816,9969,30357
32784,9996,30254
32772,9974,30415
32754,9986,30127
32604,10012,30351
32492,10072,30480
32444,10071,30109
32462,10081,30373
32624,10044,30340
32748,10006,30489
32856,10019,30105
32908,9987,30215
32932,9966,30273
32916,9977,30359
32845,10006,30404
32736,10096,30353
32742,10083,30458
32776,10059,30169
32832,10039,30252
32896,10002,30265
32956,10011,30334
33020,9996,30444
32923,9993,30308
32844,9987,30245
32733,10004,30407
32548,10040,30316
32392,10056,30361
32502,10052,30340
32629,10033,30229
32780,10033,30333
32796,9982,30364
32828,9975,30100
32782,9950,30253
32724,10009,30456
32620,10012,30118
32548,10040,30359
32592,10082,30372
32697,10063,30308
32760,10055,30431
32756,10000,30560
32880,10064,30353
32836,9973,30471
32732,9967,30612
32694,9981,30277
32652,10007,30484
32592,10040,30599
32544,10058,30305
32608,10068,30581
32740,10049,30689
32898,9997,30478
32932,9956,30622
32852,9980,30780
32668,9965,30580
32557,9979,30693
32464,10019,30716
32396,10051,30754
32300,10053,30861
32372,10048,30605
32528,10066,30791
32684,10020,30885
32848,9962,30844
32868,9951,30740
32801,9949,30812
32696,9963,30885
32664,10002,31001
32592,10079,30692
32709,10073,30927
32741,10052,30883
32728,10022,30999
32734,9998,31132
32868,10000,30816
33036,9953,31012
33148,9964,31132
33104,9972,31110
33100,9993,31174
32976,10141,31046
32792,10082,31088
32684,10055,31074
32708,10031,31086
32736,10006,31197
32736,9953,31324
32764,9961,31244
32760,9945,31367
32724,9967,31264
32652,10031,31189
32632,10049,31231
32608,10068,31342
32596,10072,31391
32645,10019,31375
32784,9991,31428
32936,9981,31405
32974,9940,31311
32976,9941,31357
32980,10007,31469
33000,10006,31614
33012,10029,31530
33044,10053,31615
32988,10068,31572
32948,10037,31676
32884,9993,31587
32860,10005,31513
32880,9956,31548
32888,9967,31605
32813,9967,31430
32748,9989,31814
32752,10079,31456
32720,10086,31679
32777,10059,31747
32917,10015,31788
32964,10016,31799
32932,9965,31856
32880,9976,31853
32825,9975,31972
32736,9962,31870
32620,10023,32020
32460,10053,31923
32408,10058,31970
32449,10044,31948
32564,10035,32065
32750,9994,31989
32801,9949,31988
32876,9977,31940
32908,9980,31820
32992,9986,31985
33054,9992,31968
33004,10035,31961
32976,10065,31908
32992,10045,31957
33044,10022,32018
33148,10045,32132
33172,9986,32137
33164,9956,32127
33108,9957,32126
33080,9957,32106
33164,10010,32135
33220,10054,32095
33228,10040,32068
33200,10081,32053
33240,10031,32119
33228,9993,32125
33172,9997,32208
33168,9950,32263
33177,9933,31984
33160,9963,32304
33172,10028,32259
33180,10052,32381
33096,10054,32260
32984,10033,32383
33004,10080,32263
33076,10005,32401
33024,9950,32263
33048,9940,32407
33060,9959,32005
33076,9987,32304
33028,9985,32214
32948,10062,32309
32908,10073,32446
32941,10042,32315
33028,10064,32254
33100,10003,32326
33068,9945,32365
33124,9975,32365
33140,9962,32391
33100,9955,32400
33012,10012,32284
32976,10033,32433
32920,10081,32150
32920,10055,32425
32946,10020,32516
32856,10039,32511
32800,9964,32508
32732,9961,32445
32657,9940,32543
32416,9999,32632
32096,10014,32613
31936,10021,32745
32028,10077,32367
32220,10055,32652
32312,10018,32533
32512,10035,32647
32799,9964,32742
32953,9935,32720
33029,9956,32629
33072,9961,32681
33076,10026,32799
33012,10056,32924
33092,10132,32577
33284,10061,32783
33548,10029,32821
33629,10000,32852
33896,9974,32999
34471,9941,32675
34948,9988,32903
35308,9991,32872
35724,9982,33005
36048,10068,33055
36232,10060,32932
36268,10096,33029
36220,10031,33078
36129,10007,32980
35888,9961,33140
35668,9994,33041
35248,9964,33159
34800,9958,33140
34196,10004,33117
33612,10025,33255
33106,10079,33175
32797,10067,33209
32764,10019,33073
32880,10045,33311
32900,9981,33124
32816,9964,33227
32532,9947,33298
32356,9967,33169
32184,10089,33193
31976,10045,33115
31892,10050,33249
31956,10047,33222
32144,10054,33264
32356,10004,33167
32612,9967,33295
32724,9939,33335
32692,9972,33266
32516,9983,33349
32292,9981,33316
32130,10070,33500
32072,10066,33171
32000,10052,33445
32030,10022,33652
32116,10007,33500
32261,9967,33615
32401,9938,33740
32468,9988,33415
32468,9978,33732
32500,9988,33653
32458,10071,33940
32420,10049,33736
32400,10082,33885
32356,10041,33968
32316,10004,34092
32284,9956,33977
32248,9961,34094
32225,9946,34064
32280,10006,34231
32366,9993,34112
32364,10061,33927
32340,10054,34273
32409,10055,34493
32472,10030,34082
32612,9991,34406
32650,9959,34272
32733,9940,34388
32665,9990,34543
32464,9998,34617
32232,10011,34672
32144,10047,34610
32116,10048,34689
32173,10049,34762
32224,10063,34781
32228,10014,34905
32316,9962,34843
32351,9957,34871
32340,9946,34876
32244,9991,34950
32244,9990,34932
32248,10072,34834
32324,10069,34949
32568,10040,35025
32732,10028,35000
32748,9996,35183
32672,9975,34993
32584,9935,35079
32520,9972,35207
32436,9967,34907
32380,10028,35149
32414,10059,35158
32620,10044,35045
32800,10061,35175
33028,10021,35236
33157,10039,35113
33148,9989,35152
33120,9945,35335
32996,9942,35078
32749,10005,35220
32548,10005,35344
32420,10033,35127
32504,10049,35151
32669,10044,35348
32864,10065,34981
33140,10013,35274
33396,9987,35270
33476,9939,35196
33364,9985,35175
33164,9976,35250
33020,10021,35407
32964,10034,35223
33004,10048,35292
33000,10105,35402
33036,10065,35215
33080,10038,35241
33060,10005,35345
33092,9971,34973
33136,9956,35300
33148,9964,35303
33104,9985,35316
33001,10104,34993
33008,10091,35276
33036,10076,35372
33080,10052,35069
33080,10010,35280
33088,9977,35229
33108,9940,35333
33128,9943,35443
33136,9965,35369
33060,9989,35236
32912,10070,35476
32760,10073,35202
32636,10065,35331
32688,10053,35435
32708,10006,35431
32690,9989,35486
32632,9963,35433
32516,9959,35334
32406,9967,35572
32285,9993,35276
32256,10078,35428
32252,10078,35540
32328,10058,35285
32340,10053,35358
32304,10003,35463
32388,9960,35497
32526,9936,35535
32452,9945,35300
32304,10009,35396
32176,10044,35315
32028,10070,35493
32016,10084,35168
32090,10071,35399
32212,10040,35372
32372,10028,35475
32508,9960,35622
32586,9942,35242
32596,9983,35468
32562,9995,35514
32382,10006,35559
32164,10029,35701
32012,10050,35367
31956,10085,35522
31984,10025,35625
32076,10018,35617
32060,9983,35612
32088,9943,35668
32101,9991,35782
32092,9980,35760
32076,9992,35428
32053,10065,35684
32004,10068,35832
32120,10045,35697
32256,10118,35623
32376,10033,35668
32442,9972,35751
32476,9940,35764
32468,9948,35661
32404,9992,35759
32280,10015,35897
32173,10040,35591
32120,10105,35660
32116,10069,35796
32184,10038,35769
32256,9997,35674
32436,10002,35923
32624,9953,35821
32632,9945,35673
32592,9999,35932
32517,10005,35576
32504,10030,35845
32436,10071,35800
32460,10048,35973
32512,10029,35578
32548,10044,35757
32652,9979,35857
32706,9945,35824
32640,9950,35712
32556,10001,35801
32453,10004,35856
32384,10026,35844
32296,10077,35777
32296,10061,35812
32404,10025,35885
32444,10038,35735
32521,9972,36005
32616,10044,35527
32568,9956,35846
32464,9962,36021
32444,10029,35724
32432,10029,35817
32375,10088,35899
32392,10058,35796
32412,10029,35935
32452,10045,35880
32472,9981,35756
32613,9955,35911
32640,9944,35897
32565,10008,35790
32444,10009,35942
32404,10052,35652
32392,10053,35821
32448,10052,35900
32548,10072,35907
32660,10028,35892
32716,9998,35866
32740,9950,35900
32728,10031,35773
32668,9983,35975
32585,9995,35817
32466,10070,35881
32381,10081,35784
32424,10052,35996
32520,10062,35730
32668,10018,35750
32696,9965,35929
32712,9947,35538
32659,9985,35812
32536,9993,35876
32492,10013,35875
32397,10054,35961
32388,10056,35884
32484,10100,35813
32604,10044,35949
32680,10003,35752
32752,9982,35508
32844,9962,35804
32904,10004,35719
32836,10004,35456
32688,10018,35709
32553,10051,35756
32425,10068,35892
32364,10053,35652
32472,10039,35731
32564,10026,35583
32645,9970,35820
32696,10008,35695
32665,9982,35684
32556,9981,35532
32404,9996,35767
32360,10038,35572
32256,10059,35628
32260,10081,35471
32440,10047,35566
32669,10035,35250
32796,9972,35444
32892,9950,35444
32860,10057,35508
32770,10001,35578
32758,10022,35135
32661,10047,35341
32632,10064,35093
32676,10052,35393
32684,10083,35508
32744,10021,35023
32872,9966,35286
32908,9947,35300
32808,9983,35262
32712,9991,35193
32628,9999,35361
32540,10061,35037
32584,10084,35182
32712,10053,35140
32824,10068,35079
32972,10039,35111
32988,9968,35026
33064,10002,35029
33020,9961,35039
32864,9973,34873
32704,10060,35057
32508,10067,34713
32445,10060,34956
32428,10066,34903
32540,10031,34877
32668,10037,34560
32772,9972,34823
32852,9963,34823
32865,9975,34840
32808,9968,34469
32797,10026,34719
32688,10044,34565
32656,10101,34784
32696,10058,34541
32828,10036,34617
32936,10042,34575
33070,9984,34701
33140,9974,34461
33024,9951,34535
32942,9968,34493
32784,10002,34281
32661,10089,34428
32576,10077,34530
32500,10074,34300
32392,10039,34366
32262,10015,34317
32241,9998,34295
32192,9979,34012
32178,9951,34257
32228,10013,34208
32204,10014,34054
32328,10036,34244
32396,10106,34163
32340,10066,34012
32492,10045,34085
32656,10014,34158
32918,9981,33925
33292,9996,33981
33544,9995,33892
33568,9996,33887
33544,10028,33577
33734,10039,33838
34116,10060,33943
34296,10163,33780
34624,10084,33717
35220,10036,33848
35796,9981,33465
36256,9958,33660
36716,9951,33659
37044,10030,33597
37028,10033,33431
36792,10052,33583
36352,10069,33408
35976,10055,33636
35680,10136,33388
35402,10019,33169
35080,9973,33464
34784,9984,33287
34326,9965,33464
33780,9977,33258
33328,10001,33346
32932,10082,33232
32628,10069,33380
32528,10065,32982
32428,10049,33188
32332,10012,33307
32292,10016,33068
32240,9989,33120
32233,9971,33049
32156,10001,33188
32088,10011,32758
32017,10040,32948
31940,10058,33111
31969,10094,32873
32050,10051,32997
32084,10038,32845
32156,9997,32992
32225,9953,32740
32236,10015,32996
32277,9996,33023
32239,10027,33040
32200,10029,32730
32172,10057,32947
32220,10098,33133
32240,10087,32772
32245,10010,33142
32224,9999,32965
32218,9975,33060
32144,9954,33039
32020,9985,33186
31908,9999,32965
31880,10115,33067
31860,10079,33175
31893,10056,33159
31952,10037,33063
32064,10070,33116
32196,10008,32936
32296,9975,32969
32297,9964,32977
32244,9972,33039
32237,9999,32932
32192,10034,33047
32172,10098,32708
32280,10075,32916
32348,10044,32941
32430,10006,32989
32484,9976,33036
32520,9974,32892
32480,9974,32955
32372,9969,32966
32232,9999,32705
32148,10033,32817
32064,10080,32879
32108,10052,33003
32228,10077,32766
32334,10018,32852
32392,9974,32713
32448,9966,32903
32446,9951,32689
32372,10021,32758
32305,10007,32589
32287,10037,32753
32224,10102,32460
32316,10066,32602
32520,10050,32630
32616,10012,32493
32696,9975,32495
32784,9988,32524
32740,9954,32561
32624,10014,32413
32492,10010,32437
32504,10030,32577
32527,10064,32376
32568,10054,32392
32616,10085,32359
32716,10018,32421
32800,9973,32063
32908,9998,32183
32888,9975,32261
32816,9994,32209
32740,9999,32106
32676,10060,32216
32672,10083,31869
32736,10058,31980
32808,10060,32108
32889,10032,32001
32969,9972,31831
33081,10003,31924
33104,9983,31905
33012,9985,31985
32876,10012,31836
32828,10051,31927
32804,10108,31793
32840,10085,31512
32960,10037,31661
33124,10061,31716
33268,10004,31644
33364,9962,31501
33354,9950,31690
33260,10012,31312
33212,10011,31570
33148,10037,31648
33004,10085,31422
33122,10072,31229
33152,10038,31444
33164,10051,31579
33172,9996,31220
33137,9977,31345
33070,9949,31399
33004,10003,31145
32945,10012,31324
32876,10063,31311
32808,10094,31399
32776,10069,31064
32784,10037,31180
32782,10112,31269
32832,10001,30928
32850,9958,31045
32805,9950,31125
32696,9974,31133
32636,10000,31192
32577,10034,31111
32484,10061,31140
32496,10060,31024
32564,10076,30997
32648,10033,30993
32688,9995,31028
32836,9948,31001
32865,9967,31020
32836,9975,30767
32856,9996,30900
32820,10056,31041
32733,10074,30802
32625,10097,30631
32652,10052,30846
32724,10010,30901
32740,9999,30711
32798,9947,30809
32784,9972,30672
32790,9965,30821
32805,10016,30727
32780,10026,30455
32748,10049,30693
32768,10053,30667
32844,10075,30677
32908,10029,30416
32848,9974,30599
32740,9982,30703
32664,9948,30520
32613,10006,30607
32580,10010,30596
32536,10027,30453
32544,10091,30532
32670,10058,30463
32697,10045,30544
32696,10068,30293
32724,10001,30436
32656,9962,30541
32630,9946,30297
32608,9997,30372
32552,10020,30400
32556,10033,30193
32533,10053,30295
32526,10070,30157
32633,10037,30249
32828,10051,29980
32904,9975,30196
33032,9949,30295
32964,9986,30077
32840,9973,30160
32760,9990,30212
32632,10020,29917
32504,10143,30068
32476,10085,30016
32548,10057,30076
32628,10008,30013
32745,10017,29876
32864,9971,30086
32814,9944,29849
32836,10004,29935
32776,10021,30013
32737,10036,29703
32676,10051,29856
32708,10127,29962
32764,10055,29719
32840,10032,29772
32840,9970,29924
32789,9988,29559
32780,9948,29768
32652,9959,29662
32504,10018,29762
32576,10047,29738
32612,10050,29636
32672,10081,29712
32769,10045,29468
32856,10103,29656
32917,10079,29677
32960,9948,29620
32916,9975,29738
32832,9989,29640
32708,9991,29519
32624,10040,29742
32516,10050,29404
32532,10088,29632
32672,10061,29780
32768,10025,29570
32940,9974,29564
33008,9982,29437
33024,9954,29625
32944,10003,29740
32844,10013,29557
32704,10016,29661
32596,10091,29796
32636,10072,29663
32748,10042,29774
32828,10034,29483
32924,9964,29569
32936,9978,29826
32912,9952,29455
32816,9981,29569
32704,9989,29781
32654,10055,29513
32654,10057,29703
32640,10061,29743
32748,10102,29516
32852,10017,29739
32860,9959,29894
32956,9985,29617
32932,9958,29767
32864,9963,29917
32804,9980,29604
32735,10058,29791
32669,10058,29912
32644,10076,29589
32696,10025,29788
32840,10031,29949
33000,9987,29783
33144,9934,29877
33184,9990,29869
33176,9983,29792
33017,9989,29887
32836,10019,30015
32716,10091,29720
32736,10054,29920
32688,10027,29917
32704,10047,29845
32680,9991,29959
32624,9946,29978
32576,9937,29847
32560,10002,29956
32544,10001,29983
32448,10016,29981
32524,10070,29838
32600,10052,29999
32736,10113,29861
32908,10032,29895
32944,9969,30017
33005,9944,30124
32980,9936,29923
32864,9961,30014
32742,9995,29929
32652,10007,29984
32661,10086,29805
32804,10069,30005
33004,10035,30164
33180,9999,29957
33288,10000,30056
33271,9945,30128
33224,9932,29925
33064,9974,30047
32892,9989,30156
32818,10062,30017
32812,10069,30093
32894,10055,30231
33048,10026,30148
33292,10028,29909
33380,9970,30143
33381,9969,30247
33312,9929,29944
33132,9979,30212
32984,9990,30087
32940,10012,30365
32888,10087,30149
32940,10056,30279
33108,10047,30240
33216,9993,30201
