ECG,EDA,RR
32104,24820,36513
32192,24817,36449
32180,24838,36593
32104,24868,36614
31876,24935,36494
31708,24965,36428
31813,24948,36324
32044,24896,36564
32276,24832,36576
32436,24751,36476
32474,24704,36672
32576,24702,36516
32552,24710,36624
32320,24752,36623
31988,24814,36597
31776,24833,36688
31693,24814,36549
31904,24778,36653
32260,24716,36676
32468,24643,36726
32612,24581,36592
32696,24583,36488
32684,24597,36652
32552,24637,36813
32276,24708,36668
32084,24724,36639
32148,24706,36496
32308,24657,36737
32398,24598,36836
32480,24526,36746
32616,24458,36785
32748,24457,36704
32772,24487,36839
32692,24522,36582
32497,24574,36821
32352,24609,36900
32384,24582,36843
32576,24545,36608
32612,24484,36871
32700,24415,36789
32740,24362,36981
32894,24359,36828
32776,24371,36911
32549,24420,36997
32304,24473,36777
32028,24487,36924
31904,24480,36990
31900,24429,36838
31976,24360,36956
32440,24295,36951
32864,24247,36836
33084,24237,37056
33204,24221,36791
32988,24295,36949
32796,24365,37028
32556,24372,36989
32424,24365,36977
32408,24318,36935
32516,24252,36999
32500,24183,37052
32428,24143,36788
32440,24122,37017
32636,24144,37119
32696,24194,37044
32608,24245,36990
32128,24279,36986
31992,24260,37092
32104,24203,37063
32480,24142,37204
32688,24062,37028
32864,24020,37090
33092,24015,37048
33156,24032,37116
33092,24084,37114
32828,24137,37177
32752,24175,37284
32852,24157,36959
32948,24100,37191
33028,24040,37286
33258,23982,36975
33404,23917,37104
33417,23916,37318
33372,23943,37172
33180,23976,37236
32788,24037,37361
32512,24068,37233
32400,24051,36997
32524,24016,37278
32648,23952,37301
32768,23879,37292
32857,23825,37383
32917,23817,37228
32812,23866,37329
32453,23877,37423
32244,23935,37300
32262,23975,37098
32313,23950,37338
32412,23905,37236
32492,23852,37296
32744,23776,37087
32836,23731,37377
32976,23720,37300
33128,23753,37366
33104,23780,37379
33016,23854,37263
32953,23877,37359
32852,23852,37401
32792,23816,37357
32878,23751,37308
32824,23694,37409
32724,23641,37383
32712,23649,37469
32732,23649,37432
32756,23698,37162
32936,23765,37405
33040,23782,37447
32996,23773,37471
33036,23733,37174
33180,23670,37468
33324,23607,37455
32940,23546,37367
32646,23550,37572
32676,23578,37476
32740,23621,37405
32692,23676,37332
32489,23711,37207
32360,23694,37479
32528,23632,37457
32820,23580,37579
33112,23527,37463
33368,23473,37186
33436,23458,37415
33332,23490,37537
33237,23553,37469
33122,23589,37359
33006,23620,37448
32933,23621,37153
32948,23558,37353
33036,23519,37530
33140,23462,37339
33221,23386,37426
33234,23396,37286
33216,23433,37358
33132,23462,37393
32980,23525,37340
32940,23545,37421
32913,23559,37281
32962,23482,37138
32980,23439,37360
33088,23365,37246
33208,23332,37380
33384,23314,37252
33164,23360,37309
32580,23401,37230
32341,23445,37365
32112,23474,37213
32084,23471,37260
32201,23431,37256
32565,23369,37120
32432,23300,37293
32012,23261,37072
32240,23271,37224
32934,23280,37185
33460,23327,37092
33576,23394,37198
33792,23420,37280
33648,23417,37196
33448,23360,37037
33044,23313,37174
33136,23253,37148
33482,23213,37023
33756,23218,37111
33840,23228,37120
33701,23282,37197
33616,23357,37047
33580,23377,37095
33576,23349,37091
33584,23324,37032
33600,23263,37183
33572,23185,36940
33372,23156,37090
32956,23155,37085
32540,23199,37041
32044,23231,37065
31540,23300,37092
31288,23328,37074
31340,23314,36791
31724,23272,37023
32576,23228,37095
33916,23148,37132
35316,23118,37008
36892,23145,36831
38973,23156,37064
40976,23218,36966
42436,23249,37113
43432,23317,36964
44428,23321,36760
45176,23245,37068
44764,23187,37021
43160,23137,37157
41096,23143,36975
39268,23092,36777
37628,23124,37069
36056,23166,36928
34760,23248,37156
34233,23277,36984
33964,23245,37047
33728,23213,37039
33484,23185,37162
33364,23093,37018
33056,23076,37080
32768,23072,37022
32504,23108,36969
32257,23156,37173
32028,23209,36934
31786,23246,36798
31556,23240,37076
31488,23197,37028
31492,23143,37163
31512,23087,36983
31600,23044,37068
31624,23069,37024
31520,23086,36949
31280,23142,37033
30936,23215,37108
30644,23237,36796
30668,23229,36999
30784,23193,36870
30932,23134,37085
31412,23081,36894
31584,23050,36985
31584,23063,36840
31644,23082,37044
31777,23156,36893
31831,23229,36654
31720,23245,36895
31644,23239,36868
31764,23185,36999
31880,23157,36822
32040,23101,36903
32032,23052,36855
32080,23066,36852
32080,23109,36975
32000,23152,36789
31672,23226,36615
31381,23263,36867
31269,23241,36788
31332,23215,36929
31436,23152,36759
31576,23104,36750
31892,23077,36744
32096,23092,36716
32188,23126,36727
32096,23174,36760
31808,23241,36780
31616,23276,36720
31604,23271,36680
31550,23249,36512
31328,23188,36757
31204,23124,36753
31428,23111,36749
31624,23108,36735
31712,23159,36601
31666,23216,36795
31736,23279,36583
31696,23314,36535
31648,23302,36372
31712,23280,36642
31860,23220,36588
32132,23169,36487
32352,23149,36444
32396,23166,36537
32317,23189,36606
32301,23255,36572
32248,23335,36430
32217,23344,36212
32198,23355,36420
32240,23325,36333
32328,23261,36396
32508,23211,36108
32520,23193,36037
32316,23190,36103
32149,23231,36244
32158,23284,35953
32236,23355,36194
32200,23400,36057
32188,23393,36196
32100,23351,36145
32132,23315,36132
32048,23255,35986
32108,23213,35898
32233,23247,35724
32060,23281,35927
31960,23335,35900
31780,23406,35866
31876,23436,35829
32180,23439,35767
32464,23385,35708
32552,23339,35820
32680,23291,35732
32984,23248,35567
33356,23268,35655
33596,23328,35492
33696,23372,35604
33688,23432,35396
33852,23471,35276
33764,23477,35468
33576,23425,35431
33620,23381,35365
33828,23323,35349
34004,23313,35360
34000,23303,35202
34032,23365,35300
33948,23428,35205
33957,23478,35100
33757,23511,35085
33652,23503,35046
33640,23474,35108
33632,23441,35156
33745,23377,35137
33941,23332,34988
34032,23353,34912
34008,23396,34756
33865,23456,34952
33604,23524,34711
33308,23569,34912
33182,23559,34965
33060,23527,34752
32944,23483,34823
33012,23413,34726
33140,23396,34796
33232,23421,34585
33061,23447,34551
32772,23501,34724
32661,23575,34692
32640,23620,34648
32704,23609,34631
32781,23587,34677
33077,23540,34560
33268,23473,34460
33220,23449,34320
33108,23467,34528
32740,23504,34504
32352,23573,34449
32072,23649,34348
32076,23660,34316
32300,23666,34434
32220,23620,34341
32200,23574,34140
32312,23519,34345
32328,23507,34308
32172,23529,34236
32172,23567,34292
32140,23624,34095
31940,23701,33977
31836,23716,34188
31932,23713,34055
32016,23684,34183
32084,23629,33927
32036,23592,34084
31792,23564,33961
31900,23573,34081
32060,23619,33799
32182,23676,33813
32080,23746,33950
32084,23773,33916
32028,23766,33972
31924,23741,33773
31852,23677,33892
31888,23641,33857
32048,23617,33868
32088,23628,33709
31920,23675,33821
31632,23734,33809
31120,23809,33808
30524,23837,33765
30712,23826,33648
31436,23785,33573
32324,23759,33744
32704,23682,33700
32816,23665,33716
32736,23690,33600
32544,23724,33722
32324,23787,33609
31748,23860,33713
30868,23887,33710
30628,23868,33650
30932,23837,33545
31456,23793,33456
32068,23734,33668
32764,23709,33558
32732,23731,33695
32600,23768,33627
32157,23845,33442
31928,23897,33637
32280,23931,33606
32493,23927,33600
32676,23885,33572
33060,23844,33397
33304,23783,33423
33316,23771,33388
33272,23791,33593
32988,23820,33550
32756,23885,33625
32484,23942,33433
32396,23993,33431
32460,23969,33340
32624,23933,33340
32780,23887,33532
33029,23829,33537
33040,23825,33472
32840,23821,33492
32148,23868,33378
31596,23925,33312
31664,23991,33496
31864,24033,33373
32328,24008,33531
32844,23985,33393
32996,23935,33303
33140,23880,33354
32800,23851,33460
32432,23877,33281
32444,23922,33407
32580,23975,33460
32868,24039,33216
32638,24068,33381
32688,24064,33412
32925,24012,33297
33180,23968,33165
33200,23912,33364
33148,23898,33247
33024,23915,33391
32660,23943,33294
31968,23999,33148
31208,24071,33314
30505,24105,33188
30652,24089,33329
31778,24060,33137
32500,23997,33273
32648,23943,33151
32334,23922,33228
31820,23929,33237
31552,23976,33105
31872,24041,33183
32808,24087,33209
33088,24135,33118
32677,24132,33088
32700,24071,32988
33268,24024,33146
33580,23981,33127
33612,23957,33193
33576,23968,33165
33676,24020,33024
33748,24055,32986
33712,24119,33157
33644,24161,33108
33560,24145,33101
33282,24116,33140
33188,24065,33028
33288,24020,32919
33420,23985,33100
33332,23991,33105
33100,24034,33079
33081,24077,32895
32805,24145,33031
32340,24184,32925
33064,24169,32896
33986,24127,33045
34212,24070,32892
33824,24015,32799
33584,24001,32767
33408,24012,32903
33012,24064,32876
33036,24118,32769
33308,24167,32710
33228,24199,32700
33260,24186,32766
33332,24151,32687
33260,24093,32621
33468,24036,32657
33592,24015,32596
33680,24038,32592
33604,24087,32629
32992,24122,32465
32148,24193,32432
31773,24218,32448
31920,24204,32459
32448,24130,32542
32648,24118,32468
32988,24068,32324
33268,24052,32477
33596,24048,32452
33880,24099,32396
33852,24164,32308
33432,24223,32388
33188,24241,32327
33029,24221,32226
32209,24181,32180
31700,24138,32344
32444,24074,32293
33244,24061,32244
33972,24061,32286
34464,24116,32127
33949,24181,32253
33708,24247,32232
33636,24251,32180
33572,24244,32174
33736,24199,32201
33844,24148,32216
34362,24078,32028
34212,24068,32175
33860,24089,32065
33640,24132,32175
33328,24194,31988
33248,24241,32130
33496,24260,32124
33612,24256,32001
33520,24227,32122
33452,24164,31950
33452,24113,32101
33708,24082,32068
33988,24100,31981
34056,24144,32023
33862,24207,32108
33616,24266,32005
33743,24294,31905
33856,24277,31909
33704,24235,31867
33533,24175,32054
33804,24117,32018
34160,24103,31904
33904,24123,32012
33432,24160,32056
33416,24217,31999
33472,24252,31909
33383,24284,31938
33460,24260,31826
33956,24228,31816
33900,24166,31804
34233,24126,31812
34393,24089,31812
34610,24112,31821
34575,24159,31773
34732,24191,31879
34552,24260,31844
34157,24278,31884
33908,24263,31930
33505,24228,31964
33440,24178,31938
33512,24124,31935
33720,24084,31878
33832,24102,31846
33920,24143,31894
33920,24199,31913
33880,24260,31996
33820,24276,32034
33900,24263,32038
33944,24229,31918
33600,24181,31852
33148,24093,32028
32944,24093,32006
32501,24101,31936
32352,24130,32046
32285,24190,32039
32232,24254,31940
31416,24270,31916
31220,24261,31903
32770,24222,31878
34997,24147,31888
37140,24084,32078
40120,24078,32070
42676,24128,31960
44184,24133,32095
44684,24204,32030
45060,24299,31952
45536,24260,31927
45216,24265,32122
43716,24248,32119
41952,24138,32071
40408,24099,32060
38652,24092,32189
36456,24076,32013
34901,24124,32000
34184,24184,32191
33608,24241,32220
32468,24244,32235
32144,24232,32236
32644,24197,32148
32704,24133,32316
32612,24071,32132
32704,24045,32135
32848,24071,32332
32700,24095,32321
32644,24167,32328
32628,24220,32429
32440,24229,32279
32192,24228,32244
31812,24191,32442
31584,24114,32356
31896,24057,32536
32112,24036,32404
31928,24044,32388
31792,24071,32391
31797,24132,32596
31520,24196,32496
31313,24212,32605
31352,24200,32652
31616,24155,32531
31525,24093,32557
30940,24026,32700
30896,24007,32675
31272,24014,32692
31800,24044,32796
31809,24105,32814
31444,24165,32741
30816,24187,32628
30408,24167,32636
30526,24124,32692
30052,24053,32879
28860,24005,32860
28984,23968,32849
29928,23981,32980
29916,24018,32919
29300,24071,32863
29632,24137,32840
30380,24150,32820
31760,24132,32869
32700,24097,33064
33028,24024,33001
32792,23961,33141
32676,23941,33004
32712,23937,33157
32517,23974,33164
32324,24034,33093
31916,24071,33216
31844,24095,33157
31528,24071,33175
31200,24031,33264
31436,23970,33405
31732,23901,33428
31876,23866,33473
31773,23876,33324
31804,23921,33269
31528,23957,33310
31120,24017,33381
30732,24029,33585
30608,24014,33588
30960,23961,33551
31456,23901,33685
31388,23841,33732
31116,23800,33772
31018,23817,33815
31134,23856,33812
31424,23909,33836
31456,23959,33876
31132,23990,33828
31000,23975,33877
30765,23935,33908
31010,23861,33777
31312,23807,33724
31084,23788,33812
31096,23807,33816
31364,23853,33773
31828,23916,33844
32298,23951,33885
31965,23996,33903
31204,23993,33839
31136,23936,34055
31417,23882,34072
31856,23815,34055
32224,23801,34052
32544,23833,34025
32958,23888,34092
33156,23932,34183
32592,24001,34179
31968,24041,34105
32000,24023,34012
32048,23977,34161
31932,23937,34164
31960,23878,34155
32558,23868,34113
32940,23878,34180
32928,23932,34256
32948,24003,34192
33104,24065,34092
33000,24055,34084
32960,24066,34007
32824,24042,34213
32792,23977,34213
32876,23914,34183
33176,23908,34191
33300,23938,34164
33364,23983,34042
33388,24033,33977
33344,24106,34164
33332,24133,34055
33088,24134,34149
32988,24082,34140
32780,24033,34021
32700,23965,33965
33168,23961,33921
33084,23965,33929
32704,24007,33829
32716,24085,34032
33116,24142,34028
33004,24180,33997
31400,24152,33880
30468,24107,33901
30772,24068,34024
31312,23998,33981
31716,23977,33956
32220,23994,33817
32516,24039,33912
32460,24100,33904
32236,24165,33881
32212,24192,33941
32692,24172,33732
32688,24133,33693
32360,24071,33608
32113,24017,33796
32036,23994,33709
31796,24015,33756
31476,24065,33780
31392,24114,33582
31632,24174,33693
31752,24210,33588
31076,24174,33684
29828,24135,33492
29520,24071,33569
30164,24027,33540
31228,24001,33493
32108,24020,33381
32432,24054,33477
32325,24119,33286
32204,24194,33384
32024,24199,33313
31836,24189,33327
31600,24139,33072
31496,24079,33224
31096,24012,33120
30880,23999,33200
30944,24003,33108
31072,24049,32973
31040,24110,32992
31032,24150,32860
30768,24172,32806
30472,24162,32715
30858,24111,32862
31356,24044,32822
31768,23983,32612
31988,23959,32544
32380,23970,32701
32452,24027,32656
32316,24057,32630
32004,24132,32565
31845,24140,32532
31680,24134,32445
31645,24085,32388
31636,24019,32404
31708,23955,32348
31968,23943,32261
32236,23943,32315
32360,23988,32280
32268,24051,32216
31964,24093,32236
31461,24124,32249
30576,24090,32196
30132,24047,32170
30580,23986,32109
31540,23921,32085
32052,23908,32062
32304,23912,32072
32336,23943,32056
32392,23999,32023
31896,24058,31992
31164,24079,31966
30784,24045,31940
31312,24004,31900
32212,23942,31872
32772,23884,31793
33216,23863,31693
33412,23874,31768
33308,23917,31709
33200,23956,31606
33112,24013,31631
32976,24031,31596
33054,24013,31536
32729,23970,31501
32442,23906,31452
32460,23860,31418
32732,23808,31380
32852,23826,31436
32950,23860,31441
33044,23924,31356
32948,23982,31260
32564,23998,31212
32366,23972,31252
32244,23922,31182
32244,23860,31188
32276,23806,31210
32308,23775,31096
32489,23788,30936
32464,23820,30896
32632,23879,30845
33172,23929,30989
33564,23956,30928
33800,23933,30856
33832,23879,30754
33800,23828,30814
33696,23752,30823
33350,23740,30669
32800,23762,30588
32590,23798,30549
32800,23855,30529
32926,23923,30495
32868,23913,30628
32832,23897,30593
32740,23855,30532
32608,23794,30506
32928,23738,30412
33212,23695,30414
33508,23724,30430
33732,23765,30399
33668,23829,30438
33228,23880,30372
32168,23885,30364
31656,23863,30196
32229,23823,30165
33112,23775,30143
33620,23716,30120
33786,23697,30112
33814,23684,30119
33482,23730,30237
33085,23788,30228
32912,23836,30204
32792,23860,30112
32520,23851,30056
32256,23805,30148
32206,23724,30128
32388,23671,30137
32188,23647,30000
32288,23655,30017
32348,23700,29995
32600,23764,29981
32624,23818,30101
32316,23838,30095
31596,23817,30102
30868,23765,30071
30876,23715,30021
31088,23655,30044
31168,23630,30076
31596,23642,30078
32012,23689,30082
32461,23720,29991
32792,23787,29907
32871,23809,29959
32672,23787,30080
32462,23744,30080
32140,23677,29948
31716,23621,30097
31521,23610,29932
31684,23625,29956
31840,23650,30108
31873,23708,30105
31830,23772,30112
31666,23781,30132
31752,23770,30111
32020,23733,30026
32072,23660,30145
32136,23604,29989
32064,23581,30020
31768,23608,30191
31600,23625,30197
31640,23694,30127
31804,23743,30185
31967,23767,30261
31997,23751,30243
32196,23705,30102
32132,23653,30117
32076,23581,30300
32028,23556,30301
31964,23574,30308
31847,23614,30318
31832,23684,30351
31725,23734,30365
31680,23750,30367
31684,23724,30381
31728,23686,30366
31764,23628,30319
31764,23559,30405
31684,23541,30436
31668,23557,30476
31425,23596,30478
31156,23661,30490
30784,23706,30503
30560,23708,30496
30656,23705,30458
31118,23652,30414
31725,23601,30388
32120,23548,30332
32317,23525,30312
32388,23548,30319
32184,23586,30344
31984,23652,30476
31924,23700,30470
31937,23721,30468
31729,23701,30437
31560,23641,30397
31440,23591,30367
31561,23533,30468
32064,23513,30456
32372,23528,30374
32408,23569,30374
32200,23632,30374
32252,23676,30432
32276,23692,30431
32348,23681,30325
32188,23643,30237
32164,23589,30212
32156,23532,30280
32409,23514,30383
32493,23527,30377
32296,23569,30255
32288,23614,30373
32112,23673,30321
32006,23685,30309
31865,23665,30202
31948,23631,30154
32184,23558,30189
32432,23505,30312
32620,23496,30249
32633,23516,30215
32352,23554,30316
31564,23604,30245
31020,23663,30156
31244,23681,30321
31976,23646,30306
32448,23600,30308
32280,23548,30303
32356,23495,30318
32752,23476,30329
32916,23485,30319
32876,23521,30327
32716,23578,30188
32661,23635,30329
32720,23648,30324
32880,23633,30328
33020,23589,30277
33096,23536,30297
33184,23486,30228
32896,23471,30268
32474,23488,30356
31932,23527,30388
31405,23573,30276
31136,23613,30212
31180,23647,30201
30980,23623,30217
30864,23582,30215
31244,23535,30215
32281,23464,30221
33654,23444,30224
34845,23463,30244
35804,23498,30287
37488,23557,30325
39100,23622,30252
40884,23633,30259
42220,23627,30280
43716,23636,30428
44868,23509,30408
43992,23489,30424
41580,23457,30304
38864,23479,30325
36649,23511,30340
35056,23559,30359
34332,23589,30382
33964,23601,30380
33748,23577,30395
33696,23537,30428
33292,23489,30469
33188,23430,30617
33111,23419,30500
33088,23436,30471
33056,23469,30517
33000,23524,30684
32880,23578,30701
32536,23599,30685
32242,23573,30616
32000,23516,30783
31968,23461,30768
32120,23421,30808
32036,23397,30752
31928,23416,30641
31868,23458,30664
31724,23512,30662
31592,23549,30844
31588,23553,30854
31492,23529,30833
31540,23492,30756
31636,23436,30773
31772,23389,30823
31818,23376,30813
31685,23381,30793
31704,23423,30824
31652,23478,30965
31350,23516,30867
31168,23530,30807
30900,23517,30810
30673,23475,30895
30844,23404,30841
31376,23367,30880
31469,23348,31048
31632,23365,31064
31521,23405,31086
31636,23453,31109
31924,23508,31131
32216,23513,31167
32308,23497,31183
32424,23433,31207
32504,23375,31221
32500,23341,31159
32481,23332,31280
32404,23349,31360
32300,23391,31373
32280,23429,31388
32181,23460,31440
32032,23482,31460
31861,23456,31408
31240,23411,31469
30816,23359,31398
30908,23320,31490
31148,23289,31544
31576,23319,31485
31916,23349,31503
32092,23408,31520
31596,23452,31574
30598,23462,31670
30212,23429,31808
31128,23388,31879
32080,23333,31837
32568,23298,31836
32932,23294,31860
33052,23318,31985
32984,23328,32037
32820,23385,32068
32332,23428,32084
32020,23433,32095
31960,23416,32080
31832,23380,32104
31648,23322,32096
32024,23289,32186
32584,23268,32237
32884,23303,32225
32992,23316,32215
33052,23382,32348
32864,23422,32372
32352,23432,32292
32248,23404,32304
32504,23365,32398
32673,23313,32415
32560,23269,32440
32180,23252,32483
32184,23279,32496
32216,23317,32513
32156,23373,32484
32265,23389,32464
32652,23419,32596
33150,23396,32609
33352,23334,32606
33380,23274,32733
33460,23244,32721
33452,23232,32775
33180,23258,32749
33152,23284,32768
33306,23343,32827
33780,23383,32840
33866,23394,32775
33968,23372,32692
34068,23345,32699
33970,23297,32712
33940,23247,32717
33844,23212,32660
33864,23246,32879
34008,23284,32884
33900,23343,32884
33764,23390,32879
33776,23396,32893
33952,23375,32900
34216,23319,32788
34132,23256,32832
33660,23218,32808
33336,23209,32775
33388,23228,32760
33586,23284,32894
33908,23324,32879
34244,23376,32821
34484,23383,32760
34696,23340,32692
34840,23297,32701
34580,23242,32684
34332,23212,32705
33876,23194,32664
33832,23227,32667
34092,23269,32637
34160,23316,32629
34132,23345,32581
33868,23356,32768
33668,23334,32725
33804,23290,32732
33656,23244,32788
33408,23203,32710
33012,23201,32588
32376,23216,32577
31705,23259,32584
32012,23288,32525
32560,23337,32705
32996,23344,32590
33281,23324,32634
32936,23284,32677
32352,23236,32697
31392,23201,32676
31108,23180,32704
31464,23200,32720
32361,23248,32715
33116,23296,32705
33252,23341,32724
33140,23332,32716
32728,23311,32709
32213,23260,32692
31752,23215,32724
31956,23171,32685
31936,23165,32756
31680,23193,32768
31072,23240,32728
31408,23287,32685
31952,23321,32852
32528,23335,32764
32740,23310,32669
32773,23268,32684
32576,23216,32636
32497,23180,32720
32420,23152,32660
32160,23177,32869
31780,23222,32892
31680,23273,32772
31932,23322,32957
32136,23313,32852
32460,23290,32816
32898,23248,32797
32984,23204,32863
32804,23165,33028
32956,23151,33036
32924,23179,33024
32920,23222,33061
32912,23289,33007
32812,23324,33092
32428,23305,33104
31752,23283,33120
30924,23250,33118
31113,23192,33076
31662,23163,33025
32180,23146,33005
32700,23173,33076
33112,23213,33061
33112,23284,33036
32860,23326,33149
32728,23305,33113
32829,23286,33118
32408,23239,33124
31752,23188,33204
31208,23156,33177
31732,23143,33124
32580,23156,33135
33168,23200,33244
33300,23247,33253
33224,23290,33257
32820,23303,33284
31936,23277,33281
31829,23239,33178
31742,23181,33260
31732,23140,33262
31364,23143,33197
31288,23162,33219
31884,23204,33300
32665,23260,33338
33072,23303,33337
32816,23304,33210
32468,23260,33158
32438,23212,33128
32480,23172,33215
32668,23128,33234
33160,23125,33341
33300,23148,33335
32953,23200,33224
32784,23234,33221
32816,23271,33159
32877,23273,33164
33228,23261,33372
33428,23228,33360
33497,23172,33252
33696,23125,33436
33624,23111,33415
33380,23145,33381
33152,23183,33344
32968,23239,33252
32632,23282,33172
32561,23268,33381
32692,23252,33272
32860,23220,33316
33060,23150,33425
33144,23132,33420
33144,23096,33407
32956,23120,33348
32804,23172,33228
32828,23215,33216
32732,23268,33122
32528,23265,33127
32024,23248,33324
31428,23204,33319
31592,23142,33296
32308,23104,33233
32884,23094,33234
33164,23140,33303
32804,23172,33188
32516,23204,33081
32356,23246,33088
32360,23257,33036
32529,23221,32982
32840,23191,32964
32976,23137,32948
33058,23089,32948
33196,23092,32933
33232,23117,33124
32948,23159,33103
32636,23196,33092
31948,23233,33045
31688,23244,33052
31981,23214,33031
32644,23181,32909
33184,23108,33024
33324,23073,32903
33112,23070,32826
32741,23094,32796
32620,23138,32941
32456,23173,32903
32256,23213,32862
32101,23222,32833
31948,23199,32791
31706,23164,32750
31833,23089,32858
32576,23061,32813
33132,23063,32665
33133,23061,32593
33288,23109,32740
33216,23164,32696
32880,23201,32647
32090,23202,32630
30221,23180,32696
29228,23134,32518
30332,23085,32432
32448,23027,32392
33340,23035,32580
34017,23060,32549
34284,23102,32503
33940,23141,32493
33524,23162,32488
33436,23173,32471
33376,23164,32396
33100,23120,32448
32928,23080,32456
32984,23013,32470
33208,23008,32452
33376,23047,32413
33504,23058,32318
33548,23116,32407
33280,23159,32372
33190,23165,32325
33168,23139,32260
33148,23095,32288
33200,23046,32155
33108,23004,32132
33032,22983,32124
33000,23004,32087
32996,23047,32214
32800,23109,32135
32752,23124,32249
32586,23132,32116
32544,23110,32053
32108,23071,32046
31976,23012,32031
32208,22989,32007
32664,22958,31960
33136,22980,32140
33172,23030,32054
32949,23077,32077
32576,23116,31993
32040,23120,31988
31392,23090,32062
31416,23045,32054
31956,22992,32052
32428,22954,32012
32856,22954,31948
33076,22973,31929
33222,22995,32047
33416,23041,32026
33272,23092,31837
33396,23108,32032
33492,23060,31913
32953,23020,32049
32216,22956,31860
32468,22932,31815
32828,22895,31994
32848,22927,31944
33068,22972,31867
33248,23020,31935
33159,23071,32004
33000,23046,31821
32824,23039,31973
32925,22999,31875
33216,22926,31864
33424,22888,31916
33560,22877,31980
33324,22897,31985
33029,22946,31797
32604,22988,31815
32372,23038,31748
32566,23020,31956
32960,22996,31911
33188,22967,31839
33344,22895,31764
33488,22852,31757
33456,22851,31950
32924,22877,31866
32207,22896,32008
32132,22954,31930
32680,22981,31780
33088,22996,31955
33389,22972,31964
33398,22909,31942
33408,22873,31828
33336,22807,31854
33104,22810,31849
32868,22842,31989
32692,22871,31825
32720,22919,31989
32208,22962,31975
31012,22974,31869
30048,22925,31956
30262,22896,31884
31016,22835,31796
31749,22804,32004
32381,22812,31980
32968,22820,31884
33796,22864,32013
34788,22921,31973
36012,22956,31844
37376,22960,32016
39112,22959,31956
40844,22935,32040
42266,22864,31862
43348,22848,32007
44224,22892,31936
44160,22872,32044
42544,22927,31857
40260,23009,32007
38164,23010,31909
36402,23028,32017
34972,23037,31873
33932,22972,32012
33480,22926,31876
33444,22908,31973
33368,22896,31804
33405,22950,32000
32716,22986,31993
31812,23068,31980
31456,23117,31871
31588,23108,32035
31500,23107,31855
31364,23079,31784
31181,23028,31977
31372,23011,31924
31690,23014,31998
31550,23060,31950
31424,23125,31857
31440,23173,31821
31708,23235,31759
32184,23236,31955
32432,23234,31940
32288,23215,31885
32044,23173,31816
31332,23129,31867
30348,23154,31972
30052,23186,31920
30660,23245,31751
31324,23319,31908
31596,23367,31781
31320,23381,31844
31108,23368,31696
30778,23351,31888
30776,23294,31772
31160,23262,31905
31393,23293,31887
31678,23316,31789
32194,23376,31713
32160,23446,31721
32129,23500,31876
32152,23500,31876
32208,23492,31716
32180,23455,31655
32060,23431,31660
31904,23381,31813
31986,23396,31697
32232,23431,31792
32140,23496,31786
31860,23558,31677
31493,23608,31612
31444,23618,31788
31696,23611,31764
32064,23566,31743
32100,23519,31796
32244,23488,31653
32324,23516,31576
32200,23543,31768
31604,23594,31676
31248,23663,31780
31436,23707,31588
31772,23714,31542
32073,23700,31702
32188,23665,31677
31886,23624,31656
31740,23605,31607
31720,23611,31589
32068,23639,31622
31898,23692,31668
31348,23767,31500
31528,23805,31454
31928,23813,31620
31680,23800,31552
31640,23765,31532
31900,23709,31417
32164,23693,31588
32496,23704,31521
32716,23734,31492
32226,23790,31399
31944,23857,31544
32229,23889,31420
32676,23902,31557
32897,23884,31487
32952,23829,31317
32812,23803,31472
31900,23773,31404
31381,23792,31394
31456,23815,31308
31788,23877,31384
31846,23927,31465
31828,23972,31324
32318,23976,31239
32852,23965,31408
33517,23941,31316
33934,23877,31280
34112,23853,31404
34080,23863,31376
33980,23898,31276
33680,23948,31295
33580,24012,31297
33516,24037,31200
33696,24039,31177
33820,24024,31172
33848,23988,31143
33748,23939,31312
33701,23908,31247
33876,23917,31333
34044,23949,31153
33856,23997,31133
33781,24055,31296
33412,24087,31284
33004,24099,31200
32556,24084,31332
32081,24040,31207
32192,23999,31129
32436,23951,31322
32516,23960,31321
32900,23992,31321
33263,24034,31309
34116,24109,31205
34628,24124,31352
34764,24134,31168
34058,24120,31173
33972,24084,31343
34060,24047,31245
34437,23992,31229
34564,23994,31246
34516,24025,31285
34404,24084,31345
33732,24156,31200
33004,24164,31192
32552,24186,31360
32404,24156,31348
32440,24112,31279
33072,24063,31237
33472,24052,31350
33104,24038,31331
33032,24071,31180
33140,24124,31341
33310,24187,31298
33456,24217,31228
33471,24218,31340
33397,24199,31149
33232,24170,31145
32782,24115,31292
31908,24074,31252
31720,24074,31172
31716,24116,31251
32186,24162,31276
32340,24209,31104
32732,24247,31056
33028,24251,31236
33124,24245,31132
32788,24182,31150
32073,24138,31197
31948,24104,31161
32160,24111,31174
32432,24111,31086
32704,24185,30961
32204,24251,30956
31968,24290,31105
32117,24283,30983
32320,24260,30976
32164,24220,30889
32228,24164,31046
32256,24124,30980
32140,24143,30876
32096,24154,30860
32409,24212,30945
32902,24269,30792
32697,24301,30940
32320,24305,30808
32124,24284,30888
31908,24233,30716
31760,24187,30726
31748,24156,30809
31876,24160,30765
31884,24180,30732
31808,24231,30607
31908,24300,30740
32372,24323,30614
32804,24327,30720
33088,24280,30519
33392,24247,30660
33644,24203,30529
33676,24156,30612
33736,24172,30565
33564,24194,30404
33350,24257,30548
33156,24284,30487
32920,24327,30445
32788,24335,30376
32504,24300,30356
32272,24263,30414
32484,24209,30306
32860,24175,30405
32733,24175,30252
32245,24206,30192
31881,24244,30343
31068,24307,30309
31008,24340,30182
31736,24336,30293
32296,24295,30200
32488,24265,30082
32480,24199,30215
32296,24173,30192
31836,24174,30025
32181,24212,30191
33064,24236,30157
33340,24305,30144
33220,24345,30047
33149,24347,30192
32968,24298,30121
33072,24260,30212
32608,24205,30038
32132,24178,30185
32000,24180,30108
32242,24199,30140
32508,24249,30028
32553,24300,30180
32188,24340,30064
31596,24327,30183
31352,24303,30181
31512,24253,29996
32064,24199,30019
32348,24174,30148
32588,24180,30063
32640,24209,30104
32004,24226,30169
31644,24301,30183
31780,24336,30186
32652,24327,30188
33468,24300,30073
33864,24260,29994
33565,24208,30056
33432,24161,30145
33456,24162,30086
33645,24194,30125
33496,24235,30136
32900,24288,30180
32064,24325,30197
31896,24321,30036
32428,24296,30023
33060,24245,30039
33200,24199,30057
32960,24173,30192
32572,24173,30185
32216,24204,30184
32184,24247,30183
32760,24299,30126
33405,24326,30200
33364,24320,30196
32896,24288,30193
32688,24247,30202
33001,24199,30176
33048,24164,30155
32482,24169,30164
32256,24199,30174
32528,24240,30052
32700,24284,30116
32564,24316,30117
32920,24313,30053
33372,24292,29977
33816,24255,30128
33825,24193,30086
33220,24149,30057
32637,24156,30117
32576,24185,30080
32604,24229,29988
32720,24281,30016
32584,24311,30133
32052,24301,30052
32012,24268,30040
32008,24220,30091
31976,24167,30112
31688,24131,29916
32068,24137,30087
32868,24149,30060
33768,24196,29955
34188,24252,30040
33935,24277,29880
33672,24263,29868
33390,24226,30012
33064,24189,29974
32864,24123,29920
31968,24091,29914
31776,24082,29784
32236,24115,29937
32900,24145,29828
32652,24199,29948
32052,24218,29840
31729,24212,29745
32296,24182,29877
33340,24134,29841
33972,24071,29808
34088,24042,29757
33860,24029,29797
33260,24050,29766
32828,24098,29600
32536,24158,29736
32524,24174,29700
33068,24156,29648
33536,24128,29548
33265,24085,29661
32884,24016,29615
33000,23988,29606
33124,23974,29543
33134,24007,29408
33008,24015,29553
32981,24084,29511
33154,24119,29391
32684,24100,29484
32260,24071,29399
32372,24004,29291
32816,23943,29243
33036,23914,29238
33380,23912,29359
33840,23943,29310
33880,23991,29210
33540,24029,29268
33132,24062,29220
32742,24049,29077
32412,23995,29213
32196,23946,29164
32124,23892,29052
32096,23861,29136
31884,23861,28984
31840,23884,28919
32584,23907,29050
33300,23952,28977
33596,23996,28976
33620,23971,28799
33564,23938,28783
33672,23892,28908
33780,23812,28805
33885,23776,28853
33792,23787,28645
33451,23788,28796
33032,23824,28749
32577,23884,28716
32260,23902,28718
32256,23892,28581
32684,23849,28484
33072,23795,28631
33332,23721,28521
33324,23688,28540
33236,23698,28446
32900,23710,28353
32904,23753,28399
32733,23796,28444
32312,23815,28393
32564,23811,28384
32980,23750,28214
33124,23708,28260
33152,23657,28308
33220,23591,28218
33092,23598,28260
33241,23620,28117
33437,23654,28218
33452,23721,28133
33024,23727,28004
32942,23721,28026
32956,23663,28094
33280,23620,27976
33092,23561,28036
32492,23527,27860
31724,23510,27944
31140,23541,27973
31044,23575,27764
31140,23621,27782
31373,23645,27852
32012,23629,27782
32592,23582,27808
33568,23537,27652
34688,23476,27724
35880,23452,27663
37190,23456,27561
38992,23455,27581
40904,23501,27648
42320,23599,27637
43265,23577,27629
43872,23559,27541
43820,23540,27452
42636,23535,27579
40544,23400,27506
38709,23380,27508
36900,23363,27497
35576,23386,27348
34528,23447,27375
33904,23476,27489
33492,23492,27442
32568,23488,27460
32017,23444,27363
32176,23405,27266
32548,23340,27291
32753,23289,27420
32920,23299,27311
32693,23331,27376
32556,23364,27380
31996,23404,27233
30805,23428,27200
30600,23414,27303
30848,23381,27234
31328,23324,27168
31628,23261,27078
31940,23229,27236
32384,23244,27113
32348,23249,27149
32332,23300,27021
32361,23349,27028
32368,23382,27076
32336,23366,26990
32264,23330,27004
32404,23284,26832
32528,23217,26956
32476,23180,26894
32406,23186,26868
32434,23211,26821
32364,23262,26769
31896,23300,26636
31760,23329,26581
31816,23318,26684
31861,23281,26631
31840,23235,26584
32057,23172,26528
32220,23145,26476
32292,23140,26420
32316,23171,26389
32172,23213,26340
32056,23265,26248
32065,23276,26271
31796,23281,26057
31692,23252,26178
31728,23185,26105
32007,23134,26040
32333,23101,25916
32464,23112,25905
32384,23126,25759
32270,23180,25670
32268,23237,25663
32260,23260,25693
32080,23255,25628
32056,23204,25531
32008,23166,25489
32036,23106,25278
32072,23078,25272
31828,23089,25288
31417,23106,25193
30824,23149,25141
30881,23204,24923
30796,23238,25014
31237,23220,24897
31760,23192,24846
32416,23138,24648
33032,23097,24620
33380,23035,24617
33576,23053,24496
33088,23085,24408
32236,23137,24346
31984,23196,24101
32012,23212,24063
31640,23204,24036
31416,23172,23932
31682,23124,23821
31712,23045,23581
31704,23025,23516
31868,23033,23522
32140,23068,23364
32936,23108,23286
33677,23177,23168
33660,23212,23039
33788,23180,22951
33572,23157,22811
33216,23115,22612
33060,23062,22550
33392,23033,22468
33652,23027,22376
33660,23060,22209
33432,23105,22058
33120,23172,22009
33064,23181,21879
33304,23175,21789
33260,23153,21582
32772,23116,21495
32812,23034,21421
33228,23004,21294
33484,23017,21172
33352,23054,21050
33520,23093,20913
33480,23156,20782
33268,23191,20658
33048,23160,20568
32868,23121,20450
33092,23092,20327
33596,23022,20231
34168,22984,20070
34412,22994,19956
34264,23028,19874
34040,23084,19783
33545,23133,19686
32944,23162,19572
32808,23150,19466
33546,23120,19363
34072,23077,19262
34248,23031,19148
34264,22972,19050
34502,22986,18929
34560,23027,18820
34660,23085,18708
34660,23118,18602
34272,23140,18494
34080,23121,18377
34021,23102,18265
34240,23061,18155
34278,23011,18089
34220,22983,17959
33680,22984,17825
33108,23017,17710
33300,23038,17605
33576,23100,17480
33620,23124,17424
33472,23117,17335
33404,23080,17194
33101,23012,17070
32817,22972,16959
32744,22949,16860
32952,22976,16749
33000,22994,16653
32856,23038,16514
32421,23096,16431
32480,23127,16346
32656,23124,16268
32480,23093,16144
32320,23052,15967
32140,22980,15865
32304,22976,15853
32072,22976,15657
31757,23021,15588
32064,23036,15470
32352,23109,15328
32168,23146,15346
31336,23134,15253
30364,23085,15070
30724,23054,14941
31700,23000,14905
32537,22980,14723
32984,23000,14764
33108,23020,14660
32895,23061,14553
32240,23132,14388
31660,23152,14316
31937,23138,14176
31972,23113,14227
31992,23076,14109
32008,23026,13948
32370,22985,13916
32737,23004,13759
32850,23036,13711
32276,23094,13720
31872,23154,13626
31972,23170,13556
32192,23161,13404
32236,23129,13295
32319,23100,13252
32780,23052,13122
32904,23004,13191
32664,23020,13156
32520,23071,12996
32630,23114,12874
32780,23185,12868
32620,23183,12768
32613,23175,12671
32616,23144,12744
32276,23111,12618
31408,23069,12588
31032,23012,12436
31469,23032,12430
31968,23075,12471
32188,23129,12415
32356,23196,12273
32576,23204,12249
33016,23194,12216
33292,23167,12141
33032,23132,12169
32450,23078,12204
32056,23049,12063
32320,23071,11964
32684,23101,11972
32832,23144,11919
32864,23212,11880
32996,23232,11856
32748,23236,11882
32445,23202,11890
32365,23142,11822
32389,23086,11772
32228,23064,11797
32492,23077,11901
32624,23113,11772
32864,23165,11732
32704,23223,11873
32560,23250,11876
32524,23238,11868
32528,23205,11868
32116,23172,11866
31620,23119,11857
31484,23092,11768
31748,23101,11826
32300,23140,11877
32676,23192,11888
32928,23253,11890
32764,23284,11904
32440,23277,11841
32132,23244,11802
32228,23186,11809
32480,23137,11799
32500,23113,11913
32628,23129,11973
33004,23156,11916
33326,23212,11983
33208,23276,11941
33064,23297,11894
33004,23284,11903
33044,23261,11940
32990,23207,11947
33057,23170,11981
33372,23151,12012
33448,23159,12080
33384,23176,12072
33288,23230,12080
33168,23290,12141
33100,23315,12180
32936,23314,12180
32764,23281,12230
32864,23234,12200
32980,23168,12228
32838,23163,12331
32560,23170,12366
31908,23204,12313
31436,23252,12333
31710,23312,12367
32406,23352,12472
32636,23343,12499
32872,23321,12498
32560,23248,12465
31824,23196,12511
31716,23184,12612
32324,23191,12677
32388,23236,12675
32516,23286,12685
32576,23353,12620
32452,23374,12625
31856,23366,12672
31786,23341,12718
31520,23294,12746
31756,23242,12871
32624,23210,12910
33460,23225,12852
33857,23267,12834
33604,23328,12796
32529,23395,12836
31816,23403,12834
32065,23404,12858
32672,23369,12893
33068,23322,12889
33216,23271,12988
32856,23250,12978
32412,23268,12949
32356,23311,12959
32636,23338,12951
32824,23412,13038
32860,23445,13041
32770,23431,13005
32904,23396,13077
33221,23353,13050
33332,23308,13028
32704,23287,13031
31914,23303,13040
32148,23324,13096
32692,23369,13153
32856,23452,13127
32748,23472,13128
32974,23472,13213
33312,23439,13276
33388,23377,13259
33181,23332,13205
33077,23312,13166
32788,23332,13222
32568,23377,13162
32870,23400,13248
33284,23465,13315
33524,23498,13309
33504,23489,13328
32832,23457,13384
31798,23420,13375
31476,23369,13334
31788,23351,13312
31900,23367,13304
32001,23401,13319
32328,23438,13359
32594,23489,13415
32576,23528,13421
32812,23520,13524
33324,23493,13541
33808,23448,13479
33872,23402,13490
34036,23364,13481
34116,23375,13517
34116,23420,13492
33924,23466,13523
33605,23535,13541
33308,23558,13572
33112,23544,13608
32788,23504,13643
32364,23468,13692
32032,23417,13757
32252,23405,13792
32132,23397,13902
31844,23440,13942
32012,23493,13882
32536,23549,13968
32928,23575,14020
33104,23572,13977
33136,23535,13963
33217,23497,13993
33226,23452,14036
33120,23428,14108
32132,23440,14144
31508,23464,14149
31796,23516,14116
32200,23585,14182
32208,23609,14331
32004,23613,14297
31680,23557,14239
31264,23511,14261
31352,23464,14338
31708,23452,14274
32200,23449,14380
33572,23492,14342
35292,23536,14355
37016,23601,14433
38764,23638,14431
40296,23640,14565
41420,23648,14589
42404,23542,14489
43072,23504,14548
43224,23513,14524
42112,23480,14662
40412,23521,14699
38832,23588,14645
37112,23653,14653
35684,23651,14616
34741,23649,14781
34204,23613,14812
33704,23564,14714
33144,23513,14794
32448,23493,14853
31808,23493,14831
31044,23537,14817
30820,23594,14896
31200,23639,14887
31712,23674,14997
31836,23664,14934
32165,23623,14957
32448,23579,14948
32176,23537,15044
31952,23511,15044
31892,23525,15069
31804,23549,15069
31732,23605,15144
31600,23662,15257
31484,23700,15172
31456,23671,15189
31552,23642,15268
31508,23599,15216
31564,23541,15392
31576,23525,15394
31404,23548,15396
31268,23588,15447
31284,23634,15455
31152,23685,15600
30904,23706,15553
30904,23701,15556
31160,23674,15591
31112,23631,15678
31092,23579,15716
31112,23538,15704
31284,23552,15753
31612,23599,15878
31524,23650,15953
31076,23708,16004
31089,23727,16059
31436,23724,16108
31544,23685,16110
31817,23632,16093
32068,23581,16169
32216,23559,16196
32276,23584,16304
32185,23596,16316
31976,23656,16364
31656,23717,16378
31828,23751,16525
31316,23724,16502
31036,23700,16565
31368,23660,16598
31916,23587,16645
31856,23576,16735
31696,23592,16740
31848,23633,16816
31896,23675,16799
32144,23729,16963
32332,23760,16931
32408,23749,16951
32300,23715,17015
32288,23658,17013
32252,23596,17091
31336,23594,17152
30436,23598,17196
30708,23638,17173
31392,23694,17210
32258,23737,17251
32848,23756,17266
33012,23745,17274
32816,23713,17369
32320,23669,17367
32192,23622,17324
32456,23583,17366
32641,23597,17354
32744,23648,17456
32652,23697,17429
32400,23724,17396
32248,23770,17435
32072,23765,17405
32189,23721,17500
32576,23671,17437
32788,23624,17464
32877,23596,17497
33020,23618,17534
33098,23652,17477
32980,23695,17501
32912,23760,17460
32596,23777,17523
32280,23759,17540
32436,23724,17492
32665,23679,17478
33020,23645,17484
33224,23593,17543
33388,23617,17561
33264,23649,17529
32884,23715,17490
32980,23748,17495
33332,23777,17477
33288,23773,17514
32928,23717,17508
32789,23680,17446
33088,23627,17463
33748,23620,17455
34304,23619,17477
34576,23653,17442
34352,23712,17373
34256,23769,17380
34180,23802,17330
33940,23760,17307
33868,23736,17372
34048,23687,17273
34041,23650,17264
33984,23600,17199
33912,23625,17193
33760,23664,17222
33548,23727,17204
33524,23778,17193
33920,23800,17147
34154,23768,17065
33968,23733,17037
33764,23691,17013
33732,23653,17044
33380,23632,17018
32576,23644,17020
32708,23676,17000
33072,23717,16924
33368,23764,16923
33381,23780,16973
33520,23780,16980
33588,23748,16920
33480,23704,16962
33452,23648,16944
33100,23633,16919
32940,23625,16882
33016,23662,16849
33020,23716,16824
32984,23772,16838
32804,23800,16775
32712,23778,16788
32532,23741,16758
32392,23687,16754
32500,23640,16772
32636,23625,16852
32556,23624,16844
32484,23673,16765
32056,23729,16802
31132,23773,16740
30276,23791,16813
30736,23775,16864
31516,23748,16799
31870,23677,16804
31852,23630,16830
31696,23619,16796
31772,23639,16825
32176,23669,16883
31852,23713,16929
31736,23767,16940
32328,23790,16886
32621,23780,16892
32976,23731,16932
33144,23676,16950
33012,23633,16982
32868,23619,16999
32676,23613,16980
32740,23658,17001
33024,23728,17071
33196,23780,17152
33112,23787,17092
32940,23776,17116
32854,23730,17176
32768,23687,17162
32608,23617,17252
32701,23607,17282
32656,23633,17280
32516,23628,17313
32229,23714,17346
32052,23760,17385
31404,23795,17448
31192,23765,17453
31812,23723,17504
32368,23663,17555
32092,23624,17662
31500,23607,17688
31073,23617,17689
31440,23654,17742
32216,23706,17808
32896,23748,17844
33216,23765,17870
33181,23748,17940
33005,23725,18040
33124,23660,18040
33052,23609,18102
32832,23599,18161
32516,23600,18177
32400,23646,18296
32421,23698,18314
32388,23734,18351
32260,23757,18424
32060,23753,18465
31994,23695,18559
32352,23651,18566
32796,23608,18648
32924,23570,18673
32948,23584,18778
32744,23637,18805
32556,23666,18840
32460,23730,18906
32496,23755,18948
32542,23692,19018
32692,23683,19060
32708,23636,19123
32596,23569,19165
32100,23557,19241
31328,23577,19284
30836,23610,19324
30784,23657,19393
31460,23716,19426
32288,23736,19484
32980,23700,19528
33256,23668,19600
33348,23623,19634
33496,23564,19686
33400,23551,19748
33164,23554,19786
33040,23602,19828
32680,23654,19885
32564,23693,19941
32485,23716,19983
32780,23704,20029
32776,23644,20076
32548,23596,20112
32524,23555,20172
32352,23530,20202
32420,23546,20262
32868,23588,20300
33157,23652,20358
33132,23677,20383
32900,23706,20410
32824,23690,20452
32696,23653,20516
32900,23582,20559
32976,23555,20560
32776,23519,20640
32216,23553,20679
31832,23578,20701
32040,23629,20736
32556,23689,20788
33029,23703,20825
33192,23692,20872
33096,23652,20911
33040,23589,20944
33072,23533,20964
33024,23533,20981
33020,23533,21061
32904,23572,21093
32800,23627,21130
32652,23687,21178
32520,23695,21158
32492,23674,21220
32548,23620,21275
32588,23567,21295
32736,23535,21341
32764,23497,21320
32688,23517,21403
32584,23573,21421
32340,23628,21468
32256,23661,21428
32216,23670,21519
32152,23653,21542
32284,23629,21568
32364,23557,21607
32544,23513,21564
32824,23510,21658
32992,23501,21669
32959,23538,21710
33048,23597,21700
33152,23650,21696
33120,23666,21732
32980,23628,21809
32580,23600,21834
32340,23535,21859
32396,23492,21866
32465,23484,21887
32444,23487,21909
32636,23541,21952
32996,23589,21932
32976,23655,21936
32600,23652,21941
32400,23634,22031
32452,23598,22046
32536,23555,22058
32260,23488,22052
31724,23484,22024
30952,23506,22079
30472,23557,22119
31324,23594,22174
32751,23641,22189
33409,23661,22201
33880,23654,22214
34029,23627,22188
33840,23588,22273
33608,23511,22295
33548,23505,22292
33400,23549,22349
33228,23591,22276
33088,23643,22296
33036,23681,22310
33040,23708,22349
32940,23684,22371
32940,23651,22434
32964,23607,22423
33072,23580,22442
33062,23559,22444
32821,23588,22485
32468,23644,22589
32036,23694,22592
31620,23745,22614
31236,23770,22668
30884,23748,22601
30908,23719,22622
31104,23664,22704
31492,23630,22765
32068,23636,22764
32952,23649,22764
34168,23696,22775
35540,23778,22869
37269,23816,22884
39160,23848,22902
40808,23820,22920
42136,23796,22909
43080,23786,22992
43424,23714,23012
42756,23717,23012
41072,23770,22972
39095,23788,23106
37368,23851,23118
35892,23905,23125
34680,23904,23185
33864,23901,23108
33484,23866,23189
33240,23812,23247
33076,23780,23257
32746,23788,23212
32504,23796,23345
32244,23852,23371
31928,23921,23370
31710,23961,23414
31676,23972,23445
31656,23975,23430
31484,23943,23377
31444,23894,23461
31480,23858,23530
31460,23861,23514
31396,23877,23580
31384,23932,23532
31232,23999,23488
31104,24057,23537
31137,24071,23592
31236,24056,23668
31254,24024,23687
31325,23989,23682
31448,23947,23716
31504,23940,23694
31452,23972,23700
31340,24028,23640
31300,24071,23640
31272,24140,23755
31296,24153,23695
31314,24151,23766
31361,24114,23786
31448,24080,23852
31556,24031,23852
31148,24026,23857
30600,24065,23860
30744,24117,23916
31112,24168,23872
31200,24228,23845
31404,24253,23924
31553,24229,23993
31705,24205,23999
31669,24164,24049
31104,24119,23977
30880,24122,23961
31189,24151,24036
31624,24207,24076
31525,24260,24100
31328,24308,24169
31453,24332,24150
31528,24321,24175
31584,24290,24240
31756,24256,24252
31984,24221,24264
32064,24217,24294
31888,24247,24273
31764,24287,24334
31724,24358,24345
31880,24415,24340
31780,24446,24370
31676,24415,24324
31664,24390,24352
31776,24335,24441
31896,24308,24428
31941,24305,24382
31829,24335,24430
31692,24383,24469
31580,24445,24540
31713,24496,24557
31876,24535,24561
31960,24497,24577
32032,24471,24583
32056,24433,24599
31996,24399,24658
31976,24388,24554
31980,24428,24639
31920,24485,24719
31828,24533,24740
31888,24594,24730
31996,24614,24684
32112,24592,24716
32168,24570,24837
32228,24527,24844
32317,24480,24841
32376,24484,24908
32500,24514,24952
32636,24564,24949
32600,24630,24985
32512,24677,25052
32460,24686,25086
32484,24677,25122
32468,24651,25136
32566,24604,25172
32620,24551,25238
32528,24564,25274
32484,24589,25305
32408,24633,25376
32352,24711,25417
32332,24751,25500
32508,24750,25512
32640,24752,25480
32874,24717,25577
33116,24669,25689
33360,24629,25829
33476,24628,25880
33473,24663,25949
33401,24700,25992
33302,24757,26079
33240,24813,26185
33272,24839,26278
33297,24790,26308
33189,24772,26296
33092,24730,26412
33137,24698,26569
33128,24677,26724
33104,24711,26814
33216,24761,26850
33380,24818,27016
33468,24866,27008
33496,24891,27136
33310,24865,27357
33124,24813,27474
32972,24781,27588
32748,24743,27648
32700,24737,27804
32512,24758,27854
32029,24802,27935
31957,24856,28106
32240,24911,28232
32304,24924,28478
32276,24894,28574
32420,24869,28733
32580,24820,28737
32596,24776,28879
32544,24773,29061
32249,24804,29316
31904,24849,29393
31772,24898,29560
31710,24942,29777
31612,24964,29877
31412,24941,29919
31350,24900,30084
31268,24855,30404
31385,24816,30544
31492,24820,30634
31276,24839,30900
30824,24877,31004
30504,24940,31060
30492,24988,31228
30820,24999,31403
30900,24977,31711
30545,24932,31878
30864,24894,32026
31453,24841,32100
32040,24849,32226
32120,24880,32577
32128,24918,32704
32096,24970,32901
32024,25023,33127
31844,25041,33260
31668,24985,33255
31696,24979,33591
31797,24927,33826
31908,24880,33799
31904,24869,33909
31824,24903,34276
31744,24948,34317
31660,25000,34652
31620,25053,34767
31616,25062,34820
31552,25041,34860
31424,24999,35245
31409,24950,35313
31484,24917,35548
31648,24914,35722
31745,24932,35868
31840,24980,35892
31760,25042,36198
31604,25074,36253
31700,25095,36519
31880,25074,36716
32060,25027,36709
32052,24977,36977
32052,24943,36996
32073,24938,37357
32012,24967,37407
31892,25007,37480
31848,25060,37444
31812,25111,37863
31776,25110,38016
31768,25087,38151
31868,25053,38260
31900,25012,38569
31944,24980,38680
31864,24986,38734
31925,25007,38814
32084,25053,38911
32128,25086,38884
32148,25121,38969
32204,25132,39186
31740,25111,39460
31292,25077,39471
31472,25037,39697
31948,25009,39865
32224,25006,39959
32316,25027,39829
32388,25065,39942
32392,25120,40405
32088,25148,40164
31980,25149,40388
32288,25132,40728
32436,25101,40837
32453,25049,40881
32481,25023,40948
32680,25030,41255
32770,25053,41020
32704,25085,40982
32432,25139,41441
32057,25158,41540
31960,25166,41560
32000,25149,41844
32068,25111,41700
32396,25074,41857
32636,25046,41953
32846,25035,42101
32909,25064,42023
32992,25108,41900
32984,25143,42284
32864,25178,42332
32701,25188,42437
32560,25167,42519
32452,25129,42516
32472,25076,42513
32528,25056,42646
32568,25055,42582
32712,25081,42681
32816,25114,42885
32728,25161,42561
32534,25204,42964
32540,25196,42861
32576,25174,43039
32512,25151,43044
32570,25093,42780
32716,25069,43183
32812,25072,43180
32698,25103,43084
32848,25124,43247
32896,25183,43308
32908,25215,43366
32952,25221,43220
32992,25181,43412
32904,25152,43452
32932,25119,43428
33029,25082,43329
32997,25092,43477
32737,25100,43527
32644,25137,43463
32514,25188,43260
32389,25225,43623
32572,25223,43575
32976,25199,43592
33140,25160,43543
33164,25124,43328
33140,25089,43649
33049,25106,43600
32864,25119,43600
32756,25153,43359
32922,25197,43716
33089,25223,43673
33076,25235,43676
33188,25202,43445
33192,25172,43692
33221,25129,43580
33268,25087,43526
33240,25092,43665
33184,25111,43644
33140,25155,43468
33044,25214,43623
33092,25245,43461
33109,25255,43527
33160,25223,43592
33176,25189,43264
33076,25145,43540
32976,25101,43332
33056,25091,43383
33109,25124,43445
33148,25160,43328
33128,25226,43395
32988,25265,43010
32941,25260,43242
32638,25233,43281
32580,25196,42957
32832,25137,43196
33304,25108,43015
33678,25105,43004
33736,25122,43076
33728,25170,43033
33620,25223,42812
33364,25256,42887
33133,25252,42845
32840,25229,42789
32536,25199,42812
32356,25153,42569
32132,25125,42493
31832,25128,42245
31732,25159,42577
31744,25191,42460
31888,25237,42532
32385,25262,42200
33504,25266,42362
35056,25230,42364
36764,25205,42183
38356,25166,42136
40276,25165,42108
41944,25130,41921
43176,25188,41956
43812,25220,41921
43232,25291,41948
41162,25269,41726
38760,25284,41404
36640,25261,41720
35628,25224,41670
35232,25175,41570
34960,25135,41532
34628,25140,41594
34436,25168,41446
34276,25201,41233
34116,25248,41340
33728,25282,41289
33532,25271,41084
32857,25252,41271
32170,25220,40751
32228,25168,41063
32612,25142,41028
32808,25148,41014
32497,25174,41032
32064,25206,40972
32176,25257,40823
32504,25284,40644
32732,25282,40685
32728,25263,40608
32744,25223,40480
32816,25187,40605
32760,25145,40420
32576,25149,40308
32396,25185,40132
32150,25221,39911
32129,25260,40175
32168,25285,40057
32276,25292,40005
32292,25273,40072
32196,25231,39805
32252,25185,39525
32392,25156,39756
32332,25162,39664
32192,25174,39556
32160,25218,39704
32090,25248,39511
32064,25295,39431
32172,25298,39264
32264,25287,39392
31728,25244,39201
31096,25204,39364
31088,25172,39332
31712,25167,39232
32260,25192,39023
32404,25239,38846
32494,25276,39060
32660,25319,38996
32644,25321,38948
32706,25305,38788
32964,25270,38881
33112,25220,38900
33117,25204,38716
33068,25201,38437
32913,25213,38693
32788,25255,38612
32660,25306,38544
32608,25340,38460
32480,25372,38396
32262,25344,38465
32312,25304,38484
32456,25256,38300
32604,25204,38009
32400,25204,38240
32312,25223,38069
32388,25278,38212
32272,25344,38108
31897,25401,37904
31888,25413,37665
32384,25391,37810
32884,25358,37724
33284,25292,37744
33400,25257,37701
33317,25254,37454
33004,25274,37573
32498,25318,37394
32344,25385,37468
32436,25433,37448
32616,25448,37372
32704,25428,37164
32768,25399,36924
32760,25337,37136
32536,25299,37013
32205,25295,36887
32384,25314,36909
32860,25360,36737
33300,25437,36871
33476,25485,36673
33320,25489,36670
33196,25479,36565
33368,25429,36597
33616,25364,36406
33800,25336,36174
33886,25324,36359
33828,25360,36238
33776,25406,36279
33780,25460,36127
33866,25512,35880
34016,25520,36077
34024,25493,35975
34004,25464,36039
34048,25410,35839
34084,25359,35839
34144,25351,35804
34036,25380,35645
33620,25436,35708
33636,25472,35612
33856,25532,35458
34168,25548,35297
34388,25536,35473
34628,25479,35311
34704,25428,35380
34784,25386,35319
34788,25385,35079
34720,25413,35136
34608,25446,35172
34424,25516,34958
34212,25567,34888
34230,25567,35036
34192,25550,35065
34412,25508,34845
34489,25439,34717
34352,25409,34909
34134,25411,34832
33928,25430,34809
33888,25487,34657
33828,25535,34776
33796,25582,34751
33788,25588,34662
33784,25570,34497
33477,25522,34607
33452,25468,34455
33498,25419,34422
33465,25416,34500
33296,25443,34511
33016,25495,34265
33004,25551,34401
32896,25591,34380
32812,25600,34292
32772,25565,34276
32620,25527,34212
32300,25480,34148
32020,25433,34070
32052,25422,33973
32140,25452,33969
32300,25493,34121
32412,25567,34009
32316,25601,34108
32152,25607,33833
32080,25574,33981
32132,25532,34002
32268,25478,33893
32344,25428,33788
32416,25422,33743
32484,25458,33668
32416,25506,33830
32252,25554,33845
32020,25601,33636
31960,25603,33765
31984,25581,33695
31960,25532,33598
31988,25478,33724
32020,25430,33616
32164,25424,33478
32272,25452,33457
32248,25495,33619
32148,25559,33609
32108,25584,33433
32065,25589,33591
32052,25572,33439
32181,25521,33391
32366,25461,33529
32532,25414,33414
32400,25422,33356
31700,25445,33500
31360,25494,33452
31620,25546,33317
31828,25587,33463
31856,25580,33356
31864,25548,33478
32037,25515,33286
32088,25453,33415
32129,25420,33369
32312,25429,33422
32588,25449,33233
32856,25495,33337
32938,25539,33361
32812,25576,33327
32464,25569,33349
32268,25540,33173
32244,25500,33308
32400,25441,33164
32568,25400,33276
32632,25399,33142
32688,25433,33216
32552,25472,33179
32333,25528,33063
32244,25552,33000
32248,25549,33183
32376,25517,33145
32652,25471,33156
32877,25414,33145
33040,25384,32968
33012,25376,33097
32934,25410,33096
32764,25457,32988
32600,25503,33103
32368,25532,32908
32088,25528,33069
32176,25492,32940
32528,25447,32980
32797,25390,33044
32892,25364,33053
32896,25365,33028
32672,25391,33016
32536,25429,32972
32564,25488,33084
32580,25512,32917
32704,25511,32866
32860,25472,33084
32808,25437,33023
32812,25388,33111
32736,25348,32928
32657,25345,33084
32832,25372,33068
32941,25421,33156
32878,25477,32959
32788,25490,32940
32744,25500,33081
32773,25468,33173
32644,25414,32986
32392,25363,33145
32360,25334,33144
32441,25324,33057
32552,25366,33021
32544,25402,33011
32504,25455,33167
32468,25488,33100
32424,25475,33117
32456,25453,33212
32389,25405,33167
32228,25341,33241
32380,25311,33044
32620,25335,33234
32672,25351,33243
32460,25393,33297
32288,25452,33120
32108,25477,33108
32084,25462,33311
32485,25432,33285
33008,25393,33214
33360,25348,33341
33500,25319,33287
33308,25313,33364
32900,25345,33287
32545,25379,33382
32456,25444,33236
32572,25465,33407
32860,25461,33308
33033,25434,33471
33100,25380,33302
33156,25321,33292
33136,25303,33436
33136,25305,33511
33024,25346,33514
32928,25380,33408
32896,25434,33557
32900,25455,33420
32928,25457,33590
32940,25433,33592
33096,25376,33567
33197,25326,33543
33264,25290,33685
33220,25300,33519
33048,25334,33668
32824,25374,33592
32768,25437,33630
32742,25457,33713
32816,25451,33614
32868,25419,33532
32888,25381,33765
32948,25324,33653
32972,25290,33820
32912,25309,33820
32656,25327,33796
32652,25380,33668
32740,25435,33652
32672,25451,33822
32516,25444,33783
32652,25420,33912
33000,25373,33927
33192,25324,33933
33276,25303,33881
33212,25301,33737
33116,25332,33912
33008,25378,33932
32860,25430,33834
32500,25460,33994
31988,25454,33821
31632,25421,33828
31376,25378,33990
31108,25318,33893
30796,25294,33940
30588,25309,34045
30861,25332,33927
31516,25381,33879
32536,25439,33812
33828,25460,34021
35252,25462,33996
37000,25432,33893
38816,25380,34014
40712,25331,33904
42364,25313,33849
43616,25360,34036
44576,25340,34006
44848,25418,33927
43636,25465,33978
41588,25510,34023
39720,25453,34076
38316,25430,34068
36840,25388,34020
35424,25350,33889
34520,25304,33828
34016,25308,33813
33636,25349,34013
33312,25399,34017
32948,25445,33988
32712,25479,33927
32456,25461,33892
32084,25439,34016
31638,25398,33845
31372,25338,33789
31472,25308,33781
31548,25317,33973
31460,25351,33940
31456,25393,33888
31464,25448,33927
31381,25479,33959
31313,25468,33838
31261,25435,33708
31100,25387,33869
30836,25340,33847
30513,25311,33715
30472,25319,33629
30589,25353,33799
30766,25395,33799
30976,25455,33600
31084,25479,33764
31068,25463,33716
31116,25439,33754
31208,25388,33744
31440,25338,33644
31696,25306,33542
31848,25316,33680
31868,25350,33645
31717,25398,33533
31476,25447,33684
31252,25471,33492
31092,25471,33447
30836,25438,33624
30984,25391,33501
31480,25333,33606
31628,25316,33530
31500,25326,33446
31248,25351,33414
31226,25392,33343
31228,25456,33529
31272,25479,33524
31284,25465,33470
31356,25436,33372
31616,25394,33460
31732,25343,33478
31856,25313,33390
32068,25312,33271
32240,25352,33213
32208,25396,33383
32009,25448,33264
31904,25479,33381
31896,25477,33297
31872,25435,33184
31864,25389,33112
31928,25339,33047
31972,25317,33180
31952,25320,33220
31904,25348,32975
31845,25397,33120
31772,25452,32967
31768,25479,33083
31668,25465,32877
31486,25437,32806
31116,25399,32961
31064,25340,32820
31500,25321,32893
31912,25326,32677
32172,25361,32828
32104,25413,32755
31728,25452,32646
31806,25483,32734
31968,25472,32706
31912,25432,32501
31972,25405,32454
32264,25343,32592
32388,25316,32511
32324,25329,32495
32120,25375,32476
31828,25410,32356
31784,25462,32374
31956,25479,32431
32164,25479,32404
32336,25442,32295
32513,25401,32159
32622,25342,32128
32830,25325,32252
32896,25341,32228
32872,25371,32093
32968,25415,32202
33040,25468,32158
33045,25486,32074
33092,25476,31950
33056,25453,31912
33060,25400,31893
33212,25358,32032
33284,25330,31998
33096,25336,31892
32968,25376,31982
32992,25429,31925
33188,25476,31791
33228,25497,31724
33388,25476,31699
33644,25458,31680
33708,25404,31652
33768,25360,31621
33856,25341,31612
33940,25351,31618
33932,25375,31556
33820,25422,31576
33732,25473,31599
33797,25501,31617
33668,25492,31663
33561,25473,31532
33376,25424,31533
33113,25359,31501
33060,25340,31412
33292,25354,31396
33399,25380,31558
33438,25428,31525
33436,25485,31492
33342,25509,31494
33308,25500,31467
33269,25466,31455
33224,25419,31356
33216,25361,31351
33093,25341,31328
32876,25359,31334
32804,25389,31300
32872,25425,31318
32800,25480,31273
32664,25510,31383
32580,25509,31247
32528,25464,31194
32480,25424,31342
32368,25382,31232
32069,25340,31336
31700,25353,31161
31734,25389,31146
31948,25430,31279
31785,25493,31164
31512,25516,31280
31730,25497,31270
32204,25466,31207
32384,25419,31085
32489,25361,31060
32626,25348,31225
32721,25359,31196
32665,25387,31085
32544,25437,31197
32464,25487,31204
32393,25508,31200
32157,25492,31196
32072,25468,31177
32192,25418,31114
32412,25359,31111
32544,25332,30996
32412,25351,30988
32369,25383,31154
32328,25420,31152
32220,25479,31149
32052,25501,31028
31974,25489,31105
32224,25457,31145
32480,25413,30998
32608,25351,30988
32680,25329,30988
32676,25335,31005
32624,25373,31021
32469,25413,31148
32265,25452,31120
32220,25484,31101
32184,25460,31174
32252,25441,31156
32468,25389,31012
32596,25344,31015
32452,25303,31168
32412,25318,31165
32572,25351,31169
32636,25396,31133
32608,25457,31052
32500,25472,31065
32452,25450,31068
32452,25421,31164
32456,25379,31076
32317,25315,31018
32308,25295,31004
32292,25308,31046
32376,25346,31157
32476,25386,31084
32396,25425,31204
32248,25456,31111
32252,25436,31034
32412,25407,31064
32384,25351,31156
32252,25294,31231
32344,25275,31101
32596,25290,31047
32912,25313,31204
33040,25362,31148
33024,25412,31108
33020,25438,31236
33013,25404,31061
32900,25387,31052
32840,25328,31228
32860,25280,31180
32992,25252,31194
32744,25257,31127
32588,25294,31068
32628,25340,31244
32700,25401,31220
32736,25407,31138
32644,25398,31277
32470,25350,31137
32596,25301,31104
32768,25248,31239
32952,25216,31156
33024,25241,31300
33112,25273,31114
33012,25307,31151
32897,25377,31162
32736,25385,31306
32752,25365,31300
32824,25320,31228
32864,25292,31364
32856,25209,31200
32780,25199,31212
32760,25210,31300
32594,25241,31366
32438,25277,31344
32385,25339,31428
32208,25352,31274
32077,25333,31455
32204,25292,31428
32564,25236,31372
32800,25189,31463
32876,25171,31498
32868,25167,31343
32640,25206,31361
32278,25255,31354
32148,25300,31546
32060,25290,31511
32008,25299,31450
31852,25257,31570
31652,25201,31582
32012,25152,31432
32596,25128,31419
33160,25139,31412
33468,25166,31436
33604,25215,31428
33692,25253,31484
33625,25270,31444
33344,25262,31515
33057,25202,31634
32820,25157,31600
32728,25105,31516
32812,25087,31568
33036,25085,31550
33208,25121,31676
33348,25164,31679
33292,25212,31673
32960,25231,31685
32736,25223,31637
32744,25175,31671
32908,25123,31712
33093,25060,31622
33144,25030,31572
33188,25049,31556
33109,25077,31536
33040,25122,31708
32929,25156,31616
32808,25186,31726
32820,25169,31717
32928,25127,31744
32928,25078,31604
33017,25020,31584
33116,24985,31562
33156,25000,31714
33088,25036,31653
32852,25079,31704
32588,25126,31600
32484,25151,31748
32784,25113,31695
33000,25087,31690
33000,25031,31709
32904,24989,31729
32737,24944,31593
32380,24964,31579
31892,25001,31749
31380,25035,31744
30864,25073,31743
30716,25082,31731
30836,25063,31707
31076,25028,31681
31356,24987,31716
32384,24953,31548
34088,24929,31542
35652,24941,31709
37112,24982,31696
39184,25012,31665
41440,25079,31567
43160,25052,31704
44236,25077,31677
45176,25033,31596
45597,25025,31485
44484,24929,31487
42344,24923,31465
40484,24933,31456
38980,24976,31620
37384,24990,31623
35924,25039,31588
34956,25042,31573
34308,25032,31502
33868,25002,31494
33604,24948,31511
33374,24913,31634
33088,24892,31636
32753,24908,31644
32356,24936,31645
31956,24974,31546
31626,25021,31463
31544,25028,31632
31456,25007,31605
31380,24981,31559
31296,24933,31639
31252,24886,31639
31132,24871,31609
30576,24889,31479
30508,24918,31461
30600,24957,31479
30924,24996,31592
31152,25011,31588
31376,24996,31644
31292,24957,31466
31126,24913,31460
31204,24868,31630
31324,24854,31633
31400,24861,31622
31424,24900,31613
31409,24940,31512
31340,24975,31653
31332,24993,31479
31292,24978,31468
31280,24932,31653
31276,24902,31655
31364,24850,31583
31461,24833,31599
31528,24850,31705
31424,24872,31709
31293,24912,31652
31256,24957,31540
31072,24969,31536
30936,24950,31588
31109,24914,31728
31348,24869,31665
31636,24833,31626
31708,24816,31636
31702,24796,31639
31688,24860,31660
31564,24896,31762
31364,24929,31672
30856,24949,31657
30628,24936,31734
30764,24902,31775
31077,24855,31688
31568,24809,31661
31744,24799,31564
31564,24809,31724
31496,24817,31620
31560,24876,31607
31540,24925,31745
31654,24940,31541
31821,24926,31532
31880,24882,31684
31756,24839,31644
31608,24794,31588
31576,24776,31543
31460,24791,31646
31278,24823,31452
31252,24869,31437
31152,24903,31589
31148,24917,31532
31460,24902,31487
31637,24868,31420
31764,24814,31476
31696,24770,31488
31713,24762,31313
31956,24777,31293
32168,24806,31278
32281,24855,31267
31972,24880,31404
31912,24903,31367
32052,24887,31348
32312,24849,31253
32253,24805,31208
32144,24759,31155
32184,24741,31152
32301,24759,31291
32492,24799,31225
32417,24834,31200
32266,24869,31255
32328,24886,31122
32481,24868,31037
32527,24832,31176
32637,24776,31150
32884,24740,31100
33080,24731,31101
33134,24748,31072
33173,24775,30997
33194,24820,30980
33104,24852,30967
33081,24861,30993
33216,24844,31032
33165,24813,30895
33164,24774,30844
33328,24725,30815
33420,24711,30961
33492,24725,30841
33620,24765,30929
33500,24810,30748
33328,24837,30776
33240,24845,30892
32836,24828,30848
32872,24802,30757
33452,24759,30852
33884,24716,30756
33924,24687,30652
33856,24709,30801
33872,24741,30764
33872,24783,30748
33648,24829,30663
33392,24837,30725
33204,24818,30766
32952,24772,30612
32656,24732,30565
32644,24695,30720
32714,24674,30705
32776,24698,30677
32856,24732,30682
32460,24761,30654
32036,24801,30592
31832,24813,30556
32184,24794,30540
32381,24759,30627
32508,24716,30639
32608,24679,30605
32832,24668,30572
32792,24679,30544
32484,24708,30553
32406,24741,30520
32536,24791,30480
32588,24801,30559
32536,24776,30564
32460,24740,30548
32568,24699,30536
32616,24658,30500
32608,24644,30490
32549,24660,30428
32532,24696,30464
32512,24744,30484
32476,24773,30484
32496,24785,30516
32520,24769,30502
32540,24737,30436
32496,24684,30305
32424,24649,30300
32280,24634,30303
32188,24653,30296
32184,24676,30316
32136,24729,30284
32080,24756,30281
32077,24769,30408
32196,24744,30384
32118,24725,30303
32040,24677,30384
32056,24624,30308
32208,24615,30380
32256,24637,30372
32140,24664,30381
32020,24708,30376
31976,24746,30364
32136,24756,30383
32372,24733,30386
32484,24703,30349
32624,24656,30357
32608,24620,30360
32352,24610,30365
32272,24622,30323
32270,24649,30290
32272,24692,30316
32197,24743,30300
31776,24752,30177
31700,24733,30221
31942,24688,30178
32376,24647,30194
32620,24614,30126
32732,24599,30112
32828,24605,30124
32933,24636,30284
32916,24694,30271
32880,24724,30247
32772,24738,30156
32580,24718,30207
32380,24677,30245
32020,24628,30272
31756,24581,30204
32240,24572,30095
32750,24583,30124
32960,24622,30261
32981,24670,30250
33008,24716,30185
33064,24725,30272
33068,24695,30133
32884,24658,30116
32796,24615,30273
32741,24579,30180
32608,24570,30287
32368,24577,30137
32306,24613,30304
32412,24662,30250
32548,24704,30211
32468,24687,30309
32448,24679,30336
32540,24644,30236
32657,24605,30188
32736,24565,30361
32862,24546,30336
32896,24559,30276
32871,24596,30305
32788,24639,30364
32708,24686,30245
32758,24691,30433
32984,24677,30376
33183,24630,30350
33348,24588,30297
33352,24562,30324
33206,24540,30478
33133,24560,30389
33052,24580,30508
33037,24628,30367
32772,24673,30537
32364,24684,30484
32148,24656,30551
31936,24613,30587
31916,24572,30583
32168,24535,30463
32548,24532,30452
32572,24551,30625
32424,24573,30596
32480,24620,30537
32832,24661,30649
33328,24677,30692
33596,24654,30692
33756,24622,30677
33687,24565,30573
33452,24532,30564
33161,24515,30620
32733,24541,30753
32542,24557,30751
32572,24607,30759
32632,24637,30761
32652,24656,30692
32900,24632,30788
33296,24592,30844
33392,24544,30778
33477,24514,30689
33482,24513,30729
33388,24516,30858
33216,24548,30782
33096,24600,30904
33016,24630,30919
32822,24647,30928
32636,24625,30937
32628,24583,30918
32712,24532,30781
32720,24497,30799
32664,24486,30800
32660,24508,30972
32780,24532,30969
33000,24572,30949
33096,24623,31017
33084,24636,30985
32988,24600,30850
33010,24566,31022
33009,24536,30918
33076,24473,30936
33208,24473,30872
33320,24488,30876
33276,24535,30877
33135,24576,30885
33062,24597,30932
32968,24610,31069
32808,24591,31072
32801,24556,31057
32868,24503,31015
32968,24469,30913
33088,24468,31096
33088,24475,31071
33052,24510,31109
33008,24548,30937
32924,24583,31105
32936,24598,30997
32960,24582,31087
32956,24543,30951
32932,24484,31125
32912,24444,31135
32880,24444,31109
32672,24455,31105
32229,24498,31140
32060,24533,31001
32160,24568,31149
32284,24577,31127
32352,24560,31129
32561,24510,31066
32888,24468,31018
33184,24451,31140
33300,24423,31133
33436,24442,31172
33540,24477,31076
33460,24533,31076
33324,24557,31186
33249,24571,31077
32884,24532,31141
32604,24504,31041
32744,24453,31164
32760,24423,31200
32748,24422,31035
32524,24423,31201
32184,24460,31090
31912,24501,31176
31604,24549,31004
31408,24548,31150
31465,24523,31044
31788,24495,31164
32060,24437,30984
32756,24404,31124
33945,24404,31111
35420,24411,31020
37164,24460,31040
39206,24513,31100
41068,24569,31020
42696,24532,30911
43912,24525,30893
44944,24503,31036
45664,24478,30911
44928,24395,31020
42992,24393,30830
40836,24439,30802
39160,24437,30949
37589,24492,30874
36156,24503,30941
35128,24527,30889
34556,24498,30819
34060,24466,30727
33540,24401,30727
33132,24369,30695
32736,24364,30672
32408,24389,30657
32112,24423,30815
31768,24450,30796
31408,24498,30776
31169,24496,30760
30928,24477,30713
31005,24439,30644
31300,24393,30584
31504,24350,30679
31352,24348,30673
30960,24364,30582
30708,24401,30463
30624,24445,30439
30412,24473,30412
30284,24478,30397
30684,24454,30375
31292,24427,30372
31461,24378,30324
31481,24332,30310
31656,24320,30318
31777,24345,30313
31688,24380,30272
31436,24424,30402
31272,24466,30383
30992,24463,30292
30968,24444,30310
31094,24408,30337
30808,24359,30148
30586,24322,30163
30992,24314,30309
31480,24328,30268
31784,24357,30253
31741,24409,30189
31528,24447,30232
31548,24455,30301
31616,24436,30282
31694,24385,30268
31620,24340,30254
31612,24308,30210
31736,24300,30095
31796,24324,30127
31768,24359,30072
31776,24377,30063
31672,24429,30072
31542,24440,30221
31516,24421,30165
31558,24381,30215
31588,24324,30228
31636,24292,30181
31672,24288,30037
31712,24308,30044
31696,24347,30025
31672,24382,30028
31696,24417,30021
31769,24418,30020
31588,24404,29986
31068,24363,30002
30753,24318,29988
30908,24284,30144
31420,24268,30128
31668,24287,30106
31884,24320,29985
31828,24373,29937
31765,24404,29916
31600,24406,29904
31636,24377,29896
31533,24348,30048
31624,24304,30029
31976,24271,30012
32312,24268,29972
32188,24287,29956
31840,24324,29878
31965,24367,29877
32169,24403,29834
32380,24393,29885
32460,24382,29840
32460,24340,29812
32440,24294,29879
32416,24260,29871
32381,24253,29718
32385,24260,29687
32308,24293,29653
32100,24340,29639
31980,24372,29650
32137,24369,29689
32334,24345,29641
32428,24312,29757
32592,24264,29725
32708,24232,29724
32744,24228,29701
32520,24255,29700
32356,24284,29690
32460,24329,29645
32704,24364,29575
32980,24372,29635
32864,24348,29487
32992,24302,29476
33282,24261,29440
33404,24231,29447
33324,24208,29407
33336,24229,29369
33504,24267,29326
33552,24311,29335
33517,24340,29309
33549,24353,29269
33548,24327,29284
33596,24290,29256
33472,24245,29252
33248,24204,29232
33405,24209,29268
33656,24215,29345
33900,24252,29300
34016,24301,29277
33900,24330,29252
33760,24339,29260
33544,24315,29270
33445,24276,29256
33172,24235,29217
32608,24202,29185
32072,24196,29145
32084,24213,29132
32288,24236,29098
32728,24280,29136
33108,24319,29076
33016,24324,29140
33036,24308,29177
32940,24252,29037
32864,24212,28980
32728,24173,28996
32784,24175,28985
32745,24188,29029
32672,24230,29133
32576,24287,29118
32484,24301,29118
32496,24303,29036
32433,24285,29044
32404,24253,29044
32362,24198,29044
32352,24167,29078
32198,24160,29095
31936,24183,29049
31713,24221,29078
31760,24263,29102
31980,24292,29156
32096,24294,29122
31908,24257,29125
31784,24224,29172
32028,24185,29012
32148,24159,29012
32260,24153,29038
32428,24174,29178
32448,24199,29178
32229,24246,29117
32144,24274,29191
32164,24276,29067
32096,24248,29036
32192,24213,29181
32256,24181,29145
32404,24132,29173
32544,24133,29173
32600,24151,29104
32656,24189,29156
32620,24230,29208
32536,24263,29118
32401,24269,29029
32316,24239,29039
32192,24199,29067
32240,24156,29213
32437,24125,29196
32417,24125,29133
32052,24133,29227
31188,24172,29045
30896,24217,29052
31386,24253,29209
32044,24248,29204
32536,24218,29164
32748,24197,29132
32880,24142,29204
32896,24116,29144
32996,24115,29194
33065,24128,29204
32900,24165,29209
32668,24209,29159
32349,24252,29064
32140,24246,29055
32240,24220,29121
32464,24170,29013
32405,24128,29045
32416,24101,29180
32380,24100,29176
32428,24126,29170
32448,24149,29163
32452,24207,29116
32228,24232,29046
31940,24234,29050
32160,24199,29128
32656,24153,29080
32828,24116,29018
32892,24088,28947
32820,24095,29073
32664,24103,29033
32564,24134,28949
32546,24188,28997
32576,24217,28919
32569,24220,28858
32412,24197,28788
32368,24160,28848
32480,24116,28844
32444,24084,28812
32300,24085,28768
32296,24102,28700
32505,24129,28679
32572,24169,28660
32712,24199,28617
32812,24198,28588
32936,24177,28560
33028,24140,28585
32588,24094,28505
32468,24060,28498
32588,24065,28527
32688,24089,28604
32517,24128,28564
32120,24167,28514
32020,24188,28471
32511,24186,28441
32996,24164,28452
33216,24124,28430
33368,24095,28430
33088,24053,28416
32880,24063,28393
32640,24071,28338
32824,24100,28243
33008,24144,28255
33197,24177,28248
33220,24183,28277
32928,24159,28144
32885,24125,28049
33100,24082,28036
33336,24045,28033
33296,24044,28057
32952,24062,28004
32788,24097,27979
32848,24140,27925
32729,24176,27976
32741,24175,28037
32472,24152,28015
31984,24111,27950
31780,24062,27885
31928,24028,27925
32084,24033,27928
32216,24055,27927
32516,24088,27892
32740,24135,27725
32812,24149,27693
32917,24151,27676
33216,24126,27808
33452,24100,27730
33576,24040,27733
33572,24009,27738
33356,24015,27599
33020,24038,27551
32439,24072,27582
31962,24116,27663
31780,24152,27636
31616,24143,27552
31713,24120,27604
32180,24084,27600
33064,24039,27408
33613,23993,27580
33852,23996,27532
33752,24023,27484
33540,24062,27525
33320,24100,27348
33232,24132,27372
33036,24136,27501
32720,24117,27477
32560,24067,27492
32628,24015,27445
32888,23990,27353
32924,23996,27292
32916,24023,27310
32892,24038,27365
32880,24090,27415
33025,24120,27354
33073,24121,27377
33096,24097,27354
33009,24068,27255
32620,24007,27232
32364,23978,27374
32608,23981,27309
33052,24004,27361
33184,24023,27228
33198,24077,27201
33124,24115,27313
33190,24101,27285
33372,24080,27212
33493,24046,27288
33516,24004,27104
33516,23972,27105
33372,23945,27172
33132,23977,27233
32908,24010,27190
32754,24055,27179
32462,24084,27196
32377,24080,27183
32548,24062,27023
32544,24020,27029
32384,23981,27103
32564,23952,27142
33056,23951,27084
33376,23980,27143
33492,23992,26964
33452,24054,27036
33356,24085,27112
33204,24087,27098
33156,24053,27081
33216,24018,27036
33124,23965,27074
33000,23935,27112
33060,23928,27122
32745,23956,27084
32060,23988,27034
31728,24036,26946
32206,24068,26984
33088,24071,27031
33548,24027,27116
33646,23990,27088
33504,23948,27081
33260,23926,27032
33100,23908,27128
32888,23946,27129
32480,23988,26996
32092,24023,27001
31792,24049,26995
31572,24042,27033
31436,24012,27182
31452,23975,27151
31696,23935,27153
32429,23908,27092
33500,23908,27064
34781,23943,27076
36208,23986,27217
38024,24000,27190
39864,24036,27146
41696,24039,27156
42992,24015,27225
44196,23999,27118
45380,23948,27135
45436,23942,27246
43936,23901,27181
41600,23932,27148
39656,23973,27138
37968,24004,27298
36372,24049,27270
35225,24020,27260
34608,23999,27214
34148,23967,27305
33634,23925,27265
33248,23886,27323
32869,23891,27200
32472,23917,27266
32096,23942,27380
31644,23993,27300
31316,24021,27396
31140,24023,27317
31176,23994,27310
31208,23957,27400
31164,23908,27430
30956,23873,27316
30945,23873,27277
31148,23902,27347
31312,23942,27440
31313,23983,27375
31268,23992,27472
31252,24009,27327
31268,23983,27381
31401,23943,27465
31384,23897,27469
31288,23853,27465
31296,23862,27476
31200,23888,27470
31205,23924,27444
31252,23970,27436
31176,23997,27439
31064,23997,27442
31012,23964,27451
31054,23924,27526
31276,23878,27444
31472,23841,27366
31480,23859,27415
31432,23868,27434
31244,23906,27569
31089,23962,27557
30952,23983,27567
31040,23980,27527
31174,23944,27567
31104,23905,27527
31084,23868,27538
31068,23840,27633
31216,23844,27517
31285,23860,27519
31368,23895,27503
31284,23952,27556
31133,23971,27682
31476,23975,27676
31844,23940,27664
32101,23898,27600
32064,23863,27660
31660,23821,27694
31544,23820,27552
31856,23853,27549
32068,23897,27601
32056,23946,27700
31856,23952,27682
31668,23952,27661
31732,23927,27588
31964,23888,27668
32124,23849,27484
32116,23813,27535
31996,23815,27621
31980,23844,27565
31950,23882,27537
31901,23914,27415
31852,23957,27574
31976,23948,27467
32024,23924,27489
32116,23872,27517
32152,23832,27405
32088,23799,27293
32144,23810,27438
32104,23844,27406
31772,23868,27293
31528,23903,27355
31448,23941,27328
31424,23937,27116
31448,23903,27188
31569,23862,27216
31712,23823,27135
31788,23789,27085
31968,23791,27080
32144,23822,27015
32168,23868,26921
31976,23897,26947
31785,23933,27009
31680,23939,26924
31220,23900,26910
30972,23861,26928
31588,23815,26744
32365,23773,26796
32933,23789,26869
33324,23815,26808
33278,23838,26750
32820,23892,26784
32305,23924,26689
32212,23908,26613
32686,23881,26725
32932,23840,26649
33184,23801,26628
33528,23777,26624
33892,23767,26473
34056,23811,26472
33877,23846,26473
33748,23881,26488
33688,23907,26546
33752,23906,26479
33752,23868,26450
33669,23831,26469
33644,23793,26302
33615,23763,26375
33524,23766,26423
33437,23805,26378
33296,23824,26375
33516,23878,26208
33669,23894,26232
33692,23894,26356
33768,23857,26268
33760,23815,26316
33586,23783,26212
33444,23760,26233
33328,23742,26316
33096,23783,26277
32956,23815,26234
32825,23868,26285
32620,23898,26229
32552,23868,26203
32580,23852,26314
32634,23820,26249
32792,23782,26339
32784,23735,26168
32721,23743,26264
32724,23772,26292
32724,23809,26390
32620,23861,26406
32296,23887,26415
31832,23864,26373
31721,23835,26464
31926,23801,26429
32188,23754,26343
32372,23740,26436
32453,23735,26576
32408,23756,26572
32032,23799,26589
31760,23844,26631
31449,23866,26669
30905,23866,26721
30840,23830,26766
31248,23795,26793
31540,23737,26805
32128,23713,26821
32780,23718,26944
33076,23754,26820
33053,23774,26928
32932,23828,27001
32564,23854,27136
32266,23846,27096
32340,23815,27152
32510,23785,27220
32688,23727,27340
32689,23700,27365
32636,23721,27453
32552,23751,27509
32536,23760,27502
32248,23815,27470
31896,23837,27532
31957,23841,27588
32261,23774,27797
32548,23760,27814
32684,23727,27889
32692,23702,27933
32548,23696,27931
32308,23721,27907
32164,23756,27959
32440,23800,28053
32576,23832,28224
32332,23823,28268
32228,23797,28319
32502,23769,28285
32824,23708,28433
32860,23692,28365
32828,23694,28386
32652,23731,28470
32524,23744,28652
32468,23797,28696
32488,23821,28741
32640,23815,28762
32696,23791,28788
32689,23740,28909
32727,23696,28951
32588,23676,28868
32497,23692,29062
32512,23719,29096
32568,23743,29052
32512,23794,29190
32421,23815,29086
32413,23799,29130
32452,23775,29213
32669,23743,29373
32852,23685,29308
32848,23663,29440
32896,23672,29326
32850,23705,29385
32808,23729,29578
32823,23774,29487
32812,23799,29645
32620,23794,29686
32556,23766,29676
32668,23721,29764
32400,23672,29736
32316,23661,29728
32676,23668,29665
32976,23678,29754
32908,23724,29873
32764,23772,29932
32636,23792,29832
32644,23773,29815
32612,23748,30000
32628,23716,29904
32704,23669,30001
32864,23664,30085
32888,23647,30057
33004,23673,30108
33044,23712,30078
33108,23767,29977
32912,23783,30167
32912,23777,30164
33016,23732,30094
32776,23695,30150
32248,23652,30224
31948,23631,30168
32264,23644,30101
32640,23663,30281
32888,23695,30189
32976,23749,30332
33100,23775,30180
33064,23753,30353
32828,23724,30301
32560,23695,30392
32584,23660,30241
32752,23619,30407
33044,23628,30335
33044,23667,30359
33144,23705,30462
32980,23728,30416
32548,23750,30500
32508,23748,30420
32844,23726,30371
33149,23668,30513
33312,23636,30558
33366,23616,30541
33300,23621,30446
33284,23645,30420
33296,23689,30612
33256,23727,30516
33248,23748,30666
33189,23738,30564
33136,23724,30489
33064,23664,30679
33060,23624,30583
33109,23613,30722
33044,23620,30727
32869,23656,30753
32804,23666,30758
32644,23717,30773
32545,23738,30673
32660,23724,30630
32684,23711,30615
32608,23668,30631
32760,23622,30628
33024,23591,30801
33108,23597,30800
33064,23636,30705
32964,23681,30825
32976,23716,30664
33056,23751,30825
33028,23729,30806
32761,23697,30716
32632,23652,30713
32636,23606,30797
32756,23599,30769
32760,23607,30838
32520,23615,30684
32256,23658,30710
32308,23706,30828
32440,23724,30811
32872,23725,30844
33108,23673,30773
32924,23640,30711
32560,23600,30676
32860,23576,30835
33432,23597,30821
33832,23609,30725
33824,23651,30708
33740,23700,30808
33624,23727,30792
33548,23696,30660
33300,23662,30642
33216,23628,30789
33296,23580,30734
33112,23566,30672
32748,23584,30612
32580,23599,30619
32536,23637,30754
32597,23684,30646
32696,23716,30760
32904,23705,30756
33160,23653,30687
33220,23617,30562
33292,23578,30602
33280,23559,30716
33360,23553,30632
33297,23588,30727
33124,23621,30604
32872,23679,30539
32748,23695,30528
32864,23700,30686
33044,23644,30656
33200,23610,30583
33292,23567,30564
33224,23551,30685
33172,23559,30607
33000,23596,30557
32596,23638,30492
32128,23663,30503
31643,23676,30486
31432,23674,30513
31268,23641,30644
31153,23607,30543
31236,23564,30674
31497,23535,30491
32196,23545,30644
33328,23577,30527
34740,23615,30580
36056,23663,30629
37945,23696,30517
39884,23692,30486
41564,23631,30477
42720,23600,30635
43884,23559,30616
44912,23566,30532
44608,23556,30693
42940,23614,30501
40704,23608,30670
38885,23644,30572
37356,23665,30676
35868,23658,30527
34842,23639,30544
34305,23607,30689
34020,23529,30716
33716,23517,30565
33284,23540,30745
32956,23572,30676
32724,23592,30777
32367,23641,30605
31908,23657,30782
31564,23652,30684
31456,23613,30791
31196,23576,30644
30960,23528,30820
30844,23513,30828
30792,23518,30776
30708,23540,30887
30753,23581,30697
30976,23633,30881
31104,23645,30844
30868,23624,30772
30670,23599,30903
30816,23559,30740
31229,23509,30918
31400,23495,30850
31294,23503,30772
31292,23535,30922
31280,23576,30980
31156,23617,30793
31137,23636,30935
31040,23619,31005
31028,23590,30831
31188,23553,31019
31460,23501,31028
31728,23479,31049
31812,23499,31074
31772,23532,31082
31596,23575,31008
31508,23605,31157
31460,23626,31052
31532,23623,31012
31652,23583,31212
31664,23540,31236
31652,23497,31239
31572,23483,31204
31404,23495,31239
31272,23508,31361
31284,23548,31396
31360,23604,31341
31372,23620,31276
31576,23615,31278
31636,23571,31286
31625,23524,31310
31592,23492,31333
31668,23471,31513
31409,23461,31513
31368,23496,31436
31512,23549,31532
31540,23593,31444
31412,23612,31422
31372,23589,31612
31464,23564,31612
31745,23524,31620
32152,23483,31609
32340,23473,31596
32288,23464,31527
32014,23506,31681
31788,23551,31696
31509,23596,31700
31377,23598,31657
31480,23591,31741
31820,23564,31556
32080,23522,31516
32024,23465,31721
31928,23445,31620
31809,23463,31751
31756,23500,31580
31644,23531,31716
31752,23569,31696
32016,23592,31612
32124,23589,31653
32113,23547,31553
32308,23503,31705
32616,23471,31732
32568,23460,31684
32380,23452,31575
32180,23482,31580
31932,23530,31740
31425,23566,31723
31433,23587,31693
31877,23572,31716
32228,23542,31775
32340,23506,31623
32520,23461,31578
32678,23452,31558
32876,23444,31743
32884,23484,31639
32657,23519,31800
32621,23579,31617
32724,23574,31765
32804,23572,31732
32956,23535,31686
33156,23500,31805
33252,23463,31684
33412,23428,31584
33568,23440,31596
33662,23470,31740
33812,23517,31764
33804,23567,31744
33712,23591,31648
33712,23557,31725
33748,23532,31770
33568,23495,31663
33452,23455,31612
33576,23439,31582
33864,23429,31761
33964,23465,31751
33916,23510,31764
33600,23556,31720
33396,23583,31661
33308,23549,31769
33174,23524,31556
33319,23470,31744
33462,23431,31708
33460,23427,31612
33413,23436,31722
33272,23465,31735
33220,23498,31656
33192,23551,31696
32844,23559,31704
32732,23552,31703
32700,23525,31668
32692,23463,31550
32472,23425,31495
32332,23418,31650
32394,23432,31569
32428,23448,31716
32328,23488,31648
32064,23536,31508
31645,23557,31482
31412,23527,31632
31628,23510,31688
31964,23455,31492
31988,23413,31642
31969,23405,31637
32408,23420,31622
32748,23436,31478
32616,23492,31644
32334,23530,31536
32104,23545,31588
31996,23524,31437
32076,23494,31496
32312,23465,31652
32440,23425,31540
32496,23389,31453
32242,23404,31604
31993,23430,31559
31840,23477,31559
31836,23524,31640
31916,23541,31465
32104,23516,31419
32248,23488,31602
32364,23449,31652
32392,23393,31461
32304,23381,31620
32168,23399,31591
31972,23437,31658
31872,23461,31495
31908,23505,31461
31852,23522,31652
31833,23513,31649
31900,23482,31548
32016,23429,31652
32328,23397,31512
32524,23383,31684
32544,23391,31677
32492,23439,31586
32404,23453,31750
32224,23509,31573
32144,23517,31642
32117,23507,31744
32324,23461,31633
32576,23429,31796
32644,23395,31673
32500,23372,31621
32260,23393,31629
32112,23405,31796
32276,23457,31758
32220,23498,31807
32124,23522,31665
32120,23485,31641
31977,23462,31815
31560,23421,31845
31556,23382,31790
32180,23357,31685
32776,23367,31668
32748,23412,31846
32733,23463,31839
32716,23490,31841
32564,23502,31825
32456,23493,31845
32612,23444,31796
32796,23415,31668
32832,23370,31820
32760,23367,31686
32848,23367,31746
32793,23405,31637
32640,23444,31786
32333,23484,31748
32124,23492,31773
32104,23472,31628
32240,23449,31540
32476,23405,31705
32816,23377,31674
33088,23337,31614
33369,23360,31583
33409,23405,31458
33256,23447,31607
33004,23469,31454
32788,23495,31585
32716,23478,31365
32764,23455,31312
32877,23399,31437
32925,23356,31391
32810,23357,31325
32696,23348,31239
32772,23390,31289
32740,23424,31353
32600,23468,31133
32660,23491,31081
32696,23476,31228
32770,23427,31085
32828,23393,31184
32877,23350,30988
32952,23354,31122
33030,23370,31077
33020,23375,30934
33018,23418,31033
32960,23460,31028
32940,23483,30948
32592,23457,30799
32485,23431,30931
32556,23383,30790
32832,23348,30845
32920,23335,30676
32761,23357,30808
32200,23366,30831
32000,23412,30600
31862,23460,30743
32166,23457,30624
32696,23450,30660
33108,23428,30590
33338,23367,30575
33400,23335,30535
33496,23320,30629
33500,23339,30631
33135,23380,30429
32688,23407,30540
32536,23444,30580
32320,23461,30392
32284,23447,30396
32580,23421,30476
32896,23367,30404
33004,23329,30433
33016,23316,30313
32962,23342,30277
33076,23363,30437
33076,23420,30343
32904,23438,30310
32860,23453,30414
32736,23435,30351
32540,23413,30424
32648,23376,30239
32756,23315,30215
32828,23297,30389
33168,23323,30356
33294,23358,30274
33108,23404,30374
32964,23445,30202
33029,23452,30196
33198,23444,30364
33233,23396,30249
33184,23351,30343
33156,23313,30182
33144,23317,30212
33076,23340,30324
32908,23345,30268
32620,23392,30370
32380,23435,30185
32238,23453,30360
32165,23440,30249
32364,23391,30276
32692,23354,30204
32956,23324,30355
33046,23295,30241
33076,23312,30337
33144,23348,30207
33135,23396,30373
32956,23445,30353
32828,23431,30309
32784,23416,30401
32856,23383,30248
32933,23344,30233
33068,23311,30348
33236,23284,30406
33184,23319,30228
33028,23347,30212
32996,23399,30400
33036,23436,30385
33028,23441,30380
32992,23410,30341
32952,23375,30436
32892,23326,30263
32896,23301,30280
32828,23287,30444
32892,23302,30436
32820,23341,30351
32912,23389,30336
32888,23409,30314
32856,23416,30481
32912,23404,30445
32960,23364,30387
32896,23314,30488
32960,23278,30505
32940,23280,30372
33060,23301,30536
33012,23346,30456
32776,23363,30581
32432,23404,30537
32484,23425,30420
32660,23401,30443
32764,23366,30604
32948,23318,30501
33008,23275,30565
32941,23270,30549
32956,23289,30471
32972,23336,30653
33028,23380,30557
32660,23401,30711
32384,23417,30589
32560,23396,30538
32876,23364,30556
32912,23325,30740
32668,23273,30708
32005,23261,30799
31008,23285,30598
30324,23313,30770
30448,23360,30763
30984,23397,30692
31576,23403,30828
32246,23388,30756
33216,23358,30847
34328,23316,30736
35354,23292,30727
36804,23255,30913
38876,23289,30848
40956,23333,30936
42692,23362,30902
43840,23409,30836
44884,23414,30992
45504,23417,30950
44736,23356,31036
42660,23301,30988
40520,23273,30934
38841,23276,31111
37240,23314,31103
35812,23300,31098
34820,23350,31141
34316,23395,31204
33956,23409,31228
33496,23370,31233
33280,23348,31234
32994,23293,31148
32828,23259,31370
32512,23249,31395
32164,23264,31396
31932,23301,31352
31724,23351,31536
31471,23376,31379
31240,23396,31565
30941,23373,31560
30680,23328,31623
30781,23290,31700
31056,23253,31679
31220,23246,31634
31136,23257,31573
30784,23295,31574
30744,23343,31789
30948,23373,31789
31321,23383,31824
31492,23364,31744
31585,23328,31708
31710,23280,31717
31812,23243,31832
31680,23240,31923
31536,23254,31821
31592,23287,31977
31592,23331,31894
31448,23370,31973
31316,23367,32037
31364,23358,32032
31516,23321,32000
31644,23284,31999
31912,23236,32136
32056,23243,32063
31993,23265,32152
31872,23276,32021
31812,23331,32111
31758,23366,32237
31784,23361,32285
31824,23344,32312
31752,23312,32255
31648,23279,32296
31665,23229,32381
31560,23230,32383
31424,23236,32280
31252,23276,32446
31056,23324,32352
31220,23359,32519
31398,23360,32359
31361,23341,32319
31398,23303,32520
31648,23260,32457
32008,23231,32484
31908,23230,32392
31380,23233,32516
30824,23273,32513
30578,23319,32388
30864,23354,32592
31380,23368,32502
32000,23330,32605
32309,23301,32408
32652,23261,32586
32612,23232,32640
32492,23189,32465
32292,23228,32596
32076,23264,32612
32108,23320,32424
32190,23333,32569
32220,23352,32501
32280,23332,32596
32412,23303,32397
32520,23239,32520
32684,23217,32489
32608,23204,32391
32461,23230,32502
32244,23261,32529
32100,23315,32332
31584,23332,32257
31304,23340,32407
31364,23332,32304
31448,23291,32429
31728,23257,32261
32212,23215,32193
32645,23213,32165
33000,23237,32317
32996,23253,32233
32912,23298,32280
32861,23340,32103
32984,23343,32045
33136,23324,32230
33268,23287,32201
33324,23256,32081
33384,23196,32194
33484,23197,32149
33552,23218,31954
33252,23263,31927
32834,23287,32039
32980,23328,31920
33344,23337,31996
33452,23328,32007
33544,23295,31836
33664,23225,31943
33678,23199,31909
33424,23199,31822
33228,23218,31747
33288,23255,31783
33336,23300,31854
33248,23343,31709
33296,23329,31604
33570,23303,31564
33804,23280,31708
33832,23240,31612
33888,23189,31626
33769,23191,31598
33429,23208,31450
33316,23258,31472
33488,23278,31568
33592,23329,31524
33468,23334,31471
33368,23325,31536
33396,23260,31452
33524,23215,31427
33572,23191,31290
33352,23194,31426
33326,23194,31296
33512,23235,31366
33476,23285,31198
33140,23340,31172
32852,23341,31147
32684,23292,31133
32532,23269,31268
32376,23225,31238
32252,23172,31111
32149,23181,31239
31996,23207,31037
31984,23227,30997
31988,23278,31097
31988,23303,31137
32124,23311,30927
32340,23282,31034
32170,23255,30983
31944,23212,30973
31440,23188,30924
31365,23164,30792
31568,23189,30920
31840,23220,30884
32025,23273,30716
32264,23317,30848
32357,23303,30817
32324,23291,30684
32348,23260,30727
32200,23193,30579
32092,23172,30720
32244,23180,30594
32405,23192,30570
32538,23229,30655
32532,23263,30620
32269,23303,30500
32140,23298,30488
32056,23283,30456
32161,23249,30584
32408,23190,30551
32732,23162,30516
32604,23156,30359
32504,23196,30325
32536,23234,30348
32388,23252,30480
32280,23293,30452
32292,23298,30356
32388,23289,30447
32536,23230,30447
32588,23188,30424
32608,23154,30325
32580,23160,30301
32500,23188,30308
32461,23205,30308
32400,23244,30308
32264,23284,30329
32189,23300,30340
32188,23268,30365
32236,23238,30532
32325,23201,30544
32400,23146,30556
32476,23147,30549
32548,23170,30493
32536,23205,30500
32512,23265,30664
32492,23299,30692
32460,23284,30644
32429,23269,30540
32508,23234,30556
32532,23174,30754
32620,23148,30716
32596,23159,30821
32605,23164,30750
32640,23204,30660
32636,23252,30855
32528,23290,30812
32424,23274,30918
32168,23255,30824
32169,23230,30748
32420,23198,30932
32672,23141,30844
32800,23142,30964
32865,23175,30904
32808,23194,30817
32694,23248,30992
32508,23282,30948
32520,23297,30934
32732,23253,31032
32940,23220,30897
33056,23190,31031
33057,23134,31024
32936,23137,30977
32808,23161,31111
32752,23205,30945
32773,23268,31137
32740,23268,31152
32772,23275,31148
32804,23253,31136
32872,23229,31224
32904,23164,31095
32936,23142,31305
32968,23132,31239
32924,23163,31384
32800,23212,31396
32688,23241,31504
32600,23273,31545
32548,23282,31548
32637,23260,31573
32732,23202,31735
32792,23164,31663
32792,23135,31692
32760,23140,31745
32780,23143,31991
32836,23195,32116
32816,23224,31986
32804,23271,32218
32797,23268,32327
32864,23233,32221
32942,23205,32431
32964,23175,32497
32944,23116,32477
32836,23120,32549
32780,23159,32705
32748,23188,32732
32708,23223,32869
32664,23252,32777
32680,23255,32978
32680,23245,33031
32724,23217,32999
32804,23137,33237
32868,23119,33102
32816,23128,33345
32820,23139,33301
32832,23175,33528
32869,23224,33532
32820,23237,33508
32712,23253,33712
32588,23224,33813
32540,23189,33889
32576,23134,33880
32576,23113,33996
32596,23117,33930
32604,23122,34254
32552,23173,34351
32537,23216,34404
32520,23241,34416
32508,23233,34404
32492,23205,34496
32508,23180,34848
32610,23136,34917
32664,23111,35124
32684,23108,35218
32648,23133,35224
32548,23174,35350
32436,23198,35421
32256,23232,35406
32220,23232,35789
32249,23212,35810
32340,23187,36022
32444,23117,36252
32576,23088,36359
32654,23095,36414
32685,23118,36500
32720,23169,36721
32692,23194,36887
32584,23217,37023
32568,23220,37177
32648,23209,37288
32615,23163,37439
32536,23124,37576
32425,23108,37885
32392,23078,37901
32436,23108,37866
32540,23146,38260
32684,23196,38429
32688,23209,38559
32684,23223,38631
32776,23204,38940
32776,23152,38928
32714,23110,39245
32544,23077,39405
32372,23093,39511
32304,23100,39431
32184,23132,39928
32076,23181,40010
31980,23212,40180
31982,23212,40528
32040,23190,40509
32096,23169,40400
32216,23098,40926
32350,23063,41094
32296,23069,41163
32278,23105,41404
32284,23135,41713
32256,23180,41744
32288,23207,41863
32268,23205,42020
32252,23185,41930
32341,23148,42434
32396,23108,42656
32424,23084,42828
32428,23064,42996
32284,23084,43148
32156,23134,43141
32064,23168,43382
31968,23196,43595
31974,23207,43791
31980,23185,43949
32036,23145,44100
32068,23096,44253
32056,23077,44377
32020,23073,44532
32040,23109,44681
31817,23121,44677
31498,23160,44692
31048,23204,45173
30684,23205,45284
30461,23184,45392
30384,23143,45468
30360,23088,45660
30356,23065,45753
30532,23066,45981
31192,23094,46164
32392,23143,46284
33952,23195,46404
35792,23203,46476
37868,23199,46644
39980,23184,46764
41688,23141,46892
43000,23101,47013
43820,23074,47226
43732,23111,47308
42209,23124,47408
39654,23160,47536
37504,23204,47688
36104,23221,47744
34940,23212,47901
33808,23204,47825
33040,23172,47925
32802,23120,48388
32704,23076,48536
32484,23076,48679
32176,23096,48808
31924,23140,48860
31672,23190,49016
31336,23221,49156
31072,23216,49296
30948,23199,49492
30892,23149,49592
30832,23110,49620
30824,23074,49885
30769,23092,50023
30688,23101,50137
30556,23140,50172
30458,23203,50345
30420,23221,50503
30348,23226,50508
30328,23184,50597
30341,23152,50597
30368,23108,50924
30444,23085,51089
30504,23086,51207
30604,23116,51272
30608,23149,51335
30616,23203,51452
30508,23215,51628
30405,23220,51740
30372,23197,51837
30484,23156,51912
30616,23115,51968
30728,23095,51896
30788,23092,51847
30676,23111,52380
30592,23141,52516
30688,23196,52639
30846,23218,52716
30898,23220,52783
30856,23197,52989
30852,23164,53060
30836,23108,52895
30880,23080,53084
30952,23081,53098
30974,23104,53551
30916,23148,53692
30936,23200,53668
30920,23232,53888
30956,23219,53972
31034,23199,53621
31200,23157,54196
31308,23123,54308
31328,23088,54364
31286,23098,54509
31241,23108,54536
31136,23151,54244
31049,23201,54798
31080,23229,54764
31192,23212,54949
31292,23196,54724
31389,23168,55111
31480,23129,55108
31600,23077,55236
31752,23087,55248
31748,23109,55452
31696,23149,55484
31636,23204,55486
31668,23229,55469
31764,23232,55653
31768,23193,55740
31780,23159,55764
31884,23113,55900
32005,23092,55972
32096,23100,55956
32032,23108,55588
32008,23160,56148
31973,23211,56103
31948,23220,56271
32028,23224,56246
32120,23207,56008
32208,23175,56404
32208,23118,56509
32264,23082,56481
32376,23094,56607
32452,23124,56672
32496,23151,56612
32549,23209,56751
32548,23233,56828
32560,23239,56800
32653,23193,56967
32728,23170,57036
32944,23124,57095
33088,23097,57152
33188,23100,57207
33224,23132,57196
33244,23176,57208
33038,23199,57240
32908,23228,57016
32992,23229,57141
33233,23205,57525
33640,23166,57468
33872,23120,57182
33984,23105,57614
33920,23087,57703
33948,23129,57692
34054,23162,57788
34080,23212,57788
34012,23252,57863
34180,23227,57508
34320,23204,57948
34312,23181,57892
34268,23134,57920
34228,23108,57991
34256,23115,57975
34288,23145,58004
34296,23158,58052
34264,23204,58052
34280,23232,58212
34264,23247,58180
34338,23200,58012
34340,23172,58284
34288,23134,58244
34204,23070,58342
34120,23113,58247
33997,23140,58260
33868,23161,58375
33736,23200,58316
33588,23244,58261
33408,23245,58389
33261,23216,58420
33080,23160,58413
33000,23128,58356
32949,23102,58436
32908,23098,58343
32848,23120,58284
32780,23170,57959
32620,23215,58453
32460,23247,58484
32440,23226,58444
32440,23194,58375
32404,23173,58527
32356,23134,58448
32416,23108,58414
32420,23096,58372
32288,23129,58514
32064,23168,58541
31760,23214,58567
31700,23248,58471
31692,23229,58593
31764,23204,58519
31840,23181,58468
31936,23111,58593
32028,23094,58613
32068,23096,58516
32072,23139,58645
32012,23177,58656
31936,23205,58612
31892,23240,58373
31980,23241,58672
31996,23215,58708
32088,23174,58662
32186,23117,58757
32266,23085,58772
32297,23098,58780
32276,23136,58740
32232,23162,58759
32121,23220,58825
32044,23245,58814
32032,23242,58841
32085,23223,58812
32142,23165,58887
32210,23120,58880
32256,23089,58948
32352,23102,58909
32380,23133,58948
32348,23175,58969
32260,23226,58969
32160,23236,58729
32224,23237,58592
32264,23205,58712
32334,23172,59084
32424,23138,59184
32504,23092,59167
32357,23097,59159
32260,23135,59172
32256,23167,59214
32296,23226,59348
32288,23236,59271
32352,23239,59325
32409,23210,59399
32438,23180,59329
32424,23140,59460
32420,23085,59421
32412,23113,59300
32416,23137,59436
32368,23184,59527
32364,23217,59479
32448,23239,59583
32485,23239,59574
32548,23205,59524
32628,23183,59380
32692,23124,59520
32752,23101,59576
32812,23114,59519
32716,23126,59252
32700,23166,59093
32672,23213,59616
32508,23240,59564
32365,23239,59604
32420,23210,59685
32552,23173,59577
32740,23140,59716
32764,23090,59672
32633,23104,59549
32556,23136,59711
32588,23185,59740
32608,23220,59716
32520,23244,59757
32504,23236,59743
32568,23227,59525
32652,23171,59852
32592,23116,59911
32620,23108,59840
32704,23109,59909
32800,23144,60020
32668,23167,59945
32540,23220,59608
32572,23240,60016
32640,23244,60156
32732,23220,60150
32750,23165,60272
32812,23121,60238
32846,23106,60261
32824,23119,59933
32784,23126,60445
32760,23163,60496
32704,23212,60423
32636,23239,60592
32592,23246,60664
32644,23200,60596
32757,23156,60188
32836,23119,60758
32877,23106,60844
32936,23116,60868
32944,23122,60908
32968,23164,60935
32908,23213,60985
32840,23241,61072
32864,23239,61152
32932,23200,61191
33016,23161,61236
33121,23129,61288
33080,23113,61364
32840,23099,61316
32668,23135,61469
32676,23175,61447
32692,23215,61545
32596,23242,61556
32520,23229,61597
32412,23204,61716
32472,23167,61773
32540,23128,61804
32525,23109,61815
32592,23113,61856
32692,23148,61860
32736,23184,61632
32828,23231,61788
32876,23229,61644
33005,23223,61824
33024,23198,61944
33084,23156,62037
33153,23110,62076
33161,23091,62061
33096,23096,61916
33048,23127,62008
33056,23165,62144
32988,23213,62124
32984,23236,61990
33064,23234,61884
33062,23204,62392
33077,23144,62471
33100,23100,62471
33204,23073,62447
33236,23101,62471
33216,23122,62496
33148,23167,62452
33020,23221,62535
32928,23223,62583
32946,23222,62508
33156,23193,62496
33228,23156,62485
33240,23108,62505
33328,23096,62471
33348,23109,62252
33325,23142,62020
33222,23161,62164
33080,23201,62300
32988,23220,62364
32992,23208,62462
33156,23192,62063
33284,23149,62517
33388,23108,62036
33368,23088,62471
33244,23103,62500
33168,23135,62406
33108,23176,62462
32988,23197,62298
32984,23223,62455
33016,23220,62471
33052,23188,62516
33188,23163,62525
33252,23116,62524
33208,23072,62429
33092,23082,62420
32992,23111,62384
32728,23151,62360
32272,23199,62372
31872,23218,62444
31620,23216,62423
31384,23182,62406
31213,23152,62331
31396,23092,62148
31772,23074,62316
32216,23095,62212
33244,23106,62196
34644,23148,62272
36208,23194,62224
38120,23233,62188
40392,23223,62132
42468,23209,62052
44148,23180,61950
45376,23096,61996
46192,23074,62060
46372,23089,61996
45008,23114,61988
42456,23177,61992
40144,23228,61884
38376,23245,61952
36724,23205,61940
35348,23177,61900
34484,23137,61884
34120,23093,61857
33772,23073,61809
33376,23082,61790
32996,23111,61784
32628,23157,61684
32252,23195,61575
31916,23208,61248
31813,23208,61629
31620,23184,61600
31428,23137,61556
31308,23089,61516
31284,23074,61415
31204,23077,61356
31060,23112,61360
30972,23152,61381
30944,23200,61317
31041,23217,61272
31100,23198,61268
31104,23172,61133
31188,23128,61112
31284,23086,61167
31372,23063,61100
31384,23068,60935
31356,23097,61000
31312,23140,60984
31292,23192,60935
31240,23204,60814
31133,23199,60712
31024,23170,60167
31048,23132,60768
31156,23077,60716
31238,23054,60620
31301,23068,60616
31276,23101,60476
31276,23151,60565
31296,23192,60600
31288,23193,60485
31312,23190,60584
31364,23161,60478
31456,23129,60392
31534,23081,60389
31628,23061,60476
31652,23076,60423
31657,23107,60321
31633,23125,60372
31552,23175,60268
31512,23197,59974
31480,23187,60292
31513,23173,60240
31548,23111,60292
31628,23067,60148
31680,23044,60060
31688,23064,60060
31600,23092,60113
31544,23137,60020
31548,23172,60079
31544,23198,59988
31593,23182,59897
31640,23158,59457
31644,23109,59877
31624,23054,59808
31564,23045,59822
31456,23054,59700
31332,23087,59580
31237,23137,59248
31256,23163,59608
31400,23196,59476
31428,23173,59503
31496,23148,59358
31632,23097,58917
31861,23058,59305
31993,23045,59262
32012,23040,59140
31960,23085,59152
31816,23122,59124
31816,23175,58949
31824,23193,58806
31696,23164,58911
31648,23141,58773
31752,23090,58716
31820,23040,58544
31844,23034,58620
31890,23052,58568
31944,23081,58470
32056,23108,58375
32140,23157,58332
32204,23177,57948
32200,23166,58244
32156,23133,58151
32236,23093,58105
32476,23059,58066
32574,23023,57980
32636,23024,57991
32764,23071,57860
32840,23113,57760
32816,23152,57668
32830,23173,57569
32950,23160,57176
33048,23130,57588
33168,23094,57560
33256,23047,57468
33294,23030,57388
33284,23040,57284
33256,23075,57200
33328,23093,57223
33372,23140,57061
33384,23159,57057
33416,23161,57061
33469,23129,56948
33581,23089,56876
33744,23053,56748
33892,23006,56692
33956,23023,56720
33952,23058,56628
33928,23085,56583
33864,23130,56528
33852,23149,56452
33816,23136,56384
33880,23103,56208
33900,23065,56264
33924,23021,56153
33868,23012,56028
33768,23019,55972
33716,23047,55668
33468,23092,55940
33292,23140,55778
33168,23153,55734
33038,23151,55781
32716,23090,55644
32464,23058,55276
32364,23015,55559
32248,22989,55532
32236,23005,55472
32208,23047,55421
32204,23079,55356
32124,23137,55303
32064,23132,55213
32104,23120,54745
32096,23101,55180
32176,23063,55028
32116,23020,54976
32190,22983,55012
32164,22996,55000
32100,23032,54855
32108,23064,54788
32084,23124,54413
32064,23119,54796
31988,23110,54645
31972,23081,54708
32048,23039,54548
32080,23008,54576
32068,22972,54473
32108,22989,54525
32232,23019,54279
32324,23065,54423
32220,23076,54356
32206,23110,54260
32248,23104,54260
32340,23076,54061
32384,23041,54151
32344,22975,54108
32396,22955,54015
32334,22981,53967
32304,22997,53917
32292,23039,53919
32256,23073,53904
32216,23098,53729
32192,23084,53807
32186,23053,53759
32184,23024,53636
32305,22959,53717
32400,22940,53677
32356,22953,53127
32268,22989,53501
32241,23008,53535
32328,23064,53048
32232,23087,53484
32092,23079,53479
32144,23025,53302
32252,22996,53415
32388,22957,53372
32388,22926,53255
32352,22940,52852
32288,22965,53312
32332,23012,53200
32340,23059,53135
32372,23050,53223
32388,23045,53068
32428,23020,53172
32504,22972,53081
32513,22932,53109
32584,22917,52969
32576,22929,53076
32544,22944,53017
32538,22989,52916
32548,23041,52984
32584,23063,52924
32544,23033,52948
32524,22996,52852
32528,22961,52644
32580,22925,52884
32548,22893,52860
32516,22906,52724
32496,22946,52816
32528,22977,52743
32500,23030,52559
32420,23047,52663
32314,23015,52716
32408,22985,52592
32624,22944,52660
32798,22910,52583
32864,22879,52577
32844,22900,52557
32701,22930,52571
32608,22986,52480
32544,23011,52453
32560,23024,52501
32581,23024,52381
32616,22975,52462
32608,22940,52359
32661,22911,52350
32720,22871,52396
32713,22885,51917
32780,22935,52300
32876,22950,52343
32776,22996,52213
32728,23027,52300
32728,22991,52184
32720,22968,52220
32712,22935,52119
32768,22894,52181
32792,22880,52196
32760,22871,52191
32705,22910,52119
32600,22958,52103
32492,22980,51812
32516,23004,52077
32618,23003,51956
32648,22949,52052
32708,22917,51912
32788,22885,51940
32834,22850,51975
32908,22868,51847
32909,22903,51845
32820,22944,51847
32688,22995,51865
32640,23007,51855
32560,22971,51776
32534,22949,51580
32644,22904,51732
32716,22880,51726
32856,22836,51616
32876,22858,51716
32812,22898,51512
32688,22924,51660
32564,22964,51543
32492,22984,51601
32548,22979,51508
32516,22948,51273
32564,22896,51496
32696,22865,51517
32880,22824,51228
32992,22845,51460
33040,22887,51425
32973,22934,51436
32816,22956,51180
32752,22980,51380
32684,22965,51373
32764,22944,51296
32881,22880,51333
32960,22844,51263
33044,22836,51316
33040,22851,51207
33068,22892,51271
33004,22901,51298
32948,22951,51197
32840,22969,50911
32736,22962,51256
32740,22909,51196
32768,22871,51161
32808,22835,51228
32908,22826,51237
32908,22820,51087
32857,22869,51228
32764,22896,51236
32776,22937,51102
32824,22961,50781
32800,22925,51253
32900,22909,51133
33029,22876,51200
33138,22812,50908
33164,22804,51207
33028,22836,51204
32912,22842,51064
32860,22897,51181
32848,22918,51231
32780,22948,51084
32756,22943,51207
32848,22884,51127
32924,22852,51223
32809,22824,51000
32720,22792,51207
32728,22812,51176
32876,22832,51076
32944,22889,51198
32942,22929,51192
32968,22955,51108
33108,22916,51172
33100,22889,51116
32980,22855,51015
32808,22825,50857
32549,22783,51132
32124,22813,51092
31620,22829,51013
31220,22880,51119
30988,22918,51105
30920,22927,51008
31260,22911,51018
31788,22886,51045
32840,22827,51036
34332,22801,50872
36028,22789,51020
37920,22816,50892
40221,22830,50944
42364,22882,50637
44056,22946,50920
45192,22974,50900
46160,22991,50902
46740,22874,50798
45812,22844,50868
43480,22814,50828
41069,22789,50808
39076,22828,50765
37156,22876,50636
35568,22865,50676
34520,22900,50468
33976,22916,50717
33536,22912,50633
33200,22877,50565
32916,22813,50661
32680,22776,50564
32432,22770,50268
32156,22788,50596
31836,22829,50572
31484,22875,50508
31312,22909,50471
31184,22907,50376
31048,22885,50468
31016,22855,50388
31096,22821,50327
31162,22769,50365
31184,22759,50336
31200,22783,50269
31173,22809,50157
31140,22864,50213
31052,22889,50170
30928,22895,50129
31018,22878,50095
31100,22855,50004
31104,22813,49927
31141,22774,49815
31260,22771,49880
31317,22768,49859
31312,22800,49853
31328,22854,49801
31320,22884,49645
31336,22911,49728
31366,22868,49366
31252,22843,49657
31332,22812,49543
31468,22773,49513
31468,22742,49509
31388,22772,49396
31316,22800,49041
31308,22857,49415
31293,22868,49286
31292,22887,49347
31364,22867,49287
31524,22846,49092
31550,22786,49216
31576,22757,49104
31516,22753,49092
31536,22755,49032
31536,22789,49049
31456,22830,48957
31380,22872,48936
31268,22884,48818
31260,22871,48751
31328,22836,48766
31380,22798,48772
31540,22736,48717
31604,22728,48671
31620,22745,48482
31596,22791,48292
31557,22836,48528
31456,22885,48456
31460,22862,48333
31464,22856,48372
31604,22818,48326
31704,22783,48199
31856,22749,48037
32012,22739,48028
32136,22758,47889
32112,22776,48048
31996,22820,48024
31880,22871,47916
31760,22867,47872
31796,22857,47869
31748,22824,47776
31828,22784,47652
31900,22725,47484
31964,22717,47268
31968,22736,47623
31892,22775,47524
31878,22813,47396
31965,22864,47367
32004,22883,47367
31992,22840,47257
32137,22809,47288
32188,22769,47212
32240,22734,47140
32277,22729,47025
32284,22742,46964
32312,22772,46941
32352,22828,46926
32416,22843,46791
32504,22855,46692
32576,22840,46805
32664,22804,46748
32836,22772,46711
33036,22727,46636
33116,22715,46580
33056,22729,46439
32993,22772,46440
32924,22820,46404
32976,22842,46140
33132,22852,46321
33216,22840,46207
33260,22810,46180
33444,22748,46012
33612,22713,45749
33668,22708,45988
33592,22725,45863
33497,22769,45865
33512,22823,45809
33560,22833,45717
33492,22848,45452
33504,22832,45676
33616,22802,45604
33700,22759,45526
33720,22728,45440
33820,22698,45297
33776,22718,45284
33728,22756,45244
33608,22796,45185
33512,22847,45140
33452,22849,45088
33372,22805,45036
33328,22779,44965
33392,22736,44871
33388,22702,44840
33272,22690,44788
33186,22719,44692
33080,22756,44505
32972,22807,44316
32852,22844,44550
32724,22824,44527
32612,22804,44472
32596,22774,44393
32620,22732,44252
32669,22712,44266
32664,22681,44125
32620,22700,44009
32564,22740,43758
32488,22797,44061
32413,22816,43839
32432,22829,43916
32420,22822,43748
32300,22759,43508
32200,22727,43392
32176,22695,43344
32292,22684,43391
32308,22698,43231
32228,22740,43505
32244,22791,43478
32225,22807,43439
32273,22817,43287
32372,22802,43172
32388,22763,43237
32452,22729,43211
32498,22692,43130
32524,22664,42956
32469,22685,42684
32304,22724,43015
32164,22779,42945
32100,22795,42764
32112,22800,42906
32196,22796,42695
32300,22765,42749
32369,22727,42729
32476,22668,42647
32536,22663,42492
32503,22685,42573
32453,22732,42585
32396,22754,42405
32380,22789,42292
32376,22797,42076
32432,22791,42405
32508,22757,42345
32508,22697,42285
32520,22664,42166
32552,22661,42247
32528,22695,42297
32464,22704,42188
32384,22762,41922
32364,22809,41724
32388,22791,42091
32448,22778,42021
32528,22740,42032
32560,22710,42012
32628,22663,41876
32640,22646,41894
32670,22663,41807
32660,22712,41780
32600,22756,41916
32565,22795,41959
32556,22804,41924
32544,22760,41948
32592,22721,41897
32620,22681,41903
32737,22663,41800
32805,22647,41868
32820,22673,41756
32784,22721,41607
32769,22738,41380
32740,22767,41352
32736,22780,41316
32856,22763,41573
32998,22732,41176
33172,22688,41280
33156,22658,41420
33054,22657,41400
33020,22670,41407
32892,22708,41420
32617,22750,41437
32572,22788,41516
32560,22792,41509
32654,22765,41391
32784,22735,41192
32876,22692,41172
32864,22646,41197
32732,22645,41223
32669,22659,41212
32620,22694,41168
32584,22742,41063
32500,22775,41068
32564,22783,41012
32773,22767,40956
32996,22703,41121
33136,22663,41121
33188,22627,41083
33208,22625,41028
33084,22645,41032
32920,22673,41058
32834,22723,41026
32832,22756,40997
32953,22773,40932
32978,22742,40908
32936,22716,40636
33024,22679,40967
33140,22623,40900
33196,22613,40817
33184,22637,41068
33100,22670,40976
32997,22716,40927
32852,22762,40967
32832,22776,40909
32904,22756,41109
33060,22695,40933
33160,22655,41028
33272,22629,40956
33384,22612,41103
33440,22641,41091
33428,22671,40967
33368,22722,41192
33208,22748,41164
32916,22754,41106
32660,22732,41188
32538,22698,41168
32524,22650,41392
32676,22615,40895
32788,22613,41261
32796,22641,41237
32752,22677,41516
32708,22738,41332
32757,22737,41309
32800,22774,41348
32788,22718,41132
32852,22687,41525
33036,22644,41561
33232,22618,41564
33212,22619,41776
33096,22653,41718
32985,22681,41828
32908,22696,41887
32736,22738,41908
32524,22745,41880
32384,22724,41796
32340,22693,41825
32372,22655,41775
32565,22606,41824
32736,22607,41837
32864,22628,41981
32980,22674,42054
33092,22700,42039
33176,22737,42068
33144,22745,42028
33108,22729,42132
33076,22681,42204
33096,22639,42197
33152,22612,42241
33176,22608,41904
33144,22628,42261
33189,22654,42335
33129,22709,42312
33132,22740,42348
33072,22736,42339
33020,22719,42380
33016,22685,42028
33060,22639,42375
33104,22615,42400
33104,22596,42149
33064,22621,42149
32952,22655,42246
32836,22703,42160
32804,22736,42166
32813,22732,42308
32925,22719,42215
33068,22690,42140
33117,22625,42556
33140,22589,42544
33189,22588,42389
33120,22616,42599
33068,22663,42213
32928,22687,42568
32928,22724,42412
32896,22731,42428
32868,22707,42424
32896,22666,42566
32972,22626,42546
33056,22590,42453
33141,22597,42503
33080,22614,42684
32996,22653,42629
32972,22698,42573
32884,22735,42244
32844,22713,42641
32885,22696,42465
32820,22666,42567
32848,22630,42565
32936,22596,42676
33014,22585,42647
32996,22604,42618
32773,22636,42668
32444,22681,42689
32064,22716,42716
31700,22723,42598
31418,22708,42524
31224,22654,42503
31076,22579,42586
31416,22593,42665
32108,22569,42517
33216,22592,42454
34624,22628,42260
36188,22679,42623
38044,22727,42652
40316,22753,42574
42400,22685,42468
44012,22644,42492
45116,22630,42637
46052,22609,42687
46492,22573,42318
45288,22625,42631
42704,22660,42519
40305,22736,42697
38308,22714,42340
36464,22724,42631
35112,22703,42594
34368,22618,42503
34016,22589,42703
33724,22570,42476
33324,22580,42629
32896,22584,42613
32368,22629,42471
31892,22671,42692
31428,22713,42469
31172,22713,42457
31109,22669,42200
30988,22631,42545
30913,22593,42576
30900,22569,42460
30952,22567,42391
31032,22591,42373
31004,22620,42592
30908,22674,42473
30884,22702,42207
30900,22693,42455
30952,22663,42393
31009,22629,42428
31052,22596,42373
31080,22561,42255
31036,22558,42239
31008,22578,42180
31004,22624,42330
30960,22657,42212
30940,22689,41916
31000,22693,42188
31072,22665,42197
31064,22637,42129
31048,22578,42255
31084,22552,42177
31092,22544,41991
31096,22582,41692
31004,22610,41653
30968,22652,41989
30968,22692,42001
31044,22681,42102
31180,22662,41957
31280,22628,41812
31412,22592,41885
31528,22541,41857
31598,22548,41831
31584,22573,41949
31504,22619,41707
31332,22642,41760
31281,22677,41709
31321,22683,41753
31341,22663,41800
31260,22607,41517
31252,22573,41660
31200,22547,41508
31188,22536,41605
31188,22565,41649
31196,22612,41602
31281,22636,41440
31340,22668,41479
31354,22670,41375
31364,22639,41520
31440,22611,41276
31616,22572,41407
31716,22529,41261
31748,22535,41327
31728,22567,40902
31604,22582,41223
31424,22641,41359
31396,22678,40813
31412,22665,41117
31364,22640,41082
31372,22611,41239
31465,22548,40998
31620,22533,41049
31749,22529,40996
31828,22566,40924
31845,22580,40833
31941,22632,40988
32008,22658,41007
31944,22668,40863
31868,22652,40767
31896,22597,40813
31966,22558,40743
32132,22531,40736
32212,22540,40730
32268,22535,40631
32316,22580,40640
32300,22636,40615
32192,22663,40696
32028,22653,40577
31964,22626,40212
32168,22593,40508
32392,22548,40485
32548,22535,40390
32692,22510,40526
32668,22528,40391
32696,22577,40366
32624,22622,40509
32560,22663,40377
32644,22668,40252
32776,22620,40286
32961,22581,40285
33125,22535,40268
33212,22500,40244
33220,22520,40181
33264,22533,40132
33304,22573,40095
33208,22627,39983
33189,22660,40162
33236,22634,40192
33312,22612,40088
33400,22573,40100
33460,22532,40071
33568,22503,39983
33616,22510,39935
33600,22544,39609
33528,22565,39882
33431,22624,39968
33326,22633,39514
33289,22643,39822
33349,22629,39943
33400,22573,39820
33500,22528,39706
33608,22499,39404
33624,22513,39724
33544,22521,39700
33444,22561,39760
33232,22613,39632
32984,22645,39549
32940,22620,39603
32972,22609,39495
33080,22580,39676
33072,22535,39567
33060,22481,39447
33014,22492,39348
32808,22518,39476
32656,22569,39452
32544,22591,39385
32432,22613,39318
32300,22621,39428
32152,22601,39462
32104,22565,39425
32225,22504,39420
32360,22471,39383
32488,22478,39292
32492,22503,39092
32404,22541,38873
32280,22599,38951
32132,22631,39136
32048,22607,38985
32164,22585,39200
32340,22559,38985
32506,22479,38752
32609,22464,39013
32612,22469,38988
32492,22498,38854
32364,22548,38990
32288,22575,38836
32192,22600,38898
32265,22610,38764
32404,22572,38933
32516,22532,38858
32480,22492,38775
32424,22468,38756
32456,22476,38760
32520,22482,38594
32452,22532,38807
32440,22583,38613
32400,22612,38681
32424,22591,38543
32448,22576,38741
32448,22537,38528
32616,22506,38278
32788,22452,38578
32789,22458,38407
32588,22500,38628
32480,22512,38214
32484,22569,38441
32424,22587,38488
32372,22585,38384
32410,22560,38097
32489,22532,38349
32428,22476,38358
32376,22455,38293
32376,22461,38304
32370,22470,38252
32256,22521,38245
32152,22554,38369
32228,22594,38176
32496,22571,38217
32792,22560,38052
32936,22511,38214
32928,22469,38057
32928,22442,38115
32832,22456,38110
32706,22469,38018
32628,22516,38165
32584,22544,37941
32549,22575,38016
32560,22593,37946
32610,22535,37812
32700,22504,37965
32784,22464,37856
32848,22429,37575
32760,22447,37853
32756,22469,37691
32733,22510,37791
32788,22535,37814
32832,22567,37815
32868,22569,37636
32884,22548,37404
32848,22488,37669
32812,22450,37508
32740,22443,37703
32700,22398,37621
32752,22457,37284
32788,22496,37552
32748,22533,37413
32624,22563,37602
32624,22561,37480
32660,22541,37380
32704,22487,37138
32800,22439,37417
32725,22412,37407
32604,22420,37382
32524,22460,37218
32552,22479,37348
32600,22527,37410
32604,22556,37334
32553,22556,37212
32617,22532,37164
32716,22500,37148
32856,22429,37018
33068,22406,36903
33132,22422,37166
33032,22457,37092
32840,22473,37245
32772,22522,37162
32784,22549,37009
32912,22560,37064
32948,22502,37036
32992,22471,37023
33032,22437,37132
33125,22389,37079
33064,22405,36708
32952,22427,36844
32908,22476,36967
32832,22526,36652
32812,22533,36881
32828,22535,36908
32970,22501,36937
33065,22485,36666
33008,22415,36863
33080,22392,36732
33024,22397,36900
33028,22429,36743
32960,22471,36810
32672,22497,36777
32564,22535,36852
32568,22529,36869
32660,22512,36703
32816,22424,36684
32908,22405,36497
33048,22394,36785
33072,22402,36730
33016,22411,36766
32865,22449,36844
32654,22497,36748
32504,22528,36686
32372,22532,36516
32352,22477,36765
32440,22444,36764
32648,22407,36752
32868,22397,36780
33024,22374,36790
33028,22411,36692
32997,22448,36798
32976,22500,36828
32997,22530,36820
33016,22495,36815
33044,22477,36954
32949,22442,36942
32928,22399,36924
32840,22388,36832
32728,22368,36850
32657,22396,36836
32716,22439,36664
32869,22488,36961
32972,22518,36958
33172,22492,37023
33312,22475,36983
33376,22452,36732
33308,22377,37017
33176,22368,37137
33024,22365,37013
32864,22396,36820
32812,22446,37065
32752,22468,36980
32732,22500,37068
32872,22495,37064
33072,22468,37100
33245,22423,37165
33340,22386,37260
33384,22375,37196
33376,22351,37164
33296,22393,37108
33141,22442,36918
33032,22461,37200
32828,22495,37141
32832,22471,37235
32908,22448,36964
32948,22410,37244
33048,22374,37113
33080,22359,37120
33062,22373,37140
32878,22375,37279
32677,22407,37196
32588,22463,37348
32676,22482,37336
32832,22484,37190
33001,22436,36964
33125,22409,37264
33096,22378,37204
33058,22329,37189
33088,22333,37349
33092,22381,37274
32988,22412,37168
32756,22473,37236
32376,22471,37221
31968,22470,37295
31644,22455,37183
31396,22392,36973
31212,22352,37185
31236,22324,37308
31385,22342,37117
31936,22376,36965
33316,22392,36944
35112,22433,37164
37120,22462,37183
39376,22470,37159
41445,22440,37100
43312,22433,37120
44696,22340,37206
45756,22326,37036
46416,22340,36820
45724,22394,37094
43436,22468,37044
40872,22437,36984
38884,22452,37072
37092,22468,37124
35536,22433,36993
34732,22407,36943
34388,22332,37029
34092,22313,36895
33769,22326,37017
33312,22338,37060
32756,22378,37024
32336,22424,36929
31988,22459,36724
31584,22429,36941
31300,22412,36924
31072,22375,36857
30820,22333,36813
30696,22293,36977
30820,22313,36856
30724,22340,36839
30692,22364,36796
30829,22412,36743
31108,22444,36831
31492,22423,36652
31668,22402,36748
31680,22377,36624
31660,22307,36692
31588,22293,36718
31340,22300,36644
31194,22340,36468
31160,22365,36608
30956,22420,36466
31085,22421,36629
31460,22417,36286
31852,22377,36487
32021,22360,36605
32128,22312,36533
32164,22273,36340
32040,22295,36468
31956,22325,36460
31848,22366,36315
31748,22398,36505
31692,22425,36306
31784,22401,36393
31880,22375,36364
31872,22341,36313
31828,22299,36199
31796,22284,36241
31838,22300,36387
31764,22301,36341
31648,22350,36164
31716,22403,36228
31685,22413,36056
31504,22397,36261
31384,22377,36196
31496,22338,36048
31604,22287,35830
31492,22274,36064
31405,22278,36004
31416,22303,35929
31462,22342,36041
31240,22397,35844
31140,22400,35910
31144,22389,35837
31133,22368,35943
31320,22332,35735
31400,22279,35793
31544,22269,35629
31782,22279,35693
32092,22293,35695
32224,22338,35564
31920,22398,35692
31745,22389,35582
31680,22394,35476
31908,22361,35268
32188,22340,35492
32348,22279,35424
32328,22266,35449
32236,22257,35143
32224,22290,35374
32208,22323,35241
32076,22381,35388
31972,22406,35181
31885,22372,35012
31906,22347,35228
32004,22325,35056
31877,22265,35206
31764,22251,35199
31852,22266,35095
32088,22274,34980
32472,22316,34967
32798,22376,35060
32924,22369,34996
33004,22370,35097
32760,22362,34752
32192,22298,34948
31957,22260,34941
32252,22252,35024
