ECG,EDA,RR
32208,59887,35957
32208,59932,35936
32204,59892,35940
32208,59952,35972
32128,59980,35972
32129,59973,35926
32184,59966,35959
32140,59943,35945
32168,59953,35876
32148,59929,35815
32210,59868,35740
32264,59965,35778
32204,59999,35724
32156,59980,35887
32140,60032,35861
32128,60015,35968
32132,59988,35953
32133,59886,35940
32188,60007,35933
32252,59980,35948
32272,59980,35952
32308,59892,35950
32296,60055,35959
32208,60032,35973
32160,60021,35980
32192,60085,35980
32256,60039,35961
32268,59964,35957
32256,60060,35968
32213,59992,35996
32192,60000,36044
32184,60068,35820
32224,60103,35821
32176,60100,35881
32216,60105,35876
32284,60121,35775
32248,60108,35912
32084,60101,36031
32044,60013,35900
32170,60085,35845
32236,60012,35980
32328,60113,36009
32352,60140,36014
32310,60136,36012
32344,60167,36017
32404,60167,36024
32444,60161,36009
32464,60039,36093
32508,60151,35966
32500,60128,35774
32540,60060,35904
32552,60167,35949
32616,60175,35990
32704,60205,36013
32716,60236,36009
32708,60228,35998
32644,60219,35865
32628,60196,35952
32600,60204,35990
32672,60084,35983
32728,60167,36058
32708,60225,36022
32700,60248,35765
32688,60108,35837
32680,60277,35748
32764,60231,35876
32660,60255,35879
32616,60230,35880
32768,60256,35885
32732,60180,35905
32668,60135,35916
32777,60260,35832
32840,60268,35724
32825,60319,35916
32808,60340,35892
32868,60271,35823
32888,60312,35764
32812,60284,35792
32751,60295,35776
32648,60289,35739
32560,60295,35753
32500,60220,35876
32381,60332,35877
32361,60332,35801
32288,60352,35812
32248,60342,35812
32168,60359,35799
32152,60230,35769
32166,60340,35718
32168,60316,35525
32140,60319,35684
32220,60354,35785
32244,60379,35713
32204,60332,35720
32208,60405,35712
32224,60420,35714
32200,60295,35685
32252,60294,35653
32300,60380,35541
32304,60353,35412
32336,60361,35591
32424,60404,35564
32544,60423,35636
32671,60412,35668
32836,60352,35609
33044,60445,35628
33140,60423,35621
32916,60407,35612
32609,60423,35575
32420,60295,35591
32308,60333,35486
32348,60337,35468
32736,60460,35600
33765,60452,35660
34781,60500,35640
35652,60516,35555
37004,60396,35564
38976,60473,35560
40984,60484,35540
42464,60480,35545
42896,60460,35504
43080,60524,35504
43008,60539,35476
43352,60540,35404
42336,60583,35500
39748,60516,35656
34368,60588,35640
24514,60445,35677
18512,60540,35663
17060,60512,35672
18304,60484,35677
20329,60548,35685
22116,60484,35694
23605,60441,35708
25044,60584,35716
26477,60588,35736
27764,60513,35784
28832,60551,35736
29596,60572,35722
30224,60511,35716
30752,60455,35719
31256,60583,35744
31784,60597,35751
32164,60597,35759
32556,60615,35764
32925,60641,35772
33120,60600,35766
33180,60592,35765
33256,60611,35776
33301,60525,35821
33304,60572,35591
33368,60605,35528
33448,60640,35600
33524,60661,35580
33600,60575,35576
33664,60679,35600
33694,60647,35620
33714,60552,35693
33698,60655,35845
33756,60632,35930
33796,60551,35864
33824,60665,35904
33829,60673,35951
33836,60673,35964
33852,60692,35898
33888,60729,35948
33832,60708,35976
33824,60684,35989
33896,60678,35927
33928,60588,35908
33916,60664,35911
33908,60720,36044
33968,60743,36046
34004,60632,36081
34052,60758,36079
34112,60768,36080
34092,60697,36076
34120,60701,36069
34173,60727,36076
34232,60724,36053
34172,60732,36044
34156,60762,35985
34200,60708,35909
34316,60775,35961
34369,60792,35942
34396,60807,35921
34340,60781,35784
34404,60758,35751
34464,60775,35970
34520,60768,35951
34528,60679,35877
34505,60807,35901
34740,60807,35821
34744,60829,35777
34824,60806,35753
34892,60845,35740
34968,60828,35790
35004,60823,35770
35080,60767,35679
35220,60716,35681
35296,60727,35657
35360,60841,35622
35508,60850,35612
35620,60850,35605
35692,60911,35538
35773,60836,35492
35864,60788,35495
35940,60863,35528
36049,60869,35514
36216,60856,35494
36296,60784,35489
36401,60902,35400
36484,60912,35313
36532,60901,35285
36580,60965,35285
36664,60948,35249
36688,60853,35208
36704,60910,35296
36632,60911,35264
36572,60900,35199
36500,60904,35173
36380,60935,35173
36300,60983,35038
36184,60900,34997
36084,61006,35125
35956,60999,35173
35872,60983,35215
35756,60893,35208
35656,60965,35125
35604,60950,34991
35456,60973,35116
35294,60909,35122
35108,61013,35046
34916,61032,35036
34760,61039,35000
34580,61041,34946
34440,61012,34935
34200,61000,34908
34012,61012,34878
33821,60935,34860
33612,61017,34862
33412,61029,34830
33200,61036,34815
33018,61063,34791
32868,61076,34781
32684,61072,34740
32508,61052,34735
32444,61039,34672
32284,60999,34705
32192,61028,34679
32060,61028,34628
31940,60959,34576
31897,61093,34566
31736,61080,34455
31700,61086,34289
31652,61052,34401
31552,61081,34470
31448,61053,34407
31296,61092,34356
31288,60935,34342
31360,61052,34269
31296,61103,34265
31281,61111,34253
31216,61111,34226
31212,61063,34277
31216,61128,34284
31164,61063,34268
31168,61093,34260
31176,61096,34250
31236,61076,34182
31204,61063,34065
31212,61125,34081
31216,61044,33969
31196,61127,34076
31248,61084,33924
31296,61167,33855
31364,61013,33858
31408,61097,33903
31452,61129,33935
31424,61023,34040
31560,61108,33854
31621,61145,34108
31644,61063,34055
31626,61156,34085
31628,61167,34136
31596,61191,34185
31644,61044,34141
31772,61132,34159
31832,61124,34175
31844,61136,34169
31704,61031,34124
31652,61167,34072
31716,61173,34133
31808,61191,34148
31904,61152,34054
31924,61219,33927
31888,61184,33860
31896,61076,33893
31872,61180,33988
31916,61134,33874
31950,61181,33863
32009,61105,33952
32020,61215,34065
31996,61229,34060
31985,61236,34098
31992,61221,34068
32008,61223,34081
32000,61191,34011
32020,61215,33815
32069,61189,33956
32048,61188,34033
32032,61240,34094
32096,61220,34127
32120,61228,34120
32124,61280,34095
32141,61265,34127
32137,61224,34139
32136,61228,34160
32096,61132,34220
32052,61191,34144
31960,61228,34119
32100,61136,33981
32192,61266,34036
32124,61232,34100
32072,61297,34124
32108,61255,34135
32064,61252,34209
32160,61260,34277
32184,61246,34320
32108,61232,34308
32136,61239,34324
32100,61271,34341
32093,61300,34281
32084,61288,34257
32076,61222,34311
32124,61308,34336
32192,61281,34285
32068,61283,34282
32144,61262,34290
32116,61153,34166
32016,61264,34140
32020,61298,34362
32056,61290,34527
32056,61316,34444
32044,61304,34469
32072,61319,34472
32044,61319,34456
32032,61285,34502
32024,61300,34465
32076,61283,34440
32116,61292,34360
32064,61319,34472
32064,61269,34500
32176,61352,34516
32224,61344,34508
32348,61373,34530
32492,61319,34544
32572,61300,34532
32572,61319,34532
32540,61231,34534
32616,61223,34537
32560,61341,34556
32545,61362,34559
32485,61369,34541
32518,61390,34534
32548,61404,34540
32572,61272,34553
32636,61351,34545
32696,61365,34548
32656,61341,34452
32544,61336,34439
32454,61384,34452
32524,61380,34360
32624,61396,34272
32664,61319,34424
32644,61426,34440
32576,61359,34417
32548,61383,34348
32624,61296,34478
32644,61376,34524
32633,61378,34665
32614,61412,34664
32620,61359,34683
32640,61424,34608
32560,61447,34640
32532,61444,34645
32504,61428,34642
32372,61318,34653
31828,61415,34677
31580,61349,34653
31824,61405,34713
32223,61444,34704
32468,61446,34711
32376,61447,34781
32352,61392,34782
32204,61364,34688
32128,61434,34733
32161,61424,34720
32184,61447,34737
32188,61333,34724
32192,61405,34716
32152,61460,34708
32181,61460,34758
32160,61464,34760
32140,61500,34774
32200,61390,34768
32196,61447,34770
32212,61447,34778
32260,61376,34788
32348,61425,34799
32445,61432,34796
32580,61495,34800
32894,61485,34810
32862,61488,34809
32724,61504,34816
32444,61495,34797
32206,61479,34812
32058,61468,34836
32020,61479,34832
32564,61336,34862
33684,61446,34924
34648,61447,34905
35632,61501,34748
37280,61524,34732
39200,61485,34720
41188,61548,34783
42560,61544,34680
43000,61479,34753
43132,61526,34820
43136,61519,34848
43508,61524,34951
42276,61564,35012
39504,61604,35044
33449,61588,35077
23632,61564,35104
18223,61492,35140
17165,61540,35193
18500,61534,35190
20500,61520,35214
22312,61508,35248
23734,61525,35285
25156,61532,35324
26580,61436,35326
27804,61552,35321
28736,61584,35338
29536,61575,35276
30096,61492,35212
30616,61540,35183
31160,61484,35255
31688,61496,35284
32120,61528,35319
32496,61524,35406
32796,61575,35460
32916,61575,35476
33020,61614,35486
33065,61585,35522
33072,61542,35526
33152,61532,35524
33216,61556,35527
33204,61508,35548
33120,61479,35556
33101,61575,35613
33308,61604,35477
33430,61588,35524
33668,61620,35594
33693,61573,35596
33612,61572,35645
33600,61575,35706
33620,61588,35622
33524,61575,35412
33624,61477,35508
33652,61612,35492
33344,61600,35574
32984,61541,35751
33232,61660,35768
33692,61647,35784
33968,61628,35816
33900,61557,35832
34044,61516,35812
33904,61596,35815
33960,61575,35761
33982,61657,35808
33884,61645,35776
33893,61636,35738
33934,61695,35704
33956,61588,35719
33812,61644,35709
33884,61624,35623
34038,61641,35548
34004,61575,35650
34036,61622,35714
34096,61671,35705
34140,61701,35679
34213,61685,35648
34206,61703,35645
34208,61599,35684
34176,61664,35689
34220,61604,35620
34272,61679,35592
34304,61636,35581
34448,61631,35622
34520,61688,35597
34640,61604,35556
34698,61717,35512
34752,61732,35549
34776,61732,35517
34813,61668,35520
34912,61703,35496
34989,61604,35460
35152,61672,35397
35304,61695,35460
35256,61665,35504
35380,61744,35511
35596,61748,35490
35625,61780,35508
35700,61687,35501
35756,61729,35503
35792,61740,35508
35912,61733,35554
36032,61733,35604
36154,61624,35607
36164,61765,35564
36116,61775,35518
36156,61797,35550
36060,61781,35560
36156,61804,35532
36080,61780,35524
35848,61776,35541
35992,61760,35536
35934,61738,35636
35728,61766,35600
35608,61800,35564
35448,61816,35572
35332,61752,35521
35228,61846,35552
35076,61829,35530
34956,61808,35532
34856,61712,35529
34788,61803,35508
34676,61782,35516
34552,61807,35494
34388,61740,35484
34160,61841,35510
33948,61860,35544
33768,61808,35548
33556,61869,35367
33317,61840,35316
33080,61732,35137
32980,61845,35228
32776,61831,35241
32604,61831,35180
32504,61868,35312
32380,61848,35352
32240,61852,35390
32092,61903,35368
31932,61880,35360
31784,61861,35346
31736,61856,35344
31568,61856,35290
31384,61751,35284
31376,61840,35192
31400,61868,35241
31417,61828,35249
31312,61895,35252
31304,61797,35240
31232,61801,35214
31144,61872,35168
31096,61788,35220
30936,61848,35090
30872,61851,35073
30848,61852,35052
30848,61760,34942
30852,61809,34908
30772,61896,34885
30920,61944,34973
30788,61817,35000
30912,61872,34993
30608,61894,34932
30352,61869,34924
30416,61845,34924
30888,61876,34988
31360,61903,34797
31260,61916,34574
31184,61861,34695
31172,61911,34785
31240,61831,34818
31237,61895,34796
31212,61864,34740
31372,61911,34761
31312,61880,34696
31320,61871,34559
31232,61928,34436
31364,61849,34510
31460,61916,34585
31432,61864,34573
31400,61927,34548
31406,61932,34548
31485,61932,34564
31532,61905,34444
31304,61909,34308
31532,61916,34429
31580,61948,34445
31552,61959,34412
31588,61959,34405
31632,61986,34410
31688,61885,34368
31660,61948,34412
31668,61959,34348
31616,61929,34363
31588,61924,34376
31492,61924,34348
31616,61940,34350
31612,61992,34343
31556,61888,34311
31592,62008,34173
31677,61988,33964
31664,61959,33996
31685,61895,34149
31712,61895,34184
31660,61935,34198
31620,61959,34208
31661,61895,34164
31680,61996,34223
31720,62029,34144
31644,61975,34231
31580,62015,34154
31868,61981,34110
31866,61997,34055
31773,61948,33964
31744,61959,34096
31684,61975,34116
31664,62023,34167
31680,61989,34172
31724,62023,34172
31666,62071,34168
31588,62061,34160
31516,62020,34172
31568,62004,34180
31664,62012,34167
31788,62015,34173
31824,61916,34168
31746,62036,34169
31694,62049,34167
31744,61959,34151
31608,62087,34159
31744,62052,34151
31108,62047,34139
31630,62004,34133
31741,62023,34177
31476,62004,34169
31108,62025,33981
31172,61959,33908
31684,62069,33960
32112,62077,33940
32176,62068,34036
32127,62080,34092
32012,62049,34132
32078,62049,34167
32152,62063,34148
32224,61985,34155
32248,62036,34132
32300,62076,34160
32369,62009,34157
32422,62036,34250
32380,62116,33917
32320,62056,34182
32268,62076,34228
32276,62084,34216
32296,61988,34277
32317,62052,33913
32388,62080,34193
32468,62105,34241
32412,62109,34239
32436,62144,34279
32460,62157,34244
32420,62087,34048
32368,61988,34268
32289,62097,34300
32305,62100,34302
32296,62087,34353
32312,62000,34334
32396,62128,34398
32456,62151,34258
32436,62068,34073
32448,62168,34272
32460,62173,34344
32440,62141,34351
32380,62140,34375
32368,62044,34366
32280,62095,34388
32202,62068,34357
32172,62164,34362
32108,62055,34452
32036,62171,34107
31997,62213,34300
32016,62087,34368
31954,62144,34380
31896,62148,34444
31856,62140,34298
31840,62055,34080
31817,62136,34268
31812,62173,34311
31872,62071,34352
31846,62192,34336
31838,62189,34352
31836,62086,34416
31884,62144,34150
31968,62151,34296
32012,62148,34332
31988,62128,34343
32021,62164,34308
32124,62087,34344
32228,62176,34063
32342,62207,34265
32508,62215,34273
32660,62189,34271
32764,62189,34260
32542,62144,34308
32140,62161,34128
31897,62149,34167
31732,62159,33977
31708,62124,34135
32100,62200,34184
33092,62191,34136
34088,62253,34123
35048,62200,34092
36668,62112,34104
38520,62200,34052
40448,62211,33980
41964,62205,33676
42544,62236,33804
42788,62180,33908
42912,62264,33948
43436,62248,33925
42712,62296,33910
40116,62284,33956
34728,62272,33560
24926,62214,33648
18844,62228,33761
17264,62181,33852
18449,62160,33834
20408,62252,33856
22160,62215,33540
23708,62264,33706
25116,62291,33756
26484,62269,33744
27716,62124,33749
28668,62215,33405
29408,62132,33625
30004,62205,33632
30520,62201,33572
31068,62268,33392
31604,62287,33316
32030,62261,33408
32388,62312,33379
32696,62278,33382
32920,62268,33311
33036,62257,33373
33196,62237,33151
33228,62177,33009
33294,62261,33020
33344,62279,33044
33376,62215,33084
33368,62301,33112
33388,62343,33031
33430,62213,33071
33476,62280,32968
33560,62267,32758
33572,62279,32750
33564,62172,32792
33572,62215,32796
33668,62260,32804
33720,62215,32812
33704,62328,32495
33772,62361,32669
33860,62297,32724
33864,62300,32724
33876,62303,32706
33908,62245,32697
33868,62277,32716
33840,62310,32605
33920,62320,32397
33900,62342,32519
33908,62343,32559
33924,62384,32559
33984,62356,32516
34020,62336,32519
34016,62338,32501
34012,62304,32357
34037,62319,32192
34088,62263,32293
34128,62340,32320
34168,62324,32229
34192,62368,32222
34287,62372,32152
34336,62384,32061
34348,62300,31951
34400,62343,31893
34436,62356,31601
34508,62272,31588
34577,62350,31523
34600,62381,31541
34624,62400,31612
34680,62407,31646
34752,62360,31628
34812,62324,31552
34844,62380,31528
34872,62287,31404
34980,62362,31332
34996,62359,31021
35092,62304,31174
35240,62402,31188
35388,62399,31170
35504,62431,31141
35612,62398,31140
35692,62416,31093
35764,62400,30982
35812,62300,30957
35856,62362,30900
36004,62396,30904
36068,62394,30831
36156,62452,30804
36216,62460,30708
36256,62364,30654
36344,62404,30601
36340,62372,30424
36300,62428,30413
36280,62412,30329
36272,62439,30390
36168,62358,30325
36124,62433,30277
36080,62471,30263
35968,62444,30169
35848,62487,30181
35688,62520,29988
35504,62468,30004
35316,62468,29940
35172,62462,29837
35112,62440,29861
35044,62440,29796
34968,62446,29736
34884,62501,29544
34684,62500,29516
34516,62448,29527
34429,62429,29401
34376,62520,29392
34204,62460,29244
34008,62409,29228
33764,62406,29152
33544,62464,29085
33324,62468,28979
33153,62527,28906
33076,62520,28885
32924,62511,28454
32724,62564,28366
32550,62436,28362
32448,62502,28263
32460,62471,28452
32432,62509,28209
32268,62406,28288
32120,62511,28234
31920,62535,28220
31760,62463,28191
31740,62471,28124
31702,62565,27989
31624,62540,27844
31556,62524,27822
31568,62527,27640
31546,62407,27527
31456,62471,27630
31408,62471,27420
31408,62536,27472
31456,62540,27460
31432,62471,27543
31322,62471,27534
31276,62548,27521
31280,62526,27385
31269,62535,27325
31252,62436,27268
31212,62503,26956
31160,62518,26900
31168,62544,26902
31228,62460,27008
31272,62549,26971
31364,62583,26991
31412,62552,26971
31452,62541,26988
31560,62513,26860
31564,62526,26784
31605,62468,26452
31652,62535,26397
31696,62471,26488
31640,62557,26600
31660,62580,26614
31733,62596,26533
31816,62523,26556
31769,62444,26188
31760,62519,26328
31802,62540,26392
31821,62508,26414
31876,62557,26396
31852,62471,26453
31832,62573,26356
31928,62596,26031
31974,62508,26296
32036,62580,26307
32104,62572,26321
31854,62444,26350
31972,62535,26318
31936,62541,26300
31866,62496,26050
31860,62584,26130
31904,62588,26172
31988,62596,26351
32061,62625,26375
32078,62599,26413
32000,62511,26404
31952,62567,26503
31884,62540,26517
31944,62545,26502
31876,62569,26589
31868,62517,26537
31936,62580,26587
31901,62612,26322
31852,62632,26537
31916,62612,26684
31844,62591,26756
31824,62471,26753
31668,62583,26814
31597,62565,26900
31648,62580,26935
31776,62599,26894
31884,62596,26669
31921,62623,26792
31892,62648,26791
31756,62634,26975
31670,62599,27132
31576,62584,27204
31644,62580,27293
31589,62560,27333
31640,62557,27396
31792,62618,27505
31900,62629,27568
31926,62599,27557
31836,62656,27646
31648,62633,27710
31532,62576,27756
31481,62488,27883
31440,62567,27970
31480,62573,27968
31614,62492,28064
31724,62628,28180
31644,62623,28210
31725,62652,28351
31776,62663,28436
31744,62636,28388
31616,62616,28192
31764,62545,28366
31756,62617,28429
31585,62581,28556
31560,62599,28650
31666,62616,28668
31796,62648,29032
31844,62676,29169
31926,62661,29286
31938,62644,29372
31816,62642,29460
31816,62517,29280
31924,62528,29796
31998,62582,29843
31853,62616,29937
31726,62652,30085
31700,62633,30212
31734,62658,30305
31792,62681,30404
31949,62644,30508
32096,62640,30533
32132,62640,30660
32140,62631,30920
32060,62623,30968
31989,62633,31042
31936,62660,31149
31936,62656,31004
31888,62599,31453
31836,62596,31628
31736,62567,31727
31660,62642,31855
31364,62630,31982
31132,62629,32080
31116,62612,32172
31212,62544,32292
31352,62672,32404
31424,62672,32528
31452,62689,32655
31476,62692,32756
31526,62572,32892
31396,62654,32918
31336,62632,33052
31242,62544,33188
31200,62632,33213
31159,62552,33348
31168,62676,33364
31040,62680,33581
30980,62620,33732
31087,62701,33932
31228,62695,34110
31428,62663,34250
31572,62656,34384
31800,62568,34512
31900,62525,34722
31988,62640,34688
31972,62680,34813
31680,62591,34972
31432,62680,35063
31280,62673,35253
31140,62688,35429
31260,62655,35428
31784,62652,35460
32904,62648,35780
34037,62568,35943
35076,62648,36080
36724,62672,36208
38577,62614,36312
40480,62724,36441
42158,62675,36596
42860,62712,36706
43056,62716,36924
43176,62709,37032
43530,62696,37055
42376,62688,37140
39908,62712,37258
34540,62724,37204
25693,62728,37356
20532,62740,37472
18884,62616,37704
19748,62720,37928
21376,62569,38069
22829,62624,37986
23940,62660,38173
24670,62649,38318
25396,62652,38564
26236,62692,38692
26945,62694,38792
27636,62692,38836
28340,62727,38966
28936,62661,39105
29528,62596,39300
30024,62636,39356
30540,62680,39360
30872,62540,39455
31237,62656,39461
31576,62682,39660
31728,62705,39660
31840,62599,39772
32044,62720,39845
32160,62704,39952
32228,62672,40068
32262,62616,40231
32332,62648,40359
32418,62662,40432
32448,62668,40540
32384,62697,40597
32340,62704,40670
32412,62727,40748
32552,62662,40804
32644,62709,40901
32720,62670,40967
32820,62692,40967
32856,62672,41005
32864,62592,41014
32940,62684,41112
33112,62704,41162
33305,62652,41193
33316,62727,41252
33272,62765,41646
33256,62712,41564
33248,62676,41537
33324,62598,41588
33424,62656,41652
33416,62669,41680
33432,62676,41700
33404,62724,41661
33420,62724,41632
33431,62753,41837
33472,62704,41960
33452,62629,41881
33484,62710,41872
33532,62692,41876
33632,62564,41845
33672,62685,41863
33648,62658,41829
33692,62720,41858
33786,62693,41944
33888,62674,42039
34048,62757,41946
34092,62748,41700
34080,62712,41696
34092,62700,41697
34140,62688,41688
34248,62695,41650
34416,62662,41735
34572,62740,41702
34688,62599,41580
34744,62775,41652
34848,62789,41604
34952,62753,41495
35000,62695,41503
34712,62727,41548
34588,62681,41544
34844,62633,41471
35320,62727,41434
35708,62753,41425
35802,62767,41506
35784,62693,41424
35792,62796,41265
35832,62743,41191
35900,62757,41166
35941,62688,40997
35980,62727,40989
36052,62712,40992
36076,62741,41028
36088,62692,41024
36024,62783,40960
35932,62791,40920
35816,62816,40937
35756,62788,40991
35668,62744,40879
35608,62767,40703
35500,62752,40616
35441,62690,40572
35320,62765,40673
35168,62788,40653
35044,62791,40640
34872,62718,40532
34694,62820,40368
34512,62791,40375
34484,62784,40387
34268,62772,40365
34105,62653,40380
33984,62676,40286
33928,62761,40367
33884,62800,40321
33764,62727,40316
33648,62798,40372
33488,62791,40312
33405,62756,40175
33237,62772,40060
33105,62760,40052
32940,62772,40000
32776,62727,40026
32640,62768,39942
32512,62791,40077
32440,62792,40095
32340,62825,40076
32272,62791,39988
32204,62812,39729
32096,62754,39695
32000,62791,39716
31908,62657,39624
31852,62751,39656
31808,62772,39652
31773,62772,39557
31700,62801,39540
31564,62799,39509
31508,62727,39484
31529,62800,39441
31556,62767,39492
31536,62772,39556
31529,62767,39521
31448,62687,39445
31369,62671,39332
31360,62791,39328
31340,62784,39365
31336,62816,39364
31380,62816,39335
31425,62712,39285
31544,62663,39252
31637,62756,39293
31652,62763,39205
31728,62640,39205
31752,62764,39124
31816,62792,39153
31900,62749,39029
31928,62810,38919
31924,62825,38910
31972,62804,38767
31992,62660,38777
32014,62776,38749
32008,62766,38708
32028,62757,38511
32100,62756,38639
32224,62692,38524
32160,62808,38406
32120,62804,38437
32148,62840,38439
32172,62804,38391
32300,62772,38389
32380,62784,38357
32417,62768,38342
32372,62727,38404
32344,62761,38396
32412,62727,38344
32440,62797,38348
32468,62804,38308
32480,62852,38271
32508,62720,38268
32524,62788,38272
32568,62785,38238
32544,62776,38236
32500,62727,38261
32444,62787,38260
32484,62815,38198
32496,62758,38192
32468,62740,38180
32424,62840,38169
32364,62828,38151
32309,62791,38169
32276,62788,38164
32308,62784,38149
32364,62656,38230
32440,62691,38240
32464,62800,38141
32500,62727,38146
32526,62820,38215
32552,62838,38196
32492,62824,38064
32357,62792,37973
32249,62708,38068
32293,62772,38081
32252,62759,38112
32205,62752,38093
32172,62808,37998
32172,62820,37969
32172,62727,38089
32208,62865,38112
32228,62824,38116
32150,62815,38076
32188,62808,38087
32432,62700,38181
32604,62764,37972
32676,62727,37988
32636,62832,37993
32524,62727,38012
32408,62836,38032
32436,62855,37972
32444,62824,37980
32449,62791,37949
32456,62823,37952
32524,62744,37981
32532,62788,37884
32562,62767,37980
32612,62832,38093
32680,62781,38116
32644,62855,38084
32604,62887,38021
32556,62753,38023
32472,62828,38060
32448,62812,38014
32488,62721,37988
32580,62800,38004
32688,62838,38016
32736,62754,38008
32728,62842,37984
32736,62812,38039
32708,62877,38080
32596,62844,38055
32480,62848,38055
32384,62831,38033
32288,62816,37761
32168,62746,37863
32092,62808,37845
32040,62852,37809
32036,62848,37895
32056,62860,37972
32045,62881,38021
32048,62784,38033
31952,62819,38028
31884,62831,38045
31888,62779,38020
32005,62810,38046
32080,62824,38065
32072,62855,38036
32070,62884,38072
31992,62807,38068
31984,62888,38092
31924,62848,38106
31904,62841,38104
31952,62812,38108
31980,62824,38136
31989,62815,38224
32096,62834,38207
32244,62850,38124
32440,62862,38136
32608,62880,38247
32636,62812,38256
32468,62772,38318
32016,62832,38388
31680,62832,38432
31492,62712,38397
31482,62793,38312
31916,62708,38407
32804,62860,38470
33776,62855,38468
34768,62884,38253
36316,62840,38344
38012,62884,38380
39712,62776,38388
41120,62868,38417
41848,62816,38550
42080,62865,38476
42324,62868,38527
42944,62908,38574
42093,62924,38516
39636,62924,38718
35700,62916,38865
27250,62909,38908
21268,62880,38900
19092,62874,38976
19825,62840,39025
21616,62836,39068
23126,62832,39057
24378,62892,39063
25372,62864,39140
26485,62895,39143
27508,62908,39128
27965,62892,38943
28612,62848,38912
29548,62812,38940
30504,62838,39053
31274,62726,39032
31724,62855,38957
32064,62855,39004
32305,62783,39064
32572,62911,39109
32696,62920,39136
32680,62884,39212
32772,62855,39228
32932,62868,39233
33084,62850,39229
33184,62825,39231
33276,62868,39244
33310,62808,39245
33328,62884,39244
33408,62904,39249
33484,62916,39277
33544,62892,39302
33576,62879,39300
33584,62864,39241
33564,62844,39040
33600,62834,39063
33712,62881,39212
33748,62908,39256
33792,62900,39264
33820,62904,39343
33836,62903,39110
33876,62916,39125
33844,62886,39249
33864,62876,39281
33896,62777,39166
33848,62854,39148
33856,62903,39020
33960,62817,39085
34024,62905,39161
34032,62921,39112
34008,62944,39108
34010,62924,39141
34081,62900,38948
34132,62908,38848
34192,62886,38948
34236,62848,38936
34280,62878,38889
34304,62916,38848
34296,62829,38868
34364,62840,38767
34368,62964,38553
34388,62940,38668
34472,62911,38672
34528,62916,38615
34628,62909,38556
34680,62850,38625
34752,62832,38373
34804,62919,38430
34844,62872,38407
34880,62949,38449
34932,62926,38126
35028,62944,38269
35116,62925,38228
35216,62916,38213
35358,62908,38261
35496,62834,37960
35616,62852,38021
35744,62952,38045
35804,62831,38012
35900,62908,37974
35952,62983,37812
35976,62972,37708
35932,62852,37824
35924,62940,37785
36044,62940,37775
36184,62830,37685
36300,62948,37432
36301,62983,37628
36240,62884,37636
36232,63005,37628
36133,63007,37601
36092,62982,37573
36088,62915,37508
36128,62888,37513
36132,62941,37438
36016,62948,37349
35888,62983,37348
35716,63007,37296
35492,63012,37364
35296,62983,37376
35192,63028,37364
35104,62983,37332
34964,62983,37324
34884,62983,37312
34796,62945,37281
34692,62940,37268
34568,62983,37309
34464,63023,37264
34332,62948,37216
34116,63037,37132
33902,63030,37014
33692,63022,37022
33544,62920,37030
33469,62983,37175
33400,62982,37205
33244,62908,37205
33053,63013,37183
32864,63020,37214
32684,62949,37132
32540,63031,37045
32424,62950,37057
32333,63012,36902
32220,63005,36991
32064,62909,36944
31940,62983,36996
31870,62952,36964
31817,63004,36764
31772,63036,37077
31680,63020,37048
31592,63024,36916
31568,63057,36761
31556,63013,36912
31569,62983,36964
31556,63013,36964
31494,62970,36953
31368,62957,36929
31297,63005,36924
31340,63007,36940
31424,63012,36844
31504,63055,36592
31525,63060,36545
31580,63020,36607
31592,62879,36669
31584,63004,36703
31513,62880,36748
31476,62970,36680
31558,63005,36660
31637,62933,36512
31640,63029,36606
31708,63061,36716
31796,63052,36727
31828,63004,36717
31772,63008,36700
31728,63013,36666
31768,62983,36626
31765,62903,36624
31789,63021,36610
31904,63047,36606
31996,63028,36553
32016,63068,36539
31980,63032,36557
31929,63037,36572
32028,63020,36457
32096,62940,36194
32088,62983,36332
32072,62983,36276
32058,63031,36436
32124,63053,36465
32160,63032,36440
32208,63071,36516
32272,62972,36356
32266,63048,36320
32236,63020,36359
32224,63047,36374
32228,62928,36148
32224,63007,36210
32217,62964,36252
32200,63061,36306
32172,63055,36320
32216,63076,36248
32300,63093,36357
32328,63063,36380
32340,62996,36380
32344,63044,36359
32304,63015,36381
32232,63031,36228
32160,63038,36162
32164,63017,36196
32208,62983,36312
32320,63100,36319
32416,63028,36326
32380,62976,36375
32272,63037,36383
32246,63064,36358
32240,62948,36389
32284,63031,36412
32313,63029,36368
32204,63092,36373
32180,62976,36386
32144,63101,36384
32180,63124,36359
32284,63084,36386
32356,63061,36420
32356,63077,36424
32364,62980,36455
32384,63052,36292
32428,63069,36315
32503,63060,36376
32508,63092,36369
32460,63103,36388
32404,63132,36343
32432,63005,36414
32436,63056,36181
32424,63095,36055
32430,63012,36132
32456,63063,36160
32472,63100,36165
32484,63111,36147
32240,63111,36261
31852,63140,36305
31952,63142,36292
32280,63079,36282
32600,63100,36271
32704,63004,36283
32652,63087,36296
32608,63077,36309
32564,63108,36262
32568,63136,36231
32572,63136,35975
32612,63084,36139
32688,63173,36115
32601,63068,36135
32478,63109,36127
32364,63111,36102
32193,63084,36096
32060,63100,36079
31996,63124,36076
31969,63141,36106
31960,63157,36105
31940,63157,36084
31992,63085,36087
32036,63143,36025
32077,63125,35948
32032,63111,35996
31936,63020,35988
31933,63111,36001
31884,63133,36037
31856,63143,36052
31856,63156,36064
31876,63163,36060
31857,63132,36044
31877,63157,36039
31828,63133,36004
31864,63133,35988
31966,63108,36032
31989,63111,36068
32016,63140,36040
32192,63160,36133
32376,63156,35945
32540,63188,35948
32624,63093,36048
32484,63165,36071
32073,63143,36085
31764,63103,36045
31573,63143,35996
31577,63021,36101
31836,63149,36120
32714,63196,36096
33820,63188,36116
34892,63109,36110
36324,63212,36182
38152,63188,36183
40068,63181,36120
41816,63140,36100
42588,63177,35846
42676,63084,36007
42460,63220,36073
42688,63239,36013
42456,63158,36136
40180,63268,36132
37028,63268,36164
29308,63248,36228
21604,63212,36280
18088,63197,36277
18121,63049,36352
19785,63166,36291
21661,63192,36231
23298,63144,36135
24662,63212,36172
25972,63168,36312
27296,63200,36309
28357,63206,36332
29138,63053,36310
29784,63136,36332
30356,63188,36252
30864,63172,36207
31392,63204,36081
31868,63231,36100
32284,63231,36223
32621,63212,36270
32876,63239,36293
33024,63221,36258
33068,63140,36056
33148,63208,36132
33152,63180,36229
33180,63168,36264
33212,63224,36294
33240,63236,36316
33308,63200,36330
33406,63256,36399
33488,63264,36257
33508,63229,36044
33564,63213,36233
33572,63228,36296
33486,63207,36344
33512,63188,36349
33584,63221,36397
33620,63269,36424
33676,63148,36448
33708,63268,36445
33608,63239,36375
33556,63239,36137
33680,63229,36319
33765,63253,36396
33860,63184,36447
33872,63111,36446
34029,63239,36447
34120,63268,36454
34072,63279,36440
33972,63212,36497
33968,63292,36351
34005,63270,36101
34112,63175,36304
34160,63261,36359
34168,63239,36347
34224,63215,36353
34254,63256,36339
34196,63288,36236
34152,63275,36109
34208,63312,36000
34252,63215,36103
34244,63238,36081
34336,63268,36177
34398,63284,36204
34508,63238,36185
34590,63261,36200
34656,63293,36192
34668,63220,36127
34692,63308,35975
34785,63320,35788
34880,63358,35927
34940,63228,35949
34981,63300,36006
35040,63288,35996
35136,63288,36037
35228,63295,36008
35416,63207,36004
35592,63333,35998
35744,63328,35965
35788,63304,36029
35916,63268,35940
36032,63330,35773
36060,63325,35718
36140,63335,35748
36308,63236,35694
36440,63220,35576
36444,63324,35614
36352,63332,35557
36189,63348,35628
36192,63367,35632
36316,63381,35654
36392,63344,35654
36372,63345,35697
36312,63360,35629
36196,63239,35609
36093,63328,35647
35968,63348,35621
35856,63388,35637
35704,63380,35616
35612,63405,35596
35096,63431,35468
34736,63367,35376
34920,63331,35188
35224,63360,35360
35336,63357,35132
35180,63264,35111
34872,63373,35127
34528,63407,35350
34252,63297,35377
34168,63429,35356
34140,63295,35364
34016,63421,35348
33858,63292,35224
33736,63393,35128
33460,63364,35140
33176,63342,35168
32938,63340,35036
32736,63420,35166
32576,63412,35152
32509,63445,35167
32384,63340,35096
32288,63400,35025
32220,63388,34951
32105,63367,34951
32000,63367,34982
31900,63366,35008
31816,63415,34781
31696,63277,34782
31604,63324,34860
31492,63438,34867
31392,63367,34541
31383,63356,34721
31396,63332,34708
31392,63380,34740
31380,63391,34532
31382,63300,34332
31424,63404,34444
31476,63431,34493
31456,63431,34492
31432,63454,34445
31444,63352,34306
31452,63400,34215
31416,63392,34272
31364,63399,34258
31342,63405,34164
31358,63367,33988
31405,63420,34101
31452,63433,34053
31456,63437,33988
31556,63344,33632
31616,63448,33745
31617,63439,33863
31596,63331,33848
31596,63413,33776
31641,63303,33764
31728,63392,33735
31820,63348,33673
31836,63441,33510
31862,63444,33409
31896,63460,33148
31872,63406,33156
31857,63428,33045
31832,63420,33013
31908,63431,33209
31974,63397,33236
32048,63396,33240
32096,63340,33212
32112,63424,32793
32100,63428,32948
32108,63476,33048
32152,63484,33023
32168,63341,32976
32212,63416,32932
32228,63445,32844
32237,63353,32804
32216,63367,32796
32260,63445,32556
32276,63460,32648
32264,63367,32729
32196,63478,32722
32197,63492,32701
32192,63456,32622
32216,63444,32349
32164,63375,32432
32160,63416,32509
32144,63296,32544
32136,63378,32526
32100,63464,32524
32096,63479,32532
32140,63495,32412
32176,63495,32304
32140,63471,32389
32120,63454,32460
32172,63460,32456
32218,63436,32305
32288,63355,32210
32256,63470,32327
32270,63413,32333
32324,63492,32317
32276,63448,32325
32284,63495,32330
32264,63471,32263
32396,63393,32290
32428,63468,32256
32280,63444,32152
32260,63352,31868
32284,63476,31936
32364,63495,32093
32384,63484,32144
32364,63495,32120
32392,63495,32045
32436,63440,32068
32404,63477,32076
32376,63485,32109
32468,63362,32060
32416,63455,32039
32398,63367,32084
32348,63495,32018
32361,63420,31988
32360,63532,32007
32316,63551,31872
32324,63428,31600
32336,63487,31759
32372,63495,31865
32352,63394,31868
32324,63476,31852
32300,63495,31833
32320,63519,31884
32285,63524,31840
32212,63533,31807
32220,63541,31796
32061,63480,31783
31956,63495,31760
31896,63479,31740
31804,63452,31456
31736,63465,31692
31764,63495,31751
31816,63519,31775
31801,63495,31628
31784,63556,31561
31764,63495,31548
31737,63495,31348
31672,63485,31419
31712,63488,31327
31756,63476,31574
31756,63399,31550
31804,63493,31456
31792,63495,31535
31796,63519,31572
31812,63431,31641
31872,63444,31637
31901,63495,31660
31932,63495,31648
32133,63495,31700
32320,63446,31661
32320,63380,31639
32368,63423,31669
32249,63524,31686
32000,63516,31696
31464,63540,31649
31108,63524,31670
30844,63511,31712
30796,63390,31676
31240,63492,31747
32348,63468,31782
33480,63492,31748
34656,63495,31789
36357,63436,31810
38224,63524,31772
40228,63556,31719
41760,63543,31708
42380,63469,31716
42404,63552,31712
42448,63470,31735
42852,63524,31616
41720,63528,31820
39220,63564,31858
34416,63576,31897
25332,63568,31928
19710,63568,31957
18050,63572,32014
19118,63508,32030
21072,63527,32065
22712,63511,32092
23976,63476,32140
25214,63488,32135
26496,63454,32164
27572,63532,32202
28464,63495,32221
29220,63560,32229
29850,63525,32202
30380,63436,31876
30816,63524,31908
31296,63495,31956
31760,63494,32352
32144,63488,32357
32404,63444,32269
32732,63549,32081
32892,63549,32216
33004,63540,32221
33125,63473,32180
33162,63428,32255
33148,63495,32260
33172,63495,32279
33180,63479,32305
33272,63492,32340
33276,63520,32348
33284,63535,32408
33404,63551,32444
33396,63573,32450
33500,63448,32547
33552,63527,32657
33580,63495,32736
33626,63525,32829
33680,63492,32935
33720,63428,32976
33738,63524,33031
33696,63540,33080
33692,63543,33052
33720,63540,33140
33760,63552,33020
33732,63495,32900
33778,63519,33170
33828,63535,33197
33864,63444,33260
33933,63447,33316
34004,63532,33382
34036,63557,33423
34044,63524,33425
34056,63580,33440
34029,63477,33340
33996,63551,33305
34036,63519,33364
34104,63508,33463
34144,63508,33446
34168,63495,33458
34196,63438,33429
34220,63469,33397
34272,63551,33408
34344,63576,33412
34476,63564,33404
34542,63548,33453
34608,63476,33414
34636,63528,33405
34696,63495,33412
34700,63524,33394
34696,63463,33382
34816,63564,33384
34912,63553,33393
34941,63576,33381
35048,63584,33380
35152,63561,33369
35248,63519,33398
35348,63440,33372
35454,63527,33367
35512,63519,33413
35605,63557,33310
35720,63568,33165
35800,63556,33275
35900,63543,33428
36004,63599,33359
36080,63569,33373
36129,63553,33390
36200,63548,33372
36168,63540,33343
36068,63535,33316
36013,63495,33312
36008,63590,33287
36008,63572,33294
35968,63623,33202
35940,63564,33221
35852,63516,33020
35796,63484,33152
35756,63564,33185
35656,63512,33316
35520,63548,33212
35376,63584,33228
35240,63495,33208
35088,63596,33175
34928,63608,33149
34810,63607,33123
34689,63565,33048
34496,63565,33100
34324,63477,33072
34224,63540,33061
34080,63540,33056
33924,63573,33060
33776,63588,33007
33528,63583,33021
33357,63623,33048
33212,63525,33020
33032,63589,32890
32852,63556,32861
32700,63572,32833
32540,63556,32868
32388,63540,32956
32321,63488,32897
32256,63576,32820
32180,63524,32553
32069,63613,32511
32044,63604,32647
32004,63495,32644
31892,63565,32655
31760,63544,32704
31656,63524,32676
31592,63533,32665
31580,63572,32716
31476,63589,32632
31416,63577,32293
31400,63606,32465
31344,63589,32524
31254,63575,32537
31184,63544,32556
31116,63543,32504
31144,63529,32542
31168,63442,32380
31192,63544,32185
31252,63564,32391
31228,63493,32367
31260,63588,32360
31288,63572,32328
31284,63495,32327
31312,63543,32268
31360,63423,32319
31360,63495,32206
31364,63509,32191
31320,63548,31848
31348,63565,31820
31424,63454,31789
31472,63588,31764
31553,63556,31809
31601,63543,31707
31588,63452,31788
31632,63533,31873
31672,63492,31905
31678,63431,31884
31704,63548,31908
31709,63559,31909
31744,63463,31764
31772,63575,31706
31770,63575,31412
31772,63461,31445
31768,63520,31556
31762,63509,31589
31764,63494,31564
31790,63490,31604
31808,63532,31618
31784,63533,31584
31832,63495,31524
31844,63575,31584
31841,63565,31424
31832,63495,31121
31902,63525,31198
31926,63517,31141
31956,63460,31160
31972,63495,31296
32012,63519,31343
32012,63553,31304
31992,63471,31323
31990,63552,31319
31969,63559,31274
31956,63532,31332
31960,63471,31185
32013,63494,31044
32010,63476,31191
31984,63441,31192
31976,63526,31172
32025,63461,31109
31940,63533,30928
31952,63556,30928
31924,63534,30973
31860,63495,30885
31846,63492,30876
31880,63494,31036
31884,63471,31140
31920,63380,31132
31945,63476,31047
32053,63412,31049
32080,63540,31060
32136,63540,31037
32197,63535,31008
32202,63495,31001
32248,63405,31024
32325,63492,31066
32376,63479,30912
32316,63485,30649
32269,63447,30889
32324,63527,30612
32412,63527,30876
32336,63540,30870
32272,63535,30840
32300,63495,30822
32240,63399,30784
32233,63468,30822
32296,63476,30820
32380,63465,30855
32332,63495,30858
32276,63494,30844
32208,63525,30858
32209,63539,30852
32188,63432,30798
32272,63495,30784
32385,63492,30822
32364,63382,30799
32244,63465,30799
32264,63464,30841
32328,63396,30452
32320,63495,30695
32256,63510,30753
32260,63541,30743
32180,63444,30748
32130,63429,30649
32024,63471,30638
31884,63460,30606
31816,63462,30612
31896,63463,30548
31961,63408,30613
31720,63488,30612
31628,63490,30663
31544,63495,30648
31680,63517,30647
31692,63468,30636
31860,63360,30631
31792,63461,30624
31728,63431,30621
31720,63416,30622
31704,63479,30612
31717,63397,30616
31796,63476,30617
31820,63495,30616
31880,63495,30620
31976,63366,30665
32012,63452,30666
31984,63453,30670
32176,63420,30632
32232,63447,30656
32192,63367,30583
31940,63468,30327
31542,63479,30612
31284,63494,30586
31112,63484,30594
31104,63431,30646
31476,63328,30670
32566,63444,30672
33704,63408,30717
34809,63316,30702
36548,63450,30737
38572,63472,30781
40544,63404,30708
41752,63495,30704
41672,63444,30793
41376,63479,30845
41336,63393,30897
42060,63460,30884
41321,63460,30839
38896,63463,30830
34120,63408,30784
24685,63480,30640
18644,63476,30684
16912,63481,30712
18056,63468,31020
20162,63420,31072
21960,63423,30847
23532,63292,31080
25084,63398,31126
26592,63378,31226
27874,63421,31250
28808,63435,31256
29528,63445,31313
30152,63452,31313
30708,63444,31341
31196,63389,31427
31694,63392,31460
32056,63392,31449
32400,63367,31440
32645,63380,31453
32852,63360,31500
32972,63431,31512
33069,63408,31540
33112,63432,31644
33252,63343,31648
33328,63409,31672
33356,63380,31680
33392,63392,31736
33412,63340,31633
33448,63366,31398
33564,63413,31672
33572,63415,31792
33580,63420,31831
33560,63438,31889
33636,63352,31882
33640,63397,31908
33644,63391,31938
33672,63380,31935
33676,63352,31889
33664,63352,31842
33727,63400,31850
33760,63415,31801
33812,63404,32169
33844,63366,32237
33836,63420,32198
33820,63376,32206
33801,63352,32197
33856,63367,32212
33872,63351,32247
33916,63353,32215
33948,63392,32206
34004,63415,32248
34000,63310,32228
34008,63420,32190
34052,63423,32256
34076,63364,32230
34140,63364,32142
34189,63356,32084
34220,63342,32063
34212,63285,32066
34244,63312,32004
34276,63388,31968
34308,63396,31941
34312,63412,31953
34388,63415,31928
34453,63377,31764
34496,63264,31828
34580,63352,31894
34624,63332,31916
34688,63329,31864
34480,63385,31879
34700,63397,31812
34960,63407,31609
34990,63366,31528
34876,63316,31504
35104,63367,31718
35305,63364,31775
35404,63358,31791
35472,63333,31781
35516,63356,31840
35652,63296,31838
35808,63352,31760
35828,63388,31776
35880,63423,31741
35940,63332,31709
35996,63367,31748
36028,63352,31684
36012,63367,31656
35976,63340,31672
35908,63360,31649
35912,63389,31641
35844,63376,31622
35798,63412,31612
35717,63428,31616
35688,63412,31585
35656,63390,31572
35565,63273,31585
35424,63367,31550
35357,63348,31521
35256,63270,31576
35140,63348,31566
35030,63396,31501
34900,63396,31528
34792,63408,31478
34696,63412,31487
34512,63340,31469
34388,63366,31480
34205,63356,31506
33988,63358,31486
33752,63319,31472
33564,63388,31440
33452,63392,31398
33296,63303,31380
33288,63340,31412
33060,63316,31365
32900,63367,31392
32680,63356,31385
32496,63256,31367
32316,63332,31360
32168,63340,31310
32076,63384,31180
31988,63314,31093
31946,63284,31000
31845,63396,31017
31768,63380,31097
31662,63356,31106
31524,63335,31077
31424,63340,31125
31328,63324,31044
31284,63228,31016
31246,63348,30976
31164,63352,30909
31128,63360,30816
31088,63392,30805
31056,63280,30823
31036,63344,30832
30970,63304,30791
30940,63301,30860
30984,63288,30994
30896,63312,30920
31028,63237,30852
31060,63340,30828
30968,63326,30814
31064,63367,30822
31196,63327,30786
31200,63196,30790
31279,63196,30727
31160,63197,30580
31212,63292,30569
31344,63239,30645
31388,63332,30678
31444,63223,30599
31448,63332,30572
31524,63344,30535
31584,63293,30514
31564,63316,30456
31576,63292,30389
31616,63239,30311
31620,63271,30372
31552,63248,30436
31616,63316,30418
31616,63220,30400
31620,63312,30357
31336,63332,30295
31040,63330,30256
31196,63272,30152
31668,63272,30085
31980,63292,30073
32076,63190,30329
32064,63172,30356
31944,63197,30352
32008,63296,30335
32016,63303,30316
32048,63335,30326
31980,63228,30302
31800,63223,30294
31784,63256,30303
31816,63277,30328
31876,63220,30324
31908,63160,30338
31954,63280,30262
32004,63276,30308
31916,63301,30324
31892,63260,30233
32024,63292,30276
31920,63253,30212
31840,63256,30189
31870,63196,30063
31892,63220,30178
31669,63191,30198
31712,63284,30215
31952,63268,30247
32022,63263,30309
31932,63287,30284
31956,63286,29949
32008,63256,30155
31872,63156,30260
31820,63236,30303
31896,63231,30370
31981,63228,30246
31980,63236,30073
31940,63268,30272
31936,63237,30335
31956,63286,30361
32116,63239,30414
32224,63132,30449
32244,63229,30156
32292,63228,30128
32204,63175,30144
32156,63220,30308
32072,63260,30350
32132,63205,30391
32172,63148,30396
32172,63276,30485
32216,63239,30487
32272,63237,30566
32288,63151,30532
32268,63111,30584
32292,63192,30607
32336,63200,30615
32228,63221,30624
32164,63257,30647
32204,63239,30649
32176,63279,30640
32250,63248,30684
32136,63220,30724
31992,63190,30713
31588,63197,30686
31716,63188,30788
32173,63204,30743
32644,63239,30741
32773,63238,30776
32672,63214,30796
32496,63258,30825
32304,63236,30805
32204,63172,30806
31968,63205,30844
32088,63148,30858
32028,63148,30861
31760,63188,30849
31816,63213,30873
31760,63204,30875
31708,63231,30892
31688,63255,30902
31668,63220,30891
31620,63197,30766
31652,63168,30744
31504,63191,30684
31676,63125,30753
31836,63165,30656
31776,63204,30959
31777,63189,30972
31768,63101,30736
31780,63236,30771
31796,63109,30845
31928,63173,30927
32020,63144,31030
32065,63174,31080
32134,63028,31192
32160,63137,31231
32164,63052,31303
32040,63188,31290
31684,63181,31372
31260,63204,31351
30940,63200,31311
30728,63071,31310
30708,63143,31084
31352,63140,31100
32572,63127,31460
33749,63076,31544
34976,63173,31585
36808,63164,31588
38900,63196,31641
40792,63181,31658
41724,63212,31698
41936,63181,31717
41948,63172,31751
41796,63141,31713
42020,63124,31692
40472,63172,31441
38100,63212,31560
30952,63124,31737
22332,63204,31872
18244,63204,31908
17793,63052,32016
19332,63140,32004
21308,63128,32005
22908,63124,32026
24441,63111,32176
25980,63110,32150
27464,63103,32188
28488,63055,32157
29236,63136,32197
29928,63172,32148
30520,63152,32074
31008,63129,32128
31448,63108,32271
32062,63111,32260
32436,63101,32292
32708,63101,32358
32952,63140,32313
33056,63052,32153
33156,63141,32123
33221,63152,32313
33264,63036,32372
33320,63111,32340
33380,63108,32322
33422,63047,32036
33500,63080,32185
33548,63085,32365
33576,63151,32392
33624,63141,32460
33656,63111,32320
33684,63072,32293
33716,63151,32389
33820,63100,32404
33816,63111,32448
33728,63047,32425
33784,63084,32440
33805,63096,32460
33788,63069,32500
33892,63028,32516
33880,63140,32521
33893,63150,32533
33920,63125,32565
33888,63103,32548
33860,63085,32452
33848,63100,32441
33860,62960,32509
33892,63086,32349
33934,63111,32252
33945,63133,32142
33972,63148,32310
34004,63111,32293
34052,63141,32281
34108,63094,32220
34052,63096,32184
34032,63062,32175
34220,63047,32111
34140,63023,32076
34284,63015,32008
34205,63110,32007
34317,63111,31884
34428,63052,31853
34456,63133,31855
34452,63024,31876
34488,63084,31836
34560,63068,31785
34608,63068,31726
34712,63028,31696
34820,63111,31688
34836,63061,31669
34948,63111,31596
35044,63140,31554
35104,63124,31508
35208,63108,31460
35296,63094,31448
35332,63076,31429
35336,63072,31412
35600,63079,31353
35712,63100,30999
35824,63076,31236
35940,63133,31209
35994,63141,31180
36044,63072,31158
36068,63101,31172
36052,63039,30768
36060,63060,30949
36164,63077,30954
36108,63101,30976
36092,63135,30951
35936,63128,30933
35968,63119,30945
35932,63168,30929
35868,63143,30802
35756,63092,30476
35620,63092,30580
35472,63101,30614
35308,63079,30620
35264,63109,30672
35244,63044,30691
35200,63140,30652
35120,63140,30697
35028,63079,30536
34836,63143,30290
34629,63111,30393
34476,63109,30424
34424,63103,30404
33828,63095,30444
33441,63004,30447
33484,63111,30426
33700,63044,30327
33840,63141,30152
33532,63165,30120
33468,63111,30181
33304,63110,30202
33052,63100,30095
32936,63071,29972
32916,63093,30012
32688,63108,30188
32516,63015,30000
32421,63133,30087
32316,63076,30165
32228,63172,30181
32128,63128,30173
31964,63103,30158
31936,63085,30137
31856,63007,30148
31772,63063,30120
31496,63087,30189
31604,63092,30045
31604,63095,29752
31540,63133,29808
31469,63148,29957
31412,63109,29984
31420,63095,30047
31356,63079,30070
31324,62983,30044
31356,63021,30068
31400,63056,30047
31412,62983,30077
31424,63047,29973
31412,63103,29872
31406,63128,30021
31468,63005,30068
31512,63068,30047
31504,62966,30133
31517,62968,29824
31524,62983,30053
31472,62980,30109
31552,63079,30081
31636,63041,30164
31728,62983,29760
31776,63101,29959
31744,63103,30087
31764,63016,30159
31808,63047,30178
31884,63044,30190
31904,63024,29929
31880,62951,30080
31936,63061,30176
31940,63052,30189
31948,63088,30228
32008,62983,30288
32046,63092,30255
31896,63047,30257
31948,63031,30268
32060,63039,30304
32136,63021,30343
32076,63041,30325
32048,63004,30361
32085,63014,30351
32000,63061,30364
31584,63087,30252
31492,63016,30247
31914,63044,30350
32388,62940,30446
32616,63023,30500
32484,62983,30521
32317,63028,30508
32264,63039,30531
32217,63056,30564
32200,63052,30608
32252,63060,30640
32220,62983,30660
32140,63037,30641
32080,63040,30656
32105,62983,30622
32204,62903,30540
32228,63020,30352
32169,62997,30525
32152,63060,30528
32133,62952,30548
32136,63078,30640
32124,63063,30700
32042,62932,30765
32148,62983,30768
32160,63015,30768
32124,62983,30748
32004,63013,30759
32132,63044,30777
32148,62944,30776
32172,63037,30796
32132,63077,30831
32105,63047,30836
32172,63007,30885
32144,63015,30788
32110,62923,30541
32138,62982,30688
32240,63015,30688
32224,63028,30748
32316,63031,30828
32392,63039,30824
32444,63084,30833
32456,63052,30836
32468,63020,30824
32380,63007,30758
32388,63012,30524
32429,62884,30591
32388,63004,30613
32376,63047,30732
32436,62940,30736
32404,63053,30788
32406,63061,30773
32448,62951,30796
32548,62983,30809
32540,63007,30792
32508,62964,30732
32436,62970,30768
32400,62983,30730
32472,63047,30788
32416,63041,30676
32398,63037,30632
32356,63079,30360
32560,62983,30476
32516,63004,30565
32524,63015,30630
32533,62983,30654
32645,62964,30612
32576,63000,30650
32508,63036,30606
32472,63028,30480
32388,63045,30193
32292,63060,30212
32093,63030,30263
32036,62999,30429
32032,62911,30433
32072,62983,30461
31973,62964,30313
31804,62884,30008
32032,63013,30048
31896,63023,30108
31824,63028,30233
31864,63020,30215
31968,63015,30236
31972,62983,30165
31756,62983,30203
32049,62925,30050
32024,62951,29849
31980,62982,29924
32064,62972,29966
32112,63007,29980
32116,63004,29959
32156,63044,29985
32340,62926,29938
32528,62975,29896
32500,62980,29921
32436,62964,29822
32124,62920,29485
31620,62967,29536
31720,62882,29528
31372,62983,29596
31224,63012,29476
31492,63007,29465
32492,62983,29337
33610,62869,29399
34448,62964,29496
36160,62868,29550
38216,62941,29517
40232,62948,29556
42068,63005,29532
42944,63012,29378
43196,62941,29485
43292,63040,29524
43748,63044,29544
43472,63023,29444
41256,63005,29180
37164,62952,29288
27700,62960,29377
20430,62976,29359
17876,62889,29324
18492,62983,29336
20409,63007,29265
22312,62982,29318
23792,62983,29472
25208,62847,29576
26569,62932,29586
27772,62900,29593
28776,62919,29663
29644,62948,29556
30228,62861,29390
30762,62965,29583
31264,62983,29524
31792,62901,29604
32340,62980,29654
32868,62957,29648
33186,62935,29645
33324,62935,29682
33368,62900,29574
33372,62885,29319
33486,62948,29460
33526,62964,29428
33576,62964,29478
33620,62976,29498
33664,62964,29397
33528,62940,29513
33716,62832,29460
33800,62916,29612
33780,62892,29697
33852,62892,29717
33896,62848,29732
33992,62948,29735
33924,62976,29764
34100,62872,29812
33916,62953,29804
34004,62924,29807
34008,62901,29842
34012,62868,29858
34072,62895,29884
34112,62924,29968
34152,62926,29934
34020,62944,30028
34282,62956,29648
34332,62948,29830
33872,62956,29949
33612,62936,30004
33880,62832,29988
34348,62820,29876
34597,62820,29727
34600,62916,29900
34525,62957,29887
34480,62855,29917
34544,62969,29893
34512,62980,29860
34508,62983,29793
34468,62847,29809
34516,62918,29736
34608,62810,29681
34600,62892,29378
34564,62820,29629
34656,62940,29573
34664,62943,29574
34496,62978,29280
34604,62887,29312
34688,62940,29526
34984,62844,29573
35024,62908,29579
34928,62909,29413
35212,62881,29319
35285,62917,29396
35372,62873,29356
35412,62948,29353
35412,62960,29345
35504,62982,29364
35508,62982,29356
35492,62876,29389
35768,62846,29376
35848,62916,29344
35904,62823,29320
35920,62884,29372
35945,62876,29349
36052,62948,29294
36080,62958,29220
36101,63015,28968
36152,62888,29073
36129,62940,29138
36108,62952,29164
36084,62941,29191
36056,62830,29188
36008,62933,29206
35900,62968,29204
35820,62892,29158
35680,62968,29209
35572,63015,29183
35424,62982,29202
35288,62855,29143
35084,62933,29118
35060,62900,29108
34944,62927,29143
34820,62884,29125
34676,62964,29065
34618,62967,29052
34566,62927,29029
34436,63005,29044
34404,62974,29028
34013,62956,29028
33860,62951,29072
33592,62948,29024
33565,62922,29044
33572,62943,29017
33236,62974,28992
32829,62982,28992
32904,62940,28977
33135,63015,28869
33192,62980,28831
33224,62948,28797
32904,62855,28796
32684,62943,28729
32568,62943,28710
32444,62913,28637
32312,62968,28623
32321,62964,28704
32252,62919,28604
32120,63000,28695
32010,62868,28712
31952,62933,28820
31877,62948,28767
31808,62936,28764
31788,62808,28876
31780,62940,28944
31702,62964,28913
31616,62972,28836
31700,62958,28565
31732,62903,28877
31591,62952,28948
31652,62937,28890
31652,62844,28956
31658,62928,28585
31580,62880,28820
31600,62935,28924
31608,62868,28991
31532,62956,28956
31688,62964,28981
31488,62983,29022
31684,62974,29064
31492,62828,28967
31645,62919,28662
31764,62917,28897
31716,62855,28964
31856,62916,29026
31853,62960,29044
31746,62949,28965
31606,62970,28828
31792,62983,29020
31888,62940,28989
31888,62926,28748
31896,62920,28938
31912,62917,28960
31934,62876,28980
31908,62909,28886
31936,62951,28760
32032,62956,28905
32060,62964,28892
32020,62949,28887
32024,62956,28896
32064,62933,28920
32024,62920,28910
32016,62924,28518
31824,62901,28768
32156,62928,28820
32140,62941,28489
32068,62919,28846
32024,62936,28806
32024,62900,28600
32013,62956,28756
32113,62841,28775
32186,62930,28716
32210,62823,28696
32220,62880,28785
32144,62840,28738
32196,62948,28504
32160,62967,28744
32164,62980,28765
32104,62983,28805
32132,62968,28879
32080,62932,28549
32049,62928,28773
32104,62884,28812
32192,62900,28884
32112,62936,28884
31988,62855,28824
32032,62948,28620
32132,62968,28880
32213,63005,28892
31984,62869,28908
32016,62924,28885
31988,62932,28812
31988,62908,28937
31944,62851,28991
31800,62919,29056
31676,62960,28997
31956,62855,28956
31616,62972,28688
31248,62983,28949
31630,62952,29081
32100,62951,29044
32428,62940,29122
32440,62874,29090
32388,62844,29017
32334,62943,28857
32420,62974,28992
32424,62948,29126
32428,62972,29124
32440,62978,28778
32392,62964,29073
32396,62956,29094
32332,62948,29116
32364,62916,29091
32348,62919,28760
32344,62953,28926
32320,62979,29063
32352,62983,29140
32353,62924,29111
32292,63004,29054
32240,62953,29045
32260,62949,28876
32276,62957,29073
32209,62956,29118
32328,62936,29129
32252,62949,29089
32476,62983,28984
32520,62911,29080
32536,63015,29172
32576,63033,29180
32536,62940,29191
32412,62964,29249
32320,62933,29285
32180,62948,29198
32097,62943,28998
31860,62956,29181
31652,62983,29261
31928,62983,29300
32100,63012,29370
31988,62916,29348
32064,62956,29114
31844,62973,29337
31772,62978,29398
31816,62870,29410
31816,62932,29448
31752,62972,29089
31636,62983,29343
31828,62983,29084
31861,62919,29340
31824,63013,29408
31872,62983,29423
31928,62852,29460
31988,62953,29433
32088,62957,29449
32176,62848,29467
32272,62959,29476
32244,62999,29476
32232,62919,29524
32228,62999,29136
32000,63039,29374
31448,62927,29356
30794,62970,29345
30616,62844,29474
30560,62872,29478
30804,62932,29493
31660,62929,29440
32848,62983,29164
34032,62983,29322
35520,63028,29472
37548,62967,29504
39536,63012,29516
40992,63004,29580
42132,62948,29550
43008,62982,29598
43712,63001,29593
44328,62965,29532
44476,63047,29352
42388,63060,29472
38668,63064,29614
29524,63080,29628
21356,63055,29712
18044,63012,29738
18287,62983,29764
19992,62909,29736
21824,62965,29752
23392,62972,29772
24850,63020,29792
25860,63021,29831
27205,63024,29881
28229,63044,29815
28988,63012,29749
29680,63004,29482
30312,62983,29457
30772,62983,29444
31220,62964,29502
31608,62893,29580
32100,63020,29757
32400,62919,29744
32788,63028,29758
32920,63053,29785
32980,62935,29749
32992,62983,29737
33036,62966,29789
33040,62983,29762
32949,62975,29733
33189,63004,29713
33208,63028,29722
33324,63028,29714
33384,63028,29455
33452,62983,29680
33508,63023,29767
33505,63012,29767
33532,63029,29554
33408,63004,29712
33372,62983,29745
33401,63015,29844
33424,63024,29732
33668,62948,29596
33860,63047,29792
33856,63004,29870
33736,63028,29908
33788,63035,29589
33824,63021,29753
33756,62960,29824
33736,62964,29854
33756,63005,29853
33956,62965,29488
33952,63045,29597
34014,63021,29708
34104,63093,29720
34008,63072,29727
33885,63022,29585
33796,63041,29412
33905,62920,29536
34048,63015,29607
34044,63052,29575
33492,63052,29187
33640,63071,29409
34144,63080,29442
34600,63110,29393
34632,63079,29118
34668,62965,29142
34492,62965,29265
34452,63005,29252
34510,62937,29250
34286,63047,28888
34644,62983,29125
34696,63079,29156
34592,63111,29086
34704,63120,29076
34980,63095,28700
35028,63076,28896
34944,63052,29012
35264,63061,28978
35216,63045,28879
35212,63079,28754
35372,63079,28879
35416,63110,28886
35432,63111,28917
35524,63143,28821
35500,63055,28598
35472,63088,28788
35652,63028,28781
35748,63080,28807
35888,63052,28732
35760,63092,28640
35744,63143,28740
35308,63133,28739
35904,63172,28756
35972,63168,28414
35812,63151,28592
35637,63031,28679
35376,63111,28672
35336,63077,28737
35388,63077,28365
35060,63048,28516
35048,63148,28631
34872,63095,28689
34468,63174,28700
34924,63190,28595
34680,63168,28357
34529,63136,28433
34353,63060,28596
34268,63125,28606
34060,63127,28612
34096,63053,28652
33965,63188,28290
33772,63086,28447
33661,63175,28573
33476,63111,28626
33464,63157,28551
33260,63148,28526
33208,63156,28362
33278,63140,28482
32925,63148,28541
32772,63164,28596
32832,63077,28636
32612,63111,28497
32476,63212,28487
32398,63223,28532
32244,63192,28569
32136,63172,28527
31896,63182,28508
31737,63160,28453
32072,63135,28162
32460,63180,28345
32248,63103,28173
31920,63188,28364
31594,63111,28420
31670,63231,28415
31660,63192,28324
31476,63188,28268
31544,63079,28132
31388,63160,28072
31524,63152,28332
31616,63108,28325
31656,63205,28324
31601,63215,28320
31582,63168,28332
31540,63239,28380
31572,63206,28368
31684,63141,28318
31664,63189,28025
31665,63084,28204
31632,63161,28213
31648,63204,28127
31796,63164,28108
31684,63208,28167
31768,63239,28157
31784,63260,28199
31824,63236,28284
31828,63188,28300
31892,63102,28297
31788,63169,28308
31896,63180,28302
31921,63204,28364
31888,63237,28263
32004,63239,28228
32062,63150,27953
32004,63175,28061
32017,63236,28094
31980,63150,28220
32060,63207,28240
32128,63221,28308
32084,63196,28181
32048,63231,27913
32085,63168,27941
32064,63239,28044
32068,63270,28109
32044,63276,28181
32116,63181,28181
32160,63216,28228
32156,63163,28156
32184,63208,27821
31905,63213,27917
32158,63149,28023
32244,63260,28021
32276,63271,28028
32260,63278,28007
32192,63288,28079
32096,63285,28056
32080,63248,28118
32048,63228,28061
31962,63200,28060
32008,63228,28061
32052,63220,27999
31996,63207,27700
32048,63278,27782
32136,63323,27878
32156,63316,27932
32004,63248,27995
31832,63207,27928
31836,63263,27943
31872,63261,27559
31872,63239,27781
31880,63294,27896
31788,63310,27908
31756,63308,27492
31694,63284,27598
31672,63304,27724
31680,63204,27736
31724,63257,27742
31852,63221,27783
32004,63252,27735
32000,63268,27648
32016,63207,27367
32172,63316,27612
32160,63303,27328
32092,63348,27298
32048,63364,27500
31920,63340,27572
31828,63314,27580
31848,63314,27608
31868,63239,27226
31809,63284,27530
31824,63231,27573
31954,63353,27516
32128,63348,27235
32216,63366,27498
32289,63367,27548
32312,63320,27497
32220,63324,27380
31876,63292,27564
31950,63228,27605
31984,63239,27296
31932,63316,27460
32004,63344,27580
32160,63367,27526
32320,63348,27222
32420,63407,27496
32273,63360,27510
32125,63253,27474
32028,63306,27301
32072,63341,27436
32228,63340,27492
32280,63332,27332
32252,63391,27430
32200,63397,27415
32176,63404,27172
32084,63348,27341
31860,63389,27374
31712,63367,27376
31596,63320,27269
31576,63300,27149
31636,63357,27287
31604,63376,27311
31608,63317,27269
31596,63421,27179
31574,63428,27308
31716,63428,27326
31816,63399,27391
31936,63307,27021
32032,63367,27303
31952,63276,27359
31908,63362,27404
31864,63340,27439
31896,63415,27489
31972,63328,27536
32088,63423,27336
32132,63430,27486
32000,63404,27636
31768,63396,27662
31388,63407,27728
30913,63390,27790
30664,63372,27876
30872,63423,27528
31388,63444,27852
32528,63440,27958
34085,63448,28048
35456,63405,28076
36936,63440,28145
38792,63431,28064
40764,63432,28287
42913,63448,28364
44424,63428,28464
45337,63492,28553
45968,63495,28308
46680,63456,28613
46684,63550,28774
44376,63536,28916
40476,63525,28772
30932,63516,29024
22000,63509,29148
18245,63469,28928
18252,63460,29331
19956,63492,29431
21768,63495,29205
23001,63495,29492
23885,63532,29695
25005,63540,29830
26092,63492,29959
27128,63399,29959
28076,63440,29889
28848,63472,30180
29484,63478,30337
30063,63480,30444
30481,63524,30532
30734,63519,30661
31036,63544,30660
31296,63551,30789
31596,63517,30989
31900,63492,31114
32236,63495,31087
32400,63485,31246
32364,63492,31392
32276,63516,31457
32348,63549,31511
32309,63548,31732
32388,63556,31897
32557,63472,31960
32564,63544,31916
32517,63533,32213
32436,63540,32353
32316,63476,32452
32304,63495,32569
32300,63444,32770
32360,63567,32725
32369,63469,32772
32416,63558,33041
32496,63551,33213
32600,63562,33300
32578,63444,33440
32652,63533,33444
32728,63431,33472
32740,63524,33756
32696,63565,33897
32724,63593,34047
32708,63581,33913
32672,63608,34138
32685,63604,34292
32832,63492,34388
33008,63532,34468
33092,63580,34474
33028,63526,34676
32976,63519,34796
33024,63576,34620
33096,63620,34909
33244,63607,35013
33336,63548,35115
33356,63652,35079
33428,63605,35144
33492,63604,35351
33486,63592,35429
33476,63516,35588
33504,63572,35383
33568,63572,35561
33598,63623,35755
33608,63524,35805
33569,63632,35911
33624,63668,35992
33657,63640,36069
33772,63623,36108
33940,63495,36212
34072,63623,36205
34252,63623,36161
34360,63632,36398
34384,63653,36482
34528,63655,36588
34592,63600,36277
34704,63692,36503
34772,63564,36729
34760,63652,36804
34820,63663,36935
34880,63556,36633
34941,63612,36968
34920,63668,37038
34884,63692,36871
34972,63700,37156
35032,63695,37228
35116,63724,37276
35144,63704,37262
35016,63676,37345
34844,63700,37421
34720,63676,37383
34580,63687,37380
34584,63709,37528
34636,63716,37638
34504,63725,37696
34360,63751,37541
34240,63772,37735
34104,63727,37776
34028,63623,37820
33868,63719,37664
33640,63696,37806
33500,63700,37902
33440,63741,37949
33444,63684,37968
33460,63751,37996
33288,63751,38038
33188,63685,38071
33018,63751,38104
32532,63740,37809
32188,63751,38012
32268,63720,38132
32512,63681,38144
32680,63751,38216
32617,63788,38126
32448,63719,38044
32256,63812,38216
32196,63788,38247
32104,63751,38164
32017,63684,38049
31768,63764,38244
31666,63733,38279
31576,63743,38276
31516,63789,38333
31457,63732,38182
31368,63768,38295
31472,63713,38348
31416,63809,38433
31337,63764,38301
31176,63775,38165
31092,63727,38255
31020,63720,38273
30920,63751,38331
31046,63773,38440
31124,63751,38468
31088,63796,38474
31032,63839,38380
30978,63826,38422
31088,63796,38524
31260,63796,38540
31272,63716,38647
31242,63672,38518
31369,63751,38456
31280,63751,38605
31398,63751,38609
31408,63794,38689
31380,63748,38468
31404,63847,38652
31460,63802,38685
31548,63781,38580
31625,63792,38685
31664,63776,38786
31712,63783,38633
31784,63821,38534
31814,63835,38684
31840,63840,38736
31866,63852,38749
31920,63861,38609
31960,63832,38534
31996,63800,38731
32032,63828,38760
31976,63802,38764
31980,63802,38759
32064,63837,38791
32180,63860,38856
32252,63836,38548
32229,63877,38592
32236,63860,38712
32284,63852,38777
32332,63740,38797
32320,63840,38791
32328,63823,38781
32352,63812,38783
32340,63838,38868
32208,63791,38791
32176,63860,38740
32264,63895,38612
32386,63879,38524
32410,63832,38604
32356,63839,38710
32208,63840,38733
32173,63822,38720
32152,63740,38751
32209,63868,38537
32256,63809,38613
32292,63877,38702
32328,63896,38702
32208,63901,38704
32152,63876,38676
32192,63861,38757
32216,63852,38535
32176,63844,38480
32092,63836,38556
32132,63860,38588
32224,63806,38657
32348,63879,38651
32425,63903,38706
32444,63908,38400
32432,63879,38588
32388,63864,38653
32364,63863,38637
32308,63828,38568
32320,63842,38540
32400,63879,38639
32436,63844,38628
32456,63901,38628
32544,63918,38607
32556,63920,38668
32456,63879,38624
32432,63879,38564
32332,63868,38348
32348,63772,38525
32336,63855,38553
32380,63805,38560
32477,63924,38472
32464,63927,38352
32432,63948,38369
32476,63848,38444
32556,63892,38484
32584,63861,38476
32588,63903,38444
32600,63876,38453
32544,63893,38464
32396,63920,38288
32284,63940,38380
32172,63934,38407
32208,63943,38390
32256,63964,38456
32156,63925,38241
32048,63893,38340
32036,63903,38364
32068,63852,38349
32096,63896,38369
32112,63928,38150
32132,63936,38304
32084,63920,38329
32005,63956,38318
32021,63860,38396
32069,63920,38300
32068,63828,38132
32045,63909,38247
31984,63871,38263
31988,63879,38297
32020,63932,38245
32076,63949,38308
32128,63957,38340
32236,63973,38377
32446,63964,38279
32652,63943,38268
32700,63940,38376
32396,63924,38407
31964,63836,38302
31736,63919,38292
31597,63863,38433
31593,63944,38462
31412,63909,38473
31312,63969,38479
31684,63983,38580
32624,63948,38560
33588,63876,38573
34692,63869,38469
36380,63901,38380
38160,63921,38528
40036,63960,38596
41572,63983,38640
42448,63984,38663
42868,64007,38772
43352,63950,38508
44036,63972,38725
42852,63956,38764
40440,63992,38785
35796,63972,38816
26840,63968,38824
21368,63992,38672
19704,64000,38704
20749,63860,38833
22548,63956,38977
23984,64002,38996
25068,63975,38999
25936,63919,39005
26828,63952,38919
27592,63940,39004
28309,63940,39076
29072,63964,39124
29784,63980,39136
30388,63960,39216
30900,63912,39071
31424,63975,39090
31852,63980,39201
32180,63957,39324
32484,63966,39040
32784,63918,39161
33006,63908,39290
33165,63960,39308
33248,63982,39337
33188,63997,39373
33236,63983,39469
33292,64007,39478
33352,63980,39380
33440,63957,39417
33440,63975,39397
33448,63860,39201
33468,63956,39318
33528,63998,39456
33664,63992,39469
33692,64007,39480
33728,64020,39560
33760,64007,39348
33776,63988,39404
33816,63972,39530
33884,63879,39570
33840,63956,39457
33840,63900,39559
33840,63996,39568
33840,63975,39641
33888,64006,39588
33932,64007,39424
34053,63964,39564
34120,63991,39569
34192,63983,39556
34192,63900,39574
34096,63960,39424
34048,63965,39317
34084,63965,39406
34160,64007,39406
34224,63999,39372
34284,64007,39332
34330,64028,39374
34408,63996,39320
34468,63988,39272
34468,63999,39040
34344,63884,38966
34361,63938,38960
34436,64007,39017
34516,63968,38992
34604,64007,39022
34644,63975,38648
34633,64053,38821
34702,63962,38687
34720,64006,38690
34692,64007,38729
34780,63980,38717
34948,64005,38680
35072,64036,38494
35159,64037,38380
35232,63944,38361
35264,64061,38433
35300,64007,38432
35372,64007,38404
35388,64007,38357
35052,63925,38303
35080,63981,38329
35456,64007,37968
35936,64047,38068
36212,64071,38116
36228,64057,38074
36112,64084,38105
36092,64087,37953
36036,64007,37900
35960,64039,37598
35904,64029,37688
35848,63932,37757
35796,64007,37778
35740,63964,37748
35680,63975,37676
35616,64052,37657
35500,64007,37445
35352,64087,37410
35196,64063,37463
35016,64040,37460
34908,64054,37412
34717,64007,37228
34589,64032,37224
34488,64073,37245
34416,64072,37225
34376,64085,37221
34272,64117,36932
34104,64108,37020
33902,64068,37060
33800,64060,37039
33664,64044,37017
33532,64039,36979
33364,64007,36924
33272,64054,36918
33192,64007,36972
33104,64088,36940
33085,64092,36922
32992,64108,36837
32924,63988,36868
32848,64055,36734
32733,64063,36684
32648,64039,36580
32545,63964,36700
32428,64077,36653
32292,64063,36700
32192,64068,36265
32096,64108,36441
32072,64080,36540
32004,64072,36519
31968,64052,36501
31906,64053,36308
31876,63996,36436
31822,64030,36441
31729,64081,36416
31680,64074,36392
31696,64092,36372
31732,64108,36404
31756,64096,36239
31748,63999,36084
31748,64054,36232
31720,64052,36253
31704,63940,36265
31689,64044,36249
31694,63973,36300
31800,64080,36264
31929,64080,36252
31952,64100,36241
31956,64007,36221
31964,64053,36018
31984,64054,35911
32052,63949,36007
31976,63999,36045
31961,64007,36044
32013,64061,35992
32129,64079,36000
32160,64079,35969
32173,63992,35961
32192,64078,35942
32248,64036,35879
32252,64044,35906
32220,63945,35805
32220,64007,35466
32220,64007,35679
32260,63972,35684
32309,64076,35704
32340,64081,35712
32394,64088,35684
32456,64072,35653
32506,64063,35639
32532,64044,35678
32533,64007,35501
32492,64007,35280
32444,64031,35273
32432,64042,35310
32392,64044,35400
32321,63983,35468
32393,64078,35478
32452,64084,35441
32424,63976,35436
32332,64032,35436
32312,64044,35399
32316,64007,35412
32360,64032,35268
32404,64054,34988
32440,64046,34981
32420,64029,35095
32428,64103,34949
32445,64085,35040
32437,63956,35133
32324,64032,35161
32309,64040,35165
32340,63968,35204
32364,64045,35184
32300,64071,35170
32293,64072,35238
32324,64076,34839
32348,64007,35005
32340,64076,35095
32384,64061,35108
32392,64052,35056
32361,63956,35098
32348,63943,34914
32328,64029,34901
32328,63999,34956
32376,64020,34991
32417,64007,34926
32508,64101,34840
32477,64063,34732
32524,64047,34628
32580,64053,34761
32740,64052,34761
32672,63927,34750
32624,64029,34718
32596,64078,34676
32664,64080,34552
32760,64061,34628
32769,64038,34655
32736,64087,34669
32692,64063,34384
32669,63967,34432
32689,64036,34572
32648,63983,34559
32608,64032,34476
32592,64076,34476
32540,64071,34469
32340,63996,34377
31904,64096,34345
32060,64084,34425
32432,64068,34409
32796,64031,34276
32957,64052,34303
32893,64045,34376
32736,63964,34338
32664,64078,34013
32520,64084,34285
32446,64086,34273
32366,64100,34260
32242,64084,34119
32084,64063,34107
32070,64056,34185
32160,64060,34199
32201,64007,34136
32213,63991,33908
32212,64056,33980
32196,64087,34112
32120,64080,34119
32150,64096,34159
32160,64037,34033
32073,64063,33984
32020,63940,33856
32029,63961,34044
32072,64036,34069
32076,64039,34033
32124,63964,34079
32192,64068,33694
32260,64080,33892
32408,64060,34014
32544,64076,34012
32624,64044,34037
32624,64039,34055
32492,64040,33940
32037,63928,33799
31684,64031,34005
31492,64067,34045
31424,64071,34089
31604,64076,33860
32452,64076,34024
33688,64007,34032
34768,64007,34084
36156,63948,34077
38012,64037,33807
40077,64020,34048
42064,64044,34089
43184,64085,34037
43456,64124,33886
43372,64112,34072
43594,64141,34132
43480,64132,34044
41272,64068,33911
38132,64092,34118
30256,64088,34176
21876,64056,34240
18056,64060,34092
17976,64088,33988
19756,64072,34132
21708,63975,34208
23349,64024,34237
24644,63989,34264
25888,64054,34036
27168,64028,34144
28205,64044,34217
28996,64007,34169
29664,64039,34244
30228,64071,34092
30764,64069,34084
30980,63972,33841
31164,64076,34020
31712,64055,34092
32420,64040,34121
33004,64007,34144
33172,64037,34151
33201,64025,33923
33214,64031,34080
33324,64064,34108
33352,64071,34064
33412,64068,34132
33436,64092,33782
33446,64004,33885
33448,64061,33932
33508,64055,33996
33532,64046,34039
33512,64029,33920
33520,64036,33671
33524,64063,33889
33527,63972,33936
33616,63984,33965
33624,64061,33981
33641,64007,33604
33640,64037,33706
33656,63948,33926
33676,64044,33916
33736,64007,33565
33788,63932,33884
33844,64068,33881
33860,64073,33893
33900,64096,33528
33920,64096,33633
33962,64088,33775
33960,64062,33764
33964,64044,33731
33960,64047,33644
33984,64007,33316
34040,63949,33428
34124,64058,33574
34196,63980,33543
34196,64068,33548
34160,64084,33458
34196,64103,33214
34248,64076,33316
34336,64068,33360
34348,64025,33350
34364,63959,33018
34372,64056,33188
34428,64100,33248
34556,64088,33200
34668,64099,33219
34732,64068,33084
34745,64088,32916
34744,64080,32992
34788,64052,33062
34876,64056,33030
35004,63967,33036
35104,64069,33012
35208,64097,32626
35284,64007,32813
35300,64092,32887
35425,64120,32872
35520,64116,32896
35692,64039,32878
35840,64073,32861
35940,63991,32820
36036,64047,32790
36056,63999,32468
36052,64111,32568
36068,64124,32680
36120,64135,32677
36136,64155,32736
36142,64128,32748
36104,64031,32721
36140,64004,32689
36176,64089,32612
36160,64052,32610
36048,64007,32576
35952,64116,32641
35918,64135,32616
35904,64056,32612
35493,64128,32673
35064,64157,32526
35152,64074,32324
35452,64007,32436
35656,64096,32542
35454,63996,32568
35149,64110,32580
34840,64132,32548
34648,64148,32534
34532,64144,32533
34360,64084,32560
34196,64157,32547
34020,64128,32500
33804,64124,32493
33620,64037,32496
33432,64108,32485
33272,64110,32489
33152,64153,32528
33004,64093,32526
32846,64175,32189
32673,64199,32389
32552,64135,32412
32461,64135,32452
32346,64116,32433
32234,64120,32449
32068,64109,32436
32000,64117,32460
31948,64108,32329
31888,64153,32318
31820,64174,32099
31652,64180,32247
31532,64181,32340
31440,64125,32344
31344,64084,32359
31232,64135,31952
31156,64110,32148
31176,64127,32183
31276,64135,32193
31209,64119,32222
31180,64157,32224
31205,64181,32197
31174,64135,32199
31148,64120,32184
31200,64120,32207
31248,64124,31855
31312,64093,32095
31396,64108,32092
31332,64149,32095
31288,64156,32143
31280,64165,31962
31280,64093,31708
31295,64156,31852
31244,64120,31988
31240,64128,32025
31293,64084,31992
31428,64068,31604
31508,64116,31852
31560,64144,31903
31576,64083,31879
31588,64135,31849
31649,64156,31841
31672,64164,31814
31716,64116,31784
31828,64071,31805
31858,64100,31820
31914,64108,31685
31928,64125,31620
31924,64167,31694
31868,64153,31746
31808,64164,31452
31772,64156,31596
31336,64168,31653
31288,64135,31653
31642,64135,31705
32080,64080,31612
32252,64028,31550
32173,64126,31257
32120,64160,31253
32080,64183,31366
32012,64174,31380
31950,64117,31489
31876,64135,31533
31881,64156,31576
31912,64135,31326
31960,64135,31495
32004,64133,31546
32080,64135,31509
32141,64149,31558
32120,64180,31509
32080,64173,31489
32104,64207,31511
32112,64196,31498
32068,64156,31484
32046,64055,31461
31976,64159,31484
31900,64045,31412
31870,64111,31334
31860,64112,31183
31908,64183,31364
31980,64116,31348
32040,64213,31340
32024,64134,31333
32064,64148,31340
32106,64156,31285
32140,64159,31284
32160,64135,31244
32201,64149,30902
32248,64184,31105
32248,64176,31180
32276,64190,31192
32173,64228,31205
32188,64201,31185
32172,64168,31228
32160,64135,30824
32156,64135,31087
32144,64135,31085
32196,64160,31075
32232,64131,31056
32256,64108,31076
32276,64205,31077
32272,64199,31016
32176,64196,31039
32112,64096,31073
32120,64173,31000
32112,64168,30983
32140,64083,30951
32164,64183,30953
32252,64148,30965
32268,64170,30886
32240,64212,30968
32263,64247,30852
32224,64204,30606
32181,64164,30697
32161,64181,30520
32080,64172,30800
31992,64173,30497
31929,64172,30581
31890,64192,30598
31824,64212,30660
31728,64223,30756
31696,64168,30756
31704,64181,30748
31652,64133,30726
31528,64188,30708
31604,64181,30761
31648,64165,30712
31652,64188,30759
31644,64108,30746
31618,64200,30714
31680,64228,30672
31740,64244,30599
31756,64213,30584
31728,64196,30369
31696,64191,30471
31688,64180,30564
31728,64080,30548
31841,64191,30584
31908,64200,30621
31932,64208,30686
31956,64231,30692
31896,64255,30720
31383,64223,30608
30476,64181,30342
30252,64174,30462
30472,64084,30596
30928,64149,30676
31672,64093,30696
32852,64108,30700
33900,64197,30724
35220,64152,30786
37140,64236,30768
39293,64176,30727
41400,64210,30609
42732,64132,30742
43180,64215,30806
43232,64153,30876
43484,64200,30892
43788,64192,30692
42004,64262,30856
39152,64236,30914
32812,64308,30960
23273,64220,30972
18226,64164,31020
17314,64221,31052
18836,64208,31124
20900,64071,31100
22573,64204,31167
24008,64192,31124
25388,64175,31132
26712,64239,31132
27792,64252,31172
28696,64223,31116
29444,64220,31121
30088,64213,31100
30616,64184,31014
31068,64181,30798
31544,64211,30772
31908,64213,30901
32134,64222,30875
32348,64252,30983
32600,64263,31048
32752,64255,31007
32840,64220,31037
32980,64188,31005
33072,64205,30996
33092,64148,30932
33076,64213,30903
33156,64237,30836
33220,64204,30713
33256,64249,30628
33264,64244,30496
33220,64260,30853
33180,64223,30830
33340,64196,30783
33468,64215,30797
33512,64188,30727
33518,64188,30669
33592,64255,30405
33638,64260,30738
33444,64223,30676
33184,64295,30681
33564,64247,30640
33604,64236,30633
33640,64135,30621
33662,64216,30533
33664,64188,30480
33704,64229,30445
33712,64173,30404
34080,64260,30348
34144,64280,30320
34020,64221,30319
33984,64263,30233
34056,64236,30183
34116,64189,30135
34028,64230,30085
34064,64207,29999
34120,64152,29954
34180,64258,29881
34124,64263,29845
34168,64280,29860
34296,64295,29786
34352,64282,29680
34380,64148,29637
34332,64237,29591
34432,64244,29533
34265,64231,29480
33948,64245,29452
34276,64229,29405
34720,64200,29364
35116,64281,29367
35192,64316,29353
35184,64263,29332
35232,64244,29292
35296,64263,29236
35324,64260,29293
35432,64231,29279
35520,64263,29136
35640,64289,28842
35748,64258,28986
35752,64260,28988
35764,64340,28861
35860,64301,29005
36004,64293,29000
36176,64212,28992
36240,64263,29061
36288,64256,29053
36352,64201,29047
36380,64312,29068
36392,64308,29097
36368,64336,28985
36320,64263,28916
36240,64327,28936
36184,64284,28833
36076,64253,28952
36084,64295,28980
35964,64258,28884
35820,64303,28938
35680,64332,28956
35576,64300,28935
35412,64356,28918
35320,64372,28932
35220,64300,28938
35092,64263,28920
34908,64303,28911
34740,64300,28917
34508,64236,28904
34232,64293,28948
34172,64284,28949
34036,64260,28949
33948,64346,28959
33780,64364,28876
33556,64324,28881
33320,64316,28903
33224,64327,28920
33192,64228,28919
32940,64311,28907
32822,64317,28896
32608,64356,28918
32448,64340,28926
32360,64327,28857
32236,64375,28812
32128,64352,28591
32000,64229,28572
31909,64312,28687
31916,64308,28831
31912,64292,28837
31672,64320,28852
31628,64308,28868
31468,64352,28889
31440,64361,28852
30910,64391,28878
30817,64263,28848
31146,64324,28814
31565,64316,28831
31661,64322,28806
31536,64292,28820
31298,64326,28821
31340,64263,28812
31260,64353,28841
31220,64320,28789
31204,64359,28489
31228,64340,28678
31296,64239,28764
31224,64308,28760
31244,64312,28799
31264,64231,28768
31316,64314,28824
31356,64335,28574
31412,64356,28573
31444,64320,28712
31436,64382,28736
31422,64367,28770
31388,64324,28698
31408,64341,28424
31428,64303,28669
31613,64292,28695
31652,64320,28681
31724,64340,28708
31700,64293,28708
31704,64359,28674
31704,64388,28725
31692,64356,28611
31676,64316,28343
31772,64324,28551
31784,64320,28678
31856,64292,28660
31904,64342,28709
31916,64348,28720
32012,64310,28678
31988,64367,28600
31968,64372,28404
31964,64372,28484
32004,64343,28535
32004,64341,28626
32020,64292,28680
32044,64308,28656
32008,64333,28708
32064,64356,28656
32056,64364,28591
32032,64380,28285
31988,64315,28311
31929,64359,28388
31996,64263,28484
32072,64318,28588
32096,64292,28608
32036,64320,28652
31973,64340,28650
31968,64351,28660
31966,64374,28621
31984,64383,28636
32112,64401,28628
32212,64380,28717
32168,64355,28713
32092,64348,28679
31476,64285,28614
31384,64237,28598
31672,64348,28673
32057,64351,28525
32292,64367,28472
32252,64391,28441
32150,64422,28445
32101,64352,28445
31956,64260,28471
32096,64332,28501
32116,64353,28575
31892,64335,28609
32076,64304,28644
32008,64373,28644
32044,64380,28693
32088,64391,28660
32072,64400,28577
32180,64391,28320
32224,64356,28342
32244,64367,28484
32348,64312,28608
32287,64341,28612
32256,64350,28631
32244,64373,28658
32236,64391,28616
32248,64388,28615
32284,64428,28468
32288,64391,28639
32300,64364,28634
32392,64356,28687
32448,64280,28617
32248,64248,28621
32276,64320,28349
32316,64380,28353
32320,64364,28445
32333,64327,28524
32256,64412,28580
32248,64342,28668
32192,64372,28623
32296,64381,28583
32445,64365,28588
32496,64359,28599
32380,64383,28636
32313,64391,28631
32296,64304,28637
32213,64422,28646
32338,64404,28668
32440,64391,28662
32408,64343,28325
32328,64327,28421
32224,64372,28525
32120,64335,28557
32036,64289,28594
31988,64389,28592
32044,64414,28585
31976,64437,28637
31912,64432,28648
31900,64336,28596
31876,64391,28606
31932,64391,28564
31904,64380,28297
31884,64359,28508
32108,64391,28572
31952,64413,28608
31980,64412,28676
31952,64412,28686
32084,64408,28638
32124,64404,28584
32104,64391,28302
32112,64383,28378
32240,64332,28463
32384,64375,28574
32421,64337,28648
32458,64361,28676
32352,64408,28732
32022,64428,28756
31724,64448,28729
31348,64407,28762
30800,64391,28748
30996,64383,28461
32296,64380,28597
34036,64367,28732
35200,64349,28748
36508,64424,28768
38396,64381,28808
40428,64404,28895
42520,64468,28925
43600,64380,28996
43992,64428,29060
44060,64420,28984
44332,64420,28749
44368,64424,29084
42068,64447,29165
38656,64436,29240
30304,64468,29200
21220,64436,28992
17376,64468,29286
17440,64391,29372
19104,64391,29400
21054,64412,29503
22708,64391,29463
24104,64381,29460
25516,64409,29190
26824,64428,29282
27908,64431,29444
28756,64380,29492
29429,64464,29414
30024,64439,29545
30556,64360,29638
31060,64317,29708
31490,64372,29708
31824,64367,29742
32016,64391,29701
32380,64412,29420
32620,64391,29424
32620,64436,29586
32740,64453,29703
32844,64428,29806
32892,64410,29816
32936,64391,29862
33016,64391,29889
32976,64383,29908
33040,64423,29984
33116,64364,29998
33188,64415,30014
33232,64428,29668
33125,64457,29765
33288,64391,29932
33264,64391,30054
33188,64414,30081
33192,64391,30108
33296,64381,30133
33580,64405,30176
33556,64428,30201
33736,64436,30253
33508,64447,30309
33608,64477,30368
33796,64452,30248
33864,64367,30253
33842,64424,30200
33808,64407,30266
33824,64388,30337
33852,64412,30400
33925,64412,30379
33904,64439,30442
33924,64463,30430
34008,64468,30367
34050,64448,30397
34064,64431,30429
33764,64415,30375
33424,64408,30308
33670,64340,30069
34164,64415,30240
34504,64445,30308
34548,64447,30294
34472,64414,30308
34460,64484,30312
34472,64382,30365
34508,64420,30358
34528,64415,30358
34668,64391,30340
34672,64320,29964
34772,64416,30084
34872,64380,30292
34964,64447,30350
35020,64412,30361
35108,64468,30007
35192,64398,30199
35296,64431,30224
35348,64389,30173
35476,64348,30252
35652,64388,30324
35808,64444,30328
35712,64476,30340
35820,64468,30342
35904,64423,30352
36080,64495,30348
36200,64476,30332
36336,64447,30405
36404,64405,30352
36348,64431,30415
36284,64373,30415
36300,64461,30384
36332,64484,30330
36420,64459,30324
36372,64488,30315
36336,64519,30332
36236,64436,30297
36096,64463,30308
35988,64476,30316
35868,64417,30293
35736,64444,30296
35668,64462,30285
35633,64465,30272
35528,64511,30256
35404,64500,30239
35308,64519,30181
35092,64431,30169
34884,64464,30210
34688,64487,30180
34592,64471,30175
34404,64444,30148
34200,64485,30170
34056,64429,30113
33924,64487,30076
33824,64519,30103
33644,64516,29972
33486,64508,29834
33300,64444,29944
33084,64462,29961
32853,64407,29996
32708,64455,29974
32540,64455,29969
32420,64486,29913
32292,64479,29873
32189,64512,29642
32137,64519,29736
31980,64519,29784
31897,64476,29804
31858,64484,29837
31836,64468,29796
31680,64360,29773
31590,64476,29708
31520,64503,29761
31456,64501,29631
31396,64516,29598
31189,64519,29304
30740,64500,29588
30648,64468,29629
31124,64468,29612
31536,64423,29633
31576,64453,29281
31496,64428,29456
31368,64429,29404
31356,64476,29253
31308,64509,29258
31328,64519,29356
31317,64484,29317
31318,64440,29342
31306,64460,29393
31368,64364,29432
31424,64391,29446
31424,64376,29381
31408,64487,29429
31352,64488,29021
31296,64408,29204
31360,64503,29328
31372,64452,29312
31336,64455,29315
31609,64462,29312
31764,64454,29289
31472,64431,29324
31664,64477,29284
31688,64431,28968
31804,64468,29224
31932,64480,29320
31968,64429,29337
31912,64468,29214
31946,64360,29200
31972,64455,28903
31980,64445,29031
31972,64428,29144
31988,64445,29214
32020,64452,29204
31961,64484,29201
31960,64453,29191
31984,64412,29218
31968,64447,29213
31920,64420,29208
31970,64453,29184
31972,64428,29175
32052,64391,29205
32096,64452,29182
32092,64452,29191
32080,64452,29250
32100,64493,29136
32112,64509,29046
32140,64404,28872
32080,64445,29055
32092,64452,29119
32056,64383,29125
32056,64383,29119
32092,64429,29128
32116,64476,29144
32108,64478,29060
32188,64500,28784
32192,64509,28948
32144,64468,29001
32092,64440,28980
32120,64429,29021
32068,64348,28945
32113,64420,28966
32124,64420,29021
32125,64485,29081
32161,64476,29096
32029,64479,29068
31966,64447,29092
31936,64464,29096
31820,64436,29069
31944,64375,29077
32028,64420,29068
32052,64400,29092
32036,64369,29076
32016,64456,29132
32084,64448,29148
32040,64478,29095
31968,64396,29160
31952,64462,29168
32000,64428,29176
32004,64428,29172
31892,64420,29148
31940,64320,29136
31984,64431,29033
31760,64407,28971
31332,64448,29077
31320,64404,29126
31616,64487,29041
32080,64460,28909
32352,64349,28900
32216,64429,29073
32220,64415,29152
32272,64400,29107
32338,64436,29134
32332,64464,29197
32288,64381,29184
32376,64485,29092
32337,64420,28824
32432,64461,29050
31693,64420,29202
32184,64428,29123
32532,64412,28972
32525,64404,29150
32484,64416,29251
32390,64447,29218
32450,64391,29324
32373,64468,29201
32352,64457,29116
32302,64439,29277
32216,64367,29292
32321,64408,29260
32380,64324,29160
32316,64391,29308
32229,64391,29344
32393,64444,29313
32564,64447,29124
32452,64492,29240
32384,64471,29329
32372,64463,29412
32464,64436,29502
32260,64416,29484
32180,64389,29477
32308,64391,29474
32336,64428,29204
31917,64452,29352
31860,64391,29532
32045,64452,29583
32172,64476,29668
32025,64437,29297
31884,64404,29456
31764,64424,29550
31504,64407,29652
31672,64388,29700
31828,64420,29733
31668,64429,29764
31872,64430,29673
31588,64460,29554
31516,64420,29631
31816,64358,29746
32296,64391,29812
32420,64344,29788
32308,64381,29880
32281,64344,29492
32372,64415,29492
32516,64415,29585
32640,64421,29559
32752,64358,29700
32708,64440,29784
32340,64431,29848
32040,64320,29902
31876,64364,29935
31832,64381,29904
31936,64356,29788
32692,64397,29948
33940,64408,29988
34992,64420,30084
36320,64404,29983
38124,64383,29712
40113,64412,29843
42156,64423,30041
43416,64416,30092
43852,64405,30156
44149,64359,30074
44560,64428,30049
44612,64460,29841
42520,64414,30032
39136,64484,30149
30856,64492,30214
21548,64460,30102
17440,64413,29834
17372,64336,29947
19046,64391,30002
20988,64348,30097
22680,64404,30176
24088,64428,30174
25362,64412,30214
26686,64428,30193
28044,64439,30192
28796,64365,30066
29372,64380,29957
29904,64380,29988
30532,64364,30008
30900,64287,29980
31536,64342,29946
32032,64391,29889
32284,64388,29805
32576,64439,29774
32488,64436,29855
32664,64388,29909
33004,64376,29888
33125,64300,29928
33020,64359,29935
33064,64340,29959
33228,64297,29976
33320,64391,29828
33344,64391,29532
33312,64416,29738
33304,64414,29814
33284,64349,29861
33184,64350,29849
33540,64356,29788
33620,64348,29764
33572,64333,29776
33600,64381,29722
33744,64319,29593
33704,64391,29772
33628,64404,29800
33661,64421,29825
33680,64345,29844
33632,64263,29762
33692,64364,29796
33644,64340,29794
33646,64320,29798
33720,64364,29838
33764,64380,29408
33796,64380,29646
33845,64412,29703
33812,64391,29716
33700,64292,29674
33881,64344,29633
34004,64313,29625
34064,64252,29557
34014,64288,29240
34100,64348,29495
33618,64364,29447
34228,64373,29413
34352,64356,29396
34300,64323,29341
34248,64373,29300
34420,64349,29173
34500,64340,29145
34580,64244,29189
34644,64285,29220
34576,64333,29188
34704,64335,28974
34592,64300,28760
34668,64381,28888
34820,64335,28957
34940,64349,28949
35068,64348,28956
35246,64350,28956
35196,64260,28828
35208,64305,28548
35252,64356,28549
34924,64351,28581
35030,64365,28669
35560,64391,28706
36048,64340,28734
36296,64294,28744
36366,64304,28783
36440,64348,28361
36408,64324,28596
36414,64312,28692
36312,64352,28641
36452,64300,28652
36484,64373,28657
36328,64356,28263
36257,64322,28559
36244,64373,28616
36244,64348,28596
36190,64358,28229
36140,64237,28404
36012,64223,28497
35920,64356,28533
35213,64380,28482
35628,64324,28493
35728,64383,28140
35616,64332,28420
35312,64367,28476
35152,64351,28429
35052,64263,28352
34932,64320,28226
34852,64320,28279
34582,64352,28352
34433,64365,28372
34384,64316,28376
34248,64381,28342
34048,64391,28279
33972,64300,27972
33660,64320,28199
33536,64263,28254
33336,64327,28256
33204,64311,28293
33086,64263,28260
32893,64356,28261
32876,64344,28216
32756,64320,27896
32602,64372,28101
32480,64341,28172
32332,64343,28212
32200,64324,28268
32108,64308,28148
31953,64199,27873
32056,64327,27974
31844,64324,28084
31796,64335,28085
31668,64262,28117
31409,64352,28128
31644,64324,28068
31453,64297,27851
31504,64297,28015
31260,64180,28060
31424,64262,28069
31456,64280,28100
31344,64312,28112
31332,64303,28153
31228,64343,28036
30894,64328,27900
30688,64295,28021
30956,64284,28044
31488,64279,28046
31680,64208,28050
31714,64254,28052
31696,64287,28081
31640,64292,28077
31532,64292,28092
31584,64220,28128
31601,64324,28058
31568,64220,27776
31556,64239,27756
31576,64260,27863
31652,64156,27924
31768,64236,28044
31820,64236,28069
31845,64292,28065
31768,64215,28068
31752,64295,28052
31764,64293,28047
31764,64263,28100
31760,64228,28098
31772,64253,28077
31812,64221,28047
31872,64207,28100
31972,64213,28047
31952,64262,28004
31992,64200,27691
32068,64229,27692
32072,64263,27852
32076,64156,27984
32052,64142,28052
31988,64241,28001
32028,64204,27952
31948,64135,27930
31928,64221,27629
31873,64223,27916
31968,64239,27922
32029,64262,27942
32072,64263,28009
32093,64237,27591
32025,64160,27748
31932,64204,27877
31852,64135,27905
31760,64196,27910
31764,64213,27992
31748,64153,27978
31704,64223,27941
31696,64262,27692
31852,64156,27715
31992,64231,28063
31932,64189,28173
31876,64205,28207
31822,64180,28192
31840,64173,28175
31857,64197,28248
31976,64157,28264
32096,64209,28044
31992,64253,28084
31956,64246,28454
32004,64196,28509
31948,64191,28559
31946,64192,28576
32112,64148,28651
31972,64132,28660
32096,64207,28684
31961,64200,28724
31960,64212,28780
32020,64183,28773
32020,64228,28828
31966,64188,28884
31892,64175,28753
31916,64172,28761
31992,64135,28479
32100,64157,28637
32178,64169,28736
32192,64188,28741
32072,64184,28767
32057,64124,28744
32056,64199,28772
31968,64184,28585
31908,64167,28636
31918,64156,28774
31984,64135,28841
31940,64071,28888
31929,64164,28960
31944,64188,28878
31905,64183,28952
31921,64192,29023
31896,64207,29015
31904,64167,29026
31968,64135,29092
32016,64120,29062
32028,64118,28812
32156,64007,28997
32352,64159,29184
32444,64172,29244
32172,64153,29292
31772,64172,29349
31952,64176,29409
32276,64157,29507
32416,64068,29508
32380,64135,29564
32400,64116,29636
32388,64116,29615
32324,64111,29508
32284,64120,29709
32184,64052,29723
32184,64160,29793
32229,64167,29788
32382,64132,29891
32416,64111,30047
32257,64127,30132
32196,64101,30113
32336,64093,30041
32424,64071,30396
32544,64133,30496
32526,64135,30632
32500,64156,30814
32436,64164,30828
32432,64032,30953
32444,64111,30988
32448,64119,30791
32420,64084,30977
32392,64085,31236
32340,64110,31389
32272,64132,31496
32152,64116,31660
32008,64144,31724
31914,64135,31680
31804,64061,31926
31732,64060,32060
31728,64024,32164
31720,64068,32068
31676,64056,32362
31748,64079,32510
31790,64104,32631
31716,64072,32652
31664,64119,32673
31576,64028,32922
31636,64044,33120
31477,63988,33249
31562,64007,33038
31548,63960,33375
31600,64037,33589
31744,63991,33732
31944,64086,33573
32156,64068,33889
32396,64046,34012
32632,63999,34120
32773,64062,34304
32684,64045,34060
32580,64039,34336
32256,63940,34533
32104,64039,34677
32208,64047,34742
32540,64064,34917
33720,64060,34845
34660,64078,34937
35528,64045,35088
37172,64044,35204
39248,64036,35308
41180,64056,35414
43144,64036,35289
43852,64040,35280
44372,64076,35474
44696,64102,35612
45240,64088,35733
44664,64064,35815
42404,64125,35908
38388,64007,35964
28916,64072,36088
21120,64064,36141
17568,64013,36121
17902,63952,35972
20060,64028,36160
21824,63924,36373
23240,64028,36475
24240,64071,36524
25442,64046,36580
25976,63967,36636
26904,63996,36757
28176,64004,36729
28574,63973,36537
29076,63957,36813
29656,63943,36922
30280,64007,37027
30756,64007,37068
31136,63956,36972
31496,64036,36957
31724,64004,37132
31856,63952,37157
31972,63965,37149
32248,63871,37093
32324,63943,37247
32320,63886,37319
32548,63972,37223
32604,63981,37132
32724,64004,37316
32628,63991,37380
32580,63968,37423
32772,63943,37351
32957,63940,37160
33004,63823,37429
33108,63879,37500
33236,63848,37511
33276,63956,37456
33280,63949,37471
33248,63983,37580
33260,63972,37639
33249,63945,37661
33192,63935,37700
33216,63932,37577
33352,63879,37725
33460,63836,37725
33505,63936,37730
33592,63954,37694
33600,63844,37772
33598,63961,37799
33660,63960,37796
33724,63916,37745
33676,63911,37492
33312,63916,37700
33300,63751,37706
33668,63796,37672
34096,63900,37740
34268,63840,37468
34196,63916,37549
34116,63879,37581
34176,63933,37564
34172,63893,37473
34236,63879,37348
34269,63871,37224
34316,63824,37348
34324,63868,37336
34308,63901,37286
34380,63927,37277
34452,63901,37282
34516,63924,37127
34572,63840,36900
34664,63879,37042
34728,63877,37068
34780,63820,37052
34840,63861,36990
34960,63855,36975
35124,63840,36852
35196,63892,36828
35300,63832,36868
35424,63901,36861
35552,63833,36721
35636,63879,36492
35640,63845,36621
35708,63844,36708
35808,63844,36721
35956,63820,36708
36040,63869,36714
36096,63876,36381
36084,63808,36357
36084,63911,36561
36104,63903,36567
36164,63876,36533
36128,63824,36591
36068,63782,36180
35972,63820,36469
35828,63799,36434
35824,63869,36340
35840,63836,36315
35749,63879,36369
35596,63916,36356
35455,63896,36228
35268,63871,36325
35124,63844,36220
34948,63863,36137
34760,63828,36231
34608,63820,36246
34504,63751,36198
34360,63852,36252
34220,63800,35988
34081,63876,36144
33944,63812,36144
33866,63844,36103
33688,63804,36018
33500,63840,35916
33308,63815,36004
33156,63815,36040
32941,63847,36055
32784,63863,35647
32560,63860,35800
32060,63792,35888
32080,63836,35936
32348,63780,35908
32396,63792,35775
32656,63751,35565
32276,63792,35784
32108,63780,35830
31984,63823,35404
31904,63751,35620
31628,63830,35645
31492,63860,35640
31456,63846,35644
31496,63797,35392
31461,63791,35508
31444,63717,35473
31396,63724,35409
31321,63751,35332
31256,63686,35388
31228,63776,35375
31208,63800,35033
31268,63813,35309
31264,63815,35308
31240,63777,35268
31244,63769,34972
31192,63751,35204
31172,63716,35223
31193,63660,35244
31284,63740,35125
31308,63769,34941
31158,63772,35133
31284,63788,35196
31456,63751,34945
31424,63743,35094
31392,63648,35092
31176,63713,34948
31220,63632,34932
31573,63695,35032
31538,63749,35020
31540,63751,34828
31672,63636,34980
31804,63748,34990
31812,63751,34964
31856,63724,34644
31905,63712,34861
31896,63693,34901
31852,63570,34865
31852,63601,34919
31780,63708,34772
31960,63725,34768
32080,63716,34868
32100,63751,34864
32108,63733,34628
32148,63711,34788
31802,63584,34752
31548,63672,34799
31784,63660,34621
32249,63596,34455
32588,63686,34624
32524,63703,34681
32472,63693,34641
32428,63716,34638
32388,63701,34629
32372,63614,34636
32324,63661,34510
32288,63660,34358
32192,63544,34488
32224,63589,34556
32268,63652,34601
32256,63674,34440
32208,63681,34444
32204,63695,34532
32184,63676,34519
32168,63576,34161
32152,63623,34448
32120,63640,34520
32132,63610,34585
32152,63561,34373
32172,63636,34528
32160,63679,34532
32104,63655,34580
32101,63660,34156
32080,63634,34254
32088,63623,34508
32140,63623,34541
32194,63620,34567
32184,63488,34513
32174,63596,34436
32153,63528,34252
32114,63641,34417
32168,63553,34525
32210,63588,34532
32172,63637,34607
32104,63582,34306
32136,63585,34524
32080,63592,34522
32012,63478,34518
32056,63581,34308
32032,63597,34442
32057,63532,34501
32020,63620,34545
32020,63612,34519
32016,63623,34532
31872,63485,34428
31900,63568,34230
31876,63573,34354
31888,63456,34472
31934,63532,34455
31980,63519,34471
31980,63588,34280
32084,63541,34461
32030,63612,34524
31976,63561,34368
31872,63572,34103
31912,63552,34276
31973,63440,34361
31996,63543,34413
32080,63528,34471
32192,63548,34060
31956,63582,34320
31590,63544,34400
31788,63551,34358
32296,63581,34389
32652,63465,34276
32676,63527,33984
32620,63429,34256
32569,63495,34276
32540,63495,34280
32508,63440,34256
32468,63549,34317
32448,63545,33928
32500,63572,34062
32568,63572,34184
32580,63444,34223
32504,63495,34169
32570,63512,34226
32544,63431,34017
32396,63493,33964
32384,63456,34102
32436,63527,34164
32444,63495,33820
32517,63564,33998
32570,63548,34064
32556,63495,34116
32626,63495,33697
32588,63495,33964
32511,63487,34037
32644,63469,34053
32692,63517,33904
32452,63463,33916
32516,63495,34022
32476,63495,34040
32352,63540,33945
32293,63392,33820
32276,63381,33864
32244,63460,33972
32148,63340,33996
32160,63440,33693
32120,63457,33888
32128,63492,33940
32056,63495,33964
32046,63461,33948
32053,63519,33936
32060,63487,33876
32020,63459,33941
32076,63424,33953
32172,63420,33823
32240,63440,33953
32216,63460,33927
32204,63472,33927
32288,63471,33732
32300,63352,33921
32456,63388,33950
32660,63447,33976
32784,63436,33863
33033,63431,33788
33056,63428,33932
32960,63431,33957
32684,63440,33912
32412,63455,33732
32328,63420,33933
32260,63383,33967
32560,63452,33956
33540,63340,33769
34752,63406,33932
35684,63331,33960
37124,63412,33844
38896,63402,33928
40852,63456,33944
42616,63460,33913
43368,63452,33796
43680,63495,33956
43864,63397,33983
44336,63468,33900
43708,63421,33774
41184,63366,33948
36856,63343,33981
27200,63412,34032
19582,63320,34045
16938,63444,33708
17296,63444,33976
19048,63456,34054
21154,63436,34038
23089,63404,33964
24648,63380,34000
25916,63390,34036
27160,63353,33988
28244,63341,33952
29033,63400,34014
29396,63367,34012
30228,63404,33986
30816,63436,33937
31320,63413,33992
31632,63385,34013
31948,63364,33912
32312,63340,34004
32600,63352,34036
32798,63367,33894
32928,63349,33756
33080,63357,33884
32980,63350,33933
33080,63423,33920
32984,63397,33918
33157,63366,33940
33174,63252,33893
33161,63320,33952
33181,63335,33943
33324,63264,33877
33416,63364,33593
33460,63367,33748
33496,63396,33785
33476,63384,33868
33544,63401,33868
33556,63362,33929
33616,63332,33890
33576,63308,33852
33636,63324,33814
33662,63332,33628
33724,63314,33799
33760,63366,33924
33728,63380,33912
33740,63396,33892
33736,63366,33788
33816,63359,33752
33832,63340,33849
33900,63300,33852
33868,63296,33862
33844,63316,33789
33908,63340,33721
33880,63367,33732
33744,63360,33631
33892,63401,33563
34056,63295,33496
33960,63332,33245
33950,63348,33365
34070,63329,33495
34188,63308,33487
34256,63332,33481
34404,63309,33437
34378,63360,33287
34400,63362,33108
34424,63360,32981
34412,63372,33044
34444,63350,33172
34440,63340,33227
34344,63220,33211
34452,63296,33200
34896,63328,33161
34896,63356,33127
34980,63335,32844
35088,63341,32913
35140,63385,32749
35284,63366,32969
35384,63239,32740
35424,63328,32861
35192,63332,32807
35236,63200,32911
35552,63312,32921
36100,63316,32964
36444,63366,32981
36460,63366,32973
36536,63292,32956
36480,63380,32965
36484,63348,32924
36552,63281,32932
36640,63329,32954
36648,63329,32913
36496,63256,32893
36380,63367,32852
36296,63391,32854
36392,63367,32828
36436,63400,32900
36321,63380,32748
36256,63352,32565
36172,63333,32620
36090,63340,32751
35912,63316,32754
35800,63340,32748
35656,63367,32710
35552,63297,32694
35444,63276,32713
35316,63367,32688
35112,63367,32317
34900,63354,32396
34688,63332,32500
34424,63328,32534
34392,63324,32519
34140,63237,32572
33876,63367,32557
33714,63380,32574
33520,63380,32516
33344,63388,32512
33168,63380,32517
33020,63348,32540
32848,63316,32186
32716,63335,32277
32528,63303,32293
32384,63313,32420
32216,63348,32420
32260,63364,32405
32168,63284,32392
31965,63387,32304
31740,63364,32245
31584,63316,32320
31552,63324,32326
31488,63324,32329
31538,63303,32316
31584,63316,32292
31408,63348,32305
31160,63236,32303
31276,63322,32270
31200,63386,32224
30652,63252,32220
30377,63316,32104
30864,63311,31988
31424,63205,32032
31416,63279,32079
31322,63296,31994
31212,63330,31921
31136,63188,31933
31136,63340,31940
31228,63360,32082
31248,63348,32086
31248,63220,32079
31125,63296,32064
31176,63292,32069
31208,63281,32064
31156,63301,32060
31132,63316,32033
31200,63303,32062
31336,63269,32077
31329,63325,31933
31460,63333,31832
31440,63303,31932
31332,63287,31974
31336,63303,31996
31385,63271,31976
31492,63260,31932
31554,63308,31940
31516,63221,31997
31588,63312,31880
31688,63278,31959
31648,63344,31908
31696,63304,31865
31760,63284,31853
31916,63276,31844
31774,63261,31837
31716,63184,31760
31800,63303,31614
31796,63271,31623
31752,63316,31644
31768,63328,31559
31621,63320,31772
31728,63287,31788
31928,63268,31788
32076,63239,31756
32120,63271,31636
31996,63181,31487
32080,63296,31548
32008,63200,31580
32016,63335,31516
31954,63239,31408
31884,63315,31694
31992,63279,31802
31992,63279,31736
31972,63260,31716
32006,63236,31705
31665,63271,31748
31344,63296,31732
31556,63213,31716
32060,63296,31676
32485,63231,31669
32344,63323,31540
32156,63203,31494
31993,63269,31408
32028,63276,31324
32052,63133,31373
32064,63239,31495
32080,63284,31535
32048,63303,31541
32012,63304,31547
31928,63300,31524
32036,63292,31500
32104,63276,31505
32016,63167,31503
31982,63260,31442
32056,63256,31353
32024,63271,31383
32000,63284,31329
32012,63293,31293
32132,63207,31294
32228,63316,31303
32148,63303,31140
32088,63268,30857
31512,63268,31149
31980,63263,31156
32152,63172,31124
32140,63269,31067
32048,63280,31060
32016,63197,31010
32020,63290,31001
32032,63317,30956
32100,63293,30948
31984,63172,30948
32128,63239,30961
32165,63160,30825
32132,63239,30818
32116,63169,30857
32160,63303,30876
32317,63204,30804
32269,63310,30764
32168,63320,30735
32376,63304,30713
32344,63284,30708
32308,63264,30676
32348,63239,30692
32492,63255,30632
32712,63199,30464
32768,63290,30404
32768,63301,30351
32716,63320,30274
32640,63245,30360
32532,63316,30497
32416,63301,30559
32504,63160,30544
32792,63260,30542
32744,63256,30564
32716,63164,30583
32692,63192,30564
32761,63268,30612
32796,63320,30208
32820,63260,30352
32788,63322,30508
32748,63196,30557
32672,63264,30581
32460,63180,30494
32630,63244,30304
32748,63277,30396
32892,63221,30485
32741,63239,30503
32805,63313,30564
32684,63358,30572
32880,63340,30655
32324,63300,30530
32160,63260,30417
32560,63288,30577
32960,63268,30622
33008,63257,30594
32804,63252,30680
32613,63308,30545
32504,63321,30551
32504,63352,30592
32528,63228,30644
32548,63295,30673
32510,63228,30653
32476,63301,30706
32336,63183,30649
32252,63272,30644
32236,63292,30680
32252,63300,30632
32432,63328,30646
32492,63358,30640
32448,63220,30660
32556,63284,30681
32484,63292,30700
32448,63276,30636
32588,63264,30501
32821,63272,30680
32960,63317,30710
33112,63223,30772
33224,63304,30389
33101,63350,30413
32737,63281,30488
32396,63300,30550
32544,63285,30648
32576,63288,30666
32712,63215,30743
33697,63272,30740
35096,63300,30748
35888,63264,30784
37356,63260,30776
39160,63364,30774
41124,63348,30800
42804,63260,30812
43560,63322,30841
44000,63340,30893
44288,63316,30880
44712,63303,30928
44052,63389,30865
41644,63310,30953
37308,63376,31040
27384,63404,31076
19444,63368,31020
16912,63072,31061
17797,63325,31076
19732,63239,31150
21585,63272,31164
23156,63300,31150
24388,63333,31176
25861,63332,31180
27281,63348,31232
28501,63367,31168
29220,63336,31140
29736,63303,31272
30358,63192,31261
31056,63300,31292
31440,63301,31222
31778,63213,31192
32160,63335,31041
32480,63328,31097
32608,63277,31135
33000,63366,31208
33185,63276,31288
33260,63323,31295
33216,63304,31276
33232,63319,31284
32988,63239,31280
32644,63311,31351
32944,63329,31332
33373,63352,31223
33772,63352,30948
33704,63367,31080
33520,63360,31244
33636,63324,31266
33673,63332,31266
33684,63225,31312
33660,63278,31222
33672,63312,30933
33812,63301,31148
33860,63348,31269
33864,63367,31332
33921,63286,31317
33944,63357,31294
33892,63280,30975
33900,63329,31188
33776,63343,31218
33912,63229,31300
34110,63317,31292
34056,63356,31296
34020,63354,31165
34004,63389,30876
34004,63381,30924
34100,63364,31135
34128,63360,31148
34076,63359,31086
34094,63332,31044
34208,63229,30687
34232,63324,30903
34208,63332,30937
34388,63380,30945
34428,63367,30914
34236,63320,30847
34532,63340,30623
34408,63344,30752
34576,63335,30748
34584,63300,30727
34632,63324,30606
34660,63352,30436
34649,63377,30579
34856,63312,30596
34917,63400,30570
35009,63400,30532
35024,63404,30457
35172,63279,30398
35192,63357,30087
35248,63367,30305
35344,63340,30349
35428,63324,30335
35512,63392,30276
35725,63400,30080
35864,63407,30238
35976,63445,30252
36184,63349,30232
36320,63384,30212
36348,63329,30196
36480,63304,30236
36601,63352,30188
36741,63392,30093
36625,63310,29781
36748,63405,30071
36641,63376,30091
36632,63455,30095
36696,63428,30087
36672,63423,29966
36536,63328,29932
36436,63396,29629
35976,63312,29709
35660,63362,29895
35944,63420,29902
36304,63396,29919
36524,63377,29869
36400,63479,29848
36008,63431,29745
35592,63445,29460
35536,63324,29602
35476,63417,29716
35276,63382,29728
35096,63428,29703
34932,63367,29684
34604,63460,29716
34600,63476,29656
34380,63412,29687
34116,63469,29684
33608,63420,29595
33768,63438,29350
33668,63360,29252
33172,63383,29264
33012,63423,29385
32932,63467,29435
32788,63493,29496
32552,63468,29536
32424,63495,29534
32312,63396,29132
32306,63432,29415
32064,63456,29385
31908,63431,29424
31744,63400,29359
31720,63441,29357
31690,63406,29308
31560,63479,28976
31528,63476,29189
31530,63494,29237
31316,63492,29257
31380,63431,29215
31300,63452,29252
31220,63316,29140
31145,63412,29128
31136,63438,29066
31044,63460,28888
30984,63454,28951
31124,63408,29055
31192,63490,29077
31324,63388,29057
31237,63328,29044
31176,63420,28696
31016,63431,28812
31136,63413,28873
31008,63421,28988
31216,63431,29033
31192,63444,29036
31192,63456,29002
31216,63423,29004
31184,63462,29036
31328,63396,28692
31272,63431,28916
31240,63432,28970
31288,63296,28991
31268,63413,29009
31288,63456,29007
31390,63476,29012
31552,63469,29009
31652,63484,29012
31620,63428,29063
31512,63442,29039
31748,63452,29039
31728,63340,29112
31688,63384,29008
31741,63356,28860
31752,63461,28965
31956,63463,29042
31744,63472,29068
31520,63439,29076
31101,63444,29072
31468,63445,29141
31884,63444,29112
32280,63428,29170
32132,63389,29164
32096,63380,29137
32212,63463,28789
32068,63455,28808
32030,63488,28944
32176,63525,29017
32176,63372,29114
32140,63444,29116
32156,63463,29186
32081,63444,29132
32092,63421,29214
32024,63462,29172
31988,63468,29119
32112,63485,28820
32036,63495,28823
32016,63495,28871
32040,63493,28806
32072,63367,28821
32116,63458,28818
32016,63436,28880
31977,63428,29120
32064,63444,29176
32056,63469,29152
31990,63495,29068
32076,63484,28987
31940,63495,29093
31980,63487,29138
31996,63359,29184
31853,63452,28821
31964,63356,29108
32096,63300,29126
31820,63405,29068
31884,63476,28949
32010,63480,29108
32020,63516,29169
31924,63532,28873
31993,63492,29062
31972,63484,29170
31857,63464,29158
31672,63424,29056
31932,63401,29000
32008,63460,29086
31956,63428,29109
32028,63495,29124
32012,63484,29153
32052,63533,29058
32040,63404,28756
32040,63478,28892
31928,63463,28917
31905,63391,28977
31849,63460,29045
31717,63376,29044
31732,63495,29025
31776,63464,29056
31808,63488,29039
31788,63525,29029
31836,63495,29070
31848,63472,28652
31984,63476,28798
31929,63452,28823
31940,63455,28877
32032,63471,28901
31958,63495,28852
31948,63495,28823
31972,63494,28876
32012,63550,28869
32050,63444,28796
32072,63436,28719
32136,63478,28692
32068,63476,28752
32236,63393,28726
32392,63483,28644
32300,63493,28690
32212,63513,28775
32428,63540,28741
32349,63549,28753
32332,63451,28810
32268,63495,28705
32304,63495,28676
32425,63448,28671
32524,63468,28360
32549,63429,28482
32562,63463,28529
32512,63519,28647
32476,63486,28673
32568,63562,28663
32576,63559,28305
32564,63525,28440
32360,63495,28620
32380,63412,28611
32368,63471,28656
32356,63404,28664
32377,63516,28600
32444,63430,28325
32328,63548,28442
32584,63565,28592
32616,63540,28617
32608,63512,28689
32504,63441,28692
32552,63495,28678
32501,63491,28353
32536,63415,28382
32472,63551,28644
32364,63437,28694
32252,63540,28678
32256,63431,28730
32268,63527,28712
32196,63519,28708
32126,63519,28718
32088,63407,28740
32100,63477,28728
32120,63528,28733
32128,63452,28829
32176,63524,28421
32024,63557,28530
32152,63572,28692
32172,63520,28764
32236,63524,28772
32201,63417,28815
32120,63495,28822
32396,63495,28820
32228,63409,28836
32620,63527,28900
32768,63551,28903
32956,63484,28894
33020,63581,28926
32992,63477,28960
32692,63452,28933
32344,63495,28647
32116,63495,28749
32116,63431,28836
31964,63516,28757
32740,63535,28836
34092,63552,28882
34972,63495,28941
35544,63584,28921
37172,63464,28976
39272,63452,29081
41700,63532,29092
43224,63527,29128
43868,63532,29087
44160,63575,28820
44668,63600,29151
44980,63616,29228
43200,63612,29218
39960,63641,29176
32464,63608,29129
22468,63528,28968
17746,63472,29225
17125,63541,29324
18736,63495,29391
20298,63423,29413
22668,63560,29496
23828,63556,29506
25308,63461,29404
26656,63588,29345
27712,63564,29148
28525,63436,29201
28912,63528,29181
29964,63519,29285
30564,63495,29388
31162,63524,29359
31620,63487,29329
31928,63560,29317
32260,63559,29440
32548,63589,29504
32800,63484,29476
32980,63524,29548
32972,63542,29578
32984,63428,29521
33060,63495,29533
33168,63532,29481
33224,63560,29580
33244,63556,29660
33432,63575,29668
33256,63608,29666
33440,63468,29677
33496,63546,29687
33332,63559,29695
33376,63490,29724
33253,63495,29796
33484,63559,29760
33576,63524,29812
33852,63568,29702
33884,63598,29435
33768,63525,29446
33692,63581,29465
33770,63556,29493
33808,63484,29551
33764,63543,29648
33804,63525,29653
33808,63536,29780
33876,63568,29833
33856,63576,29797
33957,63596,29775
34008,63612,29773
34036,63576,29777
33993,63468,29699
33824,63560,29668
33888,63458,29661
34012,63517,29633
34104,63428,29589
34148,63586,29580
34204,63487,29533
34284,63604,29512
34284,63623,29515
34236,63495,29489
34248,63564,29410
34072,63567,29436
33768,63549,29349
34592,63540,29277
34728,63569,29297
34692,63597,29214
34768,63598,28885
34725,63604,28976
34836,63644,28966
34896,63511,29042
34976,63566,29085
35037,63557,29056
35152,63556,29045
35232,63551,29071
35584,63581,29013
35584,63604,29022
35688,63613,28964
35856,63517,28887
35912,63647,28833
35996,63623,28493
36216,63598,28598
36164,63588,28672
36276,63588,28693
36464,63464,28686
36524,63596,28679
36524,63608,28645
36608,63632,28687
36621,63647,28242
36744,63663,28416
36736,63549,28482
36532,63609,28473
36520,63620,28501
36568,63495,28487
36613,63572,28444
36512,63540,28380
36088,63548,28312
36376,63660,28366
36388,63673,28236
36284,63613,28175
36220,63649,27936
36008,63644,27988
35720,63585,28085
35616,63608,28075
35428,63615,28047
35552,63532,28080
35268,63661,28044
35040,63660,28004
34844,63683,28021
34620,63604,28017
34400,63663,27909
34260,63623,27941
34016,63648,27930
34022,63566,27910
33660,63616,27893
33480,63612,27864
33269,63622,27836
33126,63568,27824
33140,63687,27762
32864,63650,27711
32468,63664,27716
32288,63640,27615
32128,63640,27384
31996,63557,27508
32140,63596,27607
32144,63647,27565
32080,63623,27558
31936,63668,27542
31832,63660,27562
31808,63700,27524
31704,63668,27522
31680,63638,27550
31584,63544,27425
31500,63620,27156
31400,63566,27336
31253,63623,27398
31128,63668,27442
30762,63662,27437
31169,63685,27385
30888,63701,27441
31140,63648,27463
31328,63645,27444
31116,63633,27381
31224,63623,27341
31254,63612,27156
31524,63623,27348
31328,63663,27378
31284,63652,27449
31072,63700,27349
31105,63692,27180
31477,63670,27398
31224,63655,27468
30876,63623,27449
30540,63535,27527
30816,63608,27438
31336,63647,27532
31690,63568,27576
31392,63661,27608
31816,63685,27575
31836,63700,27580
31704,63576,27584
31404,63632,27246
31633,63596,27418
31874,63622,27574
31865,63568,27617
31732,63557,27639
31812,63664,27684
31536,63668,27644
31517,63637,27568
31712,63692,27579
31880,63676,27660
31856,63642,27716
31652,63599,27759
32084,63654,27760
32088,63620,27789
31884,63593,27812
31912,63677,27870
31741,63653,27492
31761,63623,27717
31822,63623,27812
31984,63608,27904
32101,63624,27933
32164,63600,27852
31628,63623,27648
32392,63623,27868
31748,63649,27956
31336,63668,28039
31612,63588,27936
32132,63692,27844
32526,63732,27985
32284,63655,28036
32296,63661,28041
32352,63648,27953
32241,63647,28126
32092,63638,28092
32176,63650,27933
32192,63693,28135
32204,63677,28174
32060,63661,28204
31672,63616,27861
31772,63671,28060
31956,63661,28228
31560,63582,28302
31632,63561,28199
32132,63623,27921
32476,63653,28063
32256,63680,28224
32239,63600,28273
32021,63695,28245
32344,63648,28276
32360,63687,28293
32344,63672,27911
32264,63560,28004
32436,63652,28130
32372,63582,28172
31984,63672,28164
31820,63684,28143
32096,63680,28141
32200,63620,28124
32132,63648,28097
32000,63592,28086
31748,63668,28100
32004,63700,28065
32284,63614,28037
32328,63640,28072
32348,63605,27974
32024,63702,27949
32168,63716,27920
32050,63649,27908
32304,63724,27604
32032,63668,27701
31392,63682,27664
31220,63700,27764
31884,63684,27837
32316,63653,27816
32500,63636,27841
32492,63711,27831
32308,63668,27847
32356,63716,27711
32264,63751,27694
32140,63716,27409
32248,63710,27521
32272,63681,27526
31932,63679,27625
31808,63668,27600
32076,63689,27645
32032,63687,27584
32324,63623,27616
32437,63708,27629
32152,63672,27549
32536,63735,27461
32652,63710,27458
32653,63620,27223
32744,63681,27329
32624,63684,27399
32588,63608,27385
32729,63727,27351
32152,63713,27412
32624,63740,27356
32752,63751,27361
32740,63726,26992
32556,63716,26978
32692,63713,27192
32668,63696,27183
32660,63687,27258
32732,63719,27239
32622,63751,27205
32576,63649,27236
32613,63764,27238
32652,63793,27253
32644,63751,27164
32604,63711,26916
32573,63684,27020
32606,63716,27005
32672,63684,27045
32732,63751,27085
32728,63676,27054
32644,63711,27009
32676,63751,27049
32596,63800,27039
32492,63765,27031
32352,63726,27029
32424,63704,27021
32140,63724,27055
32270,63724,27002
32252,63741,27071
32204,63773,26948
32236,63783,26740
32088,63740,26929
32253,63733,26938
32246,63772,26940
32109,63727,26986
32132,63749,26952
32184,63729,26920
32124,63727,26962
32244,63740,26596
32336,63780,26672
32381,63768,26792
32160,63792,26741
32596,63719,26712
32860,63783,26743
33040,63700,26887
33068,63751,26895
33128,63736,26936
33036,63653,26892
32548,63740,26576
32184,63776,26834
32292,63783,26941
32268,63804,26964
32508,63725,26672
33356,63772,26897
34472,63684,26941
35332,63751,26973
36588,63743,26964
38044,63741,26942
39600,63764,26758
41596,63751,26948
43032,63812,26950
44040,63853,27032
44404,63853,27040
45048,63822,27120
44709,63824,27033
42248,63828,26816
38568,63800,26933
28680,63792,27124
20336,63804,27234
17300,63820,27226
17728,63806,27296
19696,63720,27249
21656,63828,27116
22978,63680,27133
24532,63748,27389
25752,63776,27420
27076,63749,27478
28200,63751,27559
29032,63673,27596
29292,63812,27600
30212,63792,27623
30788,63780,27677
31396,63828,27391
31984,63724,27574
32176,63693,27724
32256,63765,27720
32714,63751,27844
32876,63751,27916
32868,63764,27919
32988,63812,27956
33053,63719,27972
33192,63815,28004
33132,63826,28046
33278,63696,28132
33324,63773,28130
33433,63718,28204
33240,63749,27876
33484,63665,27879
32936,63782,28056
33052,63812,28244
33772,63809,28319
33740,63812,28430
33520,63815,28484
33840,63809,28578
33736,63697,28537
33244,63719,28646
33696,63772,28321
33600,63711,28532
33649,63788,28621
33358,63830,28758
32996,63821,28796
33184,63837,28890
33668,63828,28948
33881,63829,28970
33973,63805,28956
34136,63809,28970
34046,63773,29020
33960,63764,29017
34016,63804,29031
34048,63831,29060
34052,63838,29023
33292,63869,29056
33916,63852,29062
34360,63740,29057
34156,63812,29048
34164,63808,29029
34168,63781,28984
34158,63792,28986
34088,63793,28905
34336,63825,28855
34408,63846,28636
34280,63840,28805
34300,63871,28818
34384,63751,28805
34537,63813,28776
34552,63828,28784
34632,63716,28728
34736,63788,28697
34832,63748,28715
34880,63844,28617
34808,63828,28679
34912,63869,28639
35298,63879,28623
35389,63844,28644
35376,63844,28508
35428,63821,28567
35512,63800,28576
35720,63815,28436
35900,63844,28130
35860,63855,28268
36184,63812,28357
36216,63879,28382
36188,63911,28369
36204,63812,28350
36200,63848,28320
36244,63780,28357
35968,63780,28300
36032,63828,28277
36576,63868,28261
36328,63804,28253
35604,63878,28153
35532,63903,28172
35880,63900,28185
36336,63879,28160
36484,63852,28102
36317,63879,28127
36084,63846,28095
35852,63848,28085
35524,63877,28055
35516,63879,27965
35438,63900,27940
35324,63916,27940
34980,63928,27841
34596,63868,27532
34896,63879,27670
34720,63895,27748
34388,63861,27794
34152,63868,27761
33976,63885,27797
33848,63877,27747
33632,63900,27728
33440,63852,27708
33044,63932,27747
32920,63901,27642
32804,63887,27609
32528,63876,27386
32360,63783,27594
32408,63853,27593
32264,63901,27573
32000,63892,27529
32024,63908,27508
31824,63920,27526
31632,63933,27503
31712,63909,27487
31328,63860,27489
31084,63887,27524
31397,63863,27481
31428,63840,27474
31288,63852,27460
31040,63892,27419
31176,63796,27423
31256,63910,27441
30973,63932,27413
31104,63824,27391
31108,63879,27254
31004,63879,27031
30900,63860,27134
30900,63840,27172
30912,63877,27263
31044,63893,27307
30695,63879,27356
30332,63919,27332
30352,63901,27362
31196,63869,27396
31628,63865,27369
31196,63772,27375
31312,63748,27348
31452,63773,27306
31324,63860,27028
31181,63879,27044
31276,63801,27108
31272,63901,27057
31396,63916,27204
31276,63773,27316
31480,63869,27325
31293,63828,27304
30837,63853,27311
31544,63743,27313
31396,63861,27361
31744,63879,27370
31532,63791,27316
31660,63916,27366
31740,63879,27373
31553,63879,27369
31348,63812,27314
31576,63844,27377
31617,63845,27381
31296,63820,27012
31352,63869,27077
31992,63879,27214
31872,63877,27248
31900,63908,27281
31865,63916,27337
31844,63879,27323
31684,63876,27305
31756,63868,27364
31840,63822,27272
32042,63777,26990
31892,63855,27132
31716,63901,27193
31892,63879,27269
31676,63893,27136
31904,63918,27254
32136,63872,27281
31732,63831,27327
31812,63780,27300
31988,63845,27300
31792,63853,27351
31916,63876,27374
31750,63892,27294
31884,63879,27211
32000,63823,26999
32024,63900,27130
31390,63896,27220
31620,63861,27164
31870,63872,27264
32076,63848,27216
31904,63713,27214
31736,63840,27221
31892,63879,27308
32010,63828,27398
32140,63829,27430
31756,63909,27449
31540,63877,27460
31716,63879,27496
32188,63871,27514
32058,63808,27182
32060,63800,27300
31856,63861,27429
31312,63810,27521
31184,63831,27556
31544,63903,27621
31976,63911,27636
32253,63879,27285
32124,63868,27462
31318,63868,27612
31832,63847,27700
32080,63832,27733
32224,63877,27542
32136,63879,27692
32156,63879,27762
32028,63911,27744
31892,63919,27628
31764,63903,27783
31724,63877,27919
31705,63879,27541
31992,63807,27828
32236,63815,27904
32132,63783,27877
32120,63879,27791
32036,63791,27951
31917,63893,28028
31524,63852,28128
31872,63879,27766
32132,63803,27985
32256,63848,28095
32077,63840,28150
32356,63832,28112
32213,63868,28063
32142,63876,28188
32472,63869,28246
32572,63909,28246
32526,63860,28321
32448,63879,28253
32528,63868,28028
32524,63869,28263
32340,63855,28324
32477,63832,28382
32556,63871,28457
32604,63901,28068
32693,63903,28292
32221,63924,28397
32392,63932,28484
32384,63879,28492
32572,63879,28164
32584,63864,28478
32628,63804,28517
32536,63804,28500
32644,63877,28332
32644,63896,28508
32660,63901,28541
32544,63918,28525
32664,63919,28429
32588,63903,28551
32624,63868,28604
32540,63879,28601
32424,63861,28301
32420,63861,28499
32400,63879,28601
32384,63900,28658
32196,63900,28593
32324,63927,28466
31676,63916,28640
32500,63820,28689
32352,63860,28611
31576,63782,28593
31480,63855,28677
31556,63824,28657
31840,63783,28670
32582,63877,28772
32460,63876,28569
32404,63800,28740
32232,63864,28672
32136,63879,28688
32136,63864,28783
32353,63868,28831
32286,63810,28444
32242,63808,28751
32284,63879,28777
32580,63852,28768
32842,63879,28567
33024,63896,28782
33016,63879,28861
32790,63769,28496
32548,63824,28813
32072,63846,28856
32208,63824,28942
32096,63799,28553
31996,63852,28836
32753,63876,28948
33668,63869,28951
34472,63903,28705
36012,63903,28926
37860,63836,28954
39528,63788,28944
41736,63860,28793
42708,63832,28992
43752,63868,29054
44372,63908,29092
44920,63924,28948
45580,63909,28756
44396,63901,29052
41684,63948,29143
34560,63916,29206
23808,63900,28904
18024,63893,29124
17057,63847,29210
18953,63832,29156
20494,63865,29148
22244,63871,29236
23735,63868,29262
25193,63879,29292
26442,63828,29056
27408,63869,29285
28452,63855,29340
29260,63855,29253
29732,63831,29146
30000,63812,29294
30652,63852,29340
31132,63861,29089
31584,63853,29300
31408,63845,29380
32684,63879,29376
32832,63863,29180
32808,63837,29332
32868,63841,29412
32940,63719,29184
32712,63802,29352
32449,63751,29404
32508,63863,29048
32940,63855,29316
33312,63887,29377
33748,63815,29346
33524,63844,29309
33180,63840,28992
33244,63853,29149
33668,63784,29309
33586,63768,29332
33476,63831,29348
33444,63760,29287
33520,63861,29036
33580,63879,29276
33708,63879,29351
33726,63863,29385
33472,63743,29344
33356,63846,29092
33888,63749,29212
33832,63780,29317
33724,63751,29406
33748,63855,29391
33568,63853,29444
33732,63879,29385
33696,63892,29408
33713,63852,29446
33813,63805,29409
33380,63780,29314
33916,63808,29256
33884,63800,29092
33788,63776,29248
34020,63861,29252
33776,63853,29221
33876,63879,29216
34489,63789,29229
34328,63869,29188
33945,63751,29217
33760,63836,28813
34156,63829,28917
