ECG,EDA,RR
33214,17112,34089
33409,17085,34259
33628,17088,34132
33688,17116,34220
33612,17117,34207
33496,17149,34220
33396,17191,34255
33420,17160,34006
33565,17165,34229
33656,17127,34405
33677,17105,34344
33836,17123,34309
33860,17071,34125
33652,17098,34471
33372,17129,34372
33164,17136,34155
32944,17181,34523
32880,17204,34392
33061,17151,34460
33348,17149,34420
33412,17093,34485
33372,17083,34469
33420,17126,34500
33468,17080,34535
33445,17117,34493
33236,17133,34452
32936,17178,34551
32888,17164,34588
33044,17185,34324
33248,17129,34524
33392,17141,34604
33382,17068,34724
33320,17113,34556
33225,17092,34673
33081,17174,34687
32820,17152,34655
32734,17146,34802
32800,17170,34714
32944,17189,34670
33188,17125,34792
33496,17077,34904
33348,17095,34920
33389,17055,34894
33396,17095,34812
33278,17093,34804
33064,17188,34773
32924,17159,34885
32876,17187,34807
32952,17130,35005
33082,17141,34823
33169,17087,34874
33136,17092,34633
33204,17049,34987
33173,17087,34903
33056,17131,34911
33024,17111,34669
32984,17159,34964
32988,17147,34816
33144,17140,34932
33088,17099,34907
33142,17101,34837
33180,17055,35044
33173,17076,34861
32916,17057,34948
32993,17100,34855
32924,17156,35037
32820,17129,34901
32948,17167,34941
33176,17194,34965
33292,17112,35007
33308,17125,34944
33292,17068,34991
33192,17110,34925
32932,17076,35064
32740,17124,34913
32620,17125,35037
32500,17129,35068
32673,17171,34796
32796,17114,35052
32893,17104,35241
32996,17111,35104
33044,17057,35175
32932,17076,34913
32820,17051,35148
32736,17084,35322
32706,17153,35141
32732,17124,35012
32808,17149,35401
32900,17110,35404
33004,17105,35293
33108,17092,35063
33152,17031,35341
32996,17050,35487
32692,17100,35382
32560,17081,35296
32512,17094,35460
32522,17134,35357
32640,17161,35317
32856,17099,35429
33060,17100,35372
33068,17050,35353
32942,17041,35215
32672,17081,35342
32464,17047,35247
32341,17064,35420
32336,17111,35260
32340,17111,34985
32306,17133,35346
32384,17150,35158
32500,17076,35032
32584,17066,35163
32800,17018,34996
32936,17035,34995
32564,17031,34881
32133,17065,35000
31896,17085,34834
31772,17116,34828
31816,17167,34695
32116,17106,34831
32452,17108,34519
32668,17033,34618
32648,17034,34407
32568,17007,34527
32316,17049,34532
32036,17104,34287
31820,17081,34325
31712,17127,33997
31712,17095,34137
31716,17095,34270
31732,17055,33959
31836,17047,34005
31885,17005,34007
31936,17024,33685
31921,17019,33741
31980,17071,33799
32164,17072,33913
32172,17098,33743
32192,17128,33641
32312,17079,33812
32522,17062,33541
32816,17049,33647
32804,16997,33456
32736,17012,33495
32845,17002,33573
32976,17054,33580
32960,17111,33455
32992,17096,33481
33008,17077,33487
32952,17084,33455
32908,17044,33319
32954,17025,33332
33076,16987,33395
33169,16997,33492
33108,16996,33391
32988,17047,33336
32892,17062,33445
32940,17066,33279
33096,17084,33260
33256,17057,33269
33292,17046,33276
33132,17087,33273
33040,17001,33033
33004,17035,33148
33028,16997,33336
32964,17054,33172
32932,17039,33159
32965,17074,33173
33036,17060,32893
32936,17069,33124
33076,17075,33069
33192,16995,33054
33212,16986,32772
33248,16974,32887
33204,17020,32880
33180,17012,32820
33160,17075,32844
33080,17060,32855
33072,17105,32887
33041,17060,32870
33180,17093,32764
33300,16999,32647
33152,17007,32486
32901,16960,32547
32836,16996,32649
32836,17042,32448
32961,17031,32466
32810,17093,32474
32693,17065,32449
32752,17093,32333
33012,17019,32256
33112,16973,32431
33160,16966,32180
33120,16945,32246
33176,16993,32217
33252,16988,32213
33144,17057,31976
32756,17049,32052
32365,17031,32100
31768,17031,32193
31132,16996,32045
30784,16978,32030
30308,16994,32030
29960,16956,31772
29656,17001,31870
29650,16996,32069
29669,17068,31940
29605,17036,31927
29700,17029,31813
29916,17018,31878
30064,16985,31649
29996,16964,31732
29728,16934,31857
29700,16943,31667
29906,16937,31759
30812,16974,31676
33268,17066,31687
36349,17036,31695
38640,17076,31525
39968,17020,31692
40560,17044,31503
40588,16964,31584
40236,16977,31349
40004,16932,31525
39912,16999,31517
40008,16961,31329
40128,17044,31415
40036,17012,31270
39696,17053,31368
39316,16991,31349
38928,16997,31260
38484,17010,31109
37836,16917,31303
37124,16927,31143
36400,17041,30941
35744,16972,31116
35136,17052,30983
34512,17009,31013
33888,17024,30855
33413,16991,31015
33157,16966,30881
32960,16957,30629
32676,16911,30852
32332,16923,30677
31957,16923,30743
31648,16965,30492
31460,16976,30564
31228,17004,30713
31085,16996,30513
31020,16989,30525
30968,17023,30516
31061,16937,30356
31044,16952,30429
30928,16913,30389
30768,16955,30332
30640,16937,30316
30476,16982,30207
30456,16988,30268
30629,17004,30184
30560,17015,30185
30592,16954,29998
30624,16924,30004
30816,16917,30127
30836,16942,29948
30688,16918,30056
30564,16968,29815
30580,16959,30020
30560,16995,29925
30428,17017,29953
30496,16967,29981
30620,16973,29924
30668,16922,29799
30716,16927,29873
30748,16885,29856
30696,16925,29737
30580,16935,29700
30540,16977,29889
30452,16969,29700
30348,17005,29756
30544,16960,29588
30744,16970,29613
30816,16903,29636
30708,16927,29768
30469,16884,29599
30380,16931,29644
30384,16928,29439
30409,17011,29388
30405,16975,29449
30380,17028,29554
30424,16964,29516
30556,16961,29296
30592,16901,29349
30520,16903,29532
30477,16868,29328
30416,16903,29384
30340,16900,29373
30236,16950,29212
30016,17013,29359
29850,16955,29271
30082,16953,29092
30192,16946,29237
30196,16885,29214
30172,16891,28985
30104,16861,29077
30038,16893,29013
29925,16956,29095
29764,16924,29045
29708,16957,28948
29717,16942,28850
29648,16949,29009
29728,16940,28942
29588,16871,28777
29688,16870,29036
29460,16871,28925
29369,16902,28775
29356,16885,28796
29292,16928,28695
29296,16971,28829
29302,16940,28815
29249,16952,28820
29092,16895,28696
28948,16884,28873
28952,16871,28797
28918,16897,28665
28900,16861,28736
28765,16894,28774
28624,16905,28640
28460,16935,28830
28428,16927,28770
28404,16932,28611
28412,16922,28639
28484,16866,28740
28540,16868,28606
28484,16836,28701
28420,16881,28709
28320,16877,28516
28228,16911,28641
28208,16917,28705
28296,16930,28519
28378,16938,28720
28548,16888,28752
28772,16883,28566
28992,16828,28623
29088,16876,28629
29128,16859,28647
29164,16893,28449
29172,16888,28676
29230,16933,28498
29473,16911,28597
29756,16917,28392
30064,16912,28484
30300,16841,28439
30577,16836,28548
30749,16860,28407
30941,16837,28585
31176,16885,28420
31396,16935,28332
31588,16901,28575
31740,16916,28454
32021,16943,28480
32340,16868,28382
32669,16868,28518
32992,16814,28407
33244,16829,28437
33360,16821,28431
33372,16862,28251
33396,16932,28452
33509,16916,28277
33740,16951,28388
34088,16884,28399
34420,16864,28348
34720,16861,28287
34912,16809,28271
35013,16809,28260
35048,16837,28356
34984,16899,28228
35012,16872,28359
34996,16907,28356
35032,16940,28201
35236,16877,28362
35421,16858,28343
35612,16837,28402
35732,16823,28364
35792,16817,28287
35652,16873,28348
35400,16841,28467
35288,16889,28391
35278,16897,28361
35376,16956,28360
35544,16876,28263
35806,16865,28515
35912,16876,28487
35892,16805,28389
35709,16869,28591
35640,16823,28479
35552,16871,28367
35488,16925,28587
35372,16884,28609
35368,16913,28433
35440,16869,28731
35560,16856,28696
35696,16837,28725
35592,16855,28630
35572,16806,28775
35524,16860,28679
35360,16830,28918
35232,16876,28878
35020,16933,28788
34960,16881,29012
35045,16890,28879
35192,16840,29041
35265,16826,28877
35360,16841,29221
35328,16785,29162
35308,16812,29103
35116,16887,29351
34940,16859,29319
34832,16898,29224
34760,16869,29415
34880,16871,29465
34936,16837,29505
34956,16823,29619
35052,16828,29575
35124,16795,29812
34952,16872,29685
34701,16847,29848
34640,16908,29739
34504,16874,29993
34422,16896,29986
34420,16859,29836
34528,16893,29964
34628,16813,30202
34612,16831,30070
34580,16778,30228
34484,16820,30185
34372,16856,30175
34392,16845,30329
34357,16885,30242
34328,16959,30471
34300,16868,30289
34184,16833,30417
34148,16819,30455
34284,16847,30357
34352,16776,30481
34244,16805,30490
34040,16852,30468
33828,16898,30500
33732,16865,30430
33764,16881,30663
33908,16903,30575
34064,16834,30543
34120,16815,30479
34156,16855,30599
34128,16775,30622
34032,16807,30500
33980,16835,30630
33804,16865,30524
33648,16933,30668
33576,16878,30638
33640,16900,30640
33760,16838,30445
33940,16824,30708
34120,16774,30629
34068,16783,30692
33913,16843,30588
33804,16824,30697
33681,16884,30631
33512,16860,30726
33476,16899,30613
33496,16845,30825
33596,16866,30703
33736,16796,30544
33928,16797,30821
33976,16823,30691
33896,16788,30580
33685,16818,30884
33533,16879,30799
33508,16855,30792
33470,16868,30740
33460,16879,30612
33652,16820,30928
33889,16812,30740
33956,16760,30873
33842,16775,30757
33640,16847,30980
33520,16817,30856
33368,16880,30701
33260,16865,30890
33296,16892,30812
33433,16836,30735
33572,16831,30986
33700,16831,30925
33810,16765,30816
33700,16774,31068
33464,16779,30941
33376,16810,31012
33304,16885,30904
33240,16854,31125
33176,16882,30945
33292,16836,31062
33448,16825,30865
33500,16780,30959
33516,16793,31133
33444,16761,31174
33436,16814,31013
33321,16806,31127
33296,16888,30933
33229,16862,31058
33140,16899,31132
33202,16832,31276
33380,16827,31087
33504,16858,31183
33588,16780,31068
33500,16812,31225
33264,16765,31188
33200,16819,31239
33268,16820,31159
33236,16863,31160
33360,16845,31228
33420,16837,31265
33260,16807,31041
33188,16799,31151
33196,16756,31309
33216,16772,31204
33284,16764,31261
33152,16815,31044
32992,16813,31166
32912,16863,31303
32868,16836,31358
32952,16870,31239
33196,16801,31252
33284,16799,31103
33360,16744,31316
33444,16763,31119
33480,16805,31238
33272,16783,31226
33012,16832,31128
32773,16828,31300
32804,16865,31084
33076,16819,31174
33288,16823,31052
33444,16773,30964
33288,16786,31061
33152,16741,31157
33116,16793,31159
33000,16804,31176
33028,16804,31108
32973,16847,31093
33000,16831,31111
33181,16857,31119
33292,16786,31001
33332,16786,31174
33284,16796,31168
33140,16736,31072
33116,16777,30878
33040,16825,30945
33012,16819,30983
32936,16860,31167
32720,16827,30954
32684,16825,31087
32876,16868,30930
33016,16770,31026
33128,16798,31020
33216,16734,31079
33104,16767,30958
32944,16773,31161
32772,16809,31028
32736,16825,31043
32846,16831,30860
32976,16840,31155
33000,16786,31008
33020,16773,31070
33012,16798,30936
33052,16753,30987
32984,16829,31172
32903,16773,30945
32928,16817,31071
32957,16873,31100
33008,16819,30949
32877,16825,31061
32766,16788,30885
32748,16789,31001
32896,16732,31129
32948,16761,31005
32865,16741,31042
32768,16800,30805
32688,16793,30951
32714,16855,31089
32777,16831,30980
32820,16805,30950
32892,16796,30746
32928,16787,30876
33032,16728,30952
33064,16763,30893
33020,16740,30681
32884,16785,30845
32742,16790,30925
32580,16820,30841
32512,16855,30838
32576,16799,30710
32896,16815,30776
33012,16748,30735
32976,16756,30625
32904,16730,30735
32636,16787,30494
32364,16767,30684
32248,16828,30605
32292,16808,30645
32348,16852,30435
32356,16803,30620
32432,16816,30444
32514,16749,30562
32477,16743,30447
32484,16802,30501
32424,16744,30491
32392,16802,30326
32308,16783,30468
32228,16833,30356
32260,16809,30421
32260,16817,30292
32200,16775,30448
32160,16751,30364
32140,16718,30151
32130,16727,30429
32064,16789,30325
31946,16764,30158
31872,16831,30277
31881,16824,30309
31848,16851,30264
31896,16795,30066
32032,16798,30199
32124,16740,30349
32208,16763,30215
32332,16720,30237
32292,16796,30020
32066,16767,30125
32032,16782,30213
32024,16839,30265
32164,16802,30103
32474,16833,30188
32692,16782,29981
32960,16791,30212
33184,16728,30047
33264,16757,30148
33277,16756,30151
33236,16801,30022
33196,16797,30157
33025,16889,30197
32872,16820,30016
32892,16796,30100
33020,16787,30084
33237,16741,29967
33400,16755,30048
33381,16727,30161
33176,16770,29957
33088,16753,29933
33024,16806,29959
32973,16802,30080
33054,16821,30021
33205,16799,29809
33216,16789,30044
33174,16783,29906
33148,16716,29992
33160,16740,29849
33140,16732,30038
33056,16783,29837
33020,16780,29959
32896,16823,29822
32944,16806,30000
33026,16841,29934
33106,16778,29904
33252,16782,29895
33360,16727,29776
33396,16761,29939
33400,16751,29975
33164,16812,29824
32894,16807,29858
32756,16804,29860
32694,16823,29732
32744,16801,29734
32870,16823,29814
33120,16749,29760
33224,16743,29828
33204,16796,29698
33124,16752,29895
32916,16793,29776
32804,16786,29633
32792,16828,29692
32872,16796,29845
32880,16820,29705
32976,16773,29709
33028,16769,29746
33100,16720,29630
33144,16733,29656
33128,16735,29836
33032,16777,29712
32868,16833,29527
32316,16805,29726
31488,16842,29805
30892,16807,29774
30436,16777,29724
30088,16756,29635
29769,16722,29687
29672,16751,29697
29852,16741,29692
29932,16806,29473
29934,16803,29540
29880,16851,29745
29684,16820,29757
29364,16793,29733
29208,16778,29604
29220,16738,29543
29505,16741,29625
30144,16719,29633
31996,16772,29641
35120,16775,29412
37964,16775,29504
39688,16860,29486
40584,16825,29462
40796,16820,29409
40640,16869,29380
40472,16782,29420
40380,16717,29443
40528,16746,29434
40404,16743,29620
40364,16804,29441
40160,16784,29533
39649,16853,29344
39096,16828,29503
38560,16851,29375
38016,16786,29405
37484,16783,29559
36840,16722,29508
36188,16757,29399
35577,16739,29321
34896,16791,29396
34192,16796,29415
33544,16834,29411
33100,16809,29399
32764,16841,29380
32584,16804,29373
32324,16757,29361
32056,16743,29332
31781,16725,29319
31480,16759,29165
31225,16766,29264
31004,16805,29234
30816,16810,29220
30752,16842,29256
30820,16807,29265
30920,16804,29121
31064,16756,29267
31096,16745,29144
30920,16777,29207
30748,16750,29084
30633,16799,29127
30488,16804,29240
30448,16840,29088
30440,16823,29146
30496,16826,29012
30552,16827,29217
30616,16767,29134
30709,16779,29013
30764,16751,29114
30760,16789,29103
30632,16782,28942
30464,16830,29102
30296,16815,29100
30264,16850,28988
30336,16823,29045
30440,16785,29031
30504,16782,29057
30608,16736,29005
30624,16749,28899
30632,16743,28973
30576,16797,29023
30432,16796,28972
30304,16838,28959
30248,16820,28745
30268,16837,28791
30380,16780,28965
30476,16763,28836
30569,16785,28863
30564,16732,28703
30504,16777,28674
30364,16763,28823
30120,16813,28677
29944,16818,28745
30016,16839,28537
30144,16843,28766
30220,16797,28597
30332,16790,28645
30464,16732,28493
30508,16743,28650
30364,16741,28486
30168,16777,28547
29988,16791,28551
29856,16833,28340
29886,16817,28369
29892,16838,28428
29912,16786,28561
29956,16791,28343
29900,16736,28441
29828,16757,28430
29792,16745,28444
29661,16801,28312
29516,16815,28352
29393,16815,28388
29364,16838,28396
29344,16799,28253
29428,16799,28260
29416,16749,28388
29420,16743,28444
29322,16725,28357
29184,16767,28388
28968,16760,28439
28729,16808,28295
28693,16807,28388
28840,16843,28484
28784,16796,28433
28809,16788,28500
28764,16743,28357
28712,16761,28362
28664,16732,28378
28512,16737,28404
28124,16783,28427
28068,16803,28476
28150,16852,28557
28296,16821,28609
28196,16794,28812
28104,16790,28853
28308,16748,28916
28360,16751,28842
28360,16729,28819
28288,16740,28933
28372,16751,29060
28180,16808,28949
28094,16815,29021
28140,16837,29130
28308,16794,29077
28416,16799,29309
28736,16748,29185
28984,16750,29325
29016,16723,29191
29040,16724,29335
29092,16780,29561
29045,16779,29528
29186,16816,29442
29477,16860,29668
29840,16799,29585
30140,16816,29766
30432,16746,29659
30676,16711,29984
30912,16713,29945
31068,16759,29901
31148,16748,30139
31306,16795,30055
31552,16797,30215
31876,16821,30105
32181,16824,30439
32532,16765,30411
32904,16775,30334
33180,16737,30423
33340,16788,30703
33480,16743,30575
33620,16807,30725
33720,16786,30676
33816,16829,30869
33928,16807,30767
34104,16842,30951
34360,16777,30880
34636,16761,31113
34872,16710,31098
34956,16725,30983
35008,16727,31280
35008,16765,31132
34981,16774,31084
34996,16825,31265
35064,16877,31360
35253,16798,31398
35332,16759,31293
35384,16750,31565
35520,16713,31471
35560,16740,31291
35512,16725,31439
35464,16775,31622
35517,16772,31471
35508,16819,31624
35516,16798,31458
35488,16813,31756
35420,16762,31665
35464,16756,31584
35524,16762,31760
35584,16705,31680
35492,16737,31561
35392,16799,31724
35293,16777,31743
35201,16805,31836
35260,16863,31754
35252,16797,31666
35528,16826,31893
35672,16728,31796
35432,16735,31810
35293,16775,31751
35040,16732,31825
34988,16775,31738
34925,16780,31924
34909,16839,31815
34872,16802,31613
34876,16829,31769
35025,16759,31982
35020,16764,31817
35220,16711,31794
35160,16713,31806
35084,16716,31917
34964,16797,31837
34876,16793,31924
34816,16789,32047
34748,16813,31927
34761,16777,32007
34788,16796,31905
34848,16748,32028
34920,16781,32126
34916,16718,31926
34694,16719,32076
34528,16761,31852
34444,16772,32002
34492,16848,32025
34428,16800,32252
34444,16779,32071
34496,16799,31939
34604,16726,32226
34696,16729,32152
34800,16704,31959
34832,16735,32125
34712,16742,32225
34308,16781,32243
33924,16818,32173
33912,16792,32302
34076,16804,32263
34188,16802,32037
34254,16738,32249
34240,16761,32332
34321,16705,32263
34368,16735,32175
34144,16800,32381
34012,16789,32260
33916,16837,32284
33920,16799,32188
33964,16813,32382
34016,16765,32142
34116,16727,32228
34154,16727,32264
34152,16707,32012
34164,16753,32279
33940,16740,32093
33637,16786,32194
33508,16823,32213
33532,16797,32182
33860,16807,32120
34084,16757,32158
34104,16742,32068
34200,16799,32125
34236,16716,32087
33988,16768,31853
33660,16736,32157
33464,16788,31996
33420,16849,31803
33504,16802,31975
33620,16823,32006
33732,16752,32000
33792,16744,31892
33892,16704,32071
33850,16716,31875
33700,16778,31956
33572,16751,31822
33548,16855,31973
33524,16801,31973
33556,16863,31903
33640,16801,31956
33753,16754,31949
33812,16746,31737
33832,16701,31936
33736,16741,32054
33576,16743,31997
33442,16742,31887
33376,16797,31943
33276,16786,31790
33317,16796,32007
33448,16778,31859
33621,16767,31944
33756,16745,31837
33824,16726,32002
33765,16703,31903
33556,16736,31726
33220,16741,31831
33145,16804,31919
33176,16786,32028
33328,16810,31829
33468,16775,31889
33456,16762,31879
33452,16783,31828
33540,16708,31855
33479,16737,31879
33406,16719,31713
33344,16763,31916
33318,16765,31713
33244,16813,31801
33181,16790,31813
33180,16799,31678
33248,16754,31780
33368,16759,31749
33492,16704,31717
33600,16741,31485
33400,16718,31679
33332,16765,31748
33279,16770,31645
33232,16833,31413
33437,16799,31607
33600,16863,31716
33597,16774,31542
33432,16727,31551
33256,16743,31561
33148,16700,31445
33196,16744,31622
33216,16738,31399
33242,16782,31497
33180,16790,31269
33212,16815,31364
33160,16832,31543
33244,16754,31423
33332,16743,31201
33433,16711,31333
33396,16708,31400
33452,16748,31373
33264,16740,31149
33200,16789,31428
33196,16871,31425
33132,16801,31291
33156,16781,31277
33304,16753,31319
33424,16759,31296
33392,16724,31292
33448,16779,31308
33486,16733,31110
33428,16785,31365
33276,16769,31232
33008,16801,31050
32820,16791,31263
32956,16810,31229
33120,16751,31141
33176,16761,31159
33260,16706,30921
33180,16725,31087
33080,16719,31196
33028,16751,30972
33032,16841,31052
33056,16803,30805
33068,16843,31029
33228,16785,31002
33273,16792,30951
33264,16746,30932
33117,16703,30696
32988,16724,30904
32960,16768,30808
32921,16736,30813
32880,16799,30636
32841,16788,30757
32868,16820,30716
32992,16775,30664
33189,16772,30471
33197,16782,30525
33068,16706,30534
33212,16722,30526
33188,16772,30295
33092,16761,30345
32992,16816,30388
32940,16801,30521
33008,16835,30335
33176,16776,30375
33015,16781,30215
32932,16769,30350
32952,16708,30245
32996,16724,30240
32908,16712,29999
32784,16769,30071
32632,16771,30225
32596,16811,30017
32672,16845,30095
32800,16799,29900
32904,16793,30124
32976,16729,29954
33056,16729,29989
33100,16706,29753
33078,16749,29889
32980,16735,29874
32972,16780,29884
32928,16824,29791
32928,16793,29765
32936,16788,29793
32940,16788,29664
32960,16727,29747
33132,16718,29716
33212,16704,29702
33236,16732,29470
33140,16741,29500
32944,16809,29575
32746,16809,29694
32598,16846,29548
32624,16790,29505
32680,16847,29543
32745,16749,29396
32817,16781,29429
32900,16729,29529
32928,16805,29383
32876,16770,29439
32785,16855,29216
32704,16822,29199
32788,16820,29255
32780,16783,29380
32796,16780,29304
32898,16741,29215
33032,16709,29213
33004,16758,29219
32820,16739,29262
32664,16742,29068
32436,16804,29111
32300,16790,29294
32181,16844,29241
32197,16806,29097
32304,16754,29126
32520,16775,29157
32690,16735,28959
32696,16707,29015
32768,16730,29047
32942,16741,29125
32744,16820,29119
32604,16814,29189
32368,16793,29157
32108,16817,29168
32204,16783,29175
32368,16791,29057
32464,16743,29177
32356,16713,29156
32212,16717,29154
32000,16765,29033
31784,16766,29084
31773,16820,29124
32048,16798,28935
31812,16818,29052
31486,16778,29116
31682,16729,29214
31956,16751,29274
31996,16703,29148
32116,16761,29199
32132,16764,29258
32188,16772,29095
32388,16809,29199
32448,16799,29314
32327,16814,29471
32380,16758,29380
32540,16735,29244
32856,16727,29527
32968,16706,29421
33156,16743,29584
32964,16821,29456
32672,16803,29557
32668,16857,29781
32924,16804,29663
32960,16820,29821
32992,16761,29873
33160,16741,29834
33141,16724,30055
33372,16775,29948
33292,16735,30095
33192,16815,30185
32957,16781,30124
32856,16809,30389
32796,16799,30296
33092,16809,30375
33325,16764,30479
33412,16771,30544
33384,16736,30599
33352,16708,30669
33096,16778,30723
32817,16762,30791
32712,16779,30820
32836,16835,30881
32781,16801,30695
32826,16844,30956
33144,16785,31012
33000,16736,31040
32912,16747,31054
32928,16726,31078
32829,16731,30885
32840,16763,31023
32772,16777,31042
32700,16850,31111
32713,16819,31252
32900,16790,31140
32896,16797,31179
32916,16737,30950
33096,16740,31233
33208,16716,31050
33112,16748,31171
32888,16751,31043
32692,16799,31242
32520,16807,31056
32484,16825,31117
32582,16796,30928
32652,16783,31012
32716,16740,31215
32824,16743,31092
32892,16764,30900
32928,16733,31150
32868,16787,31020
32900,16781,31156
32840,16818,31206
32632,16813,31073
32461,16818,31212
32116,16799,31223
31408,16741,31337
30852,16769,31152
30304,16727,31325
29780,16734,31141
29340,16789,31152
29352,16794,31288
29444,16805,31350
29348,16844,31463
29400,16801,31584
29673,16827,31645
29828,16757,31606
29572,16724,31606
29164,16722,31640
29089,16763,31582
29332,16767,31711
30008,16788,31695
32084,16801,31872
35632,16865,31916
38540,16813,31893
40240,16774,31824
41100,16740,31876
41540,16786,32016
41396,16744,32028
40942,16759,31917
40588,16757,31943
40744,16858,31885
40808,16839,32124
40792,16821,32153
40460,16797,32118
39916,16871,32192
39336,16805,32337
38656,16743,32356
37936,16739,32381
37240,16743,32409
36684,16817,32431
36080,16813,32461
35452,16816,32400
34752,16849,32301
34084,16819,32316
33632,16788,32383
33332,16799,32494
32940,16767,32511
32492,16756,32585
32148,16757,32529
31700,16823,32621
31304,16811,32669
30956,16824,32637
30880,16879,32590
30880,16820,32615
30878,16787,32551
30904,16759,32470
30828,16789,32428
30737,16761,32666
30657,16772,32693
30576,16773,32705
30484,16877,32661
30432,16853,32608
30452,16850,32695
30580,16837,32853
30644,16790,32838
30574,16761,32733
30672,16776,32749
30648,16756,32775
30544,16765,32775
30356,16851,32820
30400,16852,32817
30256,16857,32846
30365,16836,32911
30406,16816,32957
30636,16789,33015
30716,16791,33117
30728,16763,33156
30672,16740,33164
30448,16815,33132
30322,16799,33044
30232,16817,33087
30556,16828,33095
30389,16830,33101
30392,16858,33103
30448,16805,33025
30398,16765,33045
30476,16783,33164
30425,16799,33273
30300,16767,33185
30172,16785,33276
30016,16809,33285
30172,16860,33232
30145,16843,33220
30205,16815,33191
30308,16829,33026
30232,16787,33104
30300,16745,33159
30368,16771,33156
30304,16764,33140
30224,16828,32896
30116,16829,33108
29950,16842,33109
29880,16873,33090
29917,16830,32871
30026,16834,32953
30117,16783,33086
30086,16748,33123
30102,16762,33121
30142,16763,33031
29876,16785,33077
29749,16845,33046
29662,16842,32852
29576,16879,32886
29520,16841,32901
29664,16799,32655
29756,16795,32860
29620,16767,32839
29484,16746,32822
29448,16799,32686
29320,16793,32788
29104,16810,32796
28992,16870,32763
28956,16860,32663
29025,16842,32599
29100,16802,32584
29108,16806,32630
29048,16772,32556
28872,16749,32543
28709,16764,32613
28588,16804,32604
28453,16821,32605
28317,16887,32558
28232,16857,32529
28297,16837,32584
28352,16836,32544
28425,16779,32481
28484,16748,32468
28456,16783,32431
28446,16777,32426
28325,16788,32456
28236,16848,32452
28221,16847,32471
28242,16836,32452
28392,16858,32460
28556,16829,32416
28668,16783,32408
28692,16751,32252
28776,16780,32169
28704,16782,32254
28712,16794,32313
28760,16847,32405
28912,16854,32439
29080,16838,32281
29368,16850,32268
29692,16806,32320
29940,16775,32300
30086,16780,32295
30340,16767,32261
30492,16766,32272
30652,16828,32260
30756,16828,31997
30900,16882,32084
31094,16852,32105
31428,16827,32165
31788,16855,32153
32173,16792,32133
32528,16775,32061
32720,16757,32028
32860,16801,32092
32962,16801,32145
33121,16825,32159
33312,16863,31911
33524,16849,32002
33828,16857,31975
34296,16808,31961
34684,16777,31935
34852,16796,31892
34841,16780,31841
34768,16775,31847
34720,16857,31823
34788,16848,31805
34820,16849,31792
34924,16889,31528
35100,16836,31618
35308,16864,31604
35512,16800,31593
35700,16761,31671
35784,16820,31743
35708,16788,31671
35605,16805,31471
35528,16842,31575
35500,16860,31363
35624,16885,31404
35764,16854,31380
35828,16817,31415
35884,16876,31333
35908,16791,31311
35864,16764,31290
35804,16845,31265
35836,16821,31252
35732,16838,31257
35640,16925,31207
35558,16897,31239
35561,16861,31359
35668,16820,31334
35775,16825,31315
35820,16796,31296
35816,16800,31109
35696,16789,31062
35560,16860,31193
35432,16856,31077
35344,16856,31055
35332,16915,31000
35296,16861,31048
35436,16822,31036
35564,16833,30823
35544,16788,30880
35496,16843,30983
35372,16826,31055
35276,16829,30897
35204,16850,30885
35152,16896,30898
35136,16865,30770
35212,16892,30913
35248,16843,30783
35264,16861,30814
35268,16804,30554
35204,16799,30701
35048,16799,30789
34988,16860,30823
34996,16862,30710
34892,16875,30548
34784,16950,30578
34756,16870,30609
34876,16831,30584
34992,16863,30432
35004,16802,30318
34964,16798,30482
34892,16803,30471
34800,16879,30357
34684,16895,30284
34612,16893,30337
34632,16879,30327
34672,16907,30304
34716,16857,30264
34692,16820,30265
34712,16804,30239
34676,16786,30057
34568,16869,30028
34392,16855,29924
34280,16892,30081
34225,16883,30053
34232,16946,30020
34228,16888,29988
34348,16870,29876
34304,16809,29843
34324,16857,29791
34308,16814,29839
34252,16833,29844
34180,16835,29750
34136,16909,29770
34021,16897,29668
33960,16887,29648
33996,16924,29639
34052,16871,29624
34120,16815,29679
34108,16839,29676
34158,16808,29665
34036,16816,29652
33872,16855,29423
33892,16871,29608
33764,16939,29489
33744,16918,29427
33824,16878,29390
33882,16898,29412
33968,16838,29367
34040,16802,29430
33940,16862,29416
33929,16837,29412
33898,16851,29400
33744,16963,29524
33648,16917,29497
33671,16966,29507
33708,16902,29486
33748,16861,29293
33828,16876,29302
33880,16821,29399
33868,16842,29541
33836,16842,29565
33716,16846,29583
33572,16895,29457
33496,16900,29494
33517,16940,29496
33584,16895,29323
33656,16905,29471
33740,16843,29528
33772,16814,29559
33765,16843,29476
33680,16847,29440
33532,16857,29428
33436,16924,29400
33492,16910,29401
33578,16961,29406
33556,16906,29406
33665,16871,29445
33680,16842,29520
33748,16847,29444
33732,16837,29447
33600,16837,29400
33508,16864,29428
33316,16940,29509
33236,16943,29586
33236,16930,29413
33312,16900,29387
33496,16932,29365
33600,16876,29350
33592,16845,29351
33592,16825,29317
33492,16908,29505
33393,16908,29504
33324,16903,29285
33204,16918,29491
33192,16967,29479
33404,16916,29295
33460,16940,29311
33358,16887,29327
33388,16855,29319
33501,16830,29310
33512,16891,29335
33464,16899,29426
33304,16909,29390
33208,16976,29333
33060,16943,29284
33060,16919,29253
33216,16887,29442
33287,16893,29270
33488,16859,29240
33496,16922,29273
33248,16871,29311
33141,16886,29399
33120,16954,29489
32960,16946,29338
32926,16935,29413
33034,16965,29444
33113,16913,29446
33148,16869,29439
33316,16900,29250
33304,16861,29305
33236,16866,29321
33184,16925,29447
33112,16943,29549
32989,17012,29356
33093,16970,29456
33092,16929,29486
33125,16957,29356
33244,16887,29433
33356,16849,29575
33308,16897,29421
33268,16889,29518
33160,16970,29442
32925,16951,29351
32780,16948,29417
32784,16990,29599
32820,16963,29510
33016,16917,29530
33152,16908,29559
33172,16870,29585
33217,16908,29441
33108,16897,29512
32980,16927,29480
32940,16937,29495
32924,16985,29604
32852,16957,29703
32928,16992,29573
33048,16939,29537
33128,16906,29615
33192,16869,29572
33216,16949,29631
33148,16900,29681
33000,16909,29676
32920,16960,29575
32841,16965,29759
32796,16986,29687
32724,16951,29727
32812,16970,29716
32929,16903,29621
32952,16901,29741
32864,16927,29733
32793,16901,29668
32792,16966,29815
32716,16954,29783
32644,17003,29778
32820,16990,29640
32901,17018,29729
32988,16946,29892
33046,16906,29738
33056,16919,29774
32925,16889,29833
33036,16972,29682
32868,16947,29744
32733,16961,29824
32733,16999,29870
32705,16983,29880
33092,17007,29878
32972,16951,29766
33028,16945,29967
32960,16892,29800
33028,16908,29929
32820,16910,29825
32724,16948,30034
32676,17049,29877
32604,16999,29983
32780,16994,29836
32796,17020,29866
32829,16976,30061
32816,16920,30015
32728,16949,30000
32824,16928,29988
32888,16922,30018
32808,16959,30106
32608,16978,29909
32536,17012,30036
32552,16993,30214
32748,16999,30172
32890,16953,30153
32928,16949,30226
33224,16913,30053
33056,16927,30132
33000,16927,30156
32744,16989,30217
32676,16993,30365
32716,17047,30444
32824,17024,30511
32900,17068,30441
32928,16983,30373
33116,16937,30519
33222,16941,30532
33144,16919,30575
33296,16983,30436
33248,16969,30437
33204,17051,30528
32972,17028,30601
33076,17015,30639
33188,17052,30625
32661,17002,30610
32436,16965,30860
32100,16929,30693
31952,16953,30784
31912,16947,30857
32000,17021,30876
32072,17025,30925
31964,17025,31080
32181,17049,31112
31764,17059,31012
32200,16996,31150
32452,17014,31200
32528,16953,30983
32499,16941,31017
32176,16985,31133
31936,16989,31144
31696,17060,31160
31513,17039,31309
31764,17083,31389
31868,17036,31252
31808,17001,31215
31920,16980,31266
32260,16964,31246
32244,16951,31166
32008,16985,31209
31808,16997,31179
31801,17079,31278
31672,17053,31302
31848,17043,31276
32096,17070,31158
32056,17025,31144
32012,16975,31245
32116,16993,31224
31960,16963,31177
31756,17008,31239
31612,17011,31271
31525,17079,31028
31392,17061,31105
31488,17099,31151
31444,17060,31126
31456,17076,31249
31740,17007,31260
31888,16966,31196
31776,17003,31221
31728,16988,31043
31664,17067,31105
31662,17053,31300
31720,17065,31129
31893,17095,31133
32225,17100,31130
32457,17053,31260
32560,16999,31030
32668,17004,31133
32744,16978,31127
32704,17039,31003
32616,17030,31013
32748,17056,31157
32788,17089,30964
32832,17159,31092
32932,17079,30852
33004,17041,30855
33104,17041,31031
33112,16990,31068
33101,17025,30949
33076,17014,31032
32938,17087,31036
32828,17079,31052
32840,17084,30843
32904,17139,30832
32973,17084,30887
33148,17119,31052
33197,17032,31154
33212,17005,31122
33188,17026,30943
33108,17023,31071
33000,17129,31100
33040,17111,31109
33040,17121,31111
32968,17101,30983
33020,17105,31024
32996,17069,31060
33056,17080,31167
33088,17027,31261
32944,17010,31141
32872,17061,31143
32936,17060,31180
32880,17143,31017
32776,17125,31008
32740,17111,31209
32848,17138,31273
32936,17092,31180
33018,17047,31248
33076,17064,31285
32970,17039,31309
32985,17103,31327
32848,17087,31320
32748,17107,31239
32653,17154,31357
32700,17123,31301
32844,17140,31340
32848,17114,31388
32950,17060,31375
33068,17091,31383
33109,17065,31369
33045,17061,31388
32628,17131,31471
32552,17137,31463
32572,17140,31484
32724,17169,31372
32848,17129,31292
32516,17140,31431
31764,17079,31589
30988,17108,31664
30236,17065,31504
29880,17079,31540
29474,17125,31623
29396,17137,31640
29540,17189,31645
29320,17172,31469
29204,17196,31597
29408,17126,31614
29461,17082,31773
29040,17076,31628
28670,17109,31769
28500,17106,31781
28632,17113,31819
29113,17181,31608
31200,17169,31744
34916,17160,31751
38472,17161,31796
40532,17118,31911
41472,17123,31936
41920,17074,32029
41853,17114,32084
41552,17093,31919
41348,17143,31940
41424,17157,32071
41392,17212,31893
41492,17255,31948
41200,17182,32044
40772,17141,32073
40440,17169,32191
39592,17109,32226
38956,17097,32332
38356,17133,32298
37492,17140,32221
36512,17206,32335
35977,17196,32134
35244,17217,32215
34512,17180,32308
33956,17205,32351
33336,17138,32388
33068,17110,32578
32652,17151,32495
32304,17145,32538
31920,17155,32424
31448,17229,32449
31136,17223,32526
31016,17206,32604
30929,17210,32428
30868,17184,32519
30972,17136,32543
31100,17138,32692
31084,17126,32669
30940,17156,32672
30752,17171,32697
30541,17218,32487
30392,17220,32631
30217,17237,32855
30334,17207,32694
30536,17196,32733
30684,17157,32807
30764,17168,32822
30668,17159,32820
30580,17210,32756
30380,17200,32926
30256,17222,32964
30120,17257,32820
30156,17237,32832
30264,17285,32903
30324,17225,32911
30400,17183,32911
30486,17159,32897
30492,17175,32934
30408,17174,32965
30325,17204,32957
30280,17245,33001
30245,17253,32996
30288,17306,32759
30394,17247,32868
30404,17278,32908
30460,17212,32919
30500,17166,32897
30534,17210,32919
30452,17197,33031
30328,17215,32968
30288,17287,33000
30216,17277,33020
30192,17265,32937
30197,17255,32942
30252,17241,32997
30344,17197,33117
30408,17197,33109
30429,17191,33084
30320,17243,33088
30224,17237,33063
30140,17261,33061
30060,17339,33135
29922,17300,33101
29888,17265,33120
29904,17272,32918
29972,17215,33031
29992,17239,32844
30048,17213,32908
30000,17218,32916
29845,17279,33081
29536,17290,33063
29464,17302,33037
29464,17338,33077
29504,17291,32974
29574,17255,32822
29589,17261,32892
29628,17223,32936
29528,17213,32933
29308,17257,32927
29089,17271,32906
28922,17289,32900
28841,17328,32887
28869,17307,32644
28916,17324,32671
28900,17278,32741
28948,17244,32825
28928,17235,32948
28848,17225,32854
28696,17253,32752
28464,17269,32817
28320,17308,32566
28292,17360,32704
28256,17335,32886
28240,17335,32707
28232,17289,32754
28236,17274,32488
28272,17275,32788
28300,17240,32623
28249,17277,32694
28089,17287,32448
27930,17327,32570
27816,17334,32701
27792,17353,32510
27876,17354,32633
28049,17299,32509
28328,17287,32671
28460,17248,32543
28466,17273,32575
28497,17311,32308
28480,17309,32497
28481,17380,32580
28492,17353,32361
28645,17369,32466
28940,17335,32260
29204,17342,32377
29512,17286,32484
29832,17288,32360
30044,17269,32300
30084,17293,32370
30055,17314,32137
30173,17354,32224
30384,17420,32301
30704,17377,32359
31096,17349,32345
31540,17356,32229
31824,17299,32092
32236,17308,32168
32456,17279,31991
32636,17320,32157
32828,17376,32167
33040,17381,31993
33184,17432,32029
33392,17389,31793
33708,17421,31887
34065,17362,31849
34416,17313,31903
34644,17319,31900
34756,17295,31744
34874,17357,31836
35077,17334,31679
35028,17398,31855
34985,17399,31694
35081,17419,31695
35292,17385,31676
35464,17394,31604
35612,17330,31462
35760,17359,31476
35817,17314,31636
35796,17372,31416
35800,17354,31500
35848,17423,31252
35933,17417,31324
35900,17469,31447
35972,17406,31423
35996,17425,31269
36044,17342,31329
36116,17347,31092
36072,17326,31202
35972,17372,31343
35900,17415,31140
35784,17407,31232
35744,17460,31196
35828,17453,30981
35884,17460,31175
35889,17392,31159
35940,17415,31050
36008,17368,31137
35980,17398,30921
35948,17357,31005
35924,17404,31183
35704,17515,30965
35529,17463,31068
35448,17477,30928
35424,17430,31089
35528,17429,31000
35649,17417,30827
35720,17351,30897
35692,17372,31092
35564,17368,30991
35432,17409,30961
35300,17433,31004
35281,17478,30977
35309,17451,30796
35336,17453,30859
35344,17411,30975
35428,17407,31055
35404,17360,30953
35320,17393,30928
35208,17447,30973
35080,17423,30980
34996,17447,30964
34864,17486,30766
34796,17519,30853
34929,17458,31020
35024,17479,31041
35088,17415,31060
35112,17382,30938
35108,17405,30925
34948,17396,30965
34784,17439,30762
34664,17524,30836
34644,17491,30857
34712,17476,30964
34692,17480,31007
34660,17439,31013
34676,17431,31025
34708,17390,30887
34672,17409,30893
34640,17473,30942
34512,17449,30710
34368,17495,30799
34256,17493,30951
34252,17521,30941
34308,17558,30865
34392,17479,30887
34392,17465,30737
34444,17425,30801
34380,17407,30879
34232,17438,30975
34168,17447,30756
34064,17504,30861
33988,17503,30882
34052,17525,30767
34120,17519,30919
34164,17471,30853
34236,17460,30829
34216,17471,30868
34172,17442,30864
34102,17440,30855
33904,17492,30853
33804,17501,30860
33856,17572,30861
33904,17543,30640
33936,17585,30676
33896,17493,30741
33952,17502,30825
33980,17439,30932
33900,17465,30759
33828,17453,30772
33760,17521,30844
33696,17518,30743
33608,17585,30638
33580,17543,30645
33600,17517,30716
33748,17518,30756
33865,17467,30828
33928,17491,30949
33896,17457,30745
33792,17511,30863
33716,17493,30854
33568,17569,30650
33496,17542,30797
33536,17587,30918
33632,17543,30819
33764,17507,30778
33792,17518,30753
33812,17470,30797
33812,17464,30850
33678,17500,30858
33564,17530,30842
33476,17558,30880
33424,17561,30741
33468,17590,30767
33540,17551,30764
33660,17567,30762
33784,17502,30937
33776,17509,30759
33668,17476,30868
33500,17505,30743
33424,17524,30727
33420,17593,30912
33384,17580,30941
33381,17633,30917
33420,17572,30876
33468,17532,30769
33569,17519,30845
33628,17487,30706
33628,17511,30708
33526,17508,30868
33472,17543,30789
33388,17563,30831
33266,17633,30628
33248,17597,30695
33316,17569,30756
33358,17561,30764
33476,17516,30772
33548,17525,30596
33512,17500,30895
33415,17546,30738
33248,17551,30778
33184,17627,30793
33120,17620,30659
33208,17582,30727
33340,17613,30887
33328,17565,30726
33365,17566,30813
33404,17538,30592
33340,17517,30684
33240,17543,30896
33184,17557,30710
33124,17626,30697
33064,17620,30755
33024,17620,30808
33032,17652,30823
33188,17588,30835
33272,17542,30820
33344,17569,30724
33340,17548,30633
33310,17547,30820
33140,17612,30708
32964,17622,30869
32914,17671,30819
32912,17629,30868
32996,17650,30676
33137,17603,30754
33300,17598,30879
33348,17556,30965
33292,17581,30809
33244,17561,30884
33120,17613,30760
32952,17617,30983
32844,17657,30797
32840,17638,30897
32920,17643,30799
33052,17597,30993
33160,17583,30882
33228,17551,30903
33152,17589,30932
33156,17579,30718
33096,17636,30894
32980,17640,31038
32888,17708,30917
32840,17670,30908
32892,17696,30953
33008,17627,30957
33101,17634,30854
33184,17588,30908
33136,17566,31063
33008,17607,30964
32932,17613,30979
32775,17664,30873
32701,17666,31046
32772,17692,30983
32836,17656,30889
32924,17701,30924
33053,17610,31010
33084,17663,31021
33028,17609,31041
32897,17679,31032
32784,17639,31020
32748,17660,31042
32721,17693,30932
32661,17735,31079
32776,17671,30988
32940,17684,31085
33004,17610,30983
33064,17610,31180
33034,17601,31062
32948,17618,30932
32864,17661,31197
32748,17753,31022
32748,17701,31114
32752,17735,31110
32816,17689,30901
32836,17700,31020
32900,17636,31230
32964,17608,31149
32932,17618,31096
32836,17690,31012
32745,17674,31047
32748,17737,31225
32716,17730,31175
32620,17767,31151
32708,17700,30988
32752,17699,31076
32837,17637,31200
32921,17666,31239
32896,17624,31277
32856,17668,31141
32712,17666,31215
32624,17712,31023
32552,17759,31174
32636,17765,31150
32740,17759,31238
32824,17684,31216
32876,17647,31175
32945,17645,31247
32944,17681,31253
32856,17652,31212
32729,17688,31271
32665,17765,31167
32576,17743,31364
32584,17757,31264
32685,17719,31063
32784,17708,31222
32912,17742,31419
32968,17657,31319
32940,17693,31311
32812,17677,31332
32708,17740,31111
32656,17721,31418
32532,17756,31239
32468,17749,31285
32452,17746,31364
32429,17748,31483
32504,17683,31375
32564,17675,31287
32564,17652,31492
32448,17689,31391
32212,17735,31239
32084,17739,31388
32028,17761,31310
32032,17769,31439
32148,17776,31364
32244,17719,31380
32288,17713,31432
32356,17720,31256
32340,17671,31579
32285,17700,31487
32185,17703,31398
31980,17762,31583
31808,17815,31489
31764,17779,31332
31781,17804,31558
31808,17727,31527
31864,17716,31397
31880,17728,31591
31908,17686,31557
31838,17724,31609
31640,17775,31456
31472,17777,31593
31484,17831,31382
31616,17801,31507
31772,17767,31623
31972,17773,31526
32160,17715,31639
32344,17700,31523
32364,17733,31524
32394,17719,31648
32480,17777,31432
32536,17772,31780
32568,17801,31663
32700,17793,31461
32876,17799,31628
33060,17754,31700
33156,17749,31704
33245,17743,31719
33300,17706,31616
33256,17774,31726
33164,17765,31597
32981,17838,31797
32888,17817,31724
32864,17855,31533
33024,17801,31813
33120,17804,31645
33228,17748,31775
33332,17759,31671
33301,17717,31653
33220,17757,31788
33064,17837,31751
32909,17815,31841
32824,17877,31769
32964,17829,31815
33152,17801,31589
33255,17791,31781
33308,17750,31916
33298,17743,31764
33192,17729,31847
33136,17767,31613
33060,17774,31791
33004,17832,31863
32940,17828,31817
33056,17861,31856
33158,17810,31841
33204,17805,31750
33280,17807,31887
33328,17749,31780
33264,17783,31957
33140,17760,31857
33052,17807,31781
32994,17817,31945
32916,17864,31893
32936,17841,31688
32964,17841,31862
32968,17800,31877
33056,17783,31892
33056,17807,31796
33049,17750,31878
32924,17790,31918
32804,17797,31920
32748,17859,31812
32677,17850,32023
32736,17874,31878
32872,17919,31740
33001,17833,32012
33152,17828,31799
33172,17783,31932
33008,17815,31848
32494,17783,31800
31584,17829,31689
30752,17876,31913
30032,17868,31847
29700,17871,31736
29312,17877,31978
29292,17825,31789
29453,17807,31908
29388,17777,31900
29180,17790,31799
28996,17792,31786
28620,17822,31903
28064,17862,31991
27492,17892,31876
27316,17869,31670
27608,17867,31952
28644,17829,31881
31188,17804,31901
35352,17856,31904
38832,17800,31712
40800,17796,31837
41588,17873,31993
41852,17867,31886
41644,17912,31950
41324,17929,31879
41200,17869,31701
41504,17871,31960
41848,17862,31921
41988,17798,31813
41817,17825,32006
41092,17892,31902
40264,17851,31949
39456,17927,31773
38732,17897,31921
38060,17957,32007
37468,17896,31972
36872,17897,31879
36324,17831,32103
35677,17844,31965
34908,17810,32031
34148,17857,31921
33504,17860,32132
32974,17927,32031
32412,17922,32059
32053,17951,32018
31744,17899,31969
31476,17887,32111
31348,17839,32007
31200,17831,32222
30977,17861,32025
30760,17839,32153
30684,17873,32230
30592,17895,32149
30336,17952,32132
30192,17924,32192
30216,17933,32126
30392,17882,32247
30537,17885,32244
30600,17847,32135
30656,17887,32223
30516,17849,32061
30320,17887,32337
30220,17951,32205
30060,17927,32079
30072,17942,32383
30272,17934,32349
30357,17928,32407
30476,17869,32329
30492,17854,32188
30464,17885,32519
30326,17858,32434
30189,17893,32359
30132,17921,32538
30113,17949,32361
30104,17989,32284
30160,17940,32585
30312,17932,32519
30356,17869,32551
30364,17885,32461
30324,17852,32643
30256,17888,32588
30172,17900,32375
30120,17941,32620
30054,17986,32501
30008,17959,32652
30092,17966,32559
30208,17916,32693
30320,17896,32639
30280,17921,32661
30144,17869,32662
30025,17905,32677
29932,17911,32766
29948,17943,32676
29925,17972,32614
29888,18000,32701
29944,17949,32732
29960,17936,32671
30037,17894,32840
30164,17879,32628
30092,17876,32716
29876,17908,32743
29714,17953,32645
29540,17967,32741
29552,17974,32864
29608,17991,32682
29680,17984,32775
29692,17936,32684
29712,17912,32655
29712,17903,32546
29600,17885,32893
29424,17934,32750
29276,17940,32813
29188,17991,32709
29044,17983,32854
28924,18015,32802
28836,17971,32644
28898,17962,32825
28980,17913,32805
28968,17903,32876
28908,17892,32775
28668,17923,32984
28472,17941,32774
28353,17983,32897
28248,18025,32900
28226,17999,32821
28170,17988,32712
28169,17989,33074
28201,17932,32953
28216,17926,32848
28188,17903,33100
28049,17933,32981
27909,17975,32825
27768,17983,33171
27676,18010,32964
27616,18032,32860
27600,17985,33198
27692,17973,33114
27768,17956,33025
27853,17919,33245
27872,17939,33088
27844,17933,33204
27728,17980,33252
27620,17989,33228
27708,18021,33174
27784,18047,33405
27908,18001,33295
28188,17987,33287
28572,17972,33312
28729,17921,33255
28812,17935,33492
28854,17938,33349
28960,17976,33393
29088,18023,33444
29286,18019,33389
29533,18028,33359
29860,18020,33569
30252,18023,33493
30528,17953,33429
31000,17941,33396
31200,17977,33524
31524,17959,33287
31564,18004,33621
31632,18052,33570
31904,18029,33562
32224,18055,33532
32681,18073,33607
33068,17998,33599
33596,17989,33605
33612,17943,33652
33848,17967,33437
34088,17964,33736
34124,18003,33671
34180,18071,33629
34280,18039,33598
34632,18076,33751
34769,18028,33625
35152,18028,33872
35368,18065,33746
35438,17974,33798
35692,17959,33832
35572,18004,33762
35500,17997,34000
35500,18058,33879
35460,18117,33977
35824,18068,33890
35916,18087,33823
35780,18031,33981
35976,18025,34112
36292,17971,34068
36060,17999,34000
36100,17988,34272
36076,18043,34149
35988,18050,34216
35629,18092,34192
35840,18071,34447
36028,18073,34336
35917,18079,34333
36000,18002,34393
36132,18005,34532
35980,17981,34492
35764,18012,34749
35980,18113,34700
36016,18085,34524
35584,18143,34852
35704,18089,34805
35888,18103,34671
35660,18045,34965
35688,18033,35093
35760,17994,35094
35806,18012,34927
35552,18069,35324
35412,18046,35277
35364,18109,35391
35124,18095,35591
35064,18117,35503
35156,18081,35615
35454,18089,35727
35440,18028,35695
35600,18047,35545
35380,18005,35983
35428,18045,35900
35264,18135,35864
34816,18089,36051
34824,18131,36089
34848,18164,36069
34952,18106,36320
35077,18096,36177
35225,18037,36292
35196,18045,36332
34936,18052,36260
34948,18098,36220
34624,18062,36564
34536,18119,36486
34528,18197,36467
34664,18132,36519
34584,18156,36517
34416,18089,36319
34548,18092,36550
34652,18029,36738
34644,18041,36588
34432,18100,36344
34276,18078,36575
34108,18145,36625
34108,18181,36581
34140,18135,36456
34100,18139,36796
34224,18132,36637
34344,18064,36457
34384,18059,36808
34338,18063,36671
34052,18103,36605
33964,18086,36807
34076,18134,36669
33748,18164,36614
33416,18205,36685
33452,18129,36697
33696,18116,36615
34088,18123,36704
34240,18053,36400
34040,18061,36824
33924,18085,36720
33744,18132,36743
33809,18127,36641
33710,18173,36505
33500,18195,36844
33420,18143,36738
33492,18123,36868
33700,18093,36734
33848,18108,36821
33764,18080,36641
33644,18129,36764
33660,18115,36645
33424,18178,36868
33392,18164,36767
33504,18178,36717
33548,18192,36805
33664,18141,36749
33756,18128,36695
33700,18076,36685
33772,18096,36772
33600,18134,36852
33528,18117,36645
33525,18174,36744
33512,18173,36788
33548,18197,36724
33596,18200,36493
33740,18140,36847
33728,18117,36708
33740,18149,36580
33664,18093,36823
33576,18148,36553
33508,18130,36529
33356,18180,36644
33324,18214,36628
33388,18182,36572
33448,18196,36524
33576,18175,36567
33724,18119,36591
33812,18112,36431
33684,18112,36241
33584,18153,36521
33537,18138,36487
33552,18186,36496
33397,18242,36377
33356,18201,36132
33444,18197,36477
33376,18223,36254
33392,18128,36071
33544,18132,36276
33556,18109,36416
33457,18132,36247
33288,18196,35982
33252,18187,36385
33152,18219,36199
33184,18252,36011
33384,18214,36191
33616,18217,36252
33732,18148,36159
33748,18156,35873
33540,18142,36044
33316,18194,36151
33228,18173,36060
33072,18247,36088
32988,18225,35985
32992,18224,36039
33096,18219,36045
33348,18226,35727
33494,18161,35964
33462,18167,35988
33396,18139,35865
33292,18185,35969
33148,18174,35671
33020,18234,35909
33008,18233,35784
33173,18245,35748
33176,18239,35845
33212,18217,35844
33240,18211,35797
33312,18148,35591
33292,18149,35847
33216,18198,35773
33128,18188,35823
33045,18237,35708
32996,18300,35583
33056,18263,35821
33126,18277,35607
33217,18204,35400
33297,18189,35670
33352,18212,35561
33372,18161,35333
33348,18187,35652
33224,18238,35305
33108,18239,35649
33000,18268,35557
32984,18335,35541
33012,18247,35420
33060,18231,35436
33120,18257,35552
33168,18183,35476
33188,18220,35220
33164,18193,35439
33109,18212,35527
32992,18253,35410
32880,18319,35277
32920,18292,35495
33020,18304,35301
33040,18248,35429
33164,18258,35229
33264,18198,35498
33208,18215,35364
33200,18198,35172
33124,18237,35510
33032,18319,35364
32990,18307,35124
32960,18333,35463
33024,18283,35264
33186,18286,35405
33212,18216,35396
33244,18212,35268
33164,18195,35380
33053,18228,35109
33016,18241,35357
32956,18317,35495
33000,18311,35367
33004,18346,35105
32981,18300,35384
32992,18311,35368
33032,18258,35294
33148,18265,35353
33201,18222,35256
33112,18265,35342
33052,18257,35313
32952,18295,35236
32957,18338,35178
32988,18308,35285
33008,18320,35332
33133,18258,35144
33180,18268,35001
33254,18254,35335
33252,18224,35175
33132,18269,35172
32992,18261,35118
32918,18332,35262
32910,18324,35108
32935,18353,35094
32988,18314,35059
33024,18316,34978
33092,18300,35007
33204,18242,34926
33192,18266,34953
33120,18252,34951
32976,18292,34833
32892,18315,34927
32826,18373,34849
32878,18345,34729
32996,18375,34753
33100,18321,34516
33185,18308,34724
33230,18252,34630
33176,18276,34399
33022,18288,34458
32797,18297,34530
32588,18348,34340
32428,18351,34420
32408,18383,34256
32500,18342,34258
32560,18340,34277
32616,18292,34231
32692,18316,34097
32792,18283,34207
32720,18286,33973
32504,18325,34054
32316,18340,33789
32196,18392,33870
32224,18369,34039
32340,18373,33868
32481,18391,33696
32538,18306,33834
32560,18277,33806
32461,18296,33697
32148,18287,33572
31924,18329,33732
31868,18390,33585
31816,18376,33447
31760,18397,33381
31848,18415,33294
31880,18361,33525
31937,18357,33324
32004,18309,33356
32000,18321,33383
31984,18306,33191
31962,18364,33261
31972,18377,33029
31993,18430,33159
32100,18400,33264
32184,18375,33165
32360,18364,33088
32633,18372,33090
32868,18324,33036
33004,18358,33017
33000,18334,32883
33026,18344,33071
33012,18392,32832
32956,18401,32925
33084,18444,32753
33180,18399,32961
33390,18405,32820
33516,18337,32679
33581,18356,32796
33584,18315,32748
33445,18374,32735
33356,18368,32513
33272,18451,32615
33224,18424,32760
33204,18412,32575
33248,18425,32532
33340,18416,32597
33404,18353,32647
33424,18369,32468
33436,18346,32612
33464,18389,32519
33372,18383,32583
33252,18407,32342
33120,18446,32581
33076,18434,32455
33216,18448,32540
33352,18407,32300
33465,18422,32442
33500,18366,32504
33488,18399,32503
33433,18367,32326
33312,18387,32381
33180,18439,32540
33100,18451,32572
33136,18444,32413
33212,18462,32445
33312,18412,32237
33341,18409,32395
33368,18352,32438
33420,18368,32407
33372,18439,32280
33252,18415,32425
33096,18465,32316
32956,18465,32408
33012,18533,32401
33125,18470,32208
33236,18469,32341
33260,18406,32434
33300,18384,32469
33248,18392,32309
33224,18428,32356
33136,18433,32180
33080,18499,32359
33036,18492,32263
32984,18516,32341
32860,18463,32193
32516,18461,32373
31809,18402,32202
31156,18415,32319
30580,18394,32091
30060,18428,32195
29492,18433,32250
29281,18487,32369
29248,18485,32197
29044,18497,32284
28941,18469,32135
28888,18452,32353
28748,18443,32173
28412,18391,32255
27952,18406,32145
27632,18402,32301
27856,18435,32212
28698,18467,32218
31040,18493,32151
35229,18532,32303
38880,18488,32105
41240,18501,32196
42264,18439,32081
42660,18450,32279
42376,18397,32057
41880,18439,31945
41564,18516,32183
41632,18471,32095
41764,18520,31939
41732,18623,32158
41568,18511,32228
41205,18543,32126
40668,18452,31933
39996,18483,32055
39272,18445,32196
38556,18490,32095
37717,18470,31905
36884,18532,32112
36064,18520,32096
35325,18557,32108
34612,18529,32119
34052,18534,31893
33684,18462,32134
33256,18470,32097
32797,18444,32061
32328,18444,32094
31824,18496,31868
31400,18507,32007
31088,18559,32099
30924,18557,32157
30814,18559,31953
30844,18517,32071
30884,18513,31837
30880,18449,32140
30768,18463,32034
30612,18462,31901
30432,18489,32012
30368,18525,32025
30276,18591,31908
30244,18564,32007
30344,18539,31965
30440,18518,31868
30489,18511,32060
30508,18458,31964
30480,18471,31760
30384,18469,31871
30236,18511,32015
30116,18569,31965
30016,18559,31861
30044,18569,31959
30180,18575,31839
30304,18529,31944
30353,18529,32061
30381,18479,31871
30456,18511,31986
30372,18486,31914
30228,18525,31885
30093,18546,31980
29999,18589,31855
30024,18614,31977
30136,18567,31968
30240,18567,31836
30304,18511,32012
30396,18513,31881
30408,18485,31913
30336,18532,31929
30160,18540,31761
30076,18597,31983
29992,18584,31807
30016,18604,31897
30108,18573,31743
30140,18564,31878
30184,18521,31864
30326,18508,31824
30300,18527,31638
30184,18517,31874
30060,18554,31742
29900,18591,31596
29796,18597,31820
29840,18613,31724
29882,18623,31649
29913,18571,31684
29940,18553,31613
29933,18513,31607
29880,18525,31641
29776,18558,31519
29646,18554,31652
29540,18605,31589
29424,18615,31474
29340,18643,31629
29358,18613,31425
29492,18607,31294
29521,18549,31428
29512,18537,31276
29412,18549,31544
29209,18550,31396
28994,18589,31239
28837,18596,31468
28792,18631,31405
28724,18654,31420
28730,18613,31276
28718,18600,31364
28746,18559,31239
28732,18551,31319
28656,18565,31346
28536,18549,31268
28360,18588,31288
28234,18612,31308
28072,18641,31176
27972,18661,31217
27904,18629,31076
27965,18608,31336
28036,18599,31263
28086,18552,31149
28044,18567,31160
27920,18563,31034
27848,18601,31280
27776,18652,31153
27665,18658,31015
27626,18660,31295
27720,18636,31177
27896,18629,30986
28076,18588,31274
28160,18574,31156
28200,18583,31052
28248,18577,31181
28241,18613,31128
28248,18630,30956
28272,18671,31161
28428,18694,31030
28604,18657,30916
28840,18643,31048
29200,18596,30980
29444,18580,31092
29572,18602,30961
29752,18588,31150
29940,18631,31033
30152,18645,31045
30300,18682,31024
30544,18679,31108
30880,18676,30997
31225,18640,30809
31604,18620,31029
31996,18585,30954
32324,18599,30983
32521,18607,30988
32720,18671,30785
32944,18677,30800
33144,18687,30916
33398,18702,31023
33636,18679,30962
33896,18676,30814
34168,18695,31028
34457,18623,30939
34600,18646,30733
34700,18625,30881
34816,18687,30945
34864,18686,30912
34968,18753,30927
35120,18722,30797
35300,18746,30981
35492,18684,30833
35656,18683,30900
35816,18623,30826
35872,18656,30975
35872,18631,30824
35764,18704,30909
35708,18712,30882
35720,18773,30787
35808,18732,30829
35840,18764,30829
35940,18694,30890
36076,18692,30864
36196,18636,30788
36212,18648,30898
36161,18641,30724
36006,18693,30943
35872,18786,30839
35820,18754,30708
35816,18739,30791
35844,18738,30845
35924,18700,30961
35986,18677,30916
36068,18650,30780
36048,18664,30991
35972,18662,30871
35817,18701,30738
35696,18767,30968
35640,18751,30841
35573,18769,30911
35584,18739,30821
35652,18740,31013
35768,18679,30916
35784,18688,30823
35650,18708,30967
35528,18692,30959
35448,18723,30844
35336,18732,31024
35232,18791,30889
35212,18765,30972
35290,18762,30884
35360,18788,31053
35432,18696,31027
35472,18721,30956
35412,18691,31034
35352,18764,31044
35216,18734,30834
35025,18744,30936
34856,18785,31135
34792,18822,30996
34848,18765,31084
34912,18766,30983
34952,18711,31194
34976,18756,31196
35036,18703,31045
34948,18703,31061
34826,18796,31143
34688,18769,31009
34596,18783,31172
34532,18801,31109
34486,18777,31166
34644,18764,31031
34680,18724,31196
34696,18740,31164
34696,18710,31159
34624,18750,30967
34464,18735,31276
34272,18780,31181
34220,18842,31087
34252,18816,31239
34284,18834,31191
34384,18766,31144
34461,18755,31151
34520,18755,31111
34461,18713,31312
34324,18764,31207
34281,18752,31044
34124,18794,31312
34014,18804,31165
33992,18823,31076
34022,18802,31301
34077,18791,31239
34126,18750,31072
34183,18732,31316
34157,18724,31277
34064,18743,31300
33984,18765,31186
33884,18817,31360
33748,18866,31311
33754,18831,31117
33792,18859,31258
33881,18809,31428
33964,18759,31254
34036,18751,31360
34024,18767,31269
33933,18757,31420
33804,18818,31345
33676,18813,31390
33588,18865,31287
33580,18836,31475
33680,18868,31354
33760,18810,31430
33840,18817,31249
33920,18757,31524
33892,18768,31433
33799,18758,31264
33684,18821,31460
33564,18841,31567
33540,18885,31476
33572,18848,31374
33596,18880,31509
33708,18833,31504
33799,18821,31537
33888,18767,31418
33848,18795,31628
33748,18783,31536
33652,18840,31554
33540,18857,31468
33448,18858,31622
33440,18886,31589
33492,18855,31565
33600,18885,31585
33702,18821,31385
33792,18820,31690
33792,18785,31621
33660,18818,31520
33597,18812,31726
33433,18872,31620
33353,18875,31663
33336,18915,31519
33444,18864,31756
33533,18852,31671
33600,18857,31639
33685,18794,31560
33637,18813,31689
33600,18798,31677
33460,18821,31685
33316,18868,31736
33222,18925,31695
33248,18884,31697
33320,18889,31692
33420,18913,31529
33528,18835,31830
33626,18831,31732
33614,18799,31636
33468,18825,31758
33296,18841,31777
33196,18892,31721
33080,18947,31684
33060,18908,31799
33140,18924,31828
33308,18867,31708
33406,18859,31618
33472,18809,31837
33440,18831,31733
33372,18820,31846
33284,18880,31824
33200,18883,31825
33088,18922,31696
33100,18913,31955
33188,18916,31812
33244,18875,31914
33280,18866,31829
33344,18823,31999
33364,18839,31952
33320,18837,31854
33196,18874,32037
33064,18939,31985
32928,18919,31956
32828,18949,31878
32893,18916,32000
33040,18909,31929
33214,18861,31975
33312,18837,31806
33328,18865,31981
33224,18849,32117
33076,18900,32047
33012,18906,31951
32956,18942,32169
32936,18985,32086
32952,18940,31872
33084,18892,32103
33214,18877,32020
33276,18886,32119
33252,18852,31925
33156,18911,32193
32976,18895,32108
32862,18959,32029
32776,18943,32036
32812,18974,32145
32912,18935,32085
32968,18948,32059
33121,18900,32148
33164,18893,32044
33160,18856,32201
33097,18908,32166
32984,18892,32076
32828,18948,32129
32724,18950,32196
32756,18975,32087
32820,18948,32199
32956,18948,32204
33036,18894,31992
33089,18889,32274
33120,18869,32188
33080,18898,32101
33004,18904,32303
32840,18964,32172
32740,18964,32227
32816,19012,32002
32886,18967,32128
32961,18933,32320
33021,18927,32135
32996,18892,32231
32992,18928,31999
32944,18917,32113
32876,18917,32297
32785,18984,32223
32732,18981,32085
32752,18983,32287
32808,19005,32295
32885,18957,32200
32930,18964,32233
32956,18914,32134
32916,18865,32319
32864,18913,32228
32789,18975,32247
32685,18982,32035
32660,19008,32351
32564,18994,32231
32624,18995,32257
32684,18955,32143
32792,18935,32348
32994,18943,32263
32988,18919,32047
32796,18967,32194
32536,18964,32356
32349,19034,32212
32208,19013,32269
32216,19008,32063
32252,19001,32228
32364,19010,32276
32344,18958,32276
32392,18914,32052
32449,18917,32293
32420,18919,32181
32244,18956,32283
32141,18980,32294
32072,19021,32241
32128,19071,32200
32260,19024,32306
32368,19014,32332
32440,18951,32300
32288,18927,32199
32128,18950,32406
31940,18948,32228
31776,18991,32332
31648,19003,32196
31612,19057,32319
31616,19033,32302
31665,19015,32312
31636,18996,32354
31716,18958,32189
31733,18948,32388
31812,18919,32399
31768,18954,32300
31804,18968,32388
31780,19017,32364
31732,19071,32276
31816,19039,32410
32064,19055,32287
32416,19001,32436
32645,18991,32341
32829,19007,32207
32946,18958,32465
32962,18994,32365
33024,18985,32313
32968,19044,32571
32961,19039,32455
32956,19084,32263
32988,19035,32560
33120,19037,32437
33276,18980,32528
33380,18988,32328
33412,18946,32668
33308,18988,32468
33159,18991,32588
33071,19042,32661
33072,19078,32615
33076,19055,32436
33168,19078,32623
33264,19035,32788
33252,19031,32709
33352,18979,32613
33431,18993,32851
33348,18977,32660
33237,19020,32805
33132,19036,32676
32996,19072,32924
33028,19119,32775
33192,19071,32673
33384,19079,32825
33384,19013,33036
33465,19036,32935
33480,18983,32993
33390,19022,32805
33172,19012,33090
33032,19071,33156
32886,19079,33083
32952,19103,32918
33049,19059,33173
33044,19069,33131
33068,19013,33239
33212,19000,33132
33314,18980,33186
33324,19002,33361
33260,19068,33326
33064,19052,33260
32928,19102,33349
32970,19120,33180
32964,19075,33481
33120,19068,33328
33172,19017,33493
33164,19007,33414
33088,18988,33511
33000,19026,33487
32924,19039,33576
32900,19100,33591
32788,19092,33508
32516,19115,33708
32106,19109,33657
31400,19064,33631
30808,19046,33799
30324,19008,33671
29888,19005,33489
29472,19028,33708
29293,19037,33842
29208,19086,33786
28876,19103,33580
28692,19113,33823
28700,19092,33985
28542,19087,33799
28120,19038,33937
27704,19022,33956
27578,19007,33903
27776,19025,34005
28848,19043,33951
31776,19074,34104
35940,19138,34068
39256,19103,33924
41204,19100,34198
42076,19119,34191
42432,19041,34124
42180,19079,34257
41674,19023,34400
41416,19075,34300
41536,19054,34124
41604,19135,34392
41548,19111,34429
41296,19173,34436
40912,19109,34508
40416,19161,34296
39848,19079,34506
39264,19087,34729
38548,19028,34620
37664,19085,34702
36800,19095,34484
35912,19152,34753
35100,19138,34929
34405,19140,34757
33972,19140,34895
33572,19111,34823
33232,19102,35047
32927,19057,34946
32532,19078,35026
31976,19065,35071
31440,19081,34997
31121,19125,35164
30886,19140,35095
30705,19163,35180
30716,19133,35219
30728,19125,35242
30872,19079,35346
30952,19081,35295
30788,19063,35361
30688,19063,35108
30684,19094,35372
30568,19121,35559
30484,19161,35376
30420,19156,35511
30416,19164,35335
30516,19116,35609
30560,19109,35482
30536,19063,35617
30568,19084,35673
30508,19089,35698
30336,19098,35468
30288,19153,35568
30244,19172,35607
30209,19165,35756
30236,19167,35936
30312,19133,36027
30425,19132,35839
30600,19087,35985
30460,19095,35740
30352,19091,35988
30269,19138,36116
30112,19148,36209
30144,19169,36108
30230,19197,36127
30276,19172,36180
30337,19139,36220
30440,19135,36244
30437,19103,36228
30400,19079,36264
30400,19087,36269
30348,19143,36316
30232,19165,36340
30188,19218,36396
30212,19197,36419
30248,19188,36348
30249,19146,36380
30204,19140,36394
30242,19102,36436
30224,19089,36510
30112,19113,36567
29944,19124,36607
29848,19182,36608
29840,19191,36478
29856,19222,36660
29852,19194,36756
29941,19160,36686
29996,19125,36823
30036,19119,36709
29948,19095,36750
29808,19127,36760
29674,19140,36665
29536,19186,36820
29376,19199,36903
29378,19199,36927
29392,19207,36839
29360,19166,36793
29368,19162,36837
29308,19123,36864
29228,19102,36916
29158,19137,36932
29008,19151,36945
28862,19177,36967
28748,19231,36698
28654,19219,36900
28674,19229,36946
28745,19183,37140
28701,19140,37012
28668,19132,37063
28592,19142,37087
28312,19136,36956
28144,19153,37126
28012,19196,37159
27840,19215,37096
27776,19231,36917
27824,19234,37076
27860,19188,37169
27889,19151,37356
27872,19135,37159
27834,19121,37268
27796,19145,37287
27616,19159,37249
27544,19208,37444
27392,19220,37262
27488,19236,37392
27664,19216,37200
27754,19197,37549
27934,19177,37341
28132,19137,37473
28105,19144,37508
28029,19144,37440
27976,19185,37477
28077,19206,37248
28145,19238,37526
28308,19233,37724
28664,19241,37605
28936,19206,37639
29172,19180,37445
29504,19148,37711
29768,19161,37686
30028,19157,37732
30128,19209,37431
30312,19230,37735
30450,19273,37822
30720,19247,37812
31060,19252,37669
31536,19213,37873
31996,19202,37968
32396,19157,37821
32600,19173,37884
32905,19167,37772
33181,19233,37865
33328,19244,38013
33356,19263,38061
33600,19304,37935
33864,19263,37830
34172,19225,37965
34456,19217,37993
34888,19165,37895
35024,19185,38105
35112,19181,37928
35228,19219,37993
35188,19242,38036
35120,19302,37740
35208,19277,38063
35376,19288,37983
35532,19238,38096
35776,19223,38023
35872,19244,38215
35965,19201,38080
35908,19190,37940
35820,19228,38164
35784,19295,38164
35668,19285,38168
35760,19333,38116
35902,19284,38288
36016,19249,38175
36060,19236,38203
36136,19194,38107
36213,19207,38292
36136,19252,38239
35941,19256,38269
35944,19309,38349
35896,19290,38162
35888,19321,38297
35892,19285,38392
35884,19293,38217
35820,19227,38368
35908,19233,38297
35904,19204,38329
35940,19226,38407
35824,19293,38184
35612,19284,38520
35516,19337,38407
35572,19324,38447
35616,19343,38527
35724,19293,38485
35641,19316,38663
35596,19238,38468
35484,19209,38585
35432,19234,38333
35356,19302,38733
35308,19297,38635
35116,19360,38716
35052,19332,38585
35124,19345,38894
35162,19282,38780
35228,19285,38798
35136,19226,38884
35096,19239,38911
35148,19238,38842
34972,19287,38919
34872,19293,38865
34800,19341,39030
34740,19329,39100
34768,19348,38879
34793,19305,38916
34856,19321,39044
34904,19249,39044
34768,19239,38996
34624,19276,39035
34448,19273,39197
34428,19337,39109
34564,19335,39084
34544,19360,38813
34488,19382,39218
34460,19311,39077
34524,19303,39189
34604,19249,39020
34660,19285,39268
34648,19261,39183
34424,19295,39256
34368,19357,39185
34304,19351,39379
34220,19375,39151
34224,19337,39292
34230,19333,39294
34324,19336,39244
34444,19266,39356
34436,19280,39332
34232,19335,39279
34001,19308,39455
33896,19333,39251
33808,19365,39372
33772,19367,39397
33796,19373,39200
33908,19326,39352
34040,19319,39527
34104,19271,39492
34057,19293,39399
33981,19280,39487
33896,19321,39415
33728,19391,39617
33668,19380,39405
33656,19409,39502
33710,19367,39362
33732,19349,39686
33836,19343,39527
33896,19291,39598
33916,19302,39273
33872,19337,39744
33748,19329,39497
33664,19394,39639
33540,19392,39342
33556,19425,39613
33616,19392,39620
33692,19412,39771
33768,19343,39815
33808,19301,39760
33886,19308,39623
33901,19357,39718
33637,19356,39756
33448,19422,39788
33332,19407,39445
33344,19435,39740
33388,19391,39890
33532,19375,39680
33684,19394,39785
33722,19321,39841
33732,19359,39508
33664,19337,39727
33512,19396,39830
33365,19399,39818
33280,19410,39973
33280,19438,39916
33292,19405,39738
33488,19396,39897
33536,19418,39833
33712,19336,40004
33708,19365,39992
33566,19347,39854
33412,19420,39908
33324,19407,39529
33148,19422,39604
33216,19444,39888
33280,19465,39796
33390,19396,39916
33444,19391,39779
33564,19343,39904
33500,19360,40031
33436,19349,39886
33472,19401,39922
33190,19411,39852
33068,19444,40050
33076,19445,39959
33038,19440,39884
33280,19412,39943
33300,19380,39897
33357,19369,40052
33304,19344,39847
33412,19383,39921
33304,19428,39788
33284,19422,39997
33057,19476,40039
32988,19455,39780
33108,19466,39902
33120,19422,39647
33332,19417,39833
33528,19368,39927
33590,19392,39913
33584,19377,39831
33416,19433,39855
33140,19457,39890
32724,19463,39894
32825,19511,39862
33088,19466,39860
33284,19436,39856
33196,19437,39910
33376,19381,39751
33256,19404,39876
32812,19399,39903
33008,19417,39901
32924,19468,40052
32784,19479,39815
32924,19510,39878
32924,19476,39909
32936,19494,39949
33196,19439,39957
33248,19399,39661
33112,19399,39900
33004,19407,39916
32836,19436,39860
32684,19483,39985
32678,19500,39779
32672,19514,39973
32756,19530,40093
32989,19473,39868
33144,19448,39984
33140,19415,39610
33100,19437,39951
32871,19423,39900
32640,19483,39934
32592,19488,40024
32741,19525,39871
32748,19557,39935
32556,19510,39537
32532,19508,39844
32948,19452,40013
33101,19434,39800
32920,19463,39813
32748,19438,39452
32664,19508,39431
32456,19512,39687
32344,19529,39667
32296,19557,39728
32476,19525,39768
32680,19535,39565
32785,19479,39471
32980,19476,39559
33120,19441,39149
33040,19479,39439
32704,19483,39577
32656,19535,39372
32734,19548,39340
32652,19572,39346
32576,19542,38966
32556,19553,39240
32612,19497,39160
32782,19460,39127
32748,19493,39081
32644,19493,39208
32332,19496,39196
32256,19551,39065
32120,19569,38934
31968,19615,38919
32164,19572,38900
32278,19535,38783
32296,19541,38855
32220,19495,38844
32276,19471,38831
32252,19524,38444
32104,19522,38703
31986,19582,38797
31916,19577,38703
31991,19594,38620
32064,19573,38767
32132,19580,38584
32237,19535,38495
32236,19502,38588
32052,19512,38380
31824,19510,38577
31660,19559,38484
31536,19575,38397
31548,19600,38471
31572,19634,38118
31648,19597,38319
31712,19613,38513
31790,19551,38252
31804,19515,38383
31836,19531,38287
31832,19564,38468
31816,19569,38341
31832,19623,38277
31804,19624,38311
31884,19616,38295
32084,19642,38049
32340,19598,38167
32594,19591,38185
32736,19552,38317
32828,19568,38145
32912,19556,38223
32904,19620,38109
32776,19612,38161
32672,19635,38300
32776,19647,38129
32980,19676,38172
33152,19616,38087
33292,19575,38156
33392,19572,38209
33328,19551,38004
33228,19585,38135
33044,19591,37900
32792,19632,38231
32813,19651,37997
32948,19670,38071
32980,19649,38100
33002,19641,38085
33220,19598,38010
33420,19588,38207
33310,19563,37949
33160,19598,38068
33136,19605,37747
32984,19657,38063
32772,19701,38049
32904,19686,38001
32997,19690,37743
33104,19639,38092
33212,19628,37959
33272,19581,38033
33312,19594,37783
33289,19639,38087
33124,19647,37956
32956,19656,37977
32780,19703,38004
32816,19692,37917
32964,19704,38015
33080,19656,38092
33252,19650,37836
33296,19600,37920
33224,19618,37921
33092,19673,37863
33096,19652,37895
32973,19678,37932
32868,19727,37956
32900,19709,37984
33071,19714,37758
33106,19677,37765
33071,19683,37821
33100,19639,37774
33128,19657,37740
32984,19645,37777
32893,19654,37729
32893,19702,37613
32884,19719,37764
32704,19757,37513
32364,19727,37612
31712,19727,37619
31056,19685,37456
30700,19642,37521
30240,19660,37609
29637,19649,37372
29337,19691,37485
29388,19710,37151
29200,19764,37319
29064,19752,37287
29036,19736,37287
29032,19731,37136
28877,19692,37232
28640,19673,37413
28612,19653,37149
28718,19687,37177
29312,19698,37191
31424,19758,37174
35188,19759,37028
38464,19792,37220
40648,19749,37127
41620,19784,36955
41856,19727,37004
41696,19780,37041
41300,19695,36704
40980,19689,36777
40872,19749,36953
41009,19751,37032
40969,19832,37025
40856,19822,36863
40544,19781,36782
40084,19769,36855
39580,19801,36750
38884,19722,36913
38180,19759,36652
37445,19740,36740
36652,19740,36737
35852,19807,36732
35092,19808,36615
34429,19855,36607
33800,19815,36669
33408,19782,36756
33186,19787,36645
32820,19740,36564
32476,19731,36533
32112,19789,36398
31749,19780,36502
31376,19805,36463
31127,19846,36476
31001,19874,36482
30944,19842,36317
30944,19840,36354
30974,19789,36159
30952,19751,36277
30912,19762,36324
30836,19759,36132
30680,19796,35877
30548,19845,36133
30416,19851,36102
30380,19870,35921
30456,19843,36010
30596,19845,35972
30604,19792,35935
30672,19790,35628
30676,19768,35775
30604,19798,35906
30572,19807,35741
30396,19883,35724
30254,19885,35596
30241,19885,35620
30356,19865,35631
30432,19857,35615
30480,19814,35316
30612,19818,35461
30604,19797,35577
30672,19829,35365
30600,19834,35416
30450,19863,35399
30424,19914,35107
30438,19911,35248
30464,19912,35249
30480,19863,35271
30500,19843,35140
30612,19806,35288
30552,19829,35014
30560,19818,35103
30564,19870,34806
30340,19877,35015
30212,19922,35052
30136,19914,34890
30206,19924,34927
30380,19881,34633
30492,19871,34823
30496,19826,34695
30493,19828,34655
30368,19858,34843
30237,19869,34679
30172,19905,34655
30056,19924,34548
30044,19944,34551
30128,19948,34562
30145,19904,34460
30252,19878,34524
30301,19887,34429
30300,19858,34188
30204,19886,34402
30012,19891,34208
29960,19950,34276
29724,19956,34096
29600,19975,34272
29600,19950,34064
29648,19947,34121
29832,19906,33956
29860,19899,34137
29716,19876,33984
29461,19907,33836
29208,19907,33781
29088,19951,33743
29037,19989,33920
29036,19973,33799
29052,19975,33657
29156,19942,33813
29184,19925,33625
29224,19909,33496
29057,19878,33692
28817,19912,33556
28598,19956,33411
28436,19962,33357
28349,19995,33270
28252,20012,33415
28280,20005,33368
28332,19975,33127
28436,19947,33225
28468,19909,33253
28376,19913,33183
28258,19940,33129
28133,19954,33116
28044,20001,33116
27998,20014,33060
28048,20031,33044
28152,20009,33004
28284,19991,32756
28408,19955,32911
28540,19936,32815
28620,19944,32898
28613,19951,32746
28559,19988,32903
28660,20007,32724
28768,20029,32775
28920,20045,32592
29068,20024,32608
29296,20014,32647
29588,20008,32665
29900,19956,32469
30210,19986,32647
30332,19959,32560
30496,20019,32551
30592,20033,32416
30688,20036,32529
30980,20068,32359
31348,20075,32451
31780,20038,32300
32132,20034,32452
32488,19986,32263
32748,19997,32323
32924,19980,32227
33044,20039,32335
33200,20059,32166
33353,20102,32222
33628,20094,32084
33900,20068,32240
34204,20058,32072
34536,20017,32104
34880,20028,32108
35020,20005,31865
35092,20064,31972
35104,20051,32032
35168,20117,32001
35180,20105,31764
35264,20101,31972
35392,20117,31911
35540,20068,31875
35620,20073,31855
35708,20020,31724
35852,20029,31788
35884,20026,31774
35772,20068,31788
35656,20082,31615
35608,20133,31718
35684,20158,31717
35766,20112,31610
35896,20102,31565
35952,20116,31652
35988,20044,31460
36048,20075,31612
35960,20050,31487
35816,20110,31567
35716,20105,31416
35644,20158,31587
35632,20149,31568
35700,20181,31444
35800,20111,31468
35880,20128,31463
35916,20079,31275
35928,20052,31303
35876,20082,31391
35748,20095,31471
35504,20148,31425
35384,20151,31277
35348,20193,31354
35392,20153,31362
35504,20153,31178
35584,20169,31340
35692,20087,31319
35686,20071,31269
35584,20097,31332
35380,20120,31319
35248,20156,31109
35084,20174,31176
35044,20197,31367
35136,20231,31203
35232,20159,31308
35328,20158,31108
35292,20113,31176
35246,20093,31188
35136,20135,31313
35060,20129,31391
34956,20201,31209
34872,20196,31309
34814,20220,31124
34860,20195,31212
34948,20185,31269
34969,20180,31300
34952,20114,31205
34909,20129,31301
34768,20169,31268
34596,20153,31305
34500,20195,31279
34392,20215,31220
34368,20236,31270
34388,20212,31100
34470,20205,31172
34536,20157,31356
34574,20152,31193
34540,20196,31295
34396,20150,31124
34312,20199,31351
34120,20201,31265
34024,20248,31096
34076,20269,31144
34060,20234,31332
34144,20220,31169
34256,20220,31279
34352,20157,31143
34292,20165,31297
34148,20165,31271
34020,20199,31123
33948,20253,31324
33864,20253,31200
33852,20290,31273
33896,20252,31149
33904,20246,31365
33981,20231,31193
34072,20172,31103
34106,20191,31164
34028,20223,31310
33904,20216,31319
33684,20275,31219
33540,20276,31319
33652,20311,31327
33780,20274,31199
33852,20269,31373
33868,20247,31236
33908,20193,31349
33924,20199,31363
33764,20236,31279
33648,20231,31401
33580,20269,31367
33512,20307,31400
33588,20350,31254
33652,20316,31296
33749,20302,31419
33824,20239,31454
33856,20235,31351
33889,20212,31473
33736,20251,31488
33636,20255,31316
33548,20303,31377
33488,20317,31585
33492,20326,31503
33532,20333,31339
33608,20297,31450
33720,20267,31567
33796,20257,31551
33800,20229,31582
33724,20261,31511
33616,20311,31669
33500,20309,31524
33408,20362,31623
33392,20346,31519
33460,20333,31544
33608,20324,31640
33736,20324,31575
33760,20256,31613
33740,20257,31676
33652,20296,31525
33581,20292,31748
33448,20340,31665
33330,20368,31561
33312,20396,31649
33352,20358,31685
33516,20356,31704
33580,20300,31569
33628,20281,31671
33637,20300,31632
33536,20283,31508
33388,20318,31779
33333,20375,31705
33216,20375,31727
33256,20396,31719
33316,20398,31661
33436,20341,31735
33536,20337,31716
33528,20333,31791
33548,20292,31748
33452,20341,31772
33380,20329,31573
33276,20381,31654
33076,20389,31844
32988,20398,31772
33088,20402,31589
33216,20361,31813
33292,20356,31688
33398,20361,31804
33496,20316,31614
33468,20348,31797
33224,20348,31896
33053,20402,31837
32946,20404,31818
32968,20428,31841
33028,20408,31788
33156,20388,31796
33252,20366,31940
33302,20329,31777
33348,20330,31839
33325,20332,31871
33220,20377,31687
33093,20428,31855
32996,20429,31931
32972,20453,31878
32976,20453,31772
33034,20398,31937
33049,20388,31816
33192,20378,31897
33264,20341,31741
33241,20366,31988
33088,20425,31879
32900,20425,31751
32776,20475,31983
32776,20450,31892
32862,20456,31727
33028,20449,31787
33061,20389,31980
33041,20373,31860
33092,20388,31702
33024,20368,31879
32908,20412,31844
32884,20445,31796
32812,20457,31869
32724,20485,31892
32800,20492,31879
32936,20431,31930
33060,20420,31720
33140,20425,31866
33096,20380,31887
33049,20396,31929
32924,20450,31800
32796,20459,31909
32752,20504,31981
32773,20485,31939
32800,20493,31939
32852,20505,31766
32924,20426,31898
33055,20420,31855
33117,20386,31900
33052,20432,31925
32932,20453,31924
32820,20501,31789
32736,20503,31881
32774,20551,31960
32873,20500,31876
32916,20463,31900
32908,20452,31761
33012,20437,31906
32989,20402,31945
32980,20424,31867
32868,20444,31909
32784,20484,31767
32704,20532,31828
32660,20519,31893
32728,20517,31751
32792,20505,31791
32823,20487,31764
32764,20424,31775
32608,20423,31860
32516,20444,31868
32448,20506,31769
32380,20498,31868
32196,20532,31864
32152,20563,31751
32238,20519,31853
32360,20502,31700
32452,20492,31744
32432,20440,31633
32332,20437,31898
32360,20465,31716
32284,20503,31627
32200,20501,31828
32136,20542,31727
32096,20574,31826
32088,20535,31612
32096,20519,31785
32093,20476,31836
32108,20472,31782
32105,20446,31808
32112,20485,31593
32024,20493,31673
31833,20545,31855
31696,20553,31687
31616,20564,31800
31653,20545,31583
31820,20538,31705
31982,20523,31719
32144,20466,31796
32200,20457,31834
32176,20484,31744
32148,20500,31765
32112,20554,31799
32095,20597,31623
32236,20573,31828
32464,20581,31757
32732,20564,31790
32904,20508,31661
33061,20495,31812
33188,20515,31726
33152,20493,31776
33088,20526,31743
32992,20549,31847
32985,20590,31684
33017,20585,31779
33100,20589,31721
33112,20580,31771
33188,20530,31782
33292,20509,31652
33332,20490,31857
33280,20516,31687
33184,20562,31589
33077,20559,31838
33004,20603,31783
32992,20618,31648
33044,20620,31671
33180,20573,31777
33312,20548,31751
33361,20521,31769
33388,20535,31652
33320,20518,31686
33216,20551,31609
33076,20610,31858
32984,20611,31801
32948,20629,31719
33008,20639,31700
33120,20584,31806
33312,20574,31665
33388,20525,31777
33320,20555,31777
33280,20532,31598
33133,20571,31860
32924,20623,31773
32836,20620,31805
32876,20643,31688
32868,20663,31804
32964,20596,31806
33093,20582,31741
33204,20556,31742
33176,20532,31803
33088,20554,31689
32984,20575,31740
32877,20620,31810
32741,20655,31815
32704,20695,31614
32745,20639,31658
32888,20644,31695
32932,20581,31879
32992,20567,31740
33152,20546,31749
33152,20574,31828
32916,20583,31695
32440,20637,31701
31616,20687,31857
30860,20656,31799
30380,20666,31727
30092,20628,31829
29849,20604,31629
29820,20571,31741
29896,20568,31879
29674,20571,31732
29432,20613,31785
29367,20626,31836
29232,20664,31812
28909,20676,31727
28502,20672,31844
28292,20640,31711
28516,20615,31879
29204,20573,31782
30982,20573,31822
34510,20611,31645
37828,20598,31849
40004,20645,31863
40972,20727,31848
41344,20706,31854
41308,20717,31802
41036,20642,31800
40868,20644,31868
41060,20588,31668
41304,20612,31825
41284,20598,31780
41116,20636,31719
40568,20689,31780
39828,20684,31972
39116,20707,31908
38472,20719,31724
37944,20660,31886
37400,20666,31999
36857,20611,31819
36216,20615,31929
35472,20615,31808
34624,20654,32018
33868,20690,31916
33200,20693,31748
32752,20729,31836
32448,20729,32021
32240,20681,31884
32000,20668,31980
31728,20626,31820
31534,20636,31783
31312,20638,31873
31044,20647,31965
30756,20685,32080
30584,20710,32000
30577,20726,31988
30580,20713,32012
30652,20687,31885
30716,20679,31917
30778,20628,32087
30788,20633,32020
30660,20636,32007
30596,20673,31919
30456,20715,31941
30360,20737,32034
30357,20758,31870
30380,20727,32049
30472,20716,32110
30518,20671,32072
30643,20644,31975
30654,20645,32182
30544,20645,32039
30468,20675,32134
30384,20738,31956
30264,20738,32105
30269,20739,32258
30324,20743,32119
30444,20740,32049
30608,20678,32288
30724,20659,32158
30672,20673,32237
30508,20662,32132
30377,20705,32288
30285,20721,32186
30248,20743,32273
30200,20762,32117
30240,20763,32311
30388,20716,32292
30444,20692,32192
30440,20681,32263
30460,20681,32105
30364,20675,32293
30296,20710,32213
30252,20722,32317
30111,20767,32146
30055,20768,32372
30132,20753,32307
30204,20751,32111
30284,20700,32321
30305,20679,32207
30200,20681,32321
30092,20681,32103
30056,20720,32200
29980,20740,32341
29832,20781,32284
29765,20808,32138
29724,20764,32378
29620,20761,32260
29624,20714,32080
29620,20694,32175
29489,20695,32229
29472,20685,32204
29628,20714,32219
29644,20762,32212
29576,20775,32157
29544,20791,32319
29575,20793,32252
29560,20749,32132
29648,20730,32237
29626,20711,32249
29528,20683,32159
29361,20701,32237
29276,20742,32251
29116,20756,32132
28960,20799,32269
28852,20793,32149
28844,20790,32262
28889,20778,32148
28848,20732,32341
28772,20713,32159
28746,20696,32284
28648,20715,32117
28485,20728,32339
28380,20776,32190
28216,20795,32282
28140,20815,32298
28180,20799,32315
28240,20771,32144
28281,20752,32245
28376,20708,32204
28408,20708,32316
28342,20725,32245
28292,20732,32219
28164,20777,32318
28056,20799,32187
28156,20814,32197
28270,20811,32244
28452,20773,32323
28692,20757,32112
28815,20721,32220
28957,20720,32395
29012,20719,32309
29016,20755,32301
29012,20798,32087
29064,20804,32223
29300,20828,32321
29512,20829,32308
29844,20789,32141
30234,20784,32242
30452,20736,32359
30648,20730,32237
30676,20735,32263
30837,20778,32298
30996,20791,32174
31236,20831,32281
31336,20820,32357
31684,20830,32300
32152,20789,32196
32592,20786,32256
32909,20738,32283
33168,20743,32079
33288,20736,32172
33440,20769,32357
33567,20843,32227
33645,20839,32207
33904,20869,32284
34236,20842,32097
34296,20805,32204
34500,20780,32348
34868,20743,32199
35064,20767,32156
35120,20744,32260
35008,20806,32064
35024,20813,32120
35080,20833,32170
35084,20855,32338
35128,20830,32143
35324,20834,32255
35548,20802,32247
35754,20795,32036
35844,20756,32119
35744,20756,32125
35520,20793,32300
35348,20815,32126
35333,20848,32231
35392,20854,32205
35421,20864,32095
35572,20870,32263
35708,20799,32292
35744,20805,32108
35900,20763,32201
35749,20780,32073
35956,20791,32153
35416,20860,32189
35268,20856,32212
35340,20909,32044
35604,20852,32156
35488,20869,31983
35500,20806,32079
35532,20804,32148
35598,20783,32128
35416,20775,32152
35248,20803,31967
35238,20862,32137
35044,20867,32217
35160,20905,32249
35060,20870,32276
35049,20839,32236
35180,20822,32219
35264,20777,32070
35312,20791,32231
35024,20820,32380
34932,20807,32346
34848,20863,32378
34840,20868,32228
34580,20891,32437
34716,20895,32447
34696,20851,32287
34924,20825,32567
34972,20786,32657
34996,20807,32505
34768,20787,32641
34660,20823,32582
34452,20839,32686
34280,20880,32705
34320,20924,32598
34412,20887,32788
34512,20848,32676
34612,20836,32794
34624,20795,32613
34581,20807,32735
34488,20798,32903
34280,20841,32789
34264,20850,32908
34116,20887,32884
34088,20935,33060
34048,20901,32918
34100,20889,32831
34250,20829,32962
34296,20832,33164
34180,20791,33121
34180,20813,33181
33992,20824,33101
33812,20880,33189
33637,20889,33361
33684,20896,33357
33700,20910,33287
33838,20869,33287
33911,20828,33468
34008,20833,33262
33992,20808,33404
33896,20847,33536
33769,20841,33708
33708,20863,33565
33652,20911,33711
33552,20906,33599
33584,20922,33704
33676,20870,33906
33700,20869,33793
33724,20812,33919
33736,20813,33980
33712,20815,33991
33612,20859,33933
33508,20887,33997
33400,20900,34113
33338,20928,34167
33420,20904,34046
33530,20908,34161
33656,20853,34380
33752,20839,34255
33724,20807,34338
33632,20832,34145
33422,20847,34412
33225,20898,34345
33174,20937,34465
33244,20920,34519
33324,20933,34439
33377,20883,34604
33428,20863,34533
33600,20852,34397
33648,20813,34713
33572,20837,34596
33404,20889,34725
33312,20882,34496
33200,20927,34804
33156,20921,34885
33334,20911,34817
33548,20901,34781
33584,20894,34742
33584,20831,34896
33640,20839,34813
33584,20871,34982
33388,20875,34839
33260,20919,34936
33161,20917,34732
33140,20940,35023
33276,20948,34911
33380,20893,35045
33484,20889,34988
33604,20839,35089
33600,20851,35086
33424,20837,34877
33292,20876,35117
33212,20929,35161
33060,20927,35102
33081,20946,34892
33216,20959,35222
33244,20905,35080
33277,20881,34991
33420,20867,35086
33492,20868,34964
33384,20847,35319
33264,20887,35133
33252,20900,35262
33196,20941,35281
33185,20940,35206
33212,20933,35334
33268,20941,35292
33265,20885,35070
33349,20873,35410
33396,20839,35246
33342,20861,35388
33232,20916,35148
33144,20911,35406
33008,20959,35471
33024,20947,35346
33096,20963,35330
33196,20918,35444
33352,20915,35479
33436,20859,35330
33416,20871,35410
33262,20857,35620
33188,20888,35415
33122,20952,35524
33028,20947,35534
33044,20983,35455
33064,20940,35564
33156,20935,35560
33326,20921,35335
33312,20863,35637
33324,20870,35601
33244,20861,35537
33168,20899,35335
33040,20946,35543
32981,20946,35647
33016,20971,35524
33080,20945,35567
33177,20941,35562
33140,20893,35311
33210,20873,35479
33148,20832,35618
33213,20871,35463
33088,20902,35525
32896,20925,35536
32860,20963,35444
32892,20965,35591
32960,20961,35429
33084,20925,35476
33136,20901,35494
33252,20865,35413
33175,20876,35468
33116,20903,35468
33036,20895,35201
32976,20958,35367
32812,20956,35551
32756,20975,35429
32862,21002,35428
33020,20937,35420
33176,20930,35413
33300,20871,35392
33320,20865,35300
33244,20900,35469
33124,20897,35314
33012,20943,35127
32897,20957,35263
32908,20981,35436
32960,20963,35293
33020,20952,35104
33160,20901,35236
33308,20884,35408
33448,20900,35275
33308,20883,35085
32952,20926,35279
32860,20933,35335
32752,20973,35244
32736,21000,35073
32856,20960,35346
32924,20948,35133
33031,20925,35335
33156,20921,35233
33160,20870,35017
33036,20901,35308
32892,20954,35232
32820,20938,35256
32692,20977,35161
32660,20970,35356
32776,20971,35220
32940,20967,35231
33076,20909,35156
33164,20886,35134
33120,20873,35188
33040,20899,35105
32964,20922,35207
32965,20934,35173
32900,20973,35061
32800,20977,35202
32815,20979,35138
32877,20953,35087
33014,20906,35056
33108,20897,35076
33080,20900,34965
33032,20885,35126
32957,20932,34916
32776,20940,34732
32544,20980,35033
32392,20975,34880
32455,20985,34909
32520,20977,34823
32588,20911,34970
32661,20903,34724
32668,20877,34813
32644,20909,34534
32580,20908,34820
32488,20946,34781
32342,21006,34679
32296,20981,34456
32332,20985,34621
32483,20944,34517
32592,20920,34602
32664,20916,34333
32680,20877,34452
32500,20900,34521
32192,20943,34457
31936,20937,34335
31812,20985,34397
31792,20981,34432
31801,20985,34311
31903,20950,34332
32012,20938,34101
32090,20884,34329
32097,20899,34113
32056,20885,34191
32000,20924,33924
32012,20946,34105
32012,20988,33960
32028,21015,34012
32148,20985,33959
32392,20953,34016
32613,20947,33856
32798,20900,33626
32928,20911,33730
32988,20901,33738
32992,20947,33716
32976,20946,33777
32952,20980,33585
33048,21013,33356
33172,20977,33500
33340,20972,33593
33465,20915,33386
33541,20915,33422
33516,20881,33166
33432,20895,33343
33372,20906,33196
33244,20951,33119
33132,20998,33105
33152,20982,33221
33280,20991,32987
33396,20947,32841
33500,20931,33013
33540,20935,32869
33488,20892,32933
33400,20925,32727
33292,20917,32906
33156,20966,32701
33112,20971,32766
33156,20996,32607
33188,20971,32749
33252,20972,32540
33348,20923,32592
33422,20926,32365
33484,20890,32461
33440,20920,32564
33312,20909,32402
33176,20960,32423
33056,20973,32263
33088,20997,32372
33108,20972,32360
33152,20964,32327
33260,20916,32183
33340,20907,32201
33352,20879,32173
33328,20901,31932
33208,20940,32190
33132,20943,32007
32969,20977,31845
32977,21021,31942
33020,20993,32012
33076,20949,32023
33108,20933,31844
33206,20885,31876
33208,20893,31860
33124,20918,31713
32968,20919,31848
32865,20961,31694
32864,20972,31739
32933,20995,31524
33024,21023,31620
32904,20965,31742
32456,20947,31604
31668,20895,31527
30984,20907,31593
30468,20900,31597
30032,20940,31361
29637,20959,31422
29628,20988,31571
29557,20985,31524
29390,20988,31397
29444,20948,31460
29424,20935,31463
29153,20896,31249
28704,20899,31293
28204,20885,31434
28133,20918,31378
28420,20938,31386
29373,20975,31157
32080,20969,31381
36172,20965,31302
39360,20965,31110
41136,20912,31220
41956,20886,31173
42256,20901,31077
41991,20932,31335
41565,20910,31247
41372,20967,31108
41528,20982,31198
41552,21038,31033
41560,20975,31268
41288,20980,31100
40644,20986,30992
40092,20918,31231
39408,20931,31160
38668,20891,31068
37852,20935,31063
37056,20943,31140
36304,20975,31170
35620,20999,31133
34908,21006,30999
34300,20950,31108
33816,20935,30972
33428,20911,31123
33032,20881,31121
32576,20893,30951
32124,20922,31008
31664,20964,30916
31262,20972,31125
31028,20981,31111
30964,20988,31013
30968,20955,31093
31084,20940,30957
31108,20888,31013
31072,20887,30894
30920,20906,31119
30736,20905,31080
30612,20943,30956
30492,20978,30981
30452,20996,30970
30520,20965,30951
30608,20963,31157
30640,20921,31052
30708,20886,30965
30732,20891,31048
30680,20901,31111
30560,20937,30973
30396,20948,31193
30269,20980,31118
30276,21009,30946
30344,20965,31198
30448,20955,31156
30528,20921,31028
30616,20903,31064
30622,20902,30980
30556,20889,31170
30520,20920,31200
30408,20939,31058
30280,20965,31117
30257,20980,31037
30269,20987,31209
30384,20943,31184
30556,20921,31059
30620,20880,31111
30656,20879,31272
30572,20919,31102
30452,20915,31212
30344,20962,31077
30256,20965,31255
30208,20982,31207
30256,20991,31056
30380,20940,31226
30452,20920,31108
30506,20876,31180
30568,20878,30980
30484,20876,31022
30272,20914,31197
30096,20942,31135
29965,20959,31111
29972,20980,30972
30016,20980,31161
30100,20935,31013
30253,20925,30890
30272,20897,31065
30258,20869,31044
30204,20887,30908
30032,20919,31089
29868,20929,30996
29816,20956,30873
29750,20977,31033
29728,20974,30903
29744,20941,30959
29758,20911,30762
29820,20897,30972
29762,20889,30887
29640,20870,30727
29444,20911,30902
29294,20941,30790
29152,20969,30870
29060,20960,30918
29094,20964,30756
29144,20944,30817
29156,20899,30620
29184,20873,30724
29156,20871,30838
29016,20870,30763
28852,20892,30594
28680,20930,30798
28496,20949,30705
28436,20970,30570
28432,20964,30775
28424,20930,30704
28480,20900,30580
28525,20879,30633
28524,20871,30518
28400,20862,30536
28273,20890,30632
28196,20930,30471
28068,20945,30598
28028,20965,30550
28086,20950,30567
28196,20935,30545
28318,20909,30549
28396,20863,30388
28480,20860,30471
28486,20860,30508
28462,20889,30392
28402,20924,30434
28388,20939,30300
28440,20965,30390
28574,20953,30408
28845,20939,30345
29088,20888,30375
29340,20869,30191
29572,20860,30415
29692,20855,30282
29764,20885,30189
29856,20925,30366
30041,20942,30233
30300,20964,30101
30528,20962,30286
30872,20912,30270
31220,20900,30233
31660,20877,30197
32031,20839,30074
32232,20863,30257
32352,20874,30145
32488,20910,30003
32640,20961,30188
32832,20947,30084
33124,20943,29972
33472,20945,30076
33780,20888,30100
34080,20883,30005
34296,20839,30028
34424,20865,29904
34488,20907,30012
34564,20905,29953
34600,20942,29834
34720,20970,29980
34925,20926,29985
35136,20924,29799
35344,20913,30009
35520,20847,29935
35616,20847,29774
35632,20885,29965
35604,20871,29892
35584,20921,29740
35504,20975,29764
35516,20937,29684
35584,20949,29784
35740,20941,29830
35820,20879,29700
35876,20863,29689
35936,20831,29796
35928,20857,29639
35809,20861,29724
35694,20908,29755
35612,20954,29634
35588,20935,29722
35632,20922,29630
35716,20905,29676
35832,20911,29512
35880,20839,29654
35822,20839,29669
35768,20855,29689
35703,20900,29652
35584,20886,29502
35473,20923,29523
35324,20950,29641
35468,20969,29572
35520,20903,29613
35536,20894,29448
35580,20837,29654
35600,20844,29528
35556,20859,29456
35424,20895,29660
35324,20881,29620
35224,20928,29540
35164,20946,29514
35156,20951,29521
35193,20893,29482
35244,20887,29676
35312,20833,29636
35300,20829,29490
35140,20839,29540
35036,20889,29488
34932,20879,29549
34792,20911,29520
34748,20933,29703
34840,20937,29668
34925,20885,29525
34956,20860,29676
34930,20834,29607
34896,20821,29668
34864,20846,29548
34766,20882,29677
34673,20871,29616
34500,20909,29702
34468,20917,29677
34480,20916,29523
34524,20917,29655
34624,20847,29543
34696,20829,29749
34641,20827,29703
34548,20856,29609
34412,20834,29689
34264,20869,29747
34116,20895,29529
34072,20923,29676
34092,20909,29520
34180,20890,29675
34236,20877,29692
34276,20861,29737
34248,20848,29699
34148,20809,29736
34048,20831,29540
33951,20878,29617
33856,20903,29541
33816,20915,29653
33908,20928,29542
33936,20868,29653
34036,20839,29533
34132,20822,29668
34132,20823,29682
33985,20804,29618
33920,20836,29567
33792,20877,29492
33644,20884,29718
33588,20893,29671
33633,20897,29706
33724,20887,29493
33836,20862,29593
33902,20840,29532
33908,20791,29578
33872,20795,29540
33776,20831,29605
33685,20863,29528
33544,20897,29628
33444,20932,29551
33432,20877,29628
33540,20871,29704
33568,20855,29761
33720,20794,29714
33792,20785,29677
33716,20815,29646
33624,20809,29573
33504,20849,29765
33404,20906,29756
33332,20889,29623
33380,20892,29729
33492,20840,29786
33584,20839,29629
33692,20812,29719
33708,20810,29645
33636,20782,29700
33536,20805,29649
33428,20841,29716
33364,20881,29679
33308,20900,29822
33448,20893,29893
33484,20842,29843
33625,20812,29897
33668,20789,29831
33669,20802,29676
33612,20772,29911
33472,20815,29836
33401,20861,29688
33316,20858,29818
33232,20880,29796
33312,20857,29883
33305,20836,29749
33388,20820,29760
33512,20786,29785
33538,20766,29890
33404,20785,29896
33289,20823,29873
33225,20815,29917
33148,20863,29888
33126,20868,29783
33240,20860,29879
33280,20850,29773
33464,20792,29815
33584,20764,29757
33564,20767,29836
33536,20767,29734
33437,20795,29800
33300,20832,29735
33204,20869,29894
33188,20853,29926
33183,20852,29776
33220,20857,29956
33300,20790,29886
33428,20768,29766
33460,20773,29997
33372,20755,29900
33240,20782,29806
33116,20813,29900
33064,20863,29967
33149,20841,29833
33064,20837,29876
33056,20815,29808
33204,20788,30007
33344,20772,29997
33356,20772,30026
33312,20743,30022
33168,20764,30057
33064,20793,30039
33004,20836,29881
32984,20849,30034
32972,20838,29911
33009,20822,30022
33216,20813,29908
33296,20749,30036
33260,20734,30047
33208,20759,29959
33213,20757,30091
33172,20787,29991
32984,20823,30193
32854,20857,30116
32868,20861,29990
32968,20797,30166
33060,20782,30167
33136,20760,30023
33148,20716,30085
33020,20733,30145
32904,20780,30239
32844,20778,30108
32796,20825,30145
32828,20814,30299
32836,20828,30261
32920,20812,30132
33092,20751,30175
33124,20734,30364
33140,20757,30348
33108,20736,30376
33012,20766,30205
32893,20766,30333
32828,20806,30472
32864,20827,30324
32904,20832,30452
33012,20777,30332
33060,20762,30514
33088,20756,30466
33140,20704,30536
33136,20713,30406
33000,20740,30542
32880,20786,30583
32772,20786,30413
32704,20812,30606
32700,20823,30650
32848,20764,30655
32988,20753,30502
33048,20719,30749
33184,20716,30736
33124,20729,30612
32940,20716,30660
32856,20760,30786
32671,20801,30673
32593,20836,30767
32704,20784,30866
32776,20769,30757
32884,20746,30820
33006,20699,30949
33006,20693,30797
32904,20688,30836
32856,20724,31058
32716,20777,30933
32592,20771,31079
32572,20803,30924
32680,20771,31118
32792,20760,31089
32900,20746,31198
33012,20685,31175
32992,20686,31220
32920,20692,31079
32872,20726,31367
32780,20770,31337
32600,20751,31308
32552,20779,31301
32676,20788,31248
32720,20734,31399
32648,20706,31490
32644,20692,31328
32652,20659,31433
32524,20681,31604
32356,20705,31607
32224,20740,31573
32110,20745,31615
32108,20770,31713
32276,20797,31613
32352,20740,31825
32388,20719,31727
32428,20658,31661
32392,20662,31877
32373,20657,31887
32292,20704,31729
32184,20710,31845
32157,20773,31874
32120,20759,31980
31984,20750,31959
31965,20756,32097
31944,20688,31986
31956,20670,32204
32000,20633,32084
31992,20653,32219
31968,20691,32133
31900,20692,32309
31814,20724,32317
31516,20754,32208
31541,20725,32406
31684,20717,32348
31893,20664,32348
32104,20645,32263
32116,20639,32493
32160,20663,32442
32200,20653,32356
32212,20692,32487
32220,20708,32693
32396,20730,32561
32573,20743,32714
32754,20688,32621
32972,20663,32681
33116,20640,32673
33240,20643,32803
33384,20617,32860
33308,20645,32790
33176,20712,32993
33004,20709,32903
33128,20708,32992
33044,20711,32889
33164,20683,33025
33256,20660,33001
33172,20634,32899
33292,20601,33159
33196,20639,33241
33197,20637,33215
33072,20653,33056
33053,20693,33285
33016,20695,33364
33024,20707,33349
33100,20688,33181
33256,20643,33308
33256,20633,33364
33460,20590,33580
33232,20609,33502
33100,20612,33353
33072,20649,33575
32976,20708,33557
32957,20695,33647
33088,20717,33692
33144,20656,33537
33284,20645,33692
33298,20589,33823
33284,20585,33774
33296,20583,33815
33148,20614,33750
32972,20622,33945
32912,20673,33823
32808,20708,33957
32842,20680,33858
32886,20677,33870
32960,20620,33799
33048,20575,33850
33068,20588,33992
33042,20569,34180
32944,20603,34048
32768,20612,34202
32656,20663,34125
32644,20687,34292
32740,20652,34183
32832,20656,34321
32924,20605,34155
33038,20596,34415
33125,20552,34399
33076,20567,34432
32892,20612,34302
32420,20613,34364
31448,20665,34512
30580,20661,34599
30020,20640,34439
29676,20625,34552
29396,20610,34468
29332,20556,34557
29472,20548,34775
29357,20538,34624
29192,20565,34727
29070,20604,34609
28865,20617,34808
28413,20642,34886
27936,20628,34669
27812,20608,34816
28084,20572,34628
29068,20548,34665
31560,20523,34816
35580,20561,34973
38816,20538,34798
40852,20580,34654
41749,20601,34799
41976,20632,34884
41872,20607,35015
41456,20599,34878
41325,20568,34991
41548,20575,34864
41856,20532,34919
42012,20516,34927
41700,20557,34844
41208,20590,34917
40504,20667,34942
39616,20615,34887
38933,20624,34916
38432,20577,34968
37692,20569,34910
36846,20548,34996
36256,20500,34940
35524,20530,34975
34736,20526,34956
33848,20563,35017
33168,20581,34973
32840,20630,35014
32561,20607,34914
32176,20591,35100
31886,20536,35038
31697,20518,35003
31360,20484,35021
31084,20513,35052
31260,20517,34815
30893,20555,35130
30640,20596,35030
30492,20580,35111
30528,20580,35033
30548,20588,35230
30752,20529,35124
30664,20512,34935
30740,20474,35236
30542,20488,35175
30188,20519,35165
30422,20523,35109
30244,20575,35244
30272,20598,35271
30197,20567,35152
30236,20551,35305
30292,20540,35349
30456,20480,35278
30388,20477,35236
30432,20463,35422
30373,20496,35108
30188,20514,35455
30140,20548,35389
30052,20568,35501
30136,20573,35389
30156,20532,35452
30216,20505,35292
30437,20487,35150
30256,20449,35516
30237,20463,35371
30148,20502,35233
29972,20508,35500
30109,20551,35333
30096,20551,35348
30180,20556,35319
30276,20520,35296
30232,20507,35324
30205,20479,35241
30297,20443,35303
30324,20461,35285
30284,20487,35258
30136,20497,35136
29852,20540,35239
29696,20511,35136
29728,20540,35199
30000,20521,34916
30232,20516,35248
30352,20460,35079
30345,20452,35133
30176,20437,35020
29994,20479,35180
29812,20505,35040
29793,20550,34914
29765,20535,35120
29772,20548,34892
29772,20526,34855
29761,20478,34948
29860,20453,34900
29814,20441,34732
29660,20434,34858
29577,20453,34637
29520,20492,34843
29456,20518,34853
29429,20527,34796
29373,20530,34677
29384,20500,34853
29396,20478,34724
29352,20435,34616
29279,20431,34783
29136,20441,34655
28996,20453,34561
28868,20486,34501
28712,20504,34372
28636,20526,34540
28684,20533,34525
28758,20496,34533
28716,20477,34545
28660,20407,34468
28580,20413,34398
28460,20426,34386
28376,20460,34196
28225,20469,34517
28096,20506,34397
28001,20531,34311
27996,20509,34397
28217,20495,34343
28256,20458,34229
28264,20426,34201
28274,20413,34064
28198,20433,34284
28132,20432,34247
28109,20464,34207
27952,20508,34020
27956,20521,34228
28044,20503,34173
28305,20495,34076
28452,20473,34105
28564,20416,34129
28652,20413,34001
28736,20411,34176
28768,20449,34051
28780,20479,33988
28876,20498,33941
28980,20517,33764
29204,20517,34020
29476,20510,33958
29801,20459,34036
30028,20430,33932
30314,20429,33992
30492,20415,33880
30724,20444,33782
30948,20490,33895
31160,20501,33866
31372,20523,33760
31836,20548,33797
32178,20499,33815
32392,20452,33799
32704,20435,33740
32988,20452,33719
33192,20425,33788
33348,20466,33719
33488,20471,33717
33556,20523,33768
33792,20517,33756
34052,20528,33665
34240,20506,33635
34564,20500,33624
34874,20433,33496
35004,20423,33788
35092,20422,33695
35124,20455,33525
35136,20487,33767
35144,20504,33593
35264,20524,33486
35336,20521,33767
35536,20543,33700
35720,20465,33612
35840,20462,33564
35936,20444,33563
35734,20429,33764
35840,20455,33676
35720,20487,33735
35620,20539,33666
35692,20567,33656
35772,20519,33621
35900,20517,33543
35952,20487,33552
36021,20473,33519
36145,20478,33595
35960,20439,33381
35800,20476,33700
35759,20502,33587
35637,20585,33367
35560,20539,33671
35652,20557,33576
35748,20535,33509
35857,20524,33468
35836,20452,33351
35972,20439,33452
35712,20455,33308
35616,20506,33572
35484,20506,33413
35388,20549,33507
35436,20578,33580
35348,20538,33478
35532,20532,33359
35604,20518,33353
35681,20521,33332
35600,20451,33483
35412,20469,33439
35276,20504,33445
35288,20554,33406
35072,20545,33381
34945,20567,33300
35060,20560,33188
35092,20562,33431
35100,20534,33148
35192,20532,33343
35148,20463,33346
35105,20479,33279
34992,20527,33260
34944,20519,33316
34728,20571,33181
34666,20593,33262
34692,20613,33272
34770,20547,33212
34824,20541,33141
34784,20497,33116
34836,20508,33232
34696,20481,33217
34592,20513,33025
34444,20575,33248
34420,20571,33121
34368,20603,32953
34316,20580,33150
34440,20573,33133
34536,20577,33124
34590,20509,32996
34624,20508,33164
34504,20529,33093
34370,20559,33135
34292,20584,33056
34148,20581,32943
34072,20615,32953
34048,20613,32846
34084,20607,33088
34143,20551,32965
34220,20537,32764
34212,20511,32924
34140,20525,33041
34056,20534,32868
33932,20588,32919
33776,20601,32740
33772,20629,32980
33792,20645,32852
33836,20601,32876
33940,20584,32637
34012,20537,32740
33993,20543,32876
33982,20567,32705
33840,20555,32775
33780,20597,32593
33708,20647,32747
33704,20641,32793
33740,20655,32629
33830,20616,32735
33906,20605,32709
33936,20559,32565
33980,20545,32647
33980,20556,32455
33809,20614,32519
33657,20615,32661
33524,20686,32713
33472,20674,32620
33572,20688,32564
33625,20631,32593
33701,20620,32361
33820,20610,32558
33888,20564,32493
33892,20582,32533
33805,20621,32423
33737,20623,32493
33536,20672,32509
33389,20709,32284
33312,20671,32431
33492,20666,32425
33685,20654,32479
33736,20593,32335
33760,20590,32383
33724,20607,32435
33620,20613,32202
33552,20652,32279
33432,20725,32432
33384,20696,32346
33452,20707,32145
33516,20693,32391
33600,20647,32220
33724,20631,32168
33836,20645,32277
33705,20631,32257
33604,20670,32225
33509,20675,32049
33409,20728,32165
33316,20715,32078
33376,20725,32152
33496,20695,31927
33568,20677,31964
33617,20640,31952
33660,20636,32109
33620,20629,31999
33476,20668,31996
33368,20685,31837
33228,20733,31933
33200,20768,31917
33344,20739,31950
33408,20720,31901
33461,20709,31879
33480,20655,31673
33440,20645,31889
33424,20658,31847
33368,20697,31815
33233,20701,31717
33152,20737,31602
33164,20764,31798
33269,20773,31735
33300,20766,31623
33396,20703,31641
33400,20678,31505
33398,20677,31729
33436,20666,31576
33296,20698,31666
33176,20743,31519
33020,20755,31640
33044,20788,31593
33158,20797,31396
33288,20751,31495
33360,20732,31510
33353,20727,31529
33340,20679,31335
33320,20695,31449
33344,20748,31399
33238,20742,31444
33108,20802,31266
33004,20790,31263
32980,20803,31371
33068,20768,31247
33192,20760,31341
33248,20740,31204
33252,20700,31313
33220,20729,31252
33157,20721,31078
33060,20757,31156
32968,20805,31022
32976,20820,31215
32977,20837,31170
33080,20784,31052
33149,20775,31109
33232,20751,30917
33288,20711,31074
33284,20735,31074
33218,20769,30903
33108,20772,31081
33004,20818,30923
32972,20847,30852
32901,20820,31029
32972,20812,30959
33100,20799,30818
33164,20780,31011
33236,20735,30934
33220,20767,30784
33076,20763,30973
32988,20800,30876
32994,20859,30689
32888,20839,30932
32860,20862,30753
32912,20860,30844
33064,20805,30700
33174,20787,30885
33192,20744,30821
33157,20765,30644
33068,20783,30764
32948,20815,30686
32800,20885,30799
32680,20862,30655
32852,20869,30809
32992,20837,30775
33025,20823,30623
33142,20794,30789
33089,20765,30741
33064,20789,30756
32940,20820,30598
32826,20827,30774
32764,20884,30665
32712,20871,30741
32640,20885,30585
32708,20861,30759
32852,20839,30692
32974,20813,30532
33026,20781,30781
32984,20795,30612
32840,20836,30717
32684,20839,30572
32680,20892,30693
32684,20911,30620
32716,20895,30694
32820,20878,30566
32900,20846,30766
33060,20831,30665
33112,20823,30542
33032,20808,30759
32980,20839,30624
32837,20858,30669
32716,20908,30700
32628,20905,30704
32692,20930,30519
32784,20884,30672
32800,20869,30645
32873,20859,30622
32984,20813,30690
32956,20845,30557
32752,20844,30676
32592,20886,30601
32460,20935,30714
32328,20928,30660
32352,20933,30690
32372,20935,30709
32388,20881,30525
32432,20880,30583
32436,20843,30719
32488,20868,30646
32448,20869,30660
32288,20922,30712
32236,20932,30745
32188,20965,30596
32136,20941,30720
32220,20927,30740
32416,20919,30596
32440,20861,30801
32416,20863,30678
32261,20855,30787
32068,20869,30788
31840,20922,30712
31692,20960,30701
31668,20954,30830
31700,20967,30690
31788,20960,30778
31840,20907,30852
31880,20886,30716
31924,20879,30908
31944,20906,30767
31900,20895,30876
31840,20939,30907
31781,20953,30767
31716,20991,30916
31808,20984,30820
31992,20981,30927
32204,20924,30818
32428,20905,31001
32636,20909,30952
32716,20889,30980
32752,20919,30932
32796,20955,30973
32893,20972,30917
32934,21007,30903
33072,21018,31118
33208,20975,31007
33304,20961,30879
33464,20903,30958
33512,20919,31036
33472,20901,31126
33322,20941,31037
33160,20951,31127
33040,20996,30993
33080,21033,31196
33028,20999,31044
33124,21005,31165
33292,20956,30988
33352,20944,31072
33396,20904,31258
33404,20921,31148
33332,20979,31108
33244,20967,31196
33160,21021,31028
33064,21015,31089
33140,21028,31252
33208,21038,31209
33341,20977,31236
33376,20964,31264
33424,20918,31068
33384,20936,31316
33328,20954,31272
33212,21005,31261
33054,21007,31279
33060,21045,31122
33061,21024,31286
33124,21025,31220
33256,20976,31325
33400,20956,31218
33404,20972,31284
33266,20950,31337
33148,21008,31346
33020,20996,31173
32908,21025,31270
32876,21049,31295
32892,21039,31341
32976,21031,31213
33100,20989,31316
33156,20983,31417
33132,20959,31432
33097,20948,31373
33061,20992,31407
32992,21010,31372
32928,21065,31285
32900,21060,31333
32985,21060,31325
32936,21071,31381
32610,21012,31397
31853,20981,31397
31180,20952,31391
30560,20971,31196
30120,20982,31268
29580,21027,31449
29424,21051,31288
29456,21063,31391
29252,21064,31266
29156,21037,31292
29200,21015,31447
29076,20995,31309
28722,20964,31320
28248,20967,31398
27996,20996,31409
28117,21017,31205
28800,21058,31271
30920,21064,31424
35041,21094,31466
38761,21058,31304
41136,21066,31399
42192,20989,31232
42652,21015,31322
42480,20976,31373
42024,21045,31410
41652,21052,31407
41608,21110,31292
41792,21091,31444
41864,21122,31399
41708,21069,31425
41324,21035,31246
40740,21009,31455
40052,20988,31365
39288,20999,31435
38504,21069,31297
37696,21067,31495
36928,21131,31412
36144,21103,31273
35408,21135,31365
34752,21080,31416
34200,21044,31392
33727,21023,31464
33333,20998,31301
32884,21021,31363
32352,21025,31485
31804,21074,31528
31404,21095,31384
31069,21101,31484
30980,21118,31505
30928,21084,31511
30916,21052,31321
30944,21034,31383
30912,21007,31468
30852,21034,31591
30704,21031,31525
30564,21061,31391
30436,21093,31558
30356,21140,31531
30336,21119,31436
30436,21089,31540
30500,21062,31545
30548,21024,31367
30548,21038,31437
30564,21023,31480
30528,21041,31588
30432,21087,31606
30296,21108,31670
30180,21109,31555
30240,21116,31623
30268,21087,31637
30293,21087,31637
30388,21045,31453
30433,21015,31536
30416,21036,31535
30336,21041,31687
30261,21091,31751
30144,21108,31596
30116,21139,31697
30160,21127,31716
30268,21125,31509
30334,21081,31596
30420,21037,31780
30433,21025,31637
30372,21057,31732
30301,21052,31545
30213,21081,31604
30165,21119,31716
30176,21150,31735
30208,21133,31584
30286,21080,31691
30304,21091,31771
30404,21044,31720
30444,21036,31708
30396,21029,31506
30292,21078,31581
30132,21093,31572
29980,21118,31702
29936,21146,31599
29948,21134,31662
30072,21132,31463
30136,21089,31664
30184,21047,31560
30156,21055,31633
30052,21047,31655
29920,21055,31424
29820,21106,31513
29644,21128,31674
29564,21154,31596
29616,21138,31615
29693,21118,31604
29764,21103,31460
29824,21062,31653
29789,21043,31572
29639,21061,31484
29432,21070,31572
29256,21089,31573
29209,21127,31632
29156,21151,31557
29084,21141,31381
29114,21124,31425
29176,21100,31596
29160,21060,31541
29068,21051,31564
28992,21046,31495
28852,21077,31461
28724,21097,31564
28512,21141,31439
28348,21146,31591
28457,21151,31537
28520,21124,31546
28556,21105,31406
28600,21067,31540
28604,21063,31606
28516,21060,31557
28384,21076,31464
28184,21112,31433
28000,21145,31503
27932,21149,31535
27980,21154,31342
28114,21124,31461
28240,21109,31557
28340,21066,31440
28372,21060,31517
28376,21055,31529
28365,21087,31533
28324,21108,31533
28340,21141,31525
28426,21167,31338
28544,21152,31410
28612,21129,31415
28844,21116,31535
29105,21073,31526
29292,21069,31544
29348,21060,31356
29408,21094,31426
29508,21115,31447
29568,21161,31604
29672,21161,31649
30018,21170,31494
30400,21150,31603
30764,21103,31613
31156,21079,31639
31440,21055,31452
31676,21077,31527
31860,21085,31678
32000,21119,31596
32064,21175,31697
32324,21175,31508
32696,21193,31576
33136,21144,31803
33441,21137,31630
33720,21082,31764
33924,21077,31644
34069,21068,31721
34140,21107,31860
34190,21155,31809
34212,21173,31623
34436,21212,31727
34620,21181,31925
34800,21144,31765
35005,21132,31879
35216,21126,31763
35376,21081,31940
35424,21105,31836
35400,21095,31941
35396,21141,31822
35372,21161,31981
35368,21180,31974
35463,21166,31824
35512,21178,31908
35728,21145,32014
35896,21091,31989
35828,21087,32087
35800,21113,31962
35708,21100,32116
35624,21159,32117
35496,21167,32165
35436,21200,32149
35448,21175,32237
35584,21167,32226
35668,21130,32044
35804,21100,32343
35870,21116,32273
35772,21085,32121
35624,21128,32359
35520,21135,32284
35452,21179,32433
35428,21185,32327
35457,21203,32506
35512,21164,32500
35600,21138,32461
35652,21155,32692
35644,21098,32557
35544,21130,32502
35452,21108,32740
35364,21153,32761
35156,21165,32617
35000,21218,32757
35024,21185,32961
35141,21188,32895
35304,21140,32992
35365,21140,33060
35337,21097,33100
35204,21095,32914
35128,21143,33068
34968,21163,33111
34788,21177,33358
34753,21216,33393
34780,21207,33409
34872,21168,33383
34951,21182,33436
35008,21121,33362
35040,21099,33480
34928,21130,33559
34792,21127,33592
34644,21183,33591
34456,21185,33645
34380,21207,33699
34464,21194,33532
34588,21180,33649
34578,21145,33817
34604,21126,33940
34552,21094,33807
34508,21130,33812
34480,21127,33933
34309,21181,33813
34188,21200,33901
34112,21249,34126
34165,21206,33971
34262,21177,34074
34328,21180,34145
34428,21117,34053
34486,21131,34146
34392,21126,34268
34236,21127,34157
34130,21161,34293
34040,21187,34105
33924,21216,34307
33972,21199,34479
34048,21190,34360
34092,21156,34270
34216,21135,34400
34188,21103,34575
34064,21118,34551
33944,21130,34613
33904,21172,34535
33772,21193,34729
33668,21227,34609
33641,21202,34764
33684,21195,34692
33772,21199,34926
33856,21124,34860
33968,21119,34823
33896,21159,35026
33729,21129,35003
33652,21164,34984
33572,21224,34960
33516,21213,34929
33496,21229,35143
33616,21189,35205
33628,21184,35008
33788,21127,35238
33876,21137,35414
33848,21118,35320
33756,21167,35412
33692,21166,35360
33548,21229,35573
33460,21225,35516
33477,21209,35552
33584,21198,35505
33700,21161,35739
33750,21134,35615
33756,21119,35726
33836,21153,35605
33709,21145,35834
33680,21188,35700
33492,21200,35860
33428,21237,35759
33538,21212,35965
33580,21217,36021
33584,21167,35844
33692,21161,36020
33788,21116,35894
33728,21132,36167
33648,21143,36033
33508,21190,36007
33433,21206,36116
33416,21264,36189
33476,21223,36125
33548,21228,36231
33628,21178,36298
33716,21173,36181
33692,21124,36327
33660,21143,36260
33576,21143,36388
33416,21177,36393
33156,21221,36340
33096,21223,36568
33181,21233,36494
33348,21201,36498
33488,21186,36348
33616,21140,36540
33636,21147,36694
33616,21127,36484
33496,21177,36585
33292,21186,36655
33108,21246,36701
33105,21239,36724
33184,21223,36743
33216,21234,36484
33301,21189,36703
33408,21181,36871
33489,21143,36708
33460,21163,36871
33436,21164,36888
33332,21180,36765
33193,21225,36908
33076,21229,37061
33100,21237,36857
33232,21199,37012
33384,21189,37093
33464,21180,37049
33484,21145,37062
33308,21164,36965
33185,21157,37215
33057,21215,37164
32992,21236,37127
32877,21231,37212
32888,21240,37149
32972,21181,37377
33160,21191,37229
33352,21147,37315
33420,21135,37412
33344,21149,37290
33272,21158,37109
33112,21191,37529
32974,21231,37437
32952,21241,37234
32920,21269,37448
33017,21221,37592
33168,21219,37479
33252,21159,37558
33284,21144,37511
33320,21173,37741
33252,21159,37639
33088,21196,37548
32908,21219,37749
32825,21255,37737
32876,21234,37689
33004,21225,37580
33120,21189,37784
33149,21156,37686
33220,21158,37868
33277,21153,37680
33072,21193,37759
32912,21204,37855
32800,21223,38023
32752,21255,37865
32772,21239,37991
32860,21225,38023
32844,21191,37871
32984,21175,37996
33189,21139,38210
33192,21156,38135
33148,21163,38042
33056,21215,38205
32816,21226,37927
32692,21271,38166
32696,21242,38317
32852,21229,38151
32924,21223,38300
33052,21165,38205
33120,21181,38269
33040,21162,38428
32936,21162,38519
32817,21216,38557
32702,21229,38372
32632,21269,38465
32744,21246,38492
32868,21236,38598
32872,21191,38452
32948,21181,38508
33032,21164,38484
33016,21197,38588
32933,21182,38317
32836,21239,38597
32700,21248,38773
32596,21244,38791
32653,21261,38805
32792,21225,38645
32832,21212,38791
32892,21166,38661
32909,21158,38900
32840,21193,38740
32840,21192,38885
32776,21233,38823
32612,21244,38898
32592,21253,39064
32673,21254,38855
32724,21231,38912
32784,21235,38903
32768,21183,38996
32760,21187,39087
32669,21159,39021
32484,21193,39232
32328,21215,39007
32180,21249,39167
32136,21281,39143
32133,21252,39220
32193,21243,39221
32312,21231,39196
32446,21186,39348
32464,21153,39404
32372,21178,39314
32264,21180,39272
32140,21218,39047
32064,21240,39300
31980,21276,39476
31933,21253,39255
31920,21249,39412
31910,21199,39322
32064,21185,39444
32157,21139,39431
32068,21175,39420
31958,21156,39477
31820,21217,39408
31608,21244,39523
31532,21276,39631
31772,21255,39385
31814,21257,39544
31896,21218,39220
32008,21196,39508
32132,21172,39637
32192,21191,39486
32221,21188,39559
32269,21208,39613
32320,21255,39555
32428,21264,39756
32604,21266,39623
32788,21283,39508
32840,21232,39780
33080,21216,39543
33072,21169,39488
33100,21201,39608
33220,21188,39805
33116,21238,39628
33102,21253,39717
33109,21290,39644
33185,21268,39768
33156,21259,39713
33184,21252,39629
33216,21204,39814
33289,21205,39732
33308,21171,39681
33346,21213,39868
33240,21221,39709
33276,21277,39424
33236,21285,39815
33295,21265,39693
33221,21255,39780
33184,21250,39696
33172,21194,39833
33288,21164,39825
33177,21183,39679
33132,21189,39791
33320,21240,39796
33210,21254,39831
32748,21283,39757
32893,21316,39815
32848,21263,39799
32940,21265,39888
32984,21197,39816
33264,21196,39769
33073,21178,39892
32832,21237,40020
32728,21229,39762
32790,21252,39926
32920,21289,39610
32928,21268,39977
32976,21262,40109
33026,21214,39972
32916,21207,40065
32889,21168,40012
32960,21202,40237
32800,21196,40175
32852,21214,40135
32880,21261,40166
32670,21271,40228
32580,21284,40088
32700,21287,40238
32839,21225,40133
33052,21200,40404
32905,21160,40239
32864,21175,39943
32396,21188,40375
31476,21220,40205
30441,21279,40048
29756,21283,40265
29346,21273,40135
28949,21243,40205
28948,21231,40189
29037,21184,40199
29008,21161,40004
28736,21174,40199
28576,21180,40178
28560,21228,40102
28085,21254,40048
27616,21260,39865
27578,21262,39932
27905,21239,39904
29006,21200,39676
31884,21178,39840
35880,21140,39800
39104,21173,39616
41080,21171,39653
41788,21255,39537
41800,21248,39610
41586,21333,39628
41040,21277,39325
40888,21257,39408
41144,21226,39368
41444,21177,39303
41632,21208,39212
41429,21164,39279
40916,21172,39255
40208,21250,39241
39488,21244,39082
38748,21249,39051
38064,21274,39002
37476,21240,38710
36825,21195,38936
36268,21178,39008
35676,21148,38903
34816,21177,38766
33972,21172,38785
33300,21225,38657
32844,21235,38788
32508,21247,38781
32188,21269,38756
31940,21237,38493
31532,21199,38503
31156,21171,38535
30852,21153,38490
30920,21150,38140
30822,21170,38361
30360,21189,38431
30204,21239,38359
30184,21236,38265
30096,21251,37975
30248,21217,37967
30468,21204,38169
30652,21159,38249
30452,21166,38244
30356,21147,37964
30152,21161,38020
30100,21204,38028
30016,21231,38023
29821,21239,37975
29988,21250,37857
30061,21216,37958
30080,21199,38016
30272,21165,37961
30408,21169,37904
30373,21153,37884
30249,21160,37652
30288,21209,37713
30260,21225,37719
30152,21255,37487
30132,21228,37625
30212,21224,37632
30344,21187,37500
30476,21177,37519
30500,21143,37543
30414,21141,37516
30316,21168,37419
30218,21190,37407
30100,21235,37533
30010,21260,37376
30032,21237,37417
30153,21225,37335
30256,21185,37404
30372,21160,37392
30428,21153,37298
30400,21142,37476
30244,21174,37371
30146,21184,37159
30028,21229,37415
29980,21255,37244
29997,21232,37157
30062,21221,37473
30160,21197,37279
30292,21153,37383
30317,21151,37383
30268,21161,37367
30104,21161,37509
29892,21196,37300
29784,21247,37421
29792,21242,37396
29768,21245,37558
29826,21236,37412
29845,21197,37183
29953,21173,37420
29964,21145,37504
29824,21157,37372
29780,21173,37366
29630,21212,37484
29444,21235,37482
29370,21263,37497
29412,21255,37477
29428,21243,37407
29464,21207,37402
29520,21166,37549
29580,21165,37446
29428,21149,37405
29288,21183,37359
29216,21225,37451
28880,21247,37132
28746,21261,37425
28708,21268,37405
28800,21244,37104
28880,21207,37210
28884,21177,37255
28856,21159,37260
28801,21175,37332
28620,21203,37183
28400,21220,37241
28252,21269,37255
28176,21270,36933
28188,21255,37117
28212,21242,37100
28265,21208,37201
28340,21193,37236
28385,21168,37199
28340,21164,37004
28220,21193,36996
28129,21215,37004
28008,21257,36676
28012,21273,36860
28081,21272,37012
28216,21255,36941
28304,21232,36777
28520,21189,36816
28710,21161,36773
28786,21182,36735
28908,21205,36680
28974,21223,36380
28968,21265,36487
29073,21273,36565
29308,21276,36645
29580,21246,36373
29865,21234,36408
30264,21191,36396
30516,21170,36324
30672,21189,36285
30832,21203,36272
31028,21245,36052
31186,21260,36231
31440,21289,36269
31799,21272,36234
32148,21262,35975
32504,21225,35948
32796,21193,36000
33024,21178,35695
33236,21195,35654
33404,21202,35617
33557,21255,35728
33720,21274,35704
33984,21310,35719
34225,21287,35664
34448,21260,35576
34712,21268,35527
34992,21205,35492
35188,21184,35463
35272,21213,35495
35280,21229,35440
35228,21235,35516
35284,21288,35417
35300,21285,35313
35468,21323,35263
35660,21284,35237
35804,21237,35201
35945,21221,35221
36000,21184,34919
35980,21209,34999
35944,21211,34895
35885,21242,34823
35760,21293,34806
35800,21295,34901
35880,21293,35061
35887,21271,34847
35973,21258,34812
36056,21210,34868
36089,21228,34823
36044,21204,34797
35916,21255,34725
35844,21263,34791
35764,21285,34732
35664,21331,34700
35692,21300,34545
35732,21271,34524
35908,21244,34464
35960,21244,34452
35936,21205,34356
35844,21197,34310
35702,21273,34238
35572,21259,34311
35552,21284,34329
35420,21324,34433
35372,21298,34325
35448,21277,34246
35556,21263,34191
35620,21224,34152
35548,21239,34164
35396,21213,34137
35276,21223,34114
35152,21275,33828
35024,21285,33917
34968,21335,33909
34968,21313,33857
35044,21281,33927
35057,21266,33964
35124,21214,33901
35177,21235,33671
35013,21220,33632
34888,21251,33713
34716,21254,33433
34520,21303,33605
34432,21303,33652
34469,21305,33437
34496,21328,33487
34644,21261,33287
34744,21215,33192
34736,21219,33221
34660,21207,33174
34560,21258,33189
34428,21276,33216
34236,21287,33180
34116,21330,33201
34132,21315,32964
34284,21278,33004
34353,21271,32999
34400,21223,32956
34440,21236,32697
34300,21217,32658
34132,21217,32726
34052,21280,32708
33956,21300,32825
33840,21304,32774
33852,21337,32749
33904,21284,32702
33952,21298,32512
34056,21228,32596
34164,21248,32432
34056,21213,32510
33960,21229,32497
33796,21276,32431
33692,21297,32425
33652,21326,32383
33737,21298,32240
33836,21310,32239
33952,21255,32378
34028,21244,32253
34016,21210,32244
33940,21204,32068
33860,21239,32116
33796,21255,32173
33708,21301,32217
33636,21304,32124
33680,21317,31990
33786,21279,32047
33880,21273,32025
34014,21220,31800
34016,21223,31853
33940,21205,31908
33876,21249,31985
33788,21257,31913
