ECG,EDA,RR
27797,17286,42111
27748,17265,41855
27868,17245,42215
27884,17244,42029
27990,17204,41669
28036,17218,42225
27988,17177,42132
27856,17185,42141
27796,17220,42132
27700,17245,42069
27630,17286,42010
27712,17271,41709
27872,17246,42283
28056,17238,42153
28140,17188,42150
28271,17199,42017
28276,17185,42137
28438,17189,42225
28552,17236,42020
28596,17255,41829
28716,17302,42284
28864,17271,42201
29120,17246,41859
29428,17255,42296
29736,17196,42220
29956,17205,42336
30156,17172,42236
30390,17216,42370
30500,17236,42228
30656,17245,42084
30845,17289,42388
31092,17265,42276
31519,17300,42290
31888,17250,42135
32268,17191,42133
32560,17199,42324
32817,17175,42313
32976,17232,42413
33088,17228,42247
33234,17248,42295
33385,17290,42471
33572,17279,42343
33944,17256,42180
34324,17247,42477
34648,17191,42384
34844,17186,42524
34884,17177,42381
35000,17209,42500
35204,17310,42420
35189,17265,42405
35204,17269,42276
35356,17317,42438
35520,17265,42407
35716,17302,42326
35853,17207,42213
36049,17175,42576
36141,17221,42453
36124,17207,42343
35926,17278,42442
35800,17263,42455
35748,17343,42527
35872,17307,42345
35992,17277,42086
36076,17232,42631
36232,17231,42381
36340,17196,42527
36320,17183,42465
36256,17243,42388
36140,17249,42559
36064,17255,42453
35944,17347,42665
35928,17295,42396
36004,17259,42566
36128,17324,42190
36212,17222,42653
36236,17188,42413
36192,17198,42561
36116,17222,42623
36004,17244,42607
35796,17257,42565
35660,17334,42172
35632,17292,42660
35689,17319,42593
35821,17265,42533
35908,17209,42460
35884,17215,42336
35820,17189,42648
35716,17242,42645
35608,17226,42692
35480,17287,42631
35308,17279,42715
35264,17307,42615
35364,17268,42273
35424,17334,42720
35520,17240,42591
35552,17197,42526
35476,17255,42572
35368,17216,42604
35264,17305,42727
35101,17284,42631
34900,17361,42356
34908,17287,42527
35000,17290,42552
35080,17238,42557
35180,17235,42564
35176,17244,42556
35142,17196,42591
34996,17238,42570
34828,17236,42260
34668,17317,42596
34536,17332,42513
34524,17299,42145
34644,17268,42597
34732,17313,42329
34788,17234,42422
34852,17200,42529
34796,17196,42316
34592,17253,42375
34424,17253,42404
34296,17268,42300
34213,17337,42342
34232,17311,42303
34272,17271,42404
34300,17245,42217
34382,17255,42168
34424,17217,42201
34392,17217,42093
34296,17219,42076
34132,17253,42118
33968,17279,42020
33924,17293,42132
33952,17347,42166
34006,17304,41975
34088,17260,41900
34197,17220,41468
34276,17196,42015
34262,17228,41692
34112,17239,41812
33964,17249,41765
33840,17274,41677
33725,17324,41805
33644,17303,41641
33760,17319,41580
33868,17272,41583
33992,17276,41095
34120,17223,41633
34092,17287,41428
34004,17235,41175
33844,17311,41495
33684,17286,41287
33580,17293,41127
33620,17316,41358
33720,17280,41180
33824,17276,41140
33924,17216,41069
33996,17242,41027
33944,17201,41068
33860,17260,40981
33696,17261,40869
33624,17295,40855
33532,17322,40859
33456,17300,40750
33480,17335,40868
33736,17273,40688
33872,17224,40599
33956,17220,40566
33904,17204,40255
33816,17264,40657
33692,17258,40444
33582,17334,40120
33480,17310,40484
33553,17301,40194
33576,17323,40300
33648,17268,40214
33796,17223,40064
33872,17225,40132
33840,17209,40132
33712,17237,39990
33556,17249,39607
33392,17321,40081
33287,17307,39891
33352,17300,39813
33425,17315,39891
33572,17261,39740
33716,17278,39639
33736,17219,39692
33672,17269,39548
33556,17239,39628
33432,17248,39444
33285,17319,39352
33248,17325,39488
33245,17301,39308
33408,17310,39341
33548,17261,39175
33588,17282,38997
33580,17229,39244
33580,17211,39071
33444,17280,38983
33380,17281,39086
33252,17292,38876
33172,17308,38588
33121,17316,38795
33232,17363,38557
33324,17277,38766
33424,17249,38725
33541,17208,38750
33525,17262,38573
33391,17247,38237
33268,17254,38679
33172,17289,38508
33048,17344,38205
33036,17311,38385
33124,17291,38416
33264,17311,38381
33416,17242,38221
33496,17214,38287
33484,17253,38391
33384,17252,38212
33284,17301,38239
33192,17309,38157
33136,17305,38076
33116,17336,38249
33176,17309,38021
33244,17262,38052
33356,17271,38053
33440,17226,37970
33400,17218,37969
33288,17252,38065
33140,17251,37887
32960,17322,37773
32860,17312,37980
32944,17348,37828
33108,17297,37759
33216,17270,37767
33284,17263,37757
33340,17223,37639
33292,17273,37580
33220,17252,37645
33128,17257,37719
32968,17335,37546
32877,17333,37244
32908,17310,37671
32968,17340,37493
33076,17281,37463
33196,17243,37522
33236,17276,37405
33238,17247,37143
33142,17243,37508
32992,17268,37374
32844,17311,37415
32752,17316,37333
32796,17333,37288
32920,17349,37302
33036,17300,37272
33134,17245,37144
33196,17258,37239
33190,17237,37319
33120,17295,37217
33000,17277,37304
32849,17354,37145
32812,17326,37241
32836,17348,36837
32848,17303,37055
32934,17293,37028
33076,17252,37026
33180,17249,36996
33174,17292,36999
33040,17270,36983
32928,17275,36906
32796,17321,36805
32737,17327,36978
32804,17352,36680
32880,17311,37087
32980,17322,36982
33144,17259,37031
33228,17283,36926
33148,17261,36776
33056,17335,36903
32972,17295,36932
32844,17309,36860
32737,17381,36881
32748,17348,36905
32924,17314,36893
32977,17310,36822
33101,17255,36799
33128,17273,36849
33076,17243,36860
32988,17309,36837
32884,17293,36761
32750,17317,36564
32644,17367,36928
32680,17343,36727
32772,17385,36838
32912,17309,36653
33048,17267,36916
33116,17287,36748
33060,17257,36495
32944,17316,36905
32772,17315,36776
32644,17327,36576
32624,17367,36890
32680,17344,36740
32782,17373,36772
32896,17323,36767
33000,17270,36800
33071,17281,36765
33068,17255,36703
32960,17316,36817
32832,17308,36766
32716,17402,36860
32654,17382,36726
32680,17355,36686
32696,17364,36700
32800,17312,36764
32928,17295,36818
33032,17268,36748
32988,17288,36796
32904,17282,36711
32810,17332,36687
32636,17412,36700
32516,17386,36588
32560,17428,36852
32704,17344,36444
32818,17371,36871
32936,17303,36724
32988,17353,36681
33012,17281,36717
32918,17319,36820
32768,17317,36768
32636,17374,36743
32572,17451,36743
32605,17388,36681
32693,17415,36680
32837,17359,36626
32916,17349,36860
32980,17287,36743
32988,17327,36807
32925,17303,36743
32780,17348,36781
32628,17415,36715
32572,17402,36674
32604,17426,36615
32653,17383,36704
32752,17349,36833
32848,17380,36651
32949,17309,36441
32933,17300,36828
32832,17330,36713
32724,17348,36724
32636,17399,36692
32558,17460,36628
32584,17414,36613
32632,17441,36700
32744,17370,36615
32884,17331,36613
32965,17344,36694
32892,17323,36645
32774,17379,36596
32604,17362,36359
32500,17423,36702
32464,17410,36332
32496,17462,36588
32570,17412,36708
32668,17380,36500
32784,17403,36614
32852,17345,36644
32792,17370,36325
32660,17361,36725
32608,17419,36605
32572,17433,36468
32528,17476,36530
32520,17430,36297
32576,17436,36710
32672,17388,36588
32784,17364,36685
32892,17389,36539
32864,17345,36512
32760,17393,36524
32616,17383,36552
32486,17434,36660
32448,17444,36519
32508,17460,36463
32615,17431,36545
32696,17416,36530
32820,17376,36436
32832,17366,36390
32736,17374,36428
32568,17460,36384
32380,17417,36191
32228,17442,36527
32168,17478,36465
32192,17511,36385
32276,17444,36308
32325,17434,36357
32437,17392,36556
32584,17390,36417
32604,17413,36401
32493,17392,36353
32264,17445,36375
32088,17508,36359
31968,17502,36275
32024,17534,36492
32161,17482,36367
32321,17487,36389
32364,17420,36209
32297,17418,36263
32217,17394,36300
32140,17426,36301
32064,17491,36426
31900,17479,36319
31744,17531,36268
31728,17501,36204
31852,17505,36076
31920,17506,36175
31980,17431,36236
32024,17434,36238
32028,17493,36231
32076,17452,36231
32110,17509,36172
32048,17502,36103
32072,17556,35933
32172,17517,36124
32332,17517,36150
32564,17488,36182
32820,17503,36127
32973,17446,36100
33024,17508,35876
32996,17462,36278
32878,17543,36156
32844,17518,36133
32757,17581,36164
32688,17562,36079
32788,17606,36108
33024,17505,35908
33156,17496,36052
33252,17452,35812
33214,17465,36188
33088,17522,36077
32928,17508,36158
32758,17572,36063
32604,17561,36140
32677,17585,36024
32932,17590,35988
33124,17527,35861
33252,17532,35985
33264,17479,35988
33212,17492,35936
33196,17543,35865
33072,17534,35980
32944,17577,35908
32821,17635,36020
32813,17597,35900
32997,17605,35966
33124,17545,35874
33184,17524,35878
33230,17545,35794
33280,17504,35776
33156,17529,35812
33052,17598,35831
32932,17583,35760
32728,17625,35876
32696,17610,35710
32884,17631,35661
33108,17567,35577
33172,17556,35612
33144,17519,35671
33064,17540,35669
33032,17541,35653
32952,17596,35526
32780,17603,35549
32692,17634,35567
32624,17631,35471
32692,17615,35524
32776,17637,35288
32937,17575,35636
33096,17583,35538
33056,17543,35439
32877,17574,35405
32696,17644,35388
32516,17641,35360
32548,17647,35469
32716,17697,35357
32844,17649,35532
32720,17613,35404
32324,17596,35404
31660,17570,35248
30948,17574,35121
30368,17583,35453
29940,17628,35325
29540,17689,35279
29493,17672,35231
29792,17705,35012
29928,17671,35236
30088,17628,35349
30490,17622,35143
30568,17584,35181
30284,17587,34980
29824,17622,35164
29472,17630,34996
29530,17698,35092
29736,17698,34980
30964,17685,35125
33952,17720,34934
37076,17663,34973
39200,17621,34708
40268,17671,34838
40608,17621,34956
40572,17628,34820
40316,17724,34817
40040,17725,34692
40032,17709,34838
40184,17767,34692
40197,17734,34661
40044,17681,34493
39648,17713,34613
39100,17644,34652
38472,17634,34471
37752,17698,34328
37109,17696,34495
36516,17720,34261
35901,17793,34308
35333,17742,34159
34828,17773,34359
34295,17716,34094
33825,17671,34165
33504,17718,34011
33145,17678,34196
32668,17687,33948
32156,17759,33820
31664,17757,34069
31327,17807,33866
31168,17772,33633
31172,17797,33952
31236,17722,33794
31244,17734,33661
31260,17691,33838
31188,17722,33612
31052,17693,33476
30940,17733,33647
30852,17758,33570
30676,17788,33551
30625,17781,33374
30664,17772,33456
30788,17742,33333
30800,17735,33356
30892,17695,33364
30915,17708,33325
30820,17780,33189
30680,17745,33166
30481,17804,33218
30340,17801,32973
30372,17812,33246
30612,17829,33151
30728,17773,32925
30736,17770,33177
30764,17715,33052
30760,17751,32881
30704,17733,33111
30624,17795,32853
30500,17814,32953
30381,17817,32828
30396,17850,32982
30516,17809,32827
30588,17829,32608
30724,17761,32841
30800,17799,32751
30744,17742,32616
30628,17749,32783
30496,17797,32652
30332,17813,32726
30216,17861,32601
30288,17841,32444
30368,17860,32630
30408,17814,32357
30464,17764,32457
30572,17784,32432
30553,17756,32335
30432,17794,32178
30348,17798,32376
30158,17846,32257
30052,17889,32279
30050,17860,32176
30092,17864,32121
30240,17815,32058
30368,17792,31901
30448,17815,32119
30356,17778,31968
30154,17821,31824
29972,17812,31885
29837,17862,31844
29724,17911,31896
29740,17874,31769
29788,17891,31524
29824,17845,31772
29918,17839,31645
29880,17801,31396
29732,17812,31687
29580,17800,31549
29517,17855,31524
29353,17864,31457
29192,17901,31314
29172,17926,31359
29268,17870,31301
29328,17859,31320
29292,17838,31300
29321,17796,31239
29380,17810,31092
29160,17858,31138
28956,17844,31103
28780,17911,31048
28688,17913,30906
28632,17934,31008
28632,17887,30759
28736,17876,30884
28812,17828,30697
28812,17819,30917
28784,17841,30605
28720,17838,30805
28614,17892,30742
28440,17903,30754
28344,17946,30679
28404,17917,30717
28508,17905,30396
28660,17903,30599
28772,17841,30312
28884,17830,30454
28976,17855,30295
28948,17837,30372
28866,17876,30237
28796,17929,30308
28740,17920,30300
28912,17940,30248
29140,17927,30260
29392,17877,30180
29616,17861,30188
29788,17857,30111
29944,17829,30084
30024,17858,29988
30140,17925,29877
30229,17908,29988
30304,17957,29943
30524,17927,29797
30934,17922,29858
31240,17879,29695
31568,17865,29717
31870,17861,29639
32044,17884,29689
32206,17853,29593
32332,17899,29652
32452,17926,29741
32670,17977,29625
32944,17932,29598
33208,17932,29418
33552,17937,29629
33856,17854,29520
34092,17847,29447
34288,17878,29273
34380,17854,29476
34444,17889,29215
34424,17908,29444
34480,17947,29326
34624,17999,29180
34872,17926,29367
35064,17886,29274
35248,17869,29172
35416,17870,29156
35484,17835,29040
35384,17868,29074
35332,17927,28992
35284,17909,28978
35308,17962,28913
35348,17924,28956
35496,17935,28821
35632,17959,28985
35768,17861,28847
35872,17893,28734
35880,17828,28808
35808,17858,28728
35700,17881,28820
35620,17960,28676
35532,17922,28676
35556,17927,28628
35656,17978,28640
35748,17876,28559
35844,17857,28639
35896,17893,28485
35852,17828,28716
35697,17886,28636
35580,17860,28613
35420,17890,28581
35280,17926,28551
35340,17959,28536
35416,17892,28588
35476,17877,28508
35548,17852,28521
35608,17853,28478
35556,17809,28441
35408,17847,28449
35292,17874,28481
35194,17940,28423
35077,17901,28447
35088,17910,28208
35124,17893,28285
35148,17899,28228
35229,17815,28312
35272,17798,28213
35236,17812,28319
35068,17833,28400
34920,17829,28321
34780,17874,28391
34690,17906,28180
34676,17925,28300
34748,17865,28261
34868,17840,28309
34972,17819,28300
35016,17831,28297
34952,17779,28221
34820,17827,28157
34712,17817,28223
34557,17869,28145
34456,17915,28266
34422,17869,28159
34504,17872,28274
34640,17885,28345
34676,17801,28144
34668,17789,28156
34616,17759,28092
34444,17784,28196
34316,17862,28104
34180,17836,28225
34098,17861,28293
34116,17895,28061
34169,17826,28180
34292,17813,28200
34388,17761,28198
34468,17756,28137
34464,17772,28182
34397,17748,28204
34286,17820,28136
34094,17800,28209
33908,17837,27972
33924,17862,28111
34040,17801,27938
34108,17781,28021
34060,17774,27973
34068,17715,28092
34060,17727,28132
33951,17733,27882
33781,17795,27929
33622,17783,27897
33504,17817,27985
33533,17825,27887
33616,17774,27998
33726,17763,27869
33820,17735,27972
33860,17741,27959
33816,17686,27954
33736,17709,28007
33620,17741,27921
33484,17757,27954
33348,17783,27908
33353,17815,27751
33468,17759,27891
33544,17766,27887
33688,17689,27814
33764,17680,27833
33704,17659,27700
33604,17691,27847
33472,17730,27801
33376,17724,27833
33228,17755,27837
33245,17737,27815
33440,17734,27761
33614,17744,27764
33633,17650,27727
33676,17658,27788
33626,17672,27700
33496,17649,27673
33324,17700,27606
33264,17697,27797
33220,17739,27759
33240,17711,27798
33301,17709,27734
33360,17697,27736
33509,17627,27732
33636,17623,27759
33604,17610,27731
33516,17630,27736
33380,17682,27701
33262,17671,27543
33156,17707,27580
33136,17684,27671
33224,17679,27724
33352,17629,27676
33481,17593,27684
33532,17606,27645
33504,17569,27612
33412,17606,27567
33284,17607,27464
33204,17647,27505
33117,17652,27479
33120,17663,27552
33215,17671,27489
33376,17612,27591
33472,17599,27444
33544,17551,27514
33504,17580,27559
33412,17547,27569
33276,17577,27558
33228,17633,27452
33192,17616,27423
33156,17634,27394
33248,17647,27532
33368,17569,27511
33484,17545,27464
33492,17495,27417
33453,17521,27311
33334,17546,27359
33196,17540,27469
33108,17583,27302
32986,17630,27389
33036,17581,27449
33168,17575,27295
33212,17580,27471
33270,17502,27426
33316,17487,27246
33276,17527,27446
33132,17491,27387
33012,17522,27231
32940,17592,27437
32896,17558,27385
32970,17572,27216
33074,17585,27302
33160,17519,27368
33285,17502,27216
33416,17449,27369
33292,17490,27344
33172,17460,27356
33012,17501,27404
32888,17546,27348
32832,17528,27292
32900,17538,27319
32862,17565,27172
33004,17495,27349
33142,17488,27287
33252,17415,27140
33237,17447,27288
33121,17427,27220
33000,17472,27300
32892,17481,27180
32860,17509,27231
32888,17575,27123
33048,17476,27343
33152,17468,27278
33280,17464,27154
33276,17388,27186
33216,17408,27118
33072,17427,27253
32960,17421,27102
32860,17466,27253
32813,17503,27177
32800,17464,27325
32940,17449,27268
33020,17430,27129
33053,17378,27244
33136,17373,27268
33120,17428,27105
33060,17390,27186
32942,17477,27149
32828,17447,27303
32760,17483,27248
32774,17432,27111
32821,17439,27143
32924,17384,27096
33033,17352,27213
33100,17360,27231
33080,17332,27186
32864,17355,27229
32665,17423,27073
32564,17414,27153
32488,17449,27036
32549,17412,27180
32684,17406,27023
32788,17359,27060
32896,17336,26983
32968,17358,27175
32948,17315,27131
32900,17355,27013
32736,17349,27127
32538,17420,27076
32493,17395,26908
32500,17439,27084
32540,17377,27039
32596,17403,26920
32736,17313,26972
32828,17321,26815
32796,17284,26883
32716,17334,26837
32641,17316,26772
32488,17362,26877
32436,17366,26873
32468,17375,26885
32536,17364,26759
32596,17388,26868
32680,17291,26804
32752,17283,26825
32780,17254,26753
32730,17281,26582
32630,17290,26756
32556,17350,26698
32500,17356,26627
32488,17394,26506
32508,17330,26671
32637,17330,26607
32748,17254,26480
32792,17244,26559
32784,17284,26377
32740,17249,26493
32660,17292,26349
32596,17359,26455
32516,17322,26295
32481,17328,26389
32492,17358,26287
32620,17280,26263
32740,17278,26304
32812,17217,26188
32836,17207,26328
32676,17247,26352
32520,17284,26289
32416,17281,26119
32374,17312,26144
32393,17351,26056
32473,17283,26167
32647,17300,26012
32812,17211,26062
32848,17219,26121
32784,17184,26072
32624,17253,26104
32516,17236,26061
32412,17309,25863
32408,17293,25948
32445,17342,25981
32564,17276,25816
32721,17229,25895
32864,17205,25924
32932,17171,25764
32884,17172,25863
32678,17191,25733
32594,17251,25668
32473,17245,25680
32436,17287,25624
32528,17255,25728
32624,17246,25569
32720,17216,25739
32832,17199,25673
32906,17209,25496
32888,17144,25530
32752,17193,25448
32632,17229,25502
32492,17227,25449
32396,17267,25572
32412,17293,25504
32581,17245,25325
32720,17246,25385
32848,17180,25433
32952,17187,25261
32968,17135,25287
32834,17170,25225
32712,17181,25391
32621,17237,25326
32560,17226,25231
32544,17255,25176
32608,17216,25266
32692,17220,25241
32806,17143,25218
32864,17146,25024
32904,17116,25061
32848,17151,24971
32668,17208,25103
32557,17200,24947
32432,17253,24996
32428,17212,24952
32544,17268,24860
32736,17188,25009
32825,17131,24986
32873,17127,24971
32808,17095,24940
32735,17151,24763
32628,17213,24879
32540,17204,24876
32516,17256,24740
32561,17208,24721
32676,17225,24669
32804,17157,24673
32925,17149,24607
33025,17096,24633
32956,17105,24560
32844,17185,24632
32746,17140,24572
32662,17189,24673
32584,17188,24617
32544,17201,24420
32644,17215,24569
32768,17142,24379
32864,17121,24512
32956,17091,24355
32976,17095,24524
32853,17100,24473
32720,17153,24350
32572,17161,24318
32456,17230,24381
32524,17180,24403
32640,17214,24220
32752,17137,24325
32888,17152,24322
32940,17098,24175
32881,17150,24255
32825,17100,24269
32761,17159,24110
32656,17153,24220
32584,17184,24143
32556,17175,24117
32570,17177,24096
32649,17173,24188
32764,17093,24055
32844,17126,24132
32760,17095,24110
32588,17091,24023
32436,17167,24100
32328,17159,24010
32214,17180,23960
32224,17228,23960
32264,17169,23968
32361,17180,24062
32468,17101,23903
32576,17059,24021
32588,17079,23943
32516,17080,24037
32328,17137,23869
32220,17153,23944
32150,17225,24022
32180,17178,23862
32280,17139,24025
32404,17150,24005
32536,17082,23877
32480,17095,24032
32316,17063,24007
32152,17111,23860
31949,17119,24002
31772,17213,23916
31680,17163,24018
31700,17156,23878
31728,17171,23917
31865,17109,23870
31960,17137,24032
32044,17066,23977
32088,17057,23920
32088,17079,24068
32006,17097,24036
31932,17148,23905
31920,17223,23973
31988,17170,24096
32270,17129,23932
32544,17140,24053
32772,17077,24121
32940,17100,23949
33040,17062,24047
33068,17119,24152
33029,17094,24069
32980,17155,24135
32940,17143,24021
32988,17168,24095
33188,17127,24085
33352,17131,24129
33489,17077,24145
33576,17100,24254
33576,17060,24173
33520,17058,24287
33678,17125,24239
33912,17143,24303
33956,17145,24175
33992,17175,24233
33984,17125,24265
33820,17137,24245
33496,17070,24385
33061,17086,24389
32888,17055,24274
32844,17061,24250
32921,17135,24474
32976,17141,24367
33012,17207,24375
33064,17159,24532
33021,17171,24422
33092,17104,24470
33232,17109,24552
33344,17058,24421
33321,17105,24640
33034,17076,24608
32692,17081,24516
32652,17154,24685
32621,17143,24704
32552,17174,24605
32593,17124,24669
32804,17114,24664
32864,17145,24868
32925,17055,24772
32944,17039,24911
33200,17072,24820
33485,17085,24892
33216,17130,24880
32844,17191,25068
32624,17143,25094
32560,17155,24961
32617,17093,25113
32616,17103,25095
32712,17052,25216
32852,17090,25197
32860,17063,25223
33052,17117,25410
33348,17113,25444
33848,17144,25425
34608,17152,25412
34836,17175,25617
34492,17110,25600
33917,17115,25558
32924,17061,25768
31632,17039,25670
30466,17093,25829
29816,17094,25731
29356,17164,25977
29248,17148,25963
29580,17172,26038
30228,17135,26010
30668,17071,26028
31036,17073,26197
30656,17036,26085
29772,17051,26334
28660,17055,26241
27742,17089,26404
27372,17111,26329
27521,17132,26505
28356,17144,26501
30792,17104,26518
34812,17102,26679
38180,17050,26584
39868,17062,26844
40636,17090,26855
40832,17051,26788
40773,17107,26916
40516,17110,27041
40424,17147,26953
40828,17231,27218
40968,17140,27229
40996,17155,27128
40852,17056,27237
40416,17105,27277
39648,17050,27493
38904,17095,27536
38176,17079,27461
37288,17160,27724
36504,17134,27735
35884,17151,27675
35356,17117,27868
34780,17118,27966
34196,17120,27885
33692,17065,28137
33196,17097,28130
32740,17061,28055
32304,17135,28191
31813,17135,28423
31348,17136,28422
31132,17149,28516
31432,17185,28514
31620,17119,28540
31556,17135,28720
31424,17045,28776
31260,17062,28660
31256,17100,28905
30852,17104,28994
30393,17185,28923
30144,17154,29017
30108,17197,28985
30100,17147,29316
30164,17161,29294
30460,17083,29222
30756,17092,29380
30788,17058,29477
30708,17082,29500
30740,17093,29501
30716,17166,29657
30450,17140,29580
30268,17167,29665
30284,17125,29820
30564,17143,29671
30588,17091,29947
30472,17051,29988
30400,17086,30015
30136,17071,29917
29988,17129,30128
29848,17137,30162
29768,17191,30233
29756,17162,30159
29836,17175,30426
30076,17114,30292
30257,17070,30433
30424,17084,30321
30496,17061,30431
30424,17076,30548
30273,17116,30617
30104,17175,30538
29988,17158,30789
29890,17153,30745
30056,17178,30769
30168,17122,30855
30324,17086,30670
30312,17063,30815
30200,17089,31033
30024,17100,30964
29884,17107,30948
29868,17193,31093
29865,17180,31022
29872,17162,31248
29928,17164,31084
29944,17132,31225
30044,17085,31296
30112,17096,31111
30156,17077,31246
30104,17085,31428
29952,17145,31471
29664,17163,31367
29445,17172,31448
29400,17167,31482
29392,17167,31446
29528,17124,31599
29600,17124,31516
29696,17089,31582
29736,17076,31607
29596,17134,31511
29348,17133,31573
29196,17151,31748
29064,17206,31688
28992,17189,31547
28908,17163,31676
28924,17163,31489
28953,17111,31698
28948,17126,31664
28820,17098,31681
28724,17108,31491
28629,17163,31626
28440,17176,31744
28370,17228,31649
28416,17212,31457
28540,17174,31781
28718,17183,31567
28820,17126,31668
28820,17092,31514
28696,17114,31765
28440,17123,31645
28228,17180,31681
27982,17183,31566
27705,17221,31699
27468,17205,31620
27505,17227,31680
27532,17167,31604
27720,17126,31756
27948,17127,31557
28080,17116,31685
28261,17125,31492
28304,17180,31560
28404,17199,31772
28524,17207,31589
28705,17221,31678
28868,17189,31648
28976,17196,31570
29100,17137,31465
29264,17159,31604
29329,17130,31784
29248,17129,31657
29144,17191,31589
29192,17206,31788
29372,17255,31663
29630,17222,31478
29992,17244,31677
30388,17183,31580
30753,17175,31505
31181,17127,31772
31492,17138,31693
31716,17151,31581
31876,17196,31628
32000,17211,31648
32189,17271,31551
32404,17236,31774
32816,17260,31684
33249,17197,31676
33624,17200,31613
33944,17145,31482
34076,17169,31572
34156,17165,31674
34180,17231,31680
34272,17223,31562
34444,17268,31453
34624,17316,31577
34901,17244,31420
35280,17259,31726
35872,17199,31636
36264,17219,31532
36105,17168,31623
35828,17170,31623
35616,17223,31560
35448,17238,31548
35360,17271,31447
35428,17307,31566
35760,17252,31375
36012,17284,31606
36030,17199,31559
36028,17219,31476
35864,17196,31604
35608,17186,31539
35404,17226,31436
35321,17245,31583
35288,17308,31484
35393,17281,31495
35588,17339,31474
35796,17261,31525
36048,17207,31443
36156,17180,31416
36180,17240,31303
36092,17223,31345
35892,17235,31458
35605,17258,31215
35519,17323,31300
35620,17301,31053
35712,17327,31212
35748,17255,31287
35805,17211,31046
35754,17238,30921
35612,17215,31101
35328,17204,30928
35188,17261,31012
35120,17286,30863
35056,17286,31020
35024,17352,30776
35104,17311,30829
35232,17269,30675
35380,17230,30656
35500,17248,30675
35476,17218,30681
35332,17233,30416
35132,17270,30522
34956,17285,30524
34840,17353,30508
34896,17321,30351
35057,17290,30471
35132,17323,30340
35212,17252,30380
35264,17212,30223
35200,17255,30276
35084,17241,30273
34957,17303,30153
34808,17318,30228
34596,17382,30166
34532,17343,29955
34608,17305,30056
34684,17322,29986
34749,17244,29927
34864,17252,29900
34877,17226,29793
34700,17263,30024
34584,17273,29929
34576,17331,29820
34504,17321,29769
34388,17341,29645
34449,17315,29874
34528,17311,29713
34468,17262,29613
34424,17239,29660
34492,17253,29691
34417,17254,29681
34212,17335,29464
34080,17325,29694
34076,17412,29486
34208,17359,29412
34660,17326,29587
34692,17317,29428
34520,17265,29297
34636,17268,29508
34624,17253,29409
34264,17301,29268
33820,17306,29447
33652,17383,29332
33686,17360,29249
33938,17397,29165
34100,17341,29034
34212,17342,29276
34312,17279,29171
34444,17293,29004
34384,17267,29175
34232,17337,29070
34116,17324,28868
33880,17343,29044
33716,17389,28965
33596,17368,28775
33552,17345,28796
33744,17353,28935
33832,17286,28855
33848,17316,28741
33813,17298,28782
33729,17290,28748
33663,17335,28556
33556,17349,28772
33551,17397,28647
33668,17361,28513
33901,17393,28648
34016,17327,28453
34060,17338,28498
34060,17280,28431
33932,17332,28525
33708,17300,28421
33493,17372,28447
33316,17369,28466
33248,17400,28503
33309,17375,28413
33388,17366,28411
33436,17370,28198
33604,17305,28428
33768,17301,28188
33820,17334,28333
33856,17301,28311
34017,17350,28153
34108,17359,28356
34204,17400,28274
34336,17385,28108
34380,17381,28250
34196,17415,28237
34184,17323,28129
34092,17334,28116
33720,17293,28074
33472,17334,28177
33204,17391,28186
32852,17377,28034
32812,17413,28212
33124,17391,28188
33541,17390,28087
33897,17349,28120
34048,17335,28191
34028,17381,28077
33872,17311,28081
33368,17349,28039
32940,17349,28164
32805,17391,28118
32912,17399,28200
32844,17422,28189
32864,17381,28220
32928,17394,28082
33052,17332,28270
32984,17341,28257
32984,17308,28156
33088,17330,28277
33096,17423,28327
33152,17400,28193
32972,17481,28419
32901,17415,28316
32978,17383,28389
33124,17383,28277
33208,17343,28457
33272,17357,28429
33240,17319,28288
33208,17330,28388
33082,17366,28433
33040,17388,28551
33004,17422,28433
33065,17407,28672
33124,17454,28508
33256,17393,28642
33384,17393,28532
33452,17320,28619
33422,17375,28721
33328,17360,28570
33148,17425,28845
32988,17402,28797
32936,17437,28745
33157,17415,28754
33381,17414,28714
33448,17380,28895
33544,17360,28938
33660,17364,29052
33544,17324,28981
33448,17364,29074
33316,17403,29052
33097,17405,29140
32932,17444,28948
32908,17423,29221
33040,17420,29165
33356,17457,29070
33456,17359,29216
33540,17332,29260
33820,17359,29159
33640,17348,29233
33252,17385,29148
32872,17456,29310
32657,17444,29404
32684,17470,29303
32637,17421,29351
32812,17445,29287
33092,17369,29597
33244,17335,29537
33237,17354,29455
33048,17401,29492
32826,17388,29468
32600,17463,29642
32566,17448,29596
32580,17479,29539
32784,17415,29837
32956,17407,29774
33028,17381,29884
33012,17415,29632
33060,17366,29902
33012,17412,29895
32856,17415,29732
32784,17424,29959
32808,17467,29949
32904,17439,30048
33060,17462,30013
33084,17407,30118
33212,17413,30153
33325,17359,30068
33316,17383,30196
33312,17371,30262
33369,17431,30116
33372,17434,30416
33300,17486,30375
33232,17446,30340
33390,17446,30406
33264,17411,30372
33152,17401,30615
33100,17358,30536
32984,17394,30590
32812,17381,30517
32748,17455,30693
32628,17460,30727
32564,17502,30781
32820,17467,30745
33232,17484,30627
33380,17439,30890
33444,17388,30810
33376,17381,30945
32996,17369,31029
32628,17415,30928
32208,17431,31101
32140,17442,30923
32100,17482,31223
32358,17468,31201
32630,17460,31175
32880,17421,31338
33212,17415,31141
33453,17429,31516
33612,17379,31476
33196,17443,31424
32717,17444,31602
32256,17492,31396
32102,17469,31685
32136,17480,31503
32260,17503,31876
32424,17428,31713
32580,17419,31917
32752,17380,31940
32756,17404,32093
32652,17403,32038
32596,17439,32012
32566,17524,32145
32516,17495,32228
32588,17535,32373
32725,17479,32329
32832,17455,32497
32976,17409,32448
33129,17397,32534
33056,17458,32551
32969,17415,32514
32780,17467,32532
32576,17463,32481
32600,17508,32876
32708,17482,32791
32860,17484,32654
32981,17444,33008
33112,17439,32884
33181,17399,33031
33108,17430,33000
33052,17421,33265
32864,17521,33109
32537,17486,33260
32464,17500,33206
32672,17527,33396
32824,17476,33388
32940,17500,33254
33140,17425,33600
33156,17470,33446
33064,17419,33636
32888,17423,33582
32760,17477,33669
32652,17478,33527
32484,17516,33948
32466,17503,33842
32584,17508,33683
32684,17460,34095
32800,17445,34005
32750,17411,34100
32908,17455,34060
33016,17433,34061
32852,17468,34105
32824,17524,34277
32820,17508,34087
32792,17527,34468
32788,17494,34334
32792,17496,34517
32924,17442,34540
33050,17439,34655
32928,17421,34655
32638,17480,34649
32357,17479,34820
32160,17492,34823
32088,17533,34788
32236,17517,35048
32400,17522,35013
32593,17527,35064
32852,17464,34977
33020,17479,34898
32984,17439,35305
32836,17508,35244
32720,17487,35353
32608,17530,35431
32620,17520,35476
32612,17573,35288
32753,17514,35704
32816,17527,35639
32828,17461,35653
32668,17469,35905
32592,17436,35824
32472,17497,35632
32480,17477,36124
32444,17531,36048
32432,17601,36120
32520,17553,36239
32684,17515,36252
32705,17516,36245
32733,17464,36453
32924,17471,36453
33108,17445,36452
33112,17491,36461
32900,17488,36663
32644,17543,36679
32596,17540,36745
32594,17548,36868
32552,17521,36943
32762,17522,36837
33004,17521,37039
33200,17478,37105
33132,17471,37191
32932,17486,37231
32684,17542,37356
32564,17551,37239
32444,17592,37167
32512,17553,37600
32480,17577,37437
32556,17518,37639
32829,17504,37793
32896,17463,37733
32864,17513,37816
32613,17492,37800
32284,17529,37940
32072,17552,38140
31956,17557,38055
32108,17579,38079
32288,17542,38113
32428,17559,38270
32545,17502,38133
32576,17473,38521
32548,17512,38399
32388,17492,38445
32244,17569,38444
32028,17565,38613
31992,17564,38797
32096,17583,38740
32196,17553,38831
32364,17566,38796
32288,17501,38799
32276,17526,39084
32128,17500,39021
31844,17543,39145
31624,17541,39052
31517,17555,38807
31484,17607,39266
31588,17572,39220
31636,17605,38972
31764,17558,39519
31944,17505,39377
32036,17515,39117
31972,17492,39672
31956,17540,39532
31840,17549,39271
32012,17563,39805
32092,17620,39607
32256,17596,39416
32401,17572,39852
32556,17559,39529
32772,17512,40068
32980,17517,39968
33036,17541,39919
33064,17529,39708
32964,17573,40279
32804,17574,40196
32704,17631,40393
32741,17596,40281
32865,17626,40142
33088,17565,40529
33320,17519,40436
33233,17528,40281
33180,17504,40556
33040,17547,40628
32841,17548,40829
32663,17599,40736
32704,17638,40940
32752,17605,40778
32908,17614,40844
32952,17556,40827
32860,17569,40983
33064,17509,41223
33168,17527,41119
33040,17521,41169
32940,17564,41220
32815,17619,41296
32812,17605,41221
32893,17636,41361
32896,17579,41572
33088,17586,41513
33240,17528,41592
33276,17538,41582
33176,17513,41614
33060,17554,41606
32850,17553,41709
32672,17605,41812
32612,17607,41910
32716,17639,41888
32688,17596,41908
32908,17613,41701
33096,17538,42044
33108,17567,42174
32920,17525,42398
32768,17583,42316
32873,17572,42293
32784,17583,42420
32580,17650,42528
32484,17626,42567
32628,17637,42500
32878,17576,42733
32912,17533,42681
32984,17550,42901
32996,17519,42909
32784,17551,42990
32612,17551,42919
32484,17606,42880
32452,17603,43041
32492,17628,42833
32376,17642,43126
32161,17581,43172
31572,17601,43348
31144,17530,43497
30508,17511,43439
29756,17548,43561
29213,17553,43303
28780,17609,43685
28828,17611,43804
28936,17598,43799
29008,17596,43877
29108,17558,43655
29140,17517,44000
28748,17528,44100
28352,17504,44052
28065,17533,44180
28016,17541,44076
28644,17602,44148
30864,17608,44071
34452,17676,44268
37720,17599,44324
39932,17613,44516
41056,17525,44524
41391,17537,44661
41284,17502,44669
40636,17532,44713
40024,17543,44791
39828,17604,44884
40096,17590,44870
40356,17618,44944
40460,17581,44724
40440,17600,45051
39996,17538,45167
39456,17564,45156
38828,17528,45268
38152,17586,45272
37312,17555,45385
36488,17629,45389
35720,17604,45496
35104,17659,45444
34648,17601,45572
34172,17566,45622
33793,17524,45670
33228,17545,45685
32789,17519,45732
32276,17522,45908
31976,17551,45908
31584,17572,45948
31292,17626,46089
31105,17608,46000
31100,17580,46196
30908,17575,46277
30828,17523,46270
30836,17542,46356
30824,17501,46321
30702,17537,46400
30748,17540,46189
30708,17612,46630
30540,17599,46693
30484,17616,46734
30456,17575,46818
30600,17589,46614
30569,17534,46884
30584,17545,47005
30549,17509,47005
30496,17517,47017
30464,17575,47100
30428,17583,47230
30297,17635,47239
30478,17600,47323
30494,17569,47412
30612,17560,47457
30676,17513,47558
30609,17512,47492
30516,17501,47584
30272,17510,47673
29988,17548,47757
30076,17567,47775
30228,17630,47479
30309,17595,47925
30329,17564,47919
30276,17577,47841
30312,17519,48018
30326,17490,48129
30456,17535,47999
30300,17521,48151
30152,17574,48221
29929,17578,48204
29840,17575,48247
29908,17612,48391
30016,17567,48400
30172,17572,48420
30464,17509,48164
30480,17517,48566
30464,17500,48568
30364,17538,48511
30140,17540,48727
30109,17557,48748
30024,17584,48705
29998,17621,48817
30132,17564,48852
29928,17575,48846
29848,17504,48879
29725,17503,49016
29816,17518,49038
29684,17506,49056
29576,17543,48866
29598,17557,49159
29458,17590,49080
29524,17575,49287
29548,17578,49264
29721,17586,49427
29586,17516,49268
29600,17525,49599
29573,17492,49629
29476,17534,49684
29460,17527,49287
29294,17566,49726
28870,17616,49765
28836,17591,49821
28952,17592,49798
29084,17549,50054
29216,17506,50093
29096,17520,50092
28912,17495,50244
28872,17504,50288
28724,17556,50151
28532,17569,50404
28312,17572,50464
28121,17596,50420
27920,17567,50478
27904,17549,50536
27928,17543,50695
27929,17497,50682
28032,17481,50772
27965,17517,50736
27709,17526,50885
27677,17572,50976
27720,17573,51045
27654,17581,51111
27784,17588,51158
27820,17550,51255
27920,17543,50823
28061,17496,51367
28176,17521,51372
28140,17511,51431
28194,17521,51492
28208,17572,51591
28152,17577,51631
28408,17625,51622
28796,17575,51636
29200,17537,51845
29332,17521,51809
29576,17519,51935
29925,17486,51919
30053,17511,52036
29972,17566,51684
30036,17567,52188
30204,17605,52231
30536,17576,52287
30976,17577,52335
31422,17581,52372
31932,17509,52459
32180,17511,52493
32280,17524,52511
32360,17503,52620
32484,17541,52662
32729,17604,52690
33046,17572,52773
33320,17593,52833
33232,17612,52812
33596,17540,52838
34096,17540,52711
34584,17490,52908
34905,17504,52704
35100,17572,53023
34992,17554,52629
34917,17631,53191
35101,17601,53255
35300,17582,53160
35332,17579,53233
35461,17543,52927
35508,17532,53421
35492,17492,53471
35444,17519,53496
35617,17549,53495
35812,17533,53569
35797,17588,53508
35756,17588,53639
35864,17618,53596
35988,17573,53196
36265,17591,53736
36393,17527,53684
36533,17556,53804
36460,17506,53820
36352,17557,53796
36222,17540,53837
36148,17618,53767
36044,17585,53819
36048,17629,53543
36160,17581,53956
36357,17583,53935
36478,17520,53996
36392,17526,53919
36297,17506,53989
36208,17583,53956
35812,17556,54052
35680,17572,54037
35720,17645,53767
35781,17615,54137
35752,17642,54136
35836,17561,54165
35896,17543,54148
35848,17590,54174
35808,17530,54206
35908,17605,54116
35692,17559,54220
35429,17576,54254
35420,17625,53800
35420,17612,54276
35540,17637,54279
35718,17581,54198
35794,17621,54308
35780,17525,54300
35784,17509,54136
35598,17577,54303
35409,17575,54268
35228,17587,54221
35000,17623,54336
35008,17601,54279
35120,17629,54277
35168,17591,54279
35328,17541,54278
35448,17543,53984
35333,17508,54328
35256,17571,54350
35004,17555,54308
34804,17626,54244
34608,17629,54345
34668,17604,54228
34740,17633,54342
35020,17585,54350
35052,17604,54218
34916,17543,54300
34712,17564,54088
34624,17557,54324
34492,17609,54324
34352,17594,54336
34280,17648,54327
34240,17630,54221
34384,17668,54340
34424,17573,54316
34564,17562,54300
34604,17527,54240
34780,17533,54222
34708,17601,54308
34476,17574,54268
34460,17635,54213
34180,17614,54205
34095,17631,54150
34140,17603,54208
34208,17589,53756
34424,17603,54279
34436,17541,54256
34432,17581,54236
34336,17560,54221
34021,17616,54156
33836,17607,54183
33890,17656,54084
33908,17620,54173
34076,17621,54167
34100,17638,54151
34284,17570,53767
34404,17576,54151
34408,17531,54151
34220,17573,54196
34084,17569,54212
33752,17614,54120
33592,17623,53639
33580,17663,54200
33808,17618,54084
34152,17583,54161
34272,17588,54109
34180,17544,54087
34137,17574,54012
34032,17551,54005
33944,17604,53977
33780,17607,54023
33823,17679,53679
33828,17636,54052
33856,17669,54028
33940,17609,53965
33857,17556,53911
33940,17561,53932
33964,17541,53964
33932,17573,53884
33844,17580,53932
33536,17628,53895
33388,17625,53821
33544,17645,53839
33780,17656,53764
33936,17591,53721
34040,17572,53639
33996,17629,53725
33820,17549,53728
33732,17623,53728
33588,17603,53700
33356,17663,53412
33440,17643,53679
33388,17703,53557
33576,17631,53583
33576,17677,53637
33572,17581,53628
33628,17597,53473
33760,17547,53516
33748,17573,53496
33657,17638,53477
33637,17618,53361
33510,17658,53485
33468,17647,53460
33444,17671,53343
33516,17621,53392
33656,17628,53309
33656,17576,53276
33544,17599,53328
33456,17572,53244
33236,17629,53183
33052,17639,53127
33124,17683,53108
33205,17647,53140
33350,17670,53052
33516,17605,53009
33652,17595,52743
33692,17599,52999
33560,17572,52870
33512,17622,52480
33396,17597,52844
33272,17666,52783
33085,17650,52657
33160,17673,52596
33412,17630,52636
33648,17637,52327
33604,17583,52517
33556,17559,52399
33488,17590,52417
33260,17579,51877
33056,17665,52173
33028,17641,52200
32981,17647,52183
32936,17725,52072
33076,17649,52032
33284,17612,52000
33408,17623,51408
33447,17573,51757
33540,17564,51793
33314,17624,51664
33196,17614,51653
33224,17634,51303
33076,17681,51460
33172,17657,51412
33260,17684,51312
33348,17625,51250
33504,17587,51076
33528,17583,51116
33493,17557,50935
33365,17624,50861
32960,17618,50813
32636,17637,50796
32664,17693,50615
32841,17657,50631
32917,17678,50452
33025,17628,50473
33084,17642,50247
33188,17588,50333
33288,17561,50150
33236,17607,50132
33228,17611,49927
33064,17663,50007
32868,17666,49849
32852,17704,49865
33020,17647,49716
33232,17681,49743
33120,17599,49663
33056,17621,49377
33048,17587,49543
33096,17597,49469
32944,17631,49353
32724,17641,49319
32677,17701,49190
32720,17670,49212
32880,17700,49145
32968,17634,49092
33086,17594,48984
33176,17594,48996
33224,17572,48817
33016,17640,48865
32824,17624,48341
32752,17641,48700
32740,17695,48585
32776,17666,48455
32856,17663,48472
32924,17623,48469
32956,17608,48263
33092,17573,48284
33113,17591,48261
32952,17596,47940
32864,17663,48032
32764,17665,48044
32708,17669,47909
32676,17683,47772
32868,17699,47751
32928,17640,47320
32917,17652,47639
32980,17589,47503
33004,17576,47536
33132,17607,47176
33056,17615,47269
32744,17677,47293
32528,17674,47200
32672,17668,47040
32804,17669,47084
32952,17625,46588
33004,17628,46820
32932,17599,46798
32804,17572,46765
32812,17623,46681
32701,17609,46548
32568,17671,46532
32576,17671,46487
32588,17684,46328
32540,17701,46380
32644,17628,46085
32756,17639,46212
32920,17593,46045
32880,17623,46101
32820,17597,45896
32665,17665,45900
32622,17654,45911
32688,17706,45759
32648,17665,45729
32660,17692,45357
32668,17633,45637
32708,17642,45508
32816,17590,45561
32760,17623,45485
32709,17596,45420
32541,17659,45107
32488,17653,45340
32520,17706,45266
32624,17668,45063
32512,17690,45156
32448,17630,45156
32500,17639,44933
32552,17594,45045
32644,17572,44879
32700,17609,44932
32648,17660,44897
32564,17647,44901
32484,17711,44733
32554,17672,44671
32592,17687,44461
32594,17623,44660
32644,17608,44359
32692,17575,44619
32636,17604,44560
32384,17600,44236
32269,17614,44487
32160,17698,44326
32125,17677,44199
32136,17704,44327
32176,17668,44391
32224,17624,44064
32372,17639,44266
32429,17585,44121
32408,17572,44220
32312,17638,43837
32221,17620,44132
32072,17645,44076
32032,17698,43901
31996,17685,43972
32048,17703,43932
32220,17637,43943
32252,17596,43845
32192,17636,43525
32192,17584,43832
32132,17662,43796
32048,17644,43381
32024,17657,43737
31828,17714,43679
31692,17671,43596
31648,17686,43485
31756,17630,43271
31905,17636,43549
31952,17591,43484
32092,17617,43317
32168,17587,43326
32044,17643,43031
32000,17649,43424
31908,17711,43348
31761,17683,43156
31965,17652,43167
32348,17641,42892
32692,17642,43265
32820,17593,43072
32840,17572,42813
32836,17631,43189
32884,17623,42980
32726,17693,43132
32688,17676,42823
32836,17670,43128
33007,17677,42961
33152,17628,42672
33284,17636,43029
33333,17582,42821
33312,17609,42916
33164,17595,42919
32924,17657,42720
32668,17660,42844
32584,17700,42904
32628,17669,42820
32812,17682,42736
32944,17634,42655
33093,17639,42694
33200,17581,42673
33132,17622,42503
32964,17609,42542
32904,17671,42637
32864,17663,42583
32800,17708,42676
32788,17674,42524
32744,17700,42391
32789,17637,42485
32908,17637,42425
33036,17577,42548
33032,17616,42428
32965,17612,42284
32872,17688,42349
32808,17664,42346
32664,17741,42408
32664,17687,42181
32820,17650,42209
33004,17637,42359
33100,17593,42200
33072,17599,42100
32976,17574,42125
32852,17652,42143
32724,17637,42124
32573,17646,41981
32525,17685,41620
32592,17668,42068
32660,17666,41991
32812,17618,42085
32920,17618,41897
33080,17591,41624
33149,17572,42016
33049,17609,41869
32884,17658,41956
32669,17653,41816
32516,17708,41721
32556,17681,41900
32700,17703,41735
32660,17636,41863
32220,17610,41607
31468,17605,41513
30794,17569,41351
30180,17593,41479
29689,17607,41496
29200,17647,41495
29281,17697,41396
29512,17662,41525
29745,17655,41391
30052,17646,41452
30368,17637,41528
30536,17575,41361
30373,17566,41338
30048,17596,41188
29964,17641,41239
30180,17639,41142
31052,17706,40908
33220,17676,41228
36017,17686,40857
38276,17611,41239
39684,17614,41092
40248,17561,41221
40288,17573,41047
39904,17637,41020
39360,17604,40946
39104,17668,40920
39092,17677,40949
39233,17705,40800
39412,17639,40788
39584,17649,40830
39420,17580,40960
38936,17565,40366
38280,17596,40871
37376,17572,40692
36552,17613,40735
35821,17633,40636
35258,17676,40628
34873,17700,40484
34556,17645,40185
34212,17641,40719
33758,17574,40549
33292,17583,40495
32852,17559,40416
32405,17596,40471
32020,17593,40539
31692,17649,40284
31502,17646,40392
31232,17661,40487
31152,17631,40300
31128,17621,40268
31103,17570,40199
31110,17575,40301
31092,17564,40285
31004,17612,40079
30940,17613,40071
30860,17653,40100
30616,17640,40061
30476,17657,39940
30566,17630,39735
30664,17615,40128
30780,17566,40008
30999,17568,40071
30997,17544,39943
30900,17591,40002
30668,17590,39879
30473,17653,39887
30300,17642,39826
30340,17661,39840
30408,17658,39796
30573,17600,39735
30766,17602,39616
30840,17548,39460
30764,17585,39815
30628,17573,39697
30404,17627,39703
30264,17629,39631
30288,17676,39663
30352,17637,39559
30488,17629,39604
30606,17625,39529
30770,17558,39649
30816,17550,39087
30828,17567,39428
30761,17556,39047
30640,17594,39239
30512,17641,39285
30444,17631,39269
30528,17647,39311
30556,17613,39197
30604,17612,39145
30708,17606,39135
30742,17559,38778
30644,17571,39156
30552,17553,38701
30372,17587,39157
30296,17667,39001
30318,17638,39124
30488,17661,38956
30664,17618,38998
30784,17622,38876
30560,17556,38820
30260,17568,38689
30016,17533,38604
29921,17559,38695
29824,17610,38423
29824,17603,38882
29948,17638,38716
30064,17668,38781
30068,17621,38640
30153,17610,38577
30124,17553,38652
29992,17547,38237
29824,17526,38669
29633,17548,38276
29470,17584,38569
29364,17601,38481
29232,17629,38530
29196,17669,38437
29304,17605,38498
29317,17602,38388
29388,17543,38345
29400,17532,38297
29409,17561,38244
29317,17543,38270
29144,17575,38335
28948,17629,38205
28752,17610,38166
28708,17630,38052
28784,17628,38056
28804,17572,38128
28780,17559,38073
28900,17549,38126
29000,17519,37992
28912,17549,38096
28748,17596,37941
28832,17589,37998
28848,17615,37519
28921,17624,37763
28872,17594,37783
28866,17583,37836
28872,17535,37695
28897,17527,37674
28896,17542,37657
28864,17530,37703
28765,17571,37591
28860,17586,37612
29096,17611,37508
29224,17626,37582
29304,17587,37444
29468,17572,37500
29696,17568,37382
30008,17509,37446
30236,17527,37295
30376,17525,37321
30556,17580,37176
30634,17579,37124
30644,17612,37076
30786,17637,37161
31168,17585,37072
31617,17585,36972
31904,17556,36961
32140,17511,36964
32392,17509,36999
32520,17543,36929
32777,17543,36943
33000,17601,36848
33132,17641,36929
33224,17597,36754
33436,17590,36836
33776,17601,36375
34068,17521,36597
34356,17516,36337
34438,17542,36508
34476,17516,36429
34436,17545,36381
34296,17586,36413
34340,17639,36405
34488,17593,36423
34848,17604,36336
35140,17588,36335
35308,17577,36246
35413,17509,36293
35424,17532,36172
35432,17517,36216
35346,17548,36114
35304,17597,36183
35204,17649,35732
35260,17585,35997
35540,17590,35863
35616,17602,35905
35720,17519,35932
35808,17515,35865
35636,17554,35892
35524,17509,35800
35412,17544,35865
35224,17624,35732
35160,17587,35791
35276,17609,35671
35340,17572,35693
35456,17581,35580
35573,17514,35511
35674,17527,35483
35548,17487,35423
35504,17533,35412
35404,17572,35444
35264,17558,35519
35160,17604,35367
35068,17588,35236
35077,17596,35417
35072,17548,35259
35112,17549,35153
35140,17489,35300
35109,17503,35229
35004,17569,35247
34853,17553,35087
34750,17613,34901
34701,17577,35240
34729,17597,35109
34828,17650,35113
34864,17548,34943
34932,17571,34780
34924,17495,35143
34800,17510,35026
34662,17499,34988
34652,17549,34983
34616,17607,34892
34630,17583,34924
34512,17581,34951
34248,17594,34845
34241,17580,34844
34500,17502,34637
34788,17511,34777
34740,17512,34829
34436,17554,34874
34220,17538,34751
34205,17602,34780
34192,17573,34785
34184,17588,34916
34445,17626,34783
34565,17540,34793
34405,17515,34751
34264,17529,34782
34096,17474,34700
34144,17516,34764
34050,17554,34618
33840,17549,34567
33744,17589,34583
33648,17611,34612
33744,17549,34704
33880,17547,34585
33960,17538,34589
34104,17476,34535
34148,17486,34566
34060,17535,34479
33864,17511,34492
33672,17565,34447
33536,17606,34364
33625,17567,34302
33760,17567,34189
33941,17527,34421
34016,17506,34073
33968,17507,34407
33944,17466,34288
33912,17497,34213
33772,17509,34086
33664,17559,34177
33500,17565,34151
33528,17585,34064
33604,17594,33948
33672,17531,34025
33768,17509,33791
33836,17533,33900
33734,17483,33853
33678,17500,33889
33552,17534,33503
33464,17604,33583
33512,17556,33568
33376,17578,33503
33414,17621,33479
33472,17524,33479
33596,17500,33471
33588,17519,33409
33616,17474,33297
33637,17508,33220
33516,17507,33068
33344,17559,33351
33196,17599,33223
33140,17553,33237
33181,17575,33103
33264,17519,32991
33448,17537,33175
33580,17468,33018
33633,17477,32925
33528,17476,32854
33400,17517,32705
33264,17601,32929
33232,17561,32853
33200,17599,32908
33284,17535,32772
33460,17535,32820
33569,17479,32680
33552,17470,32574
33484,17452,32747
33308,17489,32596
33164,17528,32617
33029,17532,32485
33032,17591,32287
33112,17551,32432
33240,17563,32202
33388,17508,32303
33408,17489,32151
33360,17495,32258
33381,17452,32102
33332,17481,32149
33232,17489,32071
33216,17554,32172
33136,17540,32132
33064,17580,32160
33158,17538,32047
33344,17542,31968
33496,17472,31821
33552,17490,32075
33384,17449,31851
33192,17476,32054
32992,17540,31913
33028,17525,31961
33204,17600,31856
33332,17559,31704
33616,17527,31844
33472,17549,31760
32992,17482,31655
32672,17521,31675
32708,17458,31661
32940,17521,31724
33020,17502,31587
33017,17522,31456
32780,17578,31614
32671,17543,31503
32760,17547,31494
32888,17496,31343
33008,17495,31188
33196,17451,31375
33264,17489,31257
33140,17479,31108
32952,17524,31183
32812,17513,31060
32760,17549,31220
32842,17597,31212
32960,17543,31198
33060,17495,31099
33080,17490,30908
33228,17445,31191
33309,17455,31057
33193,17454,31080
33012,17500,31016
32794,17508,30976
32592,17538,30955
32540,17560,30864
32772,17566,30896
32964,17493,30884
33120,17472,30831
33132,17461,30884
33025,17506,30589
32960,17466,30743
32884,17515,30520
32768,17508,30675
32864,17548,30524
32976,17580,30631
32892,17524,30574
32856,17547,30535
32832,17482,30421
32864,17516,30289
32928,17439,30532
33000,17489,30445
32924,17476,30462
32737,17515,30378
32616,17573,30425
32732,17541,30324
32764,17554,30325
32888,17488,30276
32988,17494,30261
33120,17439,30215
33108,17447,30135
32960,17491,29957
32804,17477,30164
32744,17558,30119
32645,17545,29989
32660,17585,29949
32736,17525,29860
32860,17484,29967
33016,17466,29860
33004,17432,29937
33028,17462,29801
33024,17445,29796
32884,17497,29685
32737,17503,29897
32648,17543,29685
32720,17525,29852
32788,17528,29796
32876,17487,29636
33001,17465,29635
33016,17428,29540
33032,17447,29605
32879,17467,29565
32673,17463,29612
32672,17527,29655
32700,17516,29623
32760,17549,29533
32912,17505,29401
32992,17517,29589
33033,17449,29549
33056,17437,29413
33084,17485,29512
32864,17446,29521
32734,17510,29512
32696,17498,29465
32628,17550,29333
32716,17543,29390
32788,17584,29354
32762,17498,29260
32816,17443,29380
32973,17444,29287
32892,17420,29187
32760,17444,29422
32628,17459,29308
32548,17513,29159
32680,17565,29340
32936,17542,29287
33004,17500,29206
33064,17500,29162
33148,17447,29052
33148,17466,29182
32848,17421,29177
32592,17469,29021
32496,17467,29029
32456,17522,28935
32396,17511,29164
32549,17524,28905
32660,17559,29079
32820,17480,29031
32961,17496,28959
33024,17444,28988
32948,17475,28819
32833,17449,29004
32761,17534,28969
32736,17505,28828
32673,17511,28925
32660,17525,28935
32688,17567,28964
32804,17492,28902
32917,17477,28959
32892,17420,28876
33036,17457,28778
33008,17433,28748
32884,17503,28841
32613,17489,28868
32552,17525,28826
32604,17568,28839
32712,17511,28837
32864,17478,28692
32948,17497,28754
32936,17444,28698
32877,17424,28805
32840,17462,28671
32740,17461,28807
32729,17543,28806
32620,17532,28679
32632,17596,28807
32724,17511,28815
32844,17477,28669
32896,17469,28823
32984,17478,28797
32928,17444,28863
32864,17487,28799
32629,17465,28699
32568,17516,28781
32532,17511,28613
32512,17532,28792
32608,17550,28812
32728,17478,28785
32884,17469,28755
32941,17423,28644
32913,17446,28788
32820,17425,28804
32684,17473,28640
32652,17485,28831
32520,17538,28788
32660,17521,28587
32728,17529,28841
32800,17473,28684
32864,17484,28765
32772,17428,28679
32644,17455,28660
32488,17436,28756
32340,17493,28654
32228,17508,28728
32004,17511,28748
32104,17545,28587
32308,17501,28670
32479,17495,28740
32544,17445,28604
32612,17442,28621
32597,17423,28553
32556,17452,28773
32404,17458,28645
32192,17510,28585
32032,17556,28774
31936,17535,28706
32025,17503,28556
32148,17497,28786
32244,17506,28703
32200,17431,28543
32173,17423,28727
32208,17461,28679
32049,17463,28754
31908,17530,28610
31831,17512,28744
31901,17536,28756
32025,17503,28622
32265,17517,28793
32412,17464,28768
32512,17473,28624
32532,17445,28832
32580,17481,28772
32684,17457,28807
32800,17499,28785
32792,17513,28640
32820,17533,28828
32900,17495,28778
32960,17517,28798
33049,17442,28798
33168,17444,28770
33256,17426,28632
33272,17478,28820
33121,17471,28776
33012,17532,28636
32940,17514,28831
32876,17542,28745
32944,17495,28830
33104,17489,28741
33281,17450,28879
33364,17441,28828
33356,17420,28701
33272,17466,28876
33064,17461,28815
32988,17525,28757
32933,17514,28701
32823,17543,28636
32964,17511,28843
33268,17528,28793
33270,17463,28632
33192,17427,28786
33080,17436,28787
33116,17439,28668
33008,17479,28854
33024,17489,28788
32956,17540,28659
32904,17519,28858
32964,17533,28781
33028,17474,28598
33177,17470,28808
33252,17476,28786
33200,17446,28584
33153,17485,28837
33028,17484,28736
32901,17524,28622
32832,17517,28663
32800,17532,28747
32924,17507,28738
33072,17484,28720
33096,17461,28713
33160,17472,28717
33228,17445,28644
33172,17511,28605
32984,17472,28679
32728,17499,28667
32719,17542,28559
32770,17518,28477
32852,17522,28687
32800,17480,28535
32912,17484,28638
33066,17424,28609
33089,17442,28613
32924,17491,28583
32453,17466,28559
31756,17523,28397
31012,17513,28541
30409,17527,28390
30008,17535,28610
29836,17478,28515
29968,17476,28350
30352,17431,28554
30452,17466,28407
30576,17455,28295
30940,17496,28441
30912,17493,28431
30778,17527,28335
30548,17517,28364
30492,17511,28197
30536,17477,28348
30896,17458,28235
31636,17424,28316
33408,17431,28176
36037,17431,28308
37940,17484,28231
39036,17497,28260
39568,17549,28082
39648,17518,28161
39525,17548,28177
39496,17484,27990
39544,17497,28149
39704,17432,28052
39745,17477,27943
39668,17438,27970
39260,17496,28057
38344,17502,27946
37500,17557,27934
36984,17519,27797
36612,17533,28017
36200,17557,27940
35804,17469,27764
35292,17431,27942
34624,17472,27824
34076,17466,27837
33665,17468,27655
33240,17519,27679
32812,17575,27596
32448,17535,27740
32184,17508,27617
31952,17525,27712
31716,17469,27613
31600,17435,27557
31477,17461,27660
31050,17444,27573
31008,17507,27519
30980,17503,27476
30928,17563,27655
30688,17531,27588
30764,17543,27625
30849,17501,27569
30928,17513,27399
31036,17452,27592
31076,17428,27486
31025,17468,27372
30858,17469,27554
30752,17525,27520
30692,17516,27564
30713,17556,27483
30720,17518,27353
30748,17478,27565
30860,17487,27503
30948,17442,27367
31004,17429,27580
30941,17459,27532
30840,17467,27469
30648,17528,27440
30572,17523,27378
30612,17553,27591
30752,17515,27528
30849,17522,27397
30960,17465,27468
31040,17437,27566
30964,17436,27462
30812,17442,27465
30636,17484,27399
30557,17503,27631
30516,17541,27505
30580,17531,27588
30694,17506,27568
30756,17530,27404
30796,17466,27421
30825,17427,27509
30784,17440,27556
30692,17444,27501
30624,17491,27534
30473,17545,27406
30356,17537,27551
30364,17551,27393
30520,17511,27575
30580,17493,27541
30648,17454,27557
30668,17455,27421
30545,17429,27527
30388,17482,27413
30332,17480,27556
30252,17500,27503
30101,17545,27362
30100,17528,27561
30140,17545,27537
30172,17498,27426
30236,17500,27464
30357,17450,27558
30268,17445,27396
30156,17446,27560
29961,17499,27562
29806,17518,27588
29700,17524,27533
29690,17535,27615
29796,17509,27473
29944,17519,27511
29849,17471,27666
29748,17433,27686
29645,17450,27557
29500,17446,27692
29440,17506,27748
29294,17527,27607
29152,17521,27834
29156,17539,27797
29248,17511,27653
29192,17515,27859
29296,17465,27788
29334,17433,27868
29268,17466,27729
29116,17452,27931
28894,17509,27823
28764,17515,27952
28749,17522,27810
28712,17557,28040
28753,17527,27972
28913,17520,27873
29056,17463,28093
28988,17430,28046
28996,17442,28049
29017,17454,28077
29000,17482,27985
28966,17507,27989
28829,17532,27941
28773,17560,28008
29028,17508,27995
29368,17508,28039
29576,17458,28020
29717,17459,28173
29800,17439,28180
29696,17463,28198
29632,17509,28048
29752,17509,28258
29920,17556,28190
30088,17535,28057
30344,17553,28105
30620,17492,28073
30846,17490,28126
31084,17439,28045
31324,17456,28240
31577,17453,28207
31809,17505,28057
31905,17506,28108
31972,17549,28191
32084,17525,28069
32300,17526,28099
32696,17490,28156
33040,17493,27987
33404,17454,28073
33524,17486,28164
33668,17464,28103
33660,17479,27993
33700,17535,28129
33856,17582,28033
34025,17558,27968
34296,17565,28096
34473,17495,28088
34740,17491,27940
34928,17440,28113
35108,17464,28081
35152,17521,28085
35144,17484,27968
35012,17556,28015
35016,17543,27969
35180,17583,28068
35292,17529,28003
35344,17551,27973
35460,17477,27906
35540,17471,28140
35576,17444,28101
35529,17481,27941
35504,17479,28134
35344,17543,28071
35256,17538,27948
35294,17563,28159
35415,17524,28087
35548,17537,27975
35636,17470,28057
35664,17501,28080
35564,17474,28140
35552,17453,27996
35424,17509,28165
35244,17519,28124
35140,17576,28055
35100,17541,28068
35188,17569,28220
35244,17509,28170
35384,17500,28042
35484,17451,28149
35436,17477,28198
35320,17463,28061
35182,17510,28116
35065,17605,28069
34980,17552,28295
34919,17599,28260
35020,17545,28126
35218,17563,28317
35265,17482,28279
35265,17492,28136
35204,17448,28265
35034,17502,28221
34880,17495,28343
34656,17567,28230
34556,17569,28437
34568,17579,28397
34652,17530,28415
34768,17526,28319
34892,17476,28437
34936,17489,28324
34937,17450,28348
34948,17495,28465
34776,17511,28329
34508,17606,28558
34191,17584,28541
34112,17558,28413
34333,17588,28343
34572,17528,28470
34701,17477,28469
34752,17465,28537
34600,17508,28526
34446,17491,28428
34376,17543,28551
34344,17545,28407
34208,17542,28452
34104,17570,28623
34272,17535,28517
34324,17524,28399
34320,17472,28620
34282,17471,28463
34304,17452,28550
34308,17489,28556
34188,17529,28543
33961,17530,28381
33892,17564,28580
33796,17548,28558
33932,17550,28416
34060,17509,28481
34118,17492,28397
34164,17511,28604
34144,17450,28541
34032,17508,28383
33892,17502,28509
33646,17575,28353
33524,17551,28524
33556,17588,28503
33740,17536,28357
33925,17551,28492
34084,17477,28493
34092,17486,28429
34062,17453,28410
33904,17511,28285
33721,17521,28382
33757,17600,28521
33572,17573,28474
33604,17549,28359
33637,17555,28468
33748,17513,28468
33804,17519,28368
33888,17460,28367
33932,17481,28298
33876,17473,28524
33568,17529,28469
33328,17529,28460
33316,17573,28453
33212,17554,28301
33416,17561,28557
33572,17516,28491
33664,17500,28382
33790,17519,28452
33608,17460,28353
33532,17485,28399
33496,17547,28337
33488,17537,28574
33444,17575,28525
33440,17556,28420
33460,17551,28503
33612,17520,28351
33700,17503,28523
33676,17517,28367
33660,17466,28605
33530,17495,28353
33348,17503,28605
33200,17550,28543
33069,17557,28393
33020,17573,28450
33248,17605,28526
33456,17559,28342
33621,17503,28542
33604,17538,28412
33476,17481,28503
33344,17479,28511
33272,17542,28385
33248,17539,28305
33198,17595,28509
33212,17564,28399
33303,17564,28273
33344,17519,28481
33352,17511,28444
33412,17467,28361
33356,17482,28400
33312,17484,28276
33216,17529,28295
33128,17565,28263
32980,17561,28293
32962,17577,28247
33124,17602,28283
33292,17543,28214
33320,17527,28340
33300,17473,28373
33301,17508,28212
33244,17504,28423
33080,17543,28351
33084,17549,28277
32982,17635,28265
33040,17575,28340
33166,17624,28372
33150,17545,28332
33210,17545,28333
33360,17474,28331
33393,17510,28174
33216,17483,28228
33028,17532,28149
32897,17540,28362
32840,17594,28297
32953,17572,28120
33064,17596,28364
33140,17543,28293
33352,17541,28149
33453,17471,28281
33360,17479,28167
33284,17487,28185
33128,17565,28253
32876,17551,28134
32676,17635,28223
32772,17585,28071
32897,17593,28206
33040,17535,28046
33172,17532,28132
33240,17469,28031
33180,17500,28265
33208,17489,28196
33028,17533,28079
32932,17542,28108
32868,17602,28024
32828,17580,28158
32869,17556,28108
32940,17578,28156
33072,17497,28005
33200,17508,28032
33180,17475,27951
33084,17531,28195
32892,17511,28132
32716,17585,28100
32572,17567,28126
32684,17607,28025
32760,17551,28095
32952,17559,27953
33116,17505,28064
33216,17513,28016
33248,17484,28132
33152,17489,27983
32856,17539,28188
32736,17622,28133
32656,17575,28015
32572,17570,28060
32644,17565,28157
32692,17527,28004
33029,17508,28228
33124,17476,28074
33076,17488,28005
33064,17483,28068
33001,17540,28223
32900,17567,28173
32796,17639,28039
32748,17577,28084
32784,17574,28068
32809,17530,28119
32880,17519,28068
32968,17476,28217
33016,17500,28234
32960,17543,28088
32796,17517,28156
32746,17558,28077
32653,17615,28228
32696,17573,28129
32766,17592,28105
32788,17537,28096
32792,17548,28249
32764,17479,28245
32788,17493,28151
32768,17542,28173
32769,17521,28047
32656,17572,28279
32596,17575,28236
32518,17591,28097
32608,17600,28100
32792,17556,28206
33109,17548,28185
33024,17477,28204
32988,17506,28093
32836,17493,28172
32720,17559,28180
32576,17556,28020
32452,17615,28239
32486,17581,28089
32596,17614,28181
32592,17538,28069
32820,17525,28093
32932,17481,28162
32920,17500,28062
32902,17492,28133
32704,17535,28182
32569,17605,28031
32528,17576,28100
32596,17596,28039
32664,17561,28205
32736,17553,28108
32928,17507,28196
33124,17506,28047
33128,17483,28271
32900,17533,28102
32632,17526,28212
32520,17604,28071
32396,17596,28069
32392,17579,28285
32672,17589,28215
32836,17552,28092
33021,17518,28295
32964,17524,28247
32920,17483,28108
32848,17517,28285
32704,17524,28167
32600,17604,28274
32636,17605,28114
32620,17646,28327
32666,17580,28237
32732,17589,28111
32849,17521,28260
32964,17489,28198
32968,17500,28292
32832,17502,28108
32660,17542,28338
32616,17559,28205
32601,17620,28301
32568,17585,28190
32660,17589,28202
32796,17551,28283
32876,17524,28150
32949,17493,28329
32948,17543,28177
32836,17516,28290
32661,17524,28228
32588,17578,28176
32572,17580,28295
32682,17625,28136
32815,17573,28290
32844,17578,28271
32873,17524,28129
32924,17541,28180
32925,17508,28220
32904,17569,28287
32736,17537,28129
32620,17588,28295
32532,17580,28260
32568,17621,28109
32720,17587,28132
32758,17588,28227
32877,17520,28293
32984,17553,28118
33012,17508,28325
32760,17505,28178
32568,17545,28285
32556,17559,28153
32640,17629,28316
32620,17604,28231
32697,17568,28103
32804,17561,28309
32896,17540,28273
32856,17487,28255
32868,17499,28177
32676,17502,28148
32596,17535,28277
32537,17614,28176
32460,17591,28291
32480,17629,28200
32552,17575,28189
32656,17580,28116
32820,17525,28228
32942,17517,28261
32903,17484,28132
32716,17538,28307
32685,17535,28156
32609,17557,28256
32532,17616,28260
32600,17579,28096
32564,17575,28167
32648,17543,28255
32792,17520,28103
32896,17561,28293
32921,17498,28244
32864,17542,28076
32664,17524,28228
32396,17575,28218
32196,17575,28265
32232,17591,28204
32174,17548,28045
32272,17559,28156
32421,17507,28160
32574,17530,28219
32588,17486,28064
32500,17493,28167
32485,17546,28228
32396,17561,28204
32238,17595,28050
32172,17579,28246
32240,17607,28167
32332,17551,28181
32420,17508,28049
32406,17492,28224
32268,17543,28146
32161,17511,28176
32012,17564,28090
31820,17561,28147
31652,17612,28172
31682,17591,27993
31807,17599,28206
31968,17540,28132
32064,17541,28165
32084,17493,27983
32144,17479,28058
32130,17522,28228
32065,17521,28044
32012,17597,28146
31980,17591,28151
32156,17579,27965
32392,17615,27998
32692,17555,28116
32906,17501,28053
33064,17518,28133
33100,17484,27980
33072,17529,28127
33026,17530,28095
32953,17543,28128
32853,17596,27943
32824,17591,27964
32944,17557,27975
33132,17564,28153
33252,17514,28004
33228,17525,27945
33160,17496,27954
33056,17486,28050
33070,17541,28093
32897,17559,28032
32860,17568,28088
32980,17605,28089
33160,17564,27911
33284,17529,27952
33304,17513,28135
33260,17479,27972
33164,17513,28086
33074,17501,27904
32992,17509,28109
32937,17564,27991
32884,17565,27912
32848,17583,28012
32937,17567,27976
33044,17546,27921
33159,17529,28127
33230,17479,28029
33268,17515,27921
33141,17486,28017
33008,17539,28041
32868,17548,28081
32740,17596,27907
32812,17568,28145
32894,17584,27997
33016,17522,27923
33132,17525,28047
33188,17482,28001
33209,17500,27996
33148,17485,28069
32960,17548,28072
32782,17543,27930
32600,17576,27968
32624,17605,27932
32748,17549,27968
32972,17541,27896
33048,17495,28060
33096,17494,27917
33124,17523,28050
32964,17495,27996
32864,17509,28073
32768,17564,28093
32672,17612,28062
32684,17572,27924
32768,17566,28028
32801,17600,28078
32736,17511,28029
32292,17519,28047
31512,17473,27928
30804,17519,28098
30332,17516,28017
29821,17565,27889
29468,17567,28064
29653,17582,27991
29880,17548,28076
30116,17537,27956
30432,17490,27966
30637,17485,27917
30596,17488,28023
30164,17476,27908
29765,17515,28088
29600,17580,28058
29764,17572,27927
30500,17559,28100
32713,17552,28056
35892,17516,27920
38452,17508,28062
39880,17522,28020
40416,17470,28047
40392,17545,27910
39968,17523,27945
39532,17597,27925
39368,17556,28119
39488,17575,28068
39556,17607,28109
39633,17540,28065
39512,17548,27948
39208,17473,28045
38600,17511,27917
37840,17479,27945
37129,17559,28072
36540,17542,27952
35932,17593,28000
35408,17567,28076
35012,17601,27973
34610,17518,28047
34164,17507,27929
33708,17472,28079
33320,17477,28092
32770,17532,27932
32272,17508,27978
31828,17575,28081
31552,17567,28005
31392,17581,28042
31232,17546,27938
31214,17543,28113
31252,17492,28045
31272,17497,27933
31172,17468,28123
31060,17492,28084
30941,17573,28111
30760,17543,28088
30656,17591,28004
30624,17564,28040
30744,17571,27928
30880,17521,28012
31004,17517,28065
31116,17475,27920
31116,17504,28114
30996,17500,28046
30756,17503,28036
30592,17567,27904
30392,17575,28061
30400,17607,27943
30588,17546,28047
30728,17559,27901
30793,17495,27962
30752,17460,28057
30829,17488,27903
30760,17472,27953
30680,17509,28044
30452,17534,27965
30414,17574,28118
30461,17567,27989
30540,17579,28045
30656,17530,27879
30752,17477,28044
30780,17482,27917
30830,17456,28022
30648,17497,27861
30496,17493,27911
30340,17549,27984
30316,17552,27936
30328,17591,27884
30436,17551,27956
30572,17510,27943
30640,17518,27788
30623,17468,27956
30664,17450,27801
30520,17485,27895
30324,17497,27738
30189,17559,27929
30085,17557,27828
30116,17596,27668
30224,17549,27839
30276,17551,27709
30340,17494,27798
30392,17455,27645
30380,17496,27797
30286,17475,27658
30192,17490,27774
29980,17565,27764
29813,17559,27604
29772,17550,27740
29816,17577,27728
29920,17525,27581
29940,17520,27796
29920,17461,27741
29932,17452,27596
29784,17484,27794
29664,17488,27647
29481,17544,27584
29324,17542,27801
29333,17574,27716
29372,17532,27562
29441,17543,27704
29552,17492,27711
29584,17451,27574
29508,17464,27725
29312,17501,27599
29116,17484,27751
28964,17535,27749
28792,17538,27653
28702,17565,27751
28764,17528,27745
28872,17519,27624
28964,17469,27738
29044,17460,27580
28972,17469,27654
28832,17457,27566
28636,17504,27769
28524,17515,27735
28548,17567,27563
28569,17536,27714
28636,17533,27725
28788,17492,27586
29020,17485,27655
29076,17439,27697
29080,17449,27684
29128,17452,27700
29052,17491,27541
28992,17511,27591
28968,17542,27527
29084,17555,27558
29340,17519,27516
29596,17503,27564
29832,17475,27557
30005,17475,27649
30112,17437,27674
30168,17483,27628
30209,17479,27573
30240,17517,27612
30366,17565,27649
30648,17533,27568
31060,17553,27492
31400,17509,27461
31704,17501,27380
32016,17439,27495
32224,17454,27408
32364,17452,27541
32484,17492,27341
32612,17535,27452
32724,17534,27303
32984,17557,27432
33252,17521,27454
33488,17509,27345
33772,17460,27396
34096,17458,27253
34302,17432,27444
34324,17463,27383
34416,17474,27364
34440,17525,27269
34488,17529,27214
34612,17557,27336
34768,17519,27353
35036,17503,27263
35240,17486,27339
35468,17421,27379
35500,17459,27320
35472,17512,27253
35372,17494,27316
35336,17556,27167
35292,17541,27236
35396,17578,27152
35492,17511,27304
35588,17516,27313
35744,17466,27173
35768,17485,27221
35756,17438,27143
35776,17475,27271
35808,17476,27151
35660,17521,27225
35496,17574,27146
35488,17527,27239
35637,17555,27303
35660,17506,27150
35764,17487,27178
35856,17436,27301
35784,17476,27240
35606,17464,27231
35500,17545,27140
35356,17519,27356
35200,17581,27260
35152,17537,27120
35264,17602,27316
35360,17521,27291
35324,17463,27118
35340,17489,27351
35332,17450,27284
35280,17442,27151
35236,17541,27340
35092,17518,27276
34928,17523,27132
34876,17542,27319
34928,17511,27302
35056,17516,27132
35204,17457,27352
35244,17483,27249
35200,17455,27313
35096,17536,27259
34996,17490,27286
34756,17497,27327
34601,17541,27337
34632,17522,27343
34668,17530,27183
34776,17531,27309
34864,17449,27208
34932,17466,27271
34856,17434,27374
34796,17495,27248
34628,17499,27268
34437,17503,27380
34346,17576,27236
34340,17539,27442
34404,17549,27395
34404,17481,27421
34564,17476,27364
34616,17422,27237
34600,17452,27440
34532,17444,27372
34405,17513,27231
34204,17513,27273
34008,17517,27300
33928,17535,27372
34036,17504,27219
34128,17497,27336
34220,17449,27356
34274,17460,27376
34252,17425,27203
34138,17467,27404
33989,17484,27244
33850,17500,27372
33704,17530,27224
33780,17522,27404
33888,17522,27374
33980,17481,27221
34024,17465,27423
34072,17425,27374
34032,17440,27221
33948,17439,27380
33870,17489,27370
33748,17493,27209
33633,17543,27417
33669,17524,27334
33688,17540,27228
33808,17505,27327
33868,17445,27442
33901,17500,27288
33884,17431,27261
33816,17443,27370
33686,17473,27308
33625,17493,27392
33496,17534,27300
33452,17525,27316
33532,17551,27406
33701,17496,27337
33810,17502,27303
33896,17437,27420
33916,17468,27428
33780,17437,27417
33584,17497,27278
33372,17499,27496
33352,17548,27393
33388,17517,27288
33444,17538,27425
33552,17477,27396
33653,17477,27479
33664,17430,27329
33676,17492,27440
33592,17463,27415
33416,17460,27499
33310,17507,27354
33304,17513,27564
33314,17525,27499
33400,17568,27348
33524,17491,27509
33594,17520,27509
33648,17449,27394
33616,17419,27387
33545,17466,27509
33356,17458,27549
33162,17509,27396
33112,17513,27605
33144,17533,27484
33292,17502,27564
33373,17494,27394
33480,17439,27591
33576,17470,27535
33557,17431,27561
33416,17432,27398
33335,17481,27474
33266,17493,27440
33113,17525,27567
33096,17517,27481
33184,17524,27511
33272,17494,27445
33345,17517,27564
33404,17437,27404
33388,17472,27606
33304,17455,27438
33210,17479,27399
33144,17488,27588
33034,17530,27468
32980,17511,27440
32996,17530,27564
33096,17472,27549
33296,17470,27398
33412,17415,27612
33356,17442,27572
33284,17479,27541
33234,17469,27557
33104,17551,27416
32908,17516,27604
32920,17534,27591
32952,17495,27511
32968,17510,27493
33172,17442,27602
33412,17449,27548
33436,17414,27567
33248,17447,27468
33084,17461,27688
32896,17510,27628
33016,17564,27493
32877,17533,27606
32837,17562,27662
33024,17480,27500
33052,17440,27692
32968,17431,27636
33020,17460,27527
32940,17449,27636
32904,17453,27620
32844,17492,27692
32748,17509,27524
32704,17530,27556
32768,17492,27730
32804,17524,27766
32869,17452,27629
32996,17461,27748
32997,17422,27660
32929,17447,27716
32904,17445,27600
32768,17489,27845
32608,17554,27749
32568,17529,27796
32588,17484,27714
32633,17484,27653
32712,17428,27810
32812,17435,27740
32849,17411,27792
32860,17452,27817
32864,17455,27666
32668,17516,27780
32492,17503,27801
32464,17552,27801
32512,17503,27631
32672,17463,27685
32720,17453,27726
32872,17410,27791
32896,17452,27622
32788,17425,27816
32649,17472,27768
32448,17476,27609
32296,17513,27775
32376,17550,27783
32564,17495,27831
32636,17510,27764
32700,17453,27604
32721,17452,27655
32812,17400,27597
32800,17429,27791
32790,17445,27733
32712,17495,27596
32535,17521,27717
32441,17496,27559
32565,17507,27724
32668,17455,27700
32729,17439,27552
32864,17482,27704
32900,17417,27605
32864,17415,27723
32834,17464,27561
32596,17470,27646
32328,17513,27556
32304,17493,27765
32480,17497,27708
32696,17496,27636
32804,17432,27588
32816,17446,27714
32753,17415,27574
32752,17470,27664
32680,17445,27724
32648,17465,27556
32548,17508,27740
32492,17541,27552
32552,17479,27765
32740,17465,27719
32925,17420,27583
32992,17416,27602
32932,17453,27724
32816,17415,27712
32724,17464,27684
32584,17465,27566
32423,17498,27796
32448,17559,27746
32496,17495,27672
32644,17519,27645
32796,17439,27774
32940,17441,27610
32994,17389,27746
32924,17429,27642
32660,17431,27843
32492,17489,27780
32369,17481,27654
32396,17498,27708
32524,17543,27652
32745,17459,27884
32948,17463,27833
33048,17397,27692
32948,17433,27892
32777,17407,27848
32661,17449,27917
32580,17506,27865
32484,17480,27836
32494,17490,27879
32612,17495,27894
32681,17447,27876
32812,17417,27732
32903,17415,27789
32856,17385,27710
32846,17440,27919
32752,17425,27894
32592,17473,27801
32480,17538,27801
32473,17500,27733
32668,17506,27952
32854,17453,27865
32900,17458,27889
32865,17400,27856
32809,17433,27834
32717,17415,27714
32656,17494,27927
32548,17472,27876
32480,17533,27726
32541,17490,27889
32648,17477,27697
32716,17439,27923
32813,17415,27865
32950,17433,27774
32912,17426,27676
32768,17393,27892
32704,17447,27832
32620,17449,27677
32516,17485,27733
32512,17524,27680
32576,17469,27740
32536,17466,27641
32545,17400,27866
32772,17394,27820
32964,17380,27668
32856,17405,27756
32736,17415,27806
32520,17477,27667
32508,17471,27870
32644,17493,27749
32796,17455,27651
32869,17445,27851
32872,17451,27830
32864,17381,27687
32832,17421,27897
32948,17404,27833
32860,17413,27682
32525,17478,27841
32252,17487,27828
32168,17461,27844
32216,17468,27691
32492,17425,27889
32736,17405,27877
32942,17377,27692
32832,17427,27748
32744,17399,27797
32640,17448,27689
32572,17457,27814
32520,17464,27903
32564,17485,27856
32540,17456,27684
32540,17470,27825
32736,17401,27726
32912,17415,27687
32840,17382,27660
32736,17380,27857
32668,17433,27775
32592,17442,27612
32580,17477,27717
32608,17463,27623
32573,17455,27559
32644,17413,27727
32884,17410,27646
32928,17391,27700
32849,17366,27612
32758,17396,27623
32560,17438,27564
32344,17430,27522
32160,17469,27503
32172,17458,27328
32276,17456,27341
32372,17446,27290
32464,17435,27417
32528,17360,27385
32532,17380,27367
32392,17378,27212
32280,17397,27330
32292,17457,27188
32276,17493,27223
32320,17455,27162
32332,17456,27193
32392,17415,27132
32460,17384,27260
32324,17366,27264
32160,17411,27271
32012,17378,27117
31876,17436,27180
31764,17430,27108
31644,17451,27242
31600,17465,27202
31696,17454,27256
31856,17410,27196
32008,17399,27242
32100,17382,27167
32172,17424,27088
32092,17368,27167
32016,17412,27069
31961,17463,27156
31981,17446,27080
32065,17455,27111
32205,17472,27057
32432,17404,27272
32700,17396,27209
32924,17354,27174
32949,17378,27196
32892,17411,27049
32849,17384,27069
32836,17443,27011
32804,17456,27131
32872,17486,26981
33092,17429,27100
33232,17420,26950
33268,17415,26981
33332,17349,26912
33184,17345,26967
33057,17373,26897
32992,17435,26908
32881,17421,26862
32748,17457,26887
32776,17453,26817
32944,17462,26861
33074,17403,26791
33132,17384,26945
33180,17380,26908
33200,17343,26817
33172,17363,26876
33108,17410,26709
33068,17495,26745
33073,17436,26674
33188,17460,26696
33237,17469,26645
33052,17396,26680
32892,17375,26720
32948,17355,26766
32996,17354,26712
33000,17375,26591
33000,17417,26746
32996,17466,26759
32940,17429,26568
32832,17432,26721
32808,17437,26752
32940,17447,26708
32944,17359,26746
32756,17359,26529
32808,17370,26613
32860,17347,26685
32836,17381,26733
32712,17447,26558
32624,17428,26724
32676,17445,26676
32720,17449,26688
32816,17386,26669
32916,17371,26631
33044,17423,26647
33064,17356,26548
32968,17382,26647
32740,17362,26601
32657,17414,26631
32644,17479,26567
32648,17446,26620
32828,17447,26612
32916,17382,26589
32788,17364,26509
32324,17378,26583
31532,17348,26464
30792,17376,26555
30148,17365,26404
29748,17409,26529
29484,17449,26402
29648,17423,26503
29934,17413,26367
30172,17415,26408
30520,17347,26333
30872,17327,26474
30837,17349,26325
30532,17316,26453
30060,17354,26468
29868,17405,26460
30000,17414,26391
30484,17444,26275
32296,17463,26426
35340,17370,26341
37936,17348,26424
39564,17385,26418
40312,17315,26246
40476,17348,26420
40360,17353,26397
39996,17421,26311
39776,17428,26233
39856,17455,26393
39948,17391,26373
40004,17393,26353
39784,17341,26212
39344,17331,26343
38688,17383,26214
37980,17349,26264
37320,17406,26217
36645,17396,26302
36045,17442,26202
35520,17479,26382
34996,17394,26316
34548,17385,26214
34113,17382,26313
33716,17309,26230
33316,17321,26301
32824,17374,26231
32376,17347,26369
31948,17385,26232
31628,17398,26287
31400,17423,26284
31260,17432,26397
31212,17376,26255
31184,17360,26346
31212,17359,26244
31216,17314,26374
31064,17354,26424
30916,17345,26468
30764,17389,26269
30748,17410,26343
30753,17396,26269
30800,17383,26428
30796,17374,26428
30821,17369,26436
30908,17311,26493
30928,17320,26286
30868,17360,26329
30744,17394,26434
30622,17370,26343
30520,17388,26378
30544,17397,26380
30540,17391,26466
30680,17394,26504
30848,17321,26316
30924,17302,26473
30822,17300,26501
30792,17328,26365
30640,17376,26407
30589,17361,26367
30454,17388,26521
30608,17409,26456
30736,17409,26365
30832,17348,26531
30872,17336,26405
30808,17355,26561
30780,17311,26556
30768,17327,26589
30615,17327,26402
30456,17364,26448
30364,17392,26406
30410,17417,26537
30500,17364,26453
30580,17347,26563
30596,17327,26606
30580,17325,26419
30528,17329,26550
30386,17294,26615
30276,17323,26410
30214,17365,26466
30218,17432,26400
30208,17379,26446
30220,17383,26399
30292,17386,26485
30345,17311,26408
30360,17287,26557
30326,17311,26577
30264,17289,26412
30156,17338,26556
30000,17348,26460
29920,17372,26425
29916,17404,26462
29904,17357,26360
30000,17349,26440
30080,17305,26350
30045,17295,26516
30022,17326,26469
29897,17308,26372
29760,17364,26505
29580,17345,26479
29484,17371,26432
29376,17404,26473
29366,17354,26325
29381,17348,26364
29448,17334,26471
29487,17271,26505
29420,17279,26473
29252,17293,26409
29128,17329,26458
28984,17335,26303
28808,17372,26429
28744,17397,26460
28760,17345,26488
28812,17339,26313
28848,17319,26492
28928,17269,26452
28944,17281,26278
28848,17279,26377
28716,17311,26439
28590,17329,26262
28505,17362,26349
28489,17353,26431
28548,17337,26437
28740,17323,26411
28900,17287,26257
29000,17281,26416
29046,17287,26405
29036,17266,26287
29004,17319,26334
28918,17333,26393
28933,17390,26234
29052,17364,26380
29256,17374,26243
29532,17317,26422
29732,17317,26357
29860,17268,26220
30033,17282,26375
30144,17267,26352
30196,17305,26205
30320,17319,26324
30400,17361,26244
30600,17386,26303
30952,17340,26305
31340,17339,26199
31764,17274,26383
32072,17281,26356
32260,17252,26208
32237,17309,26397
32380,17296,26359
32509,17364,26180
32641,17336,26237
32877,17381,26345
33268,17349,26191
33624,17349,26252
33980,17271,26192
34193,17278,26397
34292,17251,26347
34408,17308,26205
34436,17292,26272
34484,17340,26209
34556,17333,26429
34636,17349,26372
34772,17319,26225
35068,17308,26432
35285,17343,26367
35412,17273,26232
35512,17285,26360
35549,17252,26405
35528,17295,26452
35416,17362,26281
35340,17327,26456
35428,17350,26439
35596,17376,26440
35716,17295,26436
35852,17282,26296
35964,17297,26442
35917,17239,26303
35796,17282,26375
35744,17274,26327
35664,17318,26446
35600,17324,26490
35564,17364,26496
35644,17314,26359
35774,17332,26482
35864,17259,26529
35918,17261,26374
35876,17226,26592
35764,17287,26548
35636,17264,26437
35480,17308,26536
35364,17378,26415
35372,17319,26484
35436,17333,26429
35468,17319,26511
35500,17349,26468
35588,17247,26624
35636,17283,26580
35502,17240,26476
35284,17287,26521
35108,17377,26493
35008,17319,26553
34972,17333,26514
35040,17284,26729
35164,17302,26674
35272,17311,26592
35280,17237,26773
35236,17278,26746
35136,17241,26593
35037,17308,26698
34956,17305,26791
34800,17336,26705
34820,17313,26701
34916,17311,26669
34902,17295,26887
34904,17288,26703
34896,17221,26799
34872,17220,26726
34768,17268,26956
34644,17253,26913
34525,17301,26779
34436,17380,26884
34444,17311,26849
34524,17311,26925
34610,17343,26970
34712,17237,26852
34735,17231,27076
34668,17277,27009
34536,17223,26897
34476,17285,27050
34341,17276,27069
34240,17317,26962
34184,17303,26985
34200,17303,27103
34216,17266,27066
34392,17246,27109
34461,17262,27119
34468,17206,27148
34356,17255,27007
34236,17250,27208
34120,17319,27179
33964,17309,27052
33912,17298,27182
33968,17299,27101
34108,17255,27196
34248,17241,27053
34252,17203,27239
34244,17198,27076
34188,17223,27143
33924,17278,27109
33864,17271,27180
33752,17308,27143
33720,17293,27180
33785,17287,27304
33808,17311,27361
33908,17219,27323
34052,17218,27390
34048,17196,27360
33956,17224,27321
33788,17284,27364
33632,17274,27277
33532,17316,27279
33592,17285,27236
33676,17284,27454
33724,17255,27428
33796,17243,27357
33901,17235,27442
33901,17191,27311
33836,17219,27456
33720,17232,27324
33584,17262,27428
33520,17298,27336
33532,17341,27494
33560,17265,27514
33684,17268,27511
33762,17215,27348
33792,17220,27482
33832,17242,27554
33816,17200,27621
33736,17243,27569
33576,17273,27591
33472,17297,27564
33476,17278,27463
33540,17275,27513
33644,17240,27621
33732,17232,27668
33780,17232,27644
33728,17180,27706
33632,17211,27655
33552,17295,27605
33485,17272,27664
33356,17318,27532
33374,17274,27576
33449,17270,27548
33526,17292,27585
33616,17233,27525
33716,17243,27768
33672,17189,27716
33500,17229,27657
33330,17216,27695
33264,17254,27601
33188,17300,27740
33180,17275,27720
33276,17282,27719
33384,17294,27631
33456,17205,27738
33536,17205,27614
33588,17175,27793
33516,17215,27776
33332,17209,27721
33192,17258,27702
33052,17265,27623
33040,17297,27845
33229,17301,27813
33364,17239,27815
33423,17217,27820
33424,17180,27741
33398,17189,27732
33336,17237,27665
33236,17215,27813
33100,17270,27812
33000,17270,27687
33086,17271,27829
33184,17281,27844
33284,17249,27697
33406,17252,27880
33484,17178,27859
33452,17199,27741
33320,17182,27844
33125,17222,27724
32984,17277,27839
32952,17263,27692
33053,17285,27944
33164,17323,27732
33248,17238,27956
33333,17223,27876
33372,17168,27954
33304,17180,27886
33214,17236,27957
33128,17208,27903
33004,17265,27876
32968,17261,27829
32909,17287,27753
32992,17307,27861
33088,17228,27885
33156,17224,27876
33232,17168,27896
33248,17184,27844
33216,17180,27817
33120,17219,27711
32980,17229,27937
32824,17269,27729
32744,17333,27936
32812,17257,27861
32960,17269,27729
33144,17190,27806
33292,17221,27671
33232,17168,27908
33192,17215,27837
33108,17204,27757
32996,17253,27821
32880,17326,27815
32796,17259,27784
32880,17284,27636
32957,17215,27847
33124,17201,27766
33152,17238,27781
33104,17178,27740
33049,17231,27572
32920,17191,27701
32838,17271,27750
32776,17268,27557
32692,17298,27780
32832,17259,27628
32948,17210,27703
33026,17192,27769
33088,17221,27700
33145,17159,27627
33096,17188,27605
33006,17272,27549
32884,17229,27588
32760,17245,27492
32700,17260,27697
32806,17263,27588
32924,17204,27697
32924,17199,27556
32964,17176,27669
32924,17202,27503
32844,17167,27559
32797,17220,27479
32720,17215,27567
32654,17261,27492
32724,17252,27516
32844,17237,27553
32960,17202,27480
33052,17187,27631
33120,17174,27480
33068,17228,27717
32868,17166,27636
32720,17175,27476
32696,17231,27688
32696,17277,27655
32572,17241,27492
32629,17260,27532
32798,17204,27647
32924,17209,27511
32980,17146,27609
32964,17217,27623
32876,17167,27474
32720,17236,27670
32665,17228,27623
32612,17287,27452
32668,17250,27509
32828,17266,27551
32929,17193,27630
32932,17199,27440
32985,17135,27461
33004,17161,27649
32948,17214,27497
32860,17188,27551
32669,17253,27598
32545,17231,27613
32532,17222,27616
32632,17244,27628
32740,17183,27615
32888,17180,27618
32929,17136,27459
33000,17145,27480
32952,17215,27592
32806,17185,27692
32640,17263,27695
32560,17239,27580
32640,17260,27644
32725,17206,27503
32861,17192,27589
32880,17201,27708
32956,17141,27652
32925,17166,27703
32836,17140,27620
32692,17191,27575
32623,17242,27612
32613,17211,27740
32600,17263,27757
32656,17217,27765
32764,17234,27762
32912,17159,27620
33044,17116,27636
32992,17135,27630
32900,17127,27668
32800,17169,27901
32632,17236,27813
32565,17207,27852
32556,17220,27700
32632,17190,27704
32720,17199,27748
32868,17139,27879
32932,17156,27904
32933,17108,27908
32812,17150,27780
32668,17207,27782
32560,17188,27927
32461,17248,27888
32492,17223,27852
32588,17241,27967
32700,17189,27813
32808,17133,27870
32845,17132,27968
32844,17105,27908
32753,17157,27966
32608,17142,28006
32577,17195,27858
32524,17191,28073
32496,17242,27972
32528,17207,27969
32660,17157,28006
32772,17172,28031
32848,17125,28036
32836,17156,27903
32725,17130,28084
32639,17212,28027
32540,17183,28044
32445,17231,27905
32416,17195,28071
32480,17193,28031
32630,17150,28055
32797,17132,27943
32880,17099,28063
32858,17106,28079
32813,17111,27908
32652,17145,28156
32528,17209,28048
32386,17203,28106
32400,17233,28108
32512,17188,27994
32660,17190,28195
32752,17141,28092
32816,17161,28149
32804,17092,28030
32720,17148,28142
32668,17134,28185
32528,17210,28028
32436,17194,28127
32480,17228,28141
32616,17166,28217
32752,17189,28044
32804,17126,28189
32898,17141,28317
32816,17089,28216
32716,17127,28273
32508,17116,28118
32256,17169,28311
32143,17180,28228
32228,17185,28315
32292,17212,28183
32332,17149,28356
32364,17156,28295
32421,17101,28345
32464,17127,28173
32472,17108,28340
32384,17159,28271
32332,17145,28397
32204,17180,28327
32154,17225,28319
32184,17155,28244
32237,17152,28511
32320,17120,28450
32352,17122,28319
32237,17077,28526
32097,17113,28462
31916,17106,28294
31784,17150,28453
31696,17195,28494
31620,17167,28415
31692,17164,28464
31756,17167,28516
31852,17149,28576
31976,17069,28543
31964,17078,28353
31956,17127,28465
31965,17103,28575
31956,17165,28529
31986,17156,28380
32044,17175,28628
32160,17194,28554
32410,17127,28396
32648,17126,28505
32868,17063,28487
32932,17069,28601
32924,17108,28473
32912,17105,28504
32908,17181,28655
32808,17151,28615
32752,17186,28608
32872,17210,28584
33056,17124,28717
33160,17084,28666
33172,17082,28536
33100,17060,28652
32972,17085,28471
32876,17146,28573
32836,17141,28663
32768,17143,28732
32796,17162,28634
32904,17136,28660
33078,17121,28686
33180,17078,28509
33256,17069,28557
33208,17055,28745
33144,17090,28708
33070,17157,28620
32972,17129,28712
32896,17186,28548
32856,17156,28613
32920,17127,28628
33144,17119,28812
33224,17068,28731
33220,17081,28669
33164,17046,28799
33104,17073,28804
32976,17081,28813
32888,17164,28813
32824,17151,28653
32820,17194,28734
32889,17145,28909
32952,17100,28927
33004,17080,28856
33108,17117,28847
33086,17068,28864
33010,17052,28690
32952,17086,28759
32817,17109,28903
32716,17145,28863
32752,17189,28878
32828,17133,28904
32928,17097,28922
32988,17079,28724
33072,17047,28777
33040,17061,28997
32892,17111,28969
32892,17095,28868
32732,17104,28911
32592,17149,28822
32656,17209,28790
32726,17135,28871
32742,17155,28953
32505,17072,28997
31920,17037,28880
31184,17059,28844
30496,17048,28884
29972,17092,28919
29608,17100,28910
29420,17161,28715
29590,17133,28756
29768,17106,28783
29944,17107,28969
30240,17071,28985
30480,17034,28940
30441,17047,28872
30092,17039,28868
29620,17093,28897
29541,17101,28901
29684,17110,28897
30550,17140,28712
33032,17110,28700
36292,17081,28689
38732,17060,28756
40032,17031,28751
40556,17060,28768
40632,17047,28816
40436,17152,28905
40144,17118,28876
40040,17219,28814
40124,17132,28893
40200,17101,28895
40152,17127,28932
39888,17088,28932
39400,17031,28951
38744,17055,28948
37976,17044,28949
37300,17094,28852
36640,17092,29036
36020,17171,28980
35412,17139,28882
34876,17108,28989
34404,17109,28816
33976,17056,28823
33594,17031,28836
33180,17087,28837
32712,17057,28915
32248,17063,29132
31828,17119,28959
31468,17116,29079
31336,17163,29087
31208,17118,28947
31148,17126,29124
31172,17060,29165
31140,17028,29079
31072,17052,29029
30981,17039,29129
30852,17104,29176
30674,17109,29175
30518,17117,29055
30544,17132,29141
30552,17103,29283
30573,17112,29120
30680,17068,29124
30734,17028,29220
30724,17060,29231
30644,17057,29047
30552,17125,29124
30400,17100,29158
30284,17167,29279
30356,17135,29273
30432,17147,29289
30565,17089,29119
30680,17090,29207
30696,17038,29276
30668,17068,29412
30544,17042,29261
30504,17077,29200
30588,17100,29164
30668,17131,29260
30638,17123,29257
30664,17124,29351
30680,17087,29489
30496,17068,29288
30326,17072,29412
30361,17029,29293
30400,17049,29473
30364,17115,29310
30304,17095,29436
30220,17159,29428
30204,17125,29297
30272,17151,29329
30408,17093,29527
30492,17092,29372
30621,17037,29450
30636,17058,29268
30516,17047,29326
30389,17080,29324
30229,17164,29501
30144,17138,29447
30148,17164,29420
30189,17113,29447
30280,17111,29233
30384,17061,29315
30364,17058,29511
30278,17093,29367
30132,17059,29401
29968,17113,29429
29853,17103,29221
29776,17162,29292
29792,17135,29300
29808,17143,29397
29852,17135,29317
29972,17071,29412
30020,17069,29199
29992,17045,29302
29832,17081,29452
29672,17083,29349
29444,17127,29296
29232,17173,29397
29200,17141,29202
29268,17140,29361
29308,17149,29380
29364,17076,29340
29406,17083,29372
29284,17047,29388
29144,17078,29202
28980,17114,29411
28860,17125,29262
28724,17141,29372
28608,17158,29237
28636,17149,29346
28728,17113,29355
28818,17092,29357
28892,17116,29156
28845,17063,29201
28696,17124,29417
28548,17113,29231
28384,17154,29325
28256,17151,29134
28343,17164,29391
28540,17168,29298
28654,17116,29158
28800,17103,29359
28896,17101,29265
28964,17069,29130
28984,17085,29175
28928,17131,29256
28924,17135,29100
28952,17188,29164
29086,17161,29269
29244,17170,29223
29392,17165,29082
29664,17094,29258
29944,17094,29207
30102,17087,29106
30130,17124,29115
30176,17107,29190
30264,17156,29055
30378,17211,29253
30616,17199,29108
30944,17199,29152
31324,17149,29014
31644,17140,29240
31856,17092,29107
32037,17119,29156
32268,17100,29011
32520,17136,29233
32586,17214,29143
32697,17188,28985
32951,17194,29224
33216,17202,29147
33568,17238,29018
33936,17121,29231
34212,17119,29135
34376,17191,29005
34426,17139,29168
34508,17137,29093
34554,17191,29117
34528,17266,29028
34672,17211,29058
34876,17210,29145
35108,17169,29024
35300,17140,29155
35452,17129,29049
35560,17167,28999
35520,17120,29097
35312,17173,29176
35232,17235,29152
35336,17204,28981
35481,17228,29149
35564,17258,29159
35681,17183,29049
35772,17179,29272
35772,17154,29188
35788,17125,29212
35720,17159,29009
35629,17166,29164
35600,17218,29285
35560,17278,29180
35520,17222,29233
35548,17245,29156
35617,17213,29137
35776,17229,29236
35868,17143,29292
35748,17147,29229
35616,17169,29132
35472,17222,29268
35380,17210,29284
35316,17255,29287
35380,17245,29110
35440,17246,29340
35464,17212,29293
35460,17191,29328
35576,17221,29218
35477,17159,29338
35412,17198,29412
35240,17191,29383
34992,17250,29394
34860,17308,29292
34880,17269,29469
34900,17307,29453
34968,17233,29297
34940,17239,29456
34968,17170,29564
34796,17189,29541
34892,17230,29437
34684,17212,29565
34692,17257,29569
34532,17264,29645
34432,17276,29652
34636,17289,29684
34677,17276,29519
34716,17212,29825
34692,17196,29655
34732,17198,29600
34548,17196,29756
34480,17244,29728
34416,17280,29833
34264,17273,29858
34236,17304,29804
34232,17301,29740
34356,17249,29852
34520,17252,30055
34648,17199,29952
34428,17219,29863
34296,17273,29948
34176,17237,30153
34124,17287,30143
34018,17331,30125
33980,17306,30282
34004,17314,30208
34048,17261,30063
34100,17260,30356
34160,17258,30298
34157,17237,30113
34128,17263,30327
33933,17246,30348
33760,17292,30404
33696,17324,30304
33756,17377,30535
33828,17318,30411
33976,17331,30487
34056,17248,30402
34028,17236,30491
33908,17244,30316
33736,17262,30615
33592,17259,30458
33568,17303,30352
33504,17345,30528
33420,17373,30467
33472,17308,30420
33608,17311,30615
33784,17260,30432
33864,17265,30405
33777,17275,30429
33704,17245,30551
33648,17291,30516
33632,17303,30363
33704,17347,30546
33692,17388,30356
33512,17340,30252
33564,17350,30361
33768,17275,30284
33812,17293,30381
33568,17262,30357
33484,17299,30213
33293,17280,30325
33221,17332,30274
33218,17343,30282
33212,17396,30244
33312,17357,30031
33544,17316,30103
33500,17303,30252
33476,17263,30136
33676,17285,30140
33516,17288,29915
33284,17296,29956
33278,17356,30000
33208,17353,30119
33172,17409,29946
33244,17363,29944
33409,17324,29940
33526,17308,29828
33604,17271,29920
33608,17285,29892
33520,17335,29743
33396,17320,29922
33372,17383,29720
33288,17376,29748
33188,17372,29692
33173,17400,29714
33264,17356,29734
33292,17383,29518
33404,17294,29710
33492,17281,29628
33404,17305,29637
33228,17314,29639
33104,17363,29484
33050,17373,29590
33116,17397,29496
33228,17371,29424
33332,17380,29440
33428,17321,29540
33533,17348,29613
33524,17289,29533
33448,17327,29374
33360,17327,29599
33242,17375,29492
33121,17431,29381
33108,17391,29439
33213,17413,29487
33204,17358,29273
33348,17348,29504
33436,17380,29445
33444,17310,29313
33302,17347,29490
33228,17340,29436
33132,17393,29304
33020,17445,29460
33025,17404,29396
33132,17408,29289
33209,17413,29293
33268,17347,29399
33349,17378,29254
33340,17319,29425
33292,17384,29364
33222,17360,29238
33104,17447,29232
33012,17417,29263
33080,17413,29362
33108,17413,29242
33212,17452,29305
33160,17349,29294
33292,17366,29189
33268,17316,29285
33216,17348,29156
33120,17409,29359
32992,17412,29182
32873,17460,29255
32796,17420,29340
32788,17429,29256
32932,17441,29087
33081,17373,29127
33280,17356,29184
33364,17325,29254
33408,17360,29121
33312,17406,29333
33152,17391,29236
33064,17429,29121
32992,17425,29287
32884,17424,29248
32928,17442,29244
32956,17358,29078
33050,17336,29239
33108,17367,29102
33073,17344,29312
32960,17405,29255
32820,17399,29271
32653,17459,29340
32740,17433,29270
32924,17444,29160
33020,17398,29376
33080,17407,29286
33192,17343,29188
33217,17379,29364
33124,17351,29313
33036,17415,29175
32896,17428,29279
32792,17519,29311
32828,17461,29237
32920,17423,29205
33084,17443,29313
33208,17383,29213
33160,17382,29216
33073,17340,29102
32968,17375,29372
32848,17376,29283
32870,17427,29090
32804,17435,29285
32776,17483,29165
32916,17427,29073
33004,17443,29229
33088,17384,29162
33116,17408,29247
33061,17354,29175
32977,17405,29163
32948,17385,29086
32897,17468,29250
32816,17440,29181
32732,17501,29002
32749,17447,29084
32904,17415,29163
33024,17399,28949
33148,17439,29105
33136,17372,28983
33036,17425,29129
32944,17399,29092
32852,17449,29137
32708,17447,29081
32649,17474,29015
32752,17439,28972
32850,17444,28860
33028,17385,29072
33141,17377,28997
33108,17408,29063
33048,17367,28977
32896,17445,28857
32772,17449,28857
32680,17471,28754
32612,17487,28925
32736,17492,28716
32904,17425,28911
33008,17420,28733
33044,17374,28820
33036,17380,28675
32928,17457,28859
32807,17414,28655
32708,17476,28764
32624,17457,28645
32584,17484,28669
32692,17504,28583
32844,17445,28669
32940,17399,28725
33040,17399,28743
33004,17364,28698
32936,17422,28551
32808,17405,28568
32632,17460,28518
32476,17511,28630
32516,17468,28606
32648,17477,28628
32812,17437,28575
32924,17423,28565
33017,17433,28527
32980,17376,28575
32920,17425,28594
32796,17421,28537
32688,17465,28487
32624,17471,28462
32624,17486,28321
32676,17501,28407
32776,17435,28329
32844,17436,28373
32900,17422,28391
32868,17380,28467
32736,17404,28311
32680,17416,28452
32718,17464,28279
32628,17550,28461
32516,17483,28239
32541,17497,28415
32676,17447,28412
32748,17442,28428
32768,17391,28380
32848,17398,28403
32826,17415,28390
32652,17466,28447
32444,17450,28386
32352,17507,28354
32536,17535,28372
32765,17484,28308
32896,17468,28346
32964,17505,28239
32872,17408,28282
32788,17439,28155
32772,17405,28231
32797,17443,28156
32604,17524,28338
32564,17501,28196
32652,17543,28117
32804,17476,28324
32862,17468,28141
32900,17466,28328
33009,17404,28071
32996,17417,28241
32912,17453,28081
32924,17431,28231
32796,17480,28055
32628,17541,28135
32520,17501,28036
32644,17508,28250
32700,17527,28167
32724,17459,28148
32817,17440,28148
32868,17457,28132
32844,17417,27944
32680,17453,28181
32593,17519,28106
32496,17498,28156
32464,17525,28092
32621,17509,28124
32732,17524,28063
32800,17440,27991
32912,17436,27993
32930,17412,27885
32836,17444,27919
32740,17495,28000
32624,17474,27847
32600,17523,27868
32623,17538,27809
32645,17549,27902
32728,17479,27828
32812,17474,28007
32910,17477,27951
32840,17420,27925
32601,17442,27915
32424,17522,27773
32332,17494,27929
32288,17582,27932
32245,17512,27825
32308,17511,27892
32420,17529,27766
32464,17453,27831
32468,17437,27777
32524,17461,27884
32544,17431,27758
32488,17473,27897
32292,17490,27770
32165,17524,27949
32064,17540,27941
32080,17549,27927
32160,17485,27946
32236,17485,27881
32190,17430,27908
32144,17439,27791
32028,17500,28023
31848,17456,27797
31748,17510,27944
31696,17510,27868
31660,17530,27929
31744,17551,27952
31920,17484,27840
32052,17472,28001
32228,17487,28006
32244,17428,28012
32208,17462,28033
32200,17508,28057
32192,17499,28031
32208,17530,28076
32388,17524,27892
32614,17525,27929
32784,17485,27960
32944,17470,27864
33096,17437,28092
33200,17450,28028
33228,17476,27893
33193,17465,27919
33093,17517,28029
32982,17526,28076
32940,17543,28012
33020,17554,28023
33133,17491,28008
33196,17486,27918
33284,17471,27983
33238,17429,27877
33140,17463,27974
33012,17493,28012
32940,17548,27956
32968,17524,27957
33032,17548,27930
33045,17569,27836
33153,17495,27920
33152,17469,27941
33244,17453,27898
33248,17474,27885
33172,17442,27710
33072,17489,27842
32948,17531,27839
32952,17527,27687
32904,17535,27751
32996,17529,27679
33136,17543,27782
33244,17466,27652
33324,17458,27745
33314,17487,27638
33260,17451,27740
33168,17493,27617
33052,17585,27769
32913,17524,27756
32868,17540,27781
32896,17565,27757
32996,17509,27589
33128,17524,27809
33284,17452,27745
33232,17455,27606
33124,17502,27631
33065,17476,27736
32928,17532,27588
32732,17527,27790
32812,17541,27706
32912,17575,27549
33040,17497,27757
33052,17490,27733
33000,17473,27748
32988,17433,27717
32916,17445,27601
32844,17484,27620
32768,17551,27733
32701,17527,27731
32568,17557,27616
32357,17548,27574
31824,17500,27778
31072,17491,27652
30540,17457,27644
30228,17484,27628
29848,17457,27742
29724,17495,27607
29764,17501,27655
29671,17540,27725
29756,17583,27583
29884,17522,27775
29897,17546,27695
29660,17469,27741
29261,17480,27588
29100,17446,27583
29264,17478,27759
29712,17471,27705
31284,17515,27720
34472,17575,27664
37616,17541,27600
39660,17570,27712
40644,17497,27552
41140,17483,27752
41228,17535,27704
40989,17434,27541
40756,17470,27748
40736,17545,27698
40756,17503,27596
40596,17550,27684
40324,17598,27599
40000,17535,27567
39452,17557,27643
38928,17471,27664
38480,17476,27724
37836,17509,27548
37132,17460,27575
36376,17529,27646
35668,17505,27722
34908,17546,27566
34256,17535,27757
33648,17545,27597
33268,17506,27725
32984,17489,27580
32660,17503,27702
32458,17447,27582
32000,17499,27663
31620,17489,27631
31240,17542,27719
31000,17537,27757
30892,17553,27631
30896,17531,27728
30958,17535,27604
31000,17475,27728
30984,17468,27640
30950,17440,27565
30824,17479,27697
30672,17489,27789
30656,17536,27749
30524,17535,27595
30528,17554,27813
30540,17597,27672
30606,17521,27783
30704,17527,27621
30844,17455,27720
30872,17458,27800
30796,17511,27695
30612,17491,27708
30388,17546,27824
30244,17536,27793
30256,17565,27756
30356,17535,27877
30468,17503,27890
30528,17506,27753
30692,17471,27748
30748,17447,27943
30652,17476,27874
30312,17484,27977
30204,17532,27837
30232,17538,27865
30228,17572,27983
30154,17532,27978
30176,17533,28068
30412,17480,27953
30616,17492,28161
30501,17449,28012
30424,17480,28142
30428,17480,28036
30253,17525,28175
30096,17594,28211
30181,17554,28070
30220,17542,28256
30236,17551,28256
30372,17489,28160
30492,17437,28380
30404,17455,28236
30236,17460,28354
30082,17493,28227
29956,17513,28389
29877,17548,28335
29796,17582,28423
29836,17541,28303
29969,17532,28514
30100,17479,28461
30168,17487,28500
30117,17451,28521
30012,17458,28535
29824,17499,28428
29612,17514,28647
29500,17559,28604
29368,17550,28632
29285,17553,28530
29373,17511,28730
29564,17495,28720
29600,17489,28620
29508,17463,28660
29292,17495,28877
29192,17487,28764
29013,17545,28896
28760,17543,28805
28669,17565,29041
28630,17535,29028
28720,17531,28913
28704,17538,29110
28652,17473,29119
28545,17479,29036
28468,17468,29108
28449,17494,29065
28319,17554,29255
28160,17544,29329
28121,17560,29424
28136,17540,29364
28105,17529,29456
28160,17497,29326
28188,17460,29558
28108,17468,29480
28098,17493,29431
28028,17490,29730
27956,17528,29703
27796,17544,29604
27836,17558,29849
27952,17542,29765
28152,17534,29878
28240,17488,29901
28432,17488,29876
28596,17459,30014
28610,17508,30064
28520,17508,30195
28472,17525,30119
28548,17572,29995
28700,17566,30148
28916,17583,30200
29188,17518,30119
29420,17511,30388
29770,17458,30312
29972,17482,30456
30028,17468,30397
30124,17519,30628
30292,17521,30596
30500,17591,30518
30789,17567,30762
31132,17579,30703
31376,17517,30660
31768,17509,30693
32148,17515,30655
32444,17465,30966
32733,17511,30908
32773,17493,30792
32924,17561,31108
33128,17545,31076
33328,17577,30996
33648,17545,31278
34016,17543,31200
34336,17489,31062
34694,17481,31413
34912,17459,31365
34984,17479,31320
35028,17586,31505
35060,17543,31293
34984,17603,31684
35036,17553,31639
35244,17559,31764
35460,17570,31751
35720,17488,31885
35936,17496,31833
35936,17457,31696
35892,17489,32013
35916,17490,32049
35800,17543,32092
35768,17550,32104
35704,17569,32196
35696,17605,32229
35864,17525,32358
36000,17535,32511
36052,17476,32468
36140,17504,32437
36136,17472,32508
36040,17517,32620
35966,17577,32737
35864,17550,32852
35784,17575,32868
35788,17549,32892
35804,17540,32951
35904,17522,33021
35876,17518,33111
35888,17455,33238
35876,17481,33325
35876,17516,33479
35692,17607,33287
35556,17567,33639
35500,17599,33599
35506,17537,33745
35660,17545,33701
35768,17543,33728
35868,17469,33726
35836,17488,33720
35652,17535,33881
35432,17495,33969
35300,17552,34009
35216,17601,34085
35116,17557,34212
35148,17561,34261
35196,17560,34363
35376,17490,34355
35440,17465,34486
35324,17472,34653
35240,17508,34612
35045,17494,34618
34908,17542,34639
34796,17607,34625
34748,17558,34937
34820,17580,34904
34880,17524,34880
34864,17515,34908
34904,17516,34916
34840,17468,35241
34732,17519,35157
34656,17498,35148
34544,17539,35197
34440,17597,35079
34508,17558,35508
34532,17553,35436
34553,17556,35452
34556,17497,35553
34588,17487,35612
34588,17535,35672
34470,17478,35656
34300,17511,35677
34360,17588,35839
34204,17561,35864
34228,17587,35829
34302,17599,35815
34317,17524,35918
34397,17492,35921
34452,17490,35828
34392,17501,36157
34324,17475,36204
34137,17533,36164
34056,17527,36426
33985,17571,36327
33984,17564,36304
33896,17575,36449
34004,17572,36461
34124,17488,36636
34276,17480,36588
34294,17490,36729
34144,17525,36661
34036,17497,36719
33885,17538,36666
33693,17553,36813
33616,17569,36845
33652,17621,36900
33888,17544,36918
34029,17519,37000
34164,17470,36913
34180,17475,37068
34005,17528,37117
33840,17504,37057
33708,17554,36893
33610,17612,37383
33708,17573,37279
33718,17596,37028
33680,17540,37421
33597,17545,37420
33672,17489,37477
33784,17513,37440
33844,17478,37458
33748,17543,37634
33560,17526,37668
33400,17572,37661
33324,17559,37574
33492,17572,37925
33704,17606,37780
33916,17515,37581
33952,17547,37970
33864,17484,37879
33728,17525,37665
33540,17503,38151
33412,17569,38039
33328,17551,38103
33176,17581,38080
33064,17597,37958
33236,17537,38383
33644,17559,38220
33848,17490,38249
33889,17482,38262
33704,17553,38319
33533,17502,38382
33428,17545,38284
33320,17600,38457
33312,17572,38532
33404,17605,38404
33492,17529,38707
33532,17551,38604
33486,17475,38585
33460,17502,38785
33421,17476,38660
33397,17509,38629
33256,17562,38653
33045,17557,38614
32960,17565,38706
33196,17572,38472
33496,17533,38951
33745,17518,38847
33752,17511,38911
33664,17467,38880
33568,17500,38836
33280,17535,38913
33172,17533,38984
33220,17573,39117
33336,17599,39026
33360,17551,39089
33552,17555,39036
33668,17524,39023
33476,17477,39096
33404,17491,39129
33352,17509,39248
33128,17583,38792
33044,17547,39280
33020,17559,39205
32996,17587,39264
33132,17574,39252
33468,17577,39303
33768,17502,39232
33688,17510,39284
33412,17465,39286
33185,17498,39249
32888,17500,38967
32880,17543,39473
32828,17595,39359
32796,17567,39412
32809,17563,39338
32817,17556,39365
32824,17502,39348
33049,17478,39060
33196,17488,39583
33320,17479,39460
33072,17519,39423
32860,17582,39508
32749,17565,39505
32664,17623,39447
32708,17550,39382
32916,17543,39336
33176,17537,39420
33308,17471,39226
33138,17480,39701
32997,17532,39590
32900,17509,39536
32804,17551,39617
32764,17611,39604
32560,17567,39685
32620,17571,39636
32800,17532,39615
33064,17513,39518
33124,17473,39645
33140,17494,39576
33104,17477,39711
33008,17519,39667
32957,17535,39637
32832,17585,39664
32668,17629,39681
32669,17565,39337
32933,17602,39815
32980,17513,39684
32784,17525,39604
32764,17483,39814
32680,17519,39419
32716,17504,39906
32676,17559,39815
32596,17636,39904
32586,17565,39852
32668,17571,39965
32749,17539,39508
32844,17548,40028
32960,17479,39959
32793,17490,40071
32704,17514,39992
32620,17506,40035
32500,17545,40084
32412,17602,40071
32420,17566,40247
32608,17560,40138
32756,17550,40237
32972,17543,40189
32848,17476,40215
32832,17495,40208
32872,17501,40364
32748,17552,40321
32448,17540,40500
32368,17581,40381
32332,17605,40413
32468,17551,40364
32647,17549,40088
32792,17534,40657
32836,17477,40577
32773,17487,40556
32736,17484,40620
32637,17515,40687
32544,17575,40844
32436,17560,40791
32460,17595,40889
32608,17633,40793
32685,17535,40960
32676,17519,40929
32724,17527,40967
32852,17472,40906
32844,17502,40633
32688,17507,41260
32632,17546,41149
32424,17637,41135
32436,17590,41096
32545,17635,41253
32548,17549,41249
32680,17500,41268
32828,17511,41372
32852,17469,41500
32724,17504,41445
32640,17504,41404
32620,17548,41476
32500,17619,41521
32397,17579,41700
32592,17592,41196
32724,17530,41716
32768,17535,41700
32812,17478,41860
32693,17478,41765
32784,17567,41876
32812,17511,41836
32602,17577,41809
32472,17570,41853
32524,17597,41932
32664,17561,42108
32724,17546,42025
32885,17570,41924
32852,17485,42236
32780,17553,42087
32676,17501,41782
32617,17539,42246
32600,17539,42199
32440,17585,42404
32408,17610,42308
32380,17561,42426
32397,17549,42316
32660,17555,42153
32680,17490,42429
32768,17507,42324
32788,17481,42287
32660,17524,42653
32596,17539,42416
32372,17583,42583
32476,17647,42559
32500,17583,42591
32708,17576,42297
32912,17503,42708
32952,17493,42356
32796,17511,42895
32772,17485,42876
32640,17542,42835
32728,17535,42759
32720,17591,42580
32660,17568,43040
32640,17572,42924
32704,17585,42725
32772,17510,43109
32820,17509,43180
32836,17476,43124
32856,17525,43241
32764,17505,43319
32472,17564,43320
32336,17569,43260
32288,17612,43444
32488,17563,43464
32628,17555,43517
32788,17556,43543
32832,17485,43500
32772,17500,43516
32597,17536,43596
32376,17533,43385
32328,17585,43769
32304,17573,43884
32188,17593,43856
32173,17608,43911
32248,17543,43936
32248,17519,44037
32484,17503,43935
32628,17479,43958
32488,17493,43952
32306,17532,44069
32069,17612,43848
32000,17589,44225
32252,17605,44301
32305,17564,44125
32281,17567,44236
32268,17543,44024
32336,17486,44383
32264,17505,44412
32220,17520,44295
32132,17514,44296
32028,17545,44116
31816,17599,44455
31640,17580,44472
31812,17579,44391
31961,17599,44461
32196,17515,44564
32192,17498,44522
32212,17519,44568
32160,17493,44385
32028,17543,44589
31904,17541,44598
31976,17591,44376
32064,17579,44639
32334,17587,44652
32608,17575,44524
32864,17509,44544
33166,17499,44671
33440,17476,44589
33300,17516,44620
33168,17511,44693
33088,17555,44628
32812,17628,44599
32800,17584,44388
33040,17599,44733
33248,17543,44774
33286,17542,44534
33252,17485,44660
33180,17496,44768
33204,17540,44731
33288,17533,44677
33116,17590,44788
32984,17570,44789
33056,17589,44839
32992,17598,44789
33006,17628,44544
33140,17525,44704
33261,17529,44517
33281,17478,44861
33252,17511,44889
33180,17559,44797
33040,17543,44900
32928,17594,44764
33000,17580,44855
33056,17593,44951
33269,17542,44788
33448,17543,44796
33504,17535,44964
33438,17479,44935
33284,17513,44982
33040,17515,44871
32984,17573,44825
32876,17626,44644
32868,17588,44964
32977,17649,44981
33053,17544,44916
33172,17543,44888
33230,17493,44609
33196,17508,44973
33068,17492,44988
32892,17556,44628
32836,17549,44950
32820,17588,44989
32828,17585,44892
32852,17595,44820
32976,17600,44956
33128,17511,44905
33236,17508,44935
33216,17524,44880
33128,17492,44545
32997,17541,44856
32884,17549,44868
32596,17596,44693
32572,17638,44733
32604,17579,44636
32700,17575,44646
32538,17519,44405
32100,17505,44713
31488,17479,44712
30716,17529,44324
29984,17532,44616
29465,17584,44620
29088,17583,44441
29012,17598,44474
29304,17575,44532
29552,17561,44375
29710,17552,44440
29869,17486,44374
29816,17486,44375
29536,17525,44261
29188,17511,44216
29272,17542,44156
30040,17589,44158
32344,17583,44080
35609,17572,44039
38116,17553,43904
39892,17573,43858
40920,17484,43519
41200,17516,43785
40964,17557,43800
40416,17516,43590
39992,17589,43668
39772,17573,43638
39828,17585,43460
40156,17588,43527
40420,17569,43468
40404,17596,43392
40164,17501,43201
39852,17526,43303
39040,17494,43184
38296,17543,42912
37584,17628,43143
36900,17600,42896
36248,17654,42988
35596,17588,42861
35068,17605,42923
34548,17529,42823
34072,17536,42724
33544,17487,42591
33008,17513,42236
32588,17553,42463
32204,17559,42382
31892,17576,42440
31532,17596,42489
31248,17600,42388
31136,17610,42272
31180,17535,42124
31224,17525,41804
31207,17485,42307
31056,17515,42076
30736,17519,41980
30600,17570,42069
30456,17615,41893
30377,17587,41988
30408,17578,41805
30552,17564,41903
30616,17535,41630
30740,17508,41311
30768,17508,41576
30688,17500,41477
30576,17535,41392
30500,17599,41397
30340,17583,41340
30332,17609,41248
30364,17626,41193
30480,17551,41131
30626,17536,41144
30704,17541,41105
30696,17488,41135
30644,17508,40945
30516,17583,40943
30340,17559,41028
30209,17589,40879
30268,17615,40940
30436,17575,40763
30452,17559,40575
30421,17564,40775
30588,17503,40624
30600,17510,40424
30488,17492,40732
30304,17540,40502
30184,17591,40159
30145,17575,40484
30150,17592,40418
30220,17620,40340
30416,17563,40402
30532,17558,40261
30556,17496,40164
30516,17497,40308
30388,17497,40127
30216,17540,40044
30024,17597,40180
29977,17574,39967
29908,17609,40000
29872,17573,39972
29993,17566,39830
30109,17524,39876
30164,17508,39773
30204,17487,39910
30076,17508,39692
29918,17579,39352
29748,17567,39796
29625,17613,39511
29530,17605,39597
29588,17580,39311
29684,17570,39548
29696,17565,39355
29758,17504,39465
29732,17485,39413
29604,17521,39398
29512,17526,39300
29316,17584,38967
29032,17586,39324
28922,17628,39361
28980,17585,39162
29000,17582,38821
29060,17518,39263
29048,17508,39103
29008,17521,39010
28816,17503,39139
28764,17551,39001
28540,17553,38945
28460,17595,38964
28396,17623,38915
28316,17579,39025
28400,17562,38876
28404,17569,38788
28312,17505,38758
28333,17521,38791
28364,17496,38764
28285,17547,38576
28168,17549,38372
28020,17591,38791
28060,17588,38608
28180,17585,38662
28304,17580,38548
28500,17517,38501
28604,17499,38380
28652,17511,38215
28640,17506,38593
28596,17545,38444
28636,17553,38439
28620,17591,38315
28768,17631,38284
28996,17580,38211
29242,17580,37999
29488,17511,38401
29721,17496,38247
29982,17519,38172
30153,17492,38055
30304,17531,37839
30432,17546,38204
30472,17592,38071
30664,17645,37927
31042,17583,38125
31440,17585,38057
31896,17523,37961
32208,17507,37887
32508,17480,37969
32662,17519,37881
32768,17516,37908
33010,17588,37909
33140,17578,37893
33284,17597,37708
33596,17645,37816
33864,17567,37735
34152,17517,37848
34496,17526,37776
34752,17485,37704
34860,17535,37661
34785,17519,37541
34792,17589,37639
34760,17575,37639
34877,17612,37485
35112,17573,37567
35252,17563,37620
35388,17572,37471
35680,17511,37148
35812,17538,37511
35805,17501,37279
35708,17562,37374
35644,17549,37424
35616,17593,37301
35652,17585,37289
35776,17594,37229
35849,17605,37253
36032,17545,37238
36212,17526,37121
36212,17505,37236
36092,17500,37025
35948,17535,36817
35836,17613,37196
35760,17606,36943
35712,17644,37065
35716,17602,36789
35877,17549,37028
35948,17528,36943
36136,17487,36956
36076,17498,36637
35960,17496,36938
35773,17573,36880
35564,17567,36860
35440,17575,36889
35392,17612,36784
35468,17572,36964
35540,17599,36749
35608,17540,36799
35736,17559,36512
35736,17506,36856
35512,17544,36647
35396,17532,36791
35192,17545,36591
35132,17598,36796
35128,17583,36726
35192,17596,36751
35288,17548,36572
35360,17563,36802
35400,17510,36820
35392,17480,36651
35236,17511,36718
35048,17511,36644
34892,17559,36817
34721,17625,36681
34760,17593,36613
34776,17601,36812
34848,17542,36645
34812,17548,36660
34804,17482,36689
34796,17519,36765
34620,17487,36517
34625,17564,36645
34456,17565,36599
34328,17654,36730
34336,17601,36567
34464,17612,36597
34508,17548,36581
34600,17554,36629
34660,17505,36516
34596,17542,36551
34421,17516,36517
34296,17556,36471
34196,17556,36549
34048,17612,36453
33992,17577,36628
34157,17580,36524
34276,17611,36468
34228,17521,36359
34264,17502,36413
34292,17530,36384
34248,17492,36169
34096,17535,36588
33937,17542,36476
33883,17577,36431
33852,17601,36336
33924,17567,36228
33964,17553,36429
34028,17591,36432
34104,17503,36332
33992,17512,36560
33941,17484,36396
33861,17524,36358
33748,17541,36515
33696,17574,36452
33632,17617,36372
33728,17567,36572
33856,17559,36420
33952,17593,36268
34065,17490,36524
34024,17556,36348
33916,17506,36487
33808,17510,36174
33692,17553,36464
33633,17566,36400
33685,17585,36423
33721,17621,36167
33797,17543,36478
33944,17541,36335
33980,17490,36487
33840,17519,36434
33776,17481,36389
33640,17527,36279
33504,17540,36596
33492,17567,36471
33568,17589,36588
33584,17558,36460
33724,17552,36468
33817,17506,36447
33904,17497,36580
33905,17470,36428
33765,17492,36181
33572,17551,36580
33592,17551,36336
33492,17601,36437
33400,17577,36460
33423,17599,36492
33520,17534,36437
33692,17524,36368
33804,17477,36408
33784,17485,36465
33692,17481,36231
33576,17545,36391
33464,17542,36487
33408,17599,36425
33364,17581,36341
33461,17599,36535
33572,17543,36364
33636,17547,36398
33716,17476,36540
33756,17482,36359
33624,17519,36340
33470,17572,36255
33384,17543,36142
33336,17602,36464
33319,17571,36320
33412,17575,36393
33428,17531,36298
33526,17527,36417
33625,17475,36368
33552,17497,36308
33452,17478,36317
33305,17512,36295
33172,17531,36343
33080,17570,36065
33109,17589,36368
33192,17627,36060
33276,17546,36481
33444,17538,36358
33524,17471,36404
33424,17495,36300
33344,17476,36288
33252,17511,36317
33132,17531,36372
32996,17565,36295
33096,17629,36221
33120,17567,36383
33282,17524,36132
33358,17509,36488
33392,17473,36289
33354,17484,36103
33300,17470,36487
33165,17514,36340
33040,17529,36292
32980,17573,36471
33068,17573,36376
33124,17636,36317
33184,17551,36120
33268,17493,36397
33340,17492,36240
33352,17508,36348
33304,17491,36381
33124,17543,36217
32916,17535,36359
32853,17587,36454
32904,17557,36319
33014,17580,36057
33100,17542,36412
33174,17541,36207
33260,17484,36317
33268,17458,36237
33196,17510,36456
33116,17509,36191
32968,17575,36013
32876,17553,36441
32848,17590,36312
32869,17554,36031
33012,17559,36377
33152,17516,36224
33232,17472,36018
33236,17470,36325
33164,17534,36200
33016,17514,36007
32912,17577,36397
32832,17565,36245
32820,17561,36310
32900,17565,36231
32976,17525,36381
32992,17513,36247
33124,17467,35991
33224,17479,36414
33028,17543,36317
32840,17500,36229
32765,17527,36340
32663,17579,36414
32768,17567,36250
32820,17612,36196
32894,17539,36280
32944,17492,36020
33140,17482,36324
33198,17460,36305
33100,17484,36288
32932,17491,36215
32804,17542,36257
32708,17553,36276
32720,17573,35975
32748,17545,36253
32880,17565,36280
33000,17508,36287
33116,17520,36228
33157,17469,36220
33057,17468,36274
32932,17505,36271
32828,17522,36359
32673,17588,36167
32712,17554,35964
32889,17559,36170
33021,17531,36204
33034,17491,36221
32941,17485,36204
32940,17458,36148
32880,17500,36245
32848,17505,36244
32740,17519,36089
32632,17591,36265
32584,17567,36311
32668,17539,36116
32777,17562,36193
32864,17504,35903
33000,17461,36284
32968,17482,36085
32868,17469,36200
32772,17538,35925
32653,17526,36180
32572,17546,36029
32648,17569,36175
32736,17537,36132
32840,17554,36210
32892,17485,36148
32900,17510,36149
32868,17468,36268
32836,17461,36133
32740,17522,35974
32632,17533,36268
32556,17596,36102
32596,17565,36037
32701,17583,36231
32832,17524,36129
32904,17524,36047
32948,17471,36213
32940,17454,36069
32816,17477,36126
32696,17487,36136
32660,17545,36050
32557,17543,36172
32500,17619,36068
32572,17555,36135
32684,17509,35893
32804,17489,36176
32904,17453,36087
32944,17521,36020
32933,17500,36055
32764,17506,36135
32588,17513,36129
32460,17585,35904
32549,17559,36174
32576,17549,36117
32628,17522,36103
32752,17477,35988
32901,17476,36192
32921,17460,36111
32788,17459,36100
32700,17517,35821
32548,17533,36096
32412,17539,36214
32420,17575,36060
32464,17543,35832
32577,17509,36146
32636,17484,36088
32773,17444,36103
32833,17487,35865
32760,17469,35969
32724,17476,36156
32528,17556,36029
32396,17557,35999
32452,17557,36119
32457,17531,35812
32496,17552,36030
32608,17492,36086
32640,17452,36215
32613,17490,36202
32464,17469,35976
32252,17483,36078
32110,17506,36103
32016,17582,36098
31990,17564,36055
32172,17575,35964
32360,17511,36063
32496,17505,36144
32632,17444,35941
32669,17486,36037
32564,17469,35804
32449,17476,35975
32114,17516,36153
32020,17528,35893
31852,17555,36020
31808,17526,35896
31904,17521,36116
32100,17472,35934
32253,17476,35975
32232,17434,35884
31982,17484,35973
31801,17492,36037
31652,17509,35769
31608,17538,35887
31728,17539,35569
31792,17567,35757
31860,17511,35904
32012,17467,35838
32212,17492,35701
32360,17450,35753
32533,17445,35643
32500,17488,35810
32428,17497,35527
32324,17548,35556
32424,17611,35666
32689,17544,35586
32944,17573,35481
33068,17486,35413
33136,17502,35519
33134,17460,35396
33052,17504,35411
32960,17495,35450
32884,17569,35286
32816,17539,35444
32808,17535,35463
32948,17549,35268
32840,17499,35300
32972,17478,35217
33112,17444,35243
33120,17466,35116
32948,17461,35217
32820,17469,34906
32720,17520,35079
32740,17525,35194
32797,17565,35232
32832,17527,34956
32832,17543,35082
32996,17476,34776
33092,17442,34980
33125,17513,35073
33164,17455,34988
33156,17467,34716
32732,17534,34859
32584,17541,34943
32577,17539,34980
32704,17543,34785
32980,17511,34880
33092,17534,34757
33128,17460,34935
33092,17436,34758
32997,17466,34583
32896,17473,34777
32809,17559,34733
32696,17543,34729
32649,17536,34503
32724,17537,34772
32894,17498,34608
32972,17492,34645
33001,17453,34433
33012,17498,34601
33000,17460,34540
32840,17474,34512
32776,17529,34540
32640,17528,34479
32592,17572,34551
32672,17526,34464
32776,17522,34338
32964,17473,34445
33072,17493,34289
33000,17447,34376
32676,17501,34292
32036,17485,34195
31140,17554,34289
30392,17556,34228
29884,17579,34104
29572,17540,34228
29500,17559,34183
29868,17491,34069
30248,17452,34118
30408,17484,34130
30580,17462,33872
30680,17476,34164
30568,17519,33996
30260,17532,33996
29902,17573,33852
30104,17544,33860
30396,17503,33966
31254,17494,34034
33478,17450,33761
36317,17500,33865
38360,17483,33620
39392,17547,33858
39720,17544,33743
39780,17540,33774
39620,17576,33743
39532,17561,33676
39660,17517,33829
39812,17504,33637
39844,17460,33676
39784,17521,33556
39412,17492,33674
38772,17513,33620
38076,17521,33523
37344,17596,33580
36840,17580,33315
36426,17549,33376
36012,17519,33452
35592,17503,33596
35080,17463,33351
34485,17484,33452
33896,17477,33439
33320,17560,33327
32820,17533,33389
32348,17557,33485
31969,17586,33238
31662,17552,33335
31492,17542,33225
31480,17495,33373
31488,17493,33287
31244,17468,33030
31068,17511,33164
30876,17516,33276
30740,17530,33142
30648,17591,33193
30668,17573,32943
30708,17601,33105
30811,17551,33244
30894,17498,33078
31024,17488,32906
31020,17471,32982
30828,17503,33162
30780,17509,33004
30620,17578,33012
30560,17572,33005
30432,17616,32997
30402,17575,32932
30509,17543,32965
30781,17556,32796
30892,17495,32974
30808,17479,32886
30772,17513,32901
30672,17524,32704
30484,17553,32879
30380,17621,32877
30438,17602,32824
30532,17570,32845
30688,17555,32647
30709,17549,32816
30680,17513,32924
30729,17538,32727
30692,17516,32768
30604,17524,32720
30488,17592,32873
30428,17600,32621
30324,17595,32732
30320,17596,32614
30452,17563,32780
30604,17559,32652
30740,17525,32637
30733,17494,32398
30644,17551,32519
30424,17555,32634
30288,17582,32653
30112,17597,32461
30192,17630,32532
30240,17613,32308
30340,17567,32485
30396,17573,32396
30468,17526,32453
30472,17505,32201
30376,17563,32432
30212,17559,32284
30064,17579,32367
29862,17639,32330
29828,17631,32236
29980,17601,32415
30088,17622,32187
30057,17575,32236
30036,17542,32263
30008,17514,32024
29904,17560,32301
29792,17571,32293
29580,17595,32187
29456,17615,32206
29404,17661,31956
29448,17620,32083
29472,17591,32204
29586,17596,32254
29580,17543,32117
