ECG,EDA,RR
32024,38869,29100
32044,38829,29148
32184,38823,29116
32306,38806,29166
32304,38791,29149
32236,38805,29164
32184,38812,29165
32064,38845,29184
31972,38863,29280
32004,38856,29223
32064,38827,29248
32096,38845,29245
32244,38791,29313
32364,38777,29267
32349,38776,29332
32272,38788,29255
32212,38759,29223
32098,38831,29257
32008,38853,29241
32073,38828,29313
32141,38825,29257
32204,38815,29225
32300,38782,29251
32408,38727,29207
32420,38775,29260
32364,38781,29205
32288,38775,29260
32174,38814,29175
32084,38833,29177
32140,38821,29142
32193,38823,29185
32268,38812,29102
32392,38785,29134
32526,38716,29063
32528,38769,29028
32448,38772,28992
32436,38760,28976
32332,38799,29020
32264,38820,28917
32270,38814,28872
32324,38807,28922
32392,38765,28831
32540,38728,28829
32704,38749,28761
32688,38751,28716
32620,38749,28718
32592,38761,28693
32502,38765,28732
32417,38807,28631
32448,38791,28623
32548,38789,28637
32580,38782,28543
32728,38759,28584
32846,38717,28516
32864,38737,28530
32837,38756,28453
32816,38745,28503
32704,38781,28413
32608,38797,28455
32632,38801,28356
32712,38788,28404
32756,38775,28271
32900,38751,28240
33048,38727,28308
33048,38729,28222
32996,38708,28283
32928,38749,28157
32789,38789,28172
32653,38791,28079
32704,38789,28167
32764,38787,28053
32832,38743,28098
32970,38739,27982
33080,38719,28036
33060,38719,27928
32976,38724,27980
32872,38727,27861
32756,38735,27920
32632,38759,27804
32661,38740,27857
32720,38736,27732
32764,38719,27771
32880,38735,27671
32994,38717,27710
32956,38724,27581
32852,38735,27582
32738,38732,27516
32592,38751,27581
32510,38773,27494
32540,38773,27511
32596,38761,27412
32636,38763,27512
32728,38722,27380
32848,38695,27354
32884,38703,27300
32792,38719,27289
32732,38727,27295
32592,38753,27269
32512,38764,27332
32536,38770,27212
32645,38729,27209
32673,38743,27143
32768,38715,27172
32880,38700,27119
32860,38693,27108
32816,38684,27090
32780,38687,27077
32668,38738,27077
32540,38753,27084
32572,38751,27164
32624,38740,27052
32701,38740,27117
32835,38687,26993
32984,38663,26967
32948,38660,27102
32892,38695,26964
32853,38695,26945
32709,38729,26983
32592,38728,26919
32620,38729,26936
32677,38701,26938
32720,38721,26884
32845,38679,26912
32980,38655,26865
32985,38655,26860
32932,38663,26855
32848,38679,26850
32700,38708,26909
32584,38681,26877
32588,38716,26930
32620,38717,26885
32676,38704,26964
32813,38660,26831
32962,38647,26837
32980,38652,26829
32892,38657,26854
32836,38663,26895
32688,38693,26871
32564,38719,26924
32609,38703,26887
32692,38659,26869
32736,38694,26905
32850,38661,26907
32948,38629,26991
32953,38631,26951
32865,38653,27060
32802,38613,26988
32670,38663,27065
32568,38717,27001
32585,38690,27127
32656,38687,26999
32688,38668,27020
32820,38645,27084
32940,38628,27068
32920,38633,27207
32880,38645,27087
32808,38596,27087
32704,38685,27190
32616,38675,27169
32649,38652,27205
32684,38640,27151
32694,38637,27171
32788,38613,27290
32904,38596,27208
32916,38625,27228
32848,38636,27183
32821,38643,27205
32712,38663,27310
32600,38691,27177
32620,38663,27227
32694,38662,27183
32752,38657,27235
32888,38582,27180
32984,38577,27180
32956,38580,27228
32857,38617,27221
32808,38599,27317
32680,38620,27183
32580,38643,27252
32612,38663,27194
32672,38655,27201
32692,38655,27237
32832,38607,27212
32950,38587,27229
32956,38596,27236
32856,38609,27303
32812,38589,27269
32728,38661,27320
32604,38660,27306
32629,38653,27372
32690,38636,27343
32716,38629,27480
32856,38570,27373
32960,38548,27380
32928,38583,27486
32860,38580,27444
32828,38605,27557
32676,38641,27492
32588,38639,27586
32590,38633,27511
32640,38627,27564
32696,38604,27655
32809,38569,27607
32912,38572,27631
32888,38557,27663
32821,38535,27756
32768,38588,27734
32617,38630,27736
32500,38639,27741
32546,38641,27853
32624,38590,27836
32676,38627,27922
32808,38564,27877
32933,38554,27911
32910,38556,27943
32824,38569,27968
32764,38580,28018
32628,38608,28003
32516,38607,28016
32577,38629,28081
32644,38617,28092
32692,38596,28205
32808,38557,28141
32908,38543,28217
32888,38558,28204
32790,38564,28324
32748,38581,28260
32636,38607,28313
32512,38605,28327
32529,38612,28431
32596,38559,28373
32613,38607,28487
32724,38565,28436
32828,38531,28528
32808,38535,28496
32728,38548,28582
32704,38522,28539
32574,38597,28604
32500,38603,28570
32522,38598,28588
32600,38596,28619
32623,38560,28668
32752,38561,28767
32847,38524,28693
32844,38535,28736
32788,38527,28840
32744,38551,28796
32654,38573,28836
32568,38596,28829
32598,38590,28926
32652,38581,28905
32676,38570,28988
32816,38535,28948
32964,38532,29031
32972,38517,28964
32896,38534,29003
32860,38533,29029
32732,38572,29128
32616,38583,29076
32604,38574,29160
32632,38567,29114
32656,38559,29135
32760,38535,29177
32893,38509,29198
32896,38519,29277
32848,38529,29232
32777,38533,29314
32632,38578,29284
32576,38572,29366
32609,38567,29318
32680,38567,29324
32690,38548,29382
32797,38519,29383
32896,38485,29407
32916,38516,29452
32789,38505,29452
32716,38516,29531
32637,38561,29502
32556,38574,29575
32532,38572,29545
32552,38519,29596
32572,38555,29567
32728,38527,29628
32880,38492,29602
32856,38509,29632
32788,38513,29681
32720,38503,29690
32592,38551,29684
32496,38567,29684
32528,38564,29742
32604,38551,29733
32660,38545,29765
32776,38508,29796
32884,38487,29785
32864,38500,29847
32800,38471,29819
32692,38504,29885
32540,38524,29846
32464,38571,29897
32481,38535,29868
32576,38531,29902
32636,38524,29892
32765,38492,29955
32896,38468,29915
32896,38489,29944
32881,38485,29975
32836,38486,29973
32684,38520,30005
32573,38549,30001
32596,38535,30052
32656,38535,30039
32680,38513,30046
32832,38479,30102
32944,38472,30069
32956,38468,30087
32876,38485,30130
32800,38451,30122
32665,38522,30186
32540,38527,30152
32560,38519,30208
32656,38511,30174
32712,38509,30179
32820,38469,30200
32904,38463,30225
32884,38455,30233
32828,38464,30231
32736,38429,30249
32590,38513,30300
32400,38527,30284
32334,38482,30334
32268,38516,30309
32101,38501,30343
32016,38461,30332
31994,38447,30357
31876,38463,30349
31766,38467,30380
31628,38478,30364
31464,38500,30415
31428,38532,30392
31692,38508,30442
32444,38503,30404
33464,38516,30418
34724,38444,30439
36016,38468,30447
37032,38460,30468
37712,38471,30466
37972,38471,30500
37732,38513,30510
37328,38535,30516
37208,38527,30526
37172,38511,30558
37020,38505,30560
36806,38441,30609
36428,38452,30599
35868,38469,30640
35240,38469,30644
34576,38487,30663
33904,38508,30686
33360,38531,30700
33044,38519,30745
32804,38508,30772
32604,38468,30811
32472,38479,30804
32460,38444,30842
32396,38448,30852
32280,38447,30889
32208,38477,30932
32028,38497,30940
31892,38514,30976
31880,38511,30987
31904,38494,31017
31944,38487,31039
32038,38457,31052
32124,38391,31060
32072,38445,31076
32009,38441,31097
31936,38427,31092
31806,38447,31096
31736,38514,31120
31736,38497,31106
31796,38478,31125
31892,38473,31124
32040,38439,31143
32152,38433,31169
32134,38407,31158
32060,38435,31181
32024,38436,31203
31933,38481,31207
31828,38471,31218
31876,38476,31239
31938,38477,31260
31972,38463,31284
32100,38437,31285
32216,38406,31303
32184,38377,31318
32144,38407,31316
32096,38438,31348
31966,38471,31367
31864,38471,31363
31876,38468,31387
31908,38422,31372
31949,38460,31391
32096,38423,31385
32216,38391,31390
32212,38407,31388
32136,38407,31389
32104,38423,31391
32004,38467,31389
31910,38457,31391
31956,38455,31367
32036,38449,31373
32104,38407,31341
32248,38407,31340
32400,38383,31312
32409,38393,31301
32344,38375,31296
32292,38407,31273
32158,38444,31255
32116,38455,31239
32140,38447,31207
32189,38445,31187
32220,38400,31155
32364,38375,31108
32464,38375,31093
32460,38389,31060
32409,38372,31036
32404,38389,31013
32292,38444,30977
32188,38421,30961
32236,38453,30900
32310,38421,30873
32392,38429,30852
32548,38367,30812
32692,38381,30788
32724,38382,30749
32677,38377,30739
32624,38393,30689
32488,38431,30676
32412,38455,30628
32444,38443,30610
32548,38428,30562
32615,38429,30529
32734,38383,30515
32868,38373,30476
32900,38373,30444
32852,38375,30418
32814,38380,30386
32656,38428,30372
32564,38439,30329
32600,38439,30326
32680,38393,30268
32736,38390,30250
32860,38353,30207
32988,38347,30152
32980,38387,30116
32928,38389,30087
32860,38379,30046
32744,38420,30033
32646,38438,29964
32676,38428,29915
32748,38423,29917
32816,38404,29847
32912,38372,29813
33000,38353,29769
32972,38361,29764
32892,38372,29686
32817,38388,29688
32672,38429,29605
32568,38439,29549
32584,38430,29540
32632,38423,29476
32664,38407,29474
32796,38372,29405
32909,38352,29425
32900,38369,29335
32828,38381,29341
32758,38383,29273
32577,38387,29297
32456,38404,29212
32456,38428,29235
32548,38420,29124
32586,38407,29100
32720,38358,29143
32864,38356,29055
32876,38357,29049
32814,38372,28984
32748,38332,28973
32636,38380,28997
32524,38383,28925
32552,38381,28876
32644,38372,28871
32692,38375,28837
32789,38365,28856
32904,38343,28799
32916,38340,28854
32880,38348,28778
32840,38358,28823
32700,38407,28708
32586,38421,28697
32576,38407,28673
32629,38395,28656
32712,38388,28679
32848,38348,28616
32926,38322,28624
32916,38341,28612
32834,38336,28647
32765,38356,28551
32640,38388,28532
32516,38385,28522
32516,38383,28509
32592,38379,28522
32645,38375,28469
32776,38347,28490
32888,38335,28438
32860,38325,28444
32781,38338,28452
32717,38308,28420
32592,38389,28437
32528,38397,28504
32552,38384,28408
32600,38383,28448
32650,38367,28391
32772,38324,28442
32876,38308,28410
32860,38324,28494
32800,38324,28429
32740,38310,28480
32629,38367,28414
32538,38396,28435
32536,38375,28417
32600,38358,28457
32613,38348,28501
32756,38316,28469
32864,38303,28516
32856,38304,28486
32800,38311,28489
32757,38317,28571
32635,38361,28521
32516,38375,28533
32566,38368,28526
32641,38360,28551
32688,38357,28567
32784,38316,28654
32857,38292,28607
32864,38308,28671
32806,38309,28615
32712,38308,28599
32588,38349,28677
32525,38373,28623
32534,38375,28672
32600,38361,28621
32628,38351,28593
32772,38319,28629
32889,38308,28613
32854,38311,28625
32782,38310,28612
32704,38319,28628
32574,38358,28588
32484,38375,28612
32544,38364,28581
32652,38367,28554
32718,38344,28561
32846,38301,28591
32952,38294,28561
32948,38295,28536
32884,38311,28578
32780,38317,28561
32688,38336,28612
32572,38365,28561
32586,38348,28599
32644,38343,28568
32704,38327,28581
32856,38303,28645
32972,38295,28620
32945,38293,28679
32856,38286,28626
32773,38303,28646
32636,38339,28644
32568,38359,28672
32576,38344,28747
32640,38330,28709
32688,38333,28756
32812,38293,28752
32920,38276,28825
32886,38285,28788
32798,38292,28869
32736,38295,28823
32620,38335,28871
32508,38348,28855
32564,38332,28931
32612,38328,28906
32640,38308,28931
32768,38301,28958
32872,38276,29031
32852,38277,28999
32789,38271,29093
32716,38263,29064
32612,38316,29142
32514,38340,29119
32545,38330,29215
32612,38332,29176
32584,38329,29246
32714,38293,29233
32880,38272,29249
32889,38279,29300
32792,38289,29308
32712,38295,29359
32564,38319,29369
32492,38329,29397
32512,38327,29415
32584,38322,29463
32636,38317,29540
32754,38279,29519
32862,38252,29529
32864,38263,29588
32804,38270,29592
32716,38279,29650
32556,38317,29653
32456,38335,29722
32448,38324,29719
32476,38316,29750
32544,38300,29769
32692,38277,29789
32832,38255,29813
32840,38263,29820
32768,38268,29849
32704,38276,29897
32548,38311,29927
32420,38332,29975
32476,38319,29968
32572,38319,30022
32579,38310,30010
32704,38273,30047
32848,38267,30057
32866,38263,30097
32808,38260,30108
32750,38268,30148
32649,38309,30180
32548,38327,30204
32544,38316,30265
32584,38319,30253
32632,38308,30284
32744,38269,30308
32848,38243,30353
32845,38244,30351
32782,38255,30382
32725,38263,30399
32600,38300,30440
32516,38319,30447
32584,38311,30485
32641,38309,30511
32644,38273,30529
32768,38257,30552
32876,38255,30576
32844,38239,30596
32748,38260,30613
32648,38271,30652
32516,38309,30693
32381,38285,30692
32404,38322,30736
32484,38299,30772
32528,38303,30776
32656,38229,30821
32776,38255,30845
32784,38244,30889
32721,38246,30903
32680,38271,30940
32576,38306,30975
32480,38309,30988
32521,38311,31028
32612,38303,31062
32664,38307,31097
32744,38261,31125
32840,38245,31148
32864,38249,31185
32812,38260,31217
32772,38260,31263
32648,38269,31303
32566,38325,31327
32557,38301,31360
32612,38300,31392
32608,38295,31446
32716,38269,31472
32836,38244,31505
32849,38257,31550
32836,38259,31588
32796,38259,31616
32672,38300,31666
32568,38313,31703
32584,38265,31751
32604,38301,31802
32653,38300,31828
32816,38236,31871
32948,38234,31924
32956,38247,31929
32856,38244,32004
32748,38260,32031
32612,38303,32081
32473,38292,32103
32468,38295,32163
32581,38301,32212
32688,38301,32221
32864,38234,32287
32972,38225,32320
32948,38245,32383
32896,38244,32422
32796,38252,32437
32684,38296,32504
32578,38316,32522
32520,38309,32608
32460,38260,32604
32341,38279,32696
32252,38263,32735
32105,38245,32780
31936,38244,32821
31804,38244,32825
31656,38261,32903
31488,38303,32911
31276,38319,33003
31244,38308,33015
31392,38310,33085
31848,38303,33102
32817,38263,33194
34004,38261,33252
35172,38276,33287
36128,38279,33340
36816,38292,33324
37272,38316,33415
37192,38337,33436
36920,38335,33519
36676,38311,33561
36673,38327,33614
36672,38279,33628
36580,38257,33721
36228,38265,33705
35748,38273,33830
35296,38287,33885
34676,38311,33884
33992,38351,33986
33508,38343,34017
33260,38340,34116
33048,38320,34171
32908,38279,34165
32804,38276,34286
32560,38259,34335
32388,38292,34363
32228,38299,34364
32037,38285,34495
31960,38356,34573
31985,38340,34638
31984,38340,34681
31976,38303,34679
32036,38287,34773
32109,38268,34833
32064,38279,34836
31965,38279,34941
31948,38289,34882
31840,38329,35004
31752,38329,35065
31776,38329,35005
31832,38319,35130
31925,38277,35142
32085,38293,35228
32156,38279,35292
32140,38279,35320
32092,38279,35377
32048,38292,35399
31881,38331,35388
31832,38336,35486
31873,38335,35439
31953,38327,35577
31980,38320,35561
32132,38284,35702
32232,38279,35656
32196,38251,35766
32112,38297,35721
32084,38279,35877
31968,38335,35925
31900,38352,35968
31945,38341,36020
32028,38340,35974
32050,38324,36071
32150,38285,36063
32300,38244,36153
32312,38255,36110
32256,38309,36225
32212,38296,36245
32036,38343,36231
31941,38373,36340
32008,38340,36244
32084,38301,36359
32176,38350,36404
32315,38295,36353
32452,38292,36444
32424,38296,36369
32380,38305,36480
32364,38309,36480
32268,38348,36525
32180,38367,36452
32184,38325,36534
32192,38358,36433
32252,38338,36560
32380,38316,36558
32488,38303,36467
32504,38276,36552
32442,38319,36558
32369,38332,36589
32246,38365,36564
32184,38377,36444
32225,38377,36574
32333,38363,36572
32428,38357,36487
32604,38333,36540
32764,38308,36549
32780,38297,36436
32768,38340,36551
32680,38333,36547
32517,38375,36553
32448,38396,36453
32476,38403,36537
32556,38391,36468
32641,38343,36541
32712,38363,36577
32792,38326,36453
32832,38340,36545
32768,38357,36498
32708,38364,36570
32664,38407,36572
32608,38407,36572
32640,38407,36532
32704,38404,36572
32686,38407,36500
32813,38336,36551
32917,38359,36484
32876,38374,36600
32864,38386,36581
32805,38388,36596
32656,38425,36460
32548,38447,36545
32604,38441,36476
32632,38439,36524
32700,38437,36454
32880,38391,36503
33012,38383,36449
32996,38388,36537
32900,38404,36517
32812,38407,36476
32668,38457,36479
32548,38472,36473
32580,38472,36492
32628,38440,36461
32676,38455,36444
32792,38423,36354
32936,38407,36431
32937,38426,36372
32836,38433,36453
32656,38441,36417
32493,38481,36359
32388,38501,36435
32424,38498,36420
32464,38455,36380
32496,38468,36412
32592,38407,36308
32696,38439,36399
32693,38455,36418
32604,38464,36357
32552,38465,36400
32432,38511,36421
32300,38517,36417
32280,38505,36431
32324,38484,36434
32376,38505,36423
32556,38482,36332
32668,38460,36466
32620,38457,36439
32584,38477,36388
32544,38460,36445
32380,38535,36359
32317,38549,36464
32388,38535,36377
32445,38533,36480
32508,38527,36509
32646,38472,36404
32740,38460,36503
32720,38505,36461
32652,38506,36477
32624,38519,36519
32488,38561,36472
32404,38585,36520
32444,38573,36545
32504,38574,36575
32572,38575,36468
32672,38532,36605
32784,38519,36599
32776,38503,36557
32693,38527,36611
32618,38535,36655
32440,38583,36636
32320,38604,36671
32346,38573,36599
32428,38601,36740
32489,38598,36775
32632,38556,36806
32756,38549,36823
32796,38557,36764
32740,38567,36889
32656,38569,36871
32576,38623,36838
32456,38647,36986
32468,38628,36999
32492,38639,36918
32520,38628,37093
32610,38573,37116
32704,38565,37039
32684,38607,37180
32672,38578,37222
32672,38624,37161
32548,38663,37300
32481,38687,37335
32480,38684,37253
32564,38668,37408
32621,38663,37457
32736,38627,37421
32820,38615,37502
32785,38631,37462
32744,38637,37582
32668,38652,37599
32512,38690,37575
32444,38712,37671
32468,38717,37702
32520,38688,37629
32556,38677,37797
32700,38681,37828
32804,38663,37789
32782,38653,37868
32713,38687,37887
32621,38695,37941
32556,38743,37991
32466,38759,37991
32496,38757,37935
32586,38745,38020
32652,38749,38023
32785,38671,38109
32872,38708,38088
32840,38717,38167
32792,38717,38180
32694,38737,38220
32544,38778,38177
32420,38799,38296
32460,38791,38216
32528,38757,38340
32600,38773,38404
32756,38772,38393
32852,38748,38452
32812,38750,38407
32744,38775,38520
32668,38759,38509
32568,38829,38628
32452,38837,38663
32480,38832,38693
32512,38836,38759
32588,38838,38772
32716,38798,38796
32836,38785,38841
32832,38807,38897
32789,38812,38788
32737,38831,38948
32552,38829,38833
32420,38893,38976
32410,38898,38972
32493,38865,39054
32548,38879,39110
32689,38853,39111
32820,38831,39169
32804,38847,39164
32708,38871,39205
32636,38872,39118
32516,38909,39257
32416,38919,39141
32444,38934,39311
32504,38919,39296
32564,38919,39209
32704,38895,39332
32848,38888,39372
32892,38902,39343
32864,38911,39372
32764,38919,39295
32612,38970,39469
32493,38981,39436
32548,38979,39365
32588,38980,39452
32600,38983,39386
32700,38952,39549
32824,38924,39455
32792,38956,39565
32716,38957,39431
32664,38975,39586
32546,38968,39468
32438,39029,39628
32464,39037,39620
32526,39006,39653
32608,39022,39639
32745,38997,39671
32864,38980,39532
32808,38977,39695
32736,39031,39552
32676,39015,39687
32532,39076,39536
32436,39059,39660
32448,39090,39687
32512,39069,39697
32616,39081,39713
32740,39005,39556
32824,39047,39684
32796,39047,39663
32721,39060,39674
32652,39079,39631
32536,39095,39687
32420,39123,39655
32432,39094,39671
32504,39120,39550
32568,39143,39647
32713,39103,39534
32817,39092,39636
32816,39069,39637
32752,39127,39640
32700,39136,39653
32586,39175,39620
32505,39186,39621
32540,39189,39608
32592,39184,39612
32632,39149,39458
32772,39161,39540
32912,39148,39431
32878,39160,39591
32782,39173,39548
32748,39175,39552
32644,39220,39524
32520,39239,39438
32532,39240,39452
32621,39247,39337
32670,39239,39463
32821,39204,39325
32912,39211,39431
32877,39214,39295
32820,39233,39424
32788,39239,39373
32660,39277,39311
32568,39292,39324
32545,39293,39271
32600,39295,39284
32668,39303,39169
32829,39236,39244
32924,39215,39268
32916,39261,39120
32892,39249,39216
32824,39289,39198
32684,39341,39044
32608,39345,39172
32624,39309,39129
32680,39303,38981
32752,39303,39076
32900,39296,38967
33016,39271,39028
33012,39330,39004
32924,39287,38866
32888,39320,38996
32780,39389,38912
32656,39407,38919
32716,39399,38769
32781,39397,38838
32844,39397,38723
32956,39335,38766
33012,39364,38663
32892,39375,38760
32656,39391,38727
32384,39384,38701
32044,39453,38652
31788,39468,38535
31682,39471,38581
31676,39471,38484
31672,39461,38557
31708,39431,38506
31840,39420,38365
31904,39431,38477
32264,39445,38417
33028,39468,38280
33964,39519,38365
35048,39551,38244
35980,39540,38343
36636,39543,38269
37012,39547,38160
36980,39513,38201
36728,39487,38093
36456,39514,38193
36444,39534,38052
36440,39532,38095
36280,39589,38076
35908,39597,38049
35600,39580,38023
35300,39592,37925
34852,39581,37999
34500,39559,37948
34172,39559,37951
33808,39525,37833
33446,39575,37904
33118,39599,37792
32748,39637,37892
32480,39655,37871
32345,39659,37742
32316,39629,37784
32340,39631,37706
32420,39609,37780
32488,39604,37639
32456,39573,37724
32372,39577,37727
32312,39636,37588
32152,39687,37681
32044,39700,37661
32068,39684,37635
32108,39687,37604
32148,39647,37588
32300,39663,37543
32404,39623,37476
32372,39661,37442
32276,39673,37432
32244,39681,37299
32128,39724,37285
32052,39736,37317
32080,39743,37268
32156,39741,37127
32200,39748,37160
32320,39693,37074
32444,39705,37056
32494,39716,37032
32416,39725,36911
32388,39733,36986
32257,39788,36871
32176,39800,36915
32218,39807,36860
32316,39791,36788
32380,39791,36788
32504,39726,36750
32592,39758,36719
32592,39767,36628
32529,39776,36631
32460,39789,36608
32376,39836,36532
32288,39836,36479
32313,39845,36445
32420,39855,36358
32465,39828,36359
32570,39812,36270
32696,39765,36311
32692,39836,36238
32665,39823,36132
32644,39846,36108
32512,39840,35978
32404,39879,36015
32448,39909,35953
32544,39900,35821
32623,39900,35804
32764,39852,35692
32876,39855,35692
32864,39873,35615
32836,39837,35481
32768,39871,35452
32652,39912,35321
32552,39965,35324
32600,39937,35247
32672,39954,35118
32712,39959,35079
32860,39927,34951
33016,39907,34919
33040,39925,34781
32996,39935,34760
32940,39927,34625
32800,40007,34598
32708,40011,34465
32760,40010,34417
32888,40013,34341
32944,40004,34265
33076,39977,34183
33228,39975,34094
33225,39988,34005
33192,39959,33927
33160,40021,33852
33052,40058,33768
32964,40063,33684
33008,40063,33616
33096,40067,33535
33144,40017,33471
33325,40039,33380
33438,40038,33324
33470,40036,33233
33428,40045,33172
33400,40064,33093
33281,40123,33024
33196,40125,32932
33236,40128,32879
33281,40127,32813
33320,40111,32729
33444,40090,32657
33576,40044,32580
33560,40111,32509
33513,40118,32421
33472,40119,32363
33336,40164,32279
33216,40148,32210
33240,40186,32127
33280,40161,32071
33316,40168,31977
33400,40154,31913
33500,40135,31824
33448,40165,31795
33300,40173,31695
33204,40175,31649
33040,40228,31556
32908,40220,31524
32920,40245,31421
32968,40231,31382
32960,40237,31279
33060,40199,31239
33128,40185,31133
33096,40198,31086
32996,40212,30999
32924,40183,30933
32796,40271,30886
32692,40282,30864
32736,40254,30745
32801,40279,30711
32864,40271,30617
33004,40255,30569
33124,40236,30485
33106,40236,30435
33036,40257,30372
32988,40271,30389
32877,40311,30271
32748,40341,30276
32748,40327,30149
32848,40317,30155
32904,40313,30061
33036,40283,29997
33097,40277,30017
33080,40292,29886
33030,40300,29855
32964,40317,29734
32870,40363,29695
32748,40327,29729
32777,40317,29574
32856,40327,29506
32888,40327,29551
33020,40287,29408
33116,40319,29375
33108,40334,29284
33024,40335,29260
32961,40349,29285
32820,40397,29164
32704,40412,29149
32725,40418,29072
32798,40398,29103
32868,40392,28930
33004,40372,28881
33104,40367,28846
33068,40327,28815
33016,40395,28836
32976,40388,28751
32840,40436,28804
32720,40445,28633
32733,40408,28583
32806,40455,28572
32876,40455,28512
32992,40414,28480
33090,40353,28437
33084,40428,28408
33036,40416,28447
32964,40439,28347
32804,40484,28325
32668,40493,28320
32712,40485,28252
32752,40489,28245
32768,40495,28200
32892,40455,28184
33040,40445,28276
33008,40454,28175
32925,40462,28245
32844,40485,28132
32696,40519,28212
32620,40535,28052
32640,40543,28011
32734,40533,28005
32752,40519,27947
32868,40487,27940
32988,40479,27893
32964,40471,27943
32901,40508,27847
32844,40522,27917
32741,40548,27807
32608,40577,27897
32620,40514,27749
32684,40567,27751
32761,40571,27680
32896,40525,27671
32996,40519,27589
32968,40530,27527
32864,40500,27512
32804,40559,27615
32692,40596,27426
32564,40621,27413
32620,40591,27484
32681,40572,27417
32708,40604,27363
32821,40553,27367
32936,40532,27293
32960,40569,27279
32896,40567,27372
32824,40588,27155
32736,40637,27173
32620,40637,27294
32660,40599,27083
32758,40644,27095
32788,40636,27236
32896,40583,27089
32984,40564,27070
32952,40613,26981
32902,40601,27026
32852,40616,26960
32724,40628,27022
32592,40687,26932
32624,40668,26953
32660,40669,26872
32700,40659,26916
32892,40639,26847
32980,40612,26844
32980,40587,26900
32910,40647,26852
32876,40644,26932
32749,40703,26733
32654,40704,26788
32704,40709,26880
32740,40663,26676
32784,40692,26748
32852,40647,26668
32964,40652,26688
32924,40677,26728
32888,40659,26563
32844,40687,26589
32729,40676,26513
32644,40711,26571
32672,40748,26453
32760,40706,26481
32860,40718,26469
33052,40697,26429
33137,40684,26570
33108,40679,26364
32968,40701,26434
32870,40673,26343
32744,40765,26461
32668,40764,26297
32681,40757,26333
32760,40727,26173
32820,40764,26197
32894,40711,26229
32982,40711,26141
33000,40688,26208
32948,40720,26012
32920,40743,26045
32788,40756,25930
32660,40775,26032
32664,40804,25869
32716,40776,25863
32708,40782,25748
32828,40725,25798
32944,40749,25662
32948,40743,25684
32892,40748,25553
32832,40711,25556
32740,40813,25556
32668,40807,25478
32696,40822,25356
32776,40807,25371
32821,40809,25252
32936,40769,25276
33024,40759,25146
33012,40780,25260
32916,40780,25115
32840,40807,25149
32732,40834,24927
32660,40844,24986
32640,40847,24933
32698,40788,24826
32760,40839,24824
32886,40791,24852
32968,40784,24708
32968,40800,24600
32940,40810,24788
32888,40775,24589
32724,40839,24461
32604,40876,24583
32624,40852,24485
32665,40863,24407
32712,40863,24428
32832,40823,24391
32944,40821,24482
32908,40830,24274
32822,40835,24221
32776,40838,24398
32624,40879,24221
32484,40900,24154
32552,40887,24311
32620,40877,24120
32700,40877,24175
32828,40861,24124
32976,40829,24086
32960,40839,24137
32912,40839,24011
32716,40871,24071
32524,40904,24037
32498,40927,24103
32576,40904,24033
32664,40903,24220
32712,40855,24108
32800,40879,24237
32904,40831,24080
32881,40865,24084
32769,40869,24151
32688,40885,24115
32544,40920,24145
32448,40880,24261
32529,40920,24154
32596,40933,24120
32688,40909,24213
32792,40869,24228
32844,40879,24261
32800,40871,24223
32712,40887,24305
32616,40909,24262
32508,40941,24420
32433,40929,24398
32441,40893,24515
32513,40901,24460
32581,40944,24494
32720,40868,24529
32864,40871,24511
32884,40893,24727
32804,40901,24694
32664,40918,24788
32544,40903,24755
32436,40949,24749
32401,40964,24991
32472,40967,24878
32516,40949,24911
32676,40903,25124
32772,40895,25029
32776,40906,25069
32648,40893,25164
32584,40934,25185
32346,40967,25223
32138,40967,25264
31961,40967,25262
31782,40967,25480
31608,40915,25450
31552,40937,25641
31488,40929,25540
31412,40940,25555
31304,40943,25796
31252,40937,25708
31158,40978,25709
31341,40999,25984
32065,41012,25908
33109,40964,26094
34332,40989,25988
35592,40960,26127
36592,40954,26106
37180,40956,26116
37282,40967,26271
36926,40957,26236
36440,41022,26413
36136,41044,26385
36076,41021,26524
36036,41029,26494
35920,41015,26668
35812,40981,26693
35576,40959,26868
35148,40967,26815
34532,40940,26901
33877,40998,26904
33312,41025,26958
32908,40999,27022
32617,41039,27244
32442,41013,27172
32316,41015,27316
32313,40991,27295
32268,40983,27452
32176,40983,27452
32012,40983,27582
31878,40992,27521
31624,41039,27545
31511,40989,27655
31564,41047,27666
31585,41018,27797
31576,41020,27779
31712,40941,27966
31894,40980,27902
31890,40956,28012
31825,40977,28010
31785,40999,28143
31620,40997,28109
31528,41055,28234
31556,41035,28183
31622,41031,28343
31716,40983,28271
31922,40996,28423
32000,40967,28345
31976,40937,28409
31920,40967,28431
31868,41009,28572
31729,41032,28516
31581,41052,28633
31564,41041,28588
31662,41006,28693
31780,41031,28613
31925,40991,28661
32052,40981,28694
32096,40967,28736
32148,40989,28750
32110,40988,28799
31944,41042,28813
31781,41046,28914
31825,41045,28909
31808,41038,29055
31800,40967,28942
31892,41004,28966
32038,40973,28985
32116,40993,29095
32134,40999,29014
32146,41012,28994
32057,41047,29028
31917,41052,29013
31932,41043,29093
31985,41042,28975
32020,41030,28983
32064,41007,29029
32132,40987,28943
32132,40997,28899
32140,41004,28917
32167,41012,28865
32046,41063,28988
31956,41053,28845
32016,41059,28908
32104,41052,28745
32104,41031,28713
32264,41015,28747
32344,40997,28684
32344,41000,28664
32276,40999,28709
32224,41024,28562
32096,41063,28533
32000,41069,28580
32041,41045,28446
32176,41043,28397
32248,41039,28449
32390,40997,28348
32564,40996,28296
32584,40999,28440
32548,41002,28254
32472,41017,28207
32360,41061,28276
32276,41045,28212
32348,41045,28277
32444,41063,28132
32484,41031,28252
32636,41016,28103
32736,40959,28136
32714,41005,28039
32648,40991,28029
32584,41023,27973
32420,41058,28007
32327,41063,28115
32336,41061,27927
32484,41045,27898
32650,41048,27948
32776,40967,27907
32828,41015,28004
32832,41004,27821
32772,41013,27788
32700,41023,27934
32484,41076,27779
32288,41076,27763
32376,41063,27797
32493,41052,27773
32564,41055,27733
32716,41028,27710
32896,40980,27703
32892,41021,27782
32748,41013,27631
32652,41022,27619
32536,41071,27596
32448,41084,27525
32377,41050,27573
32276,41028,27551
32240,41071,27653
32356,41029,27549
32450,41023,27519
32448,41023,27525
32452,41021,27457
32460,41028,27597
32328,41063,27519
32266,41071,27636
32329,41079,27509
32324,41068,27519
32258,41063,27532
32353,41022,27534
32460,41014,27478
32472,41013,27679
32383,41029,27544
32345,40999,27522
32272,41069,27684
32260,41091,27634
32294,41074,27651
32384,41071,27700
32488,41055,27706
32696,41005,27748
32804,40996,27733
32728,41007,27853
32629,41028,27785
32560,40991,27759
32380,41076,27826
32204,41068,27826
32204,41060,28004
32280,41052,27917
32321,41054,27904
32424,41022,28068
32549,40952,28023
32608,41007,28153
32604,41010,28060
32518,41039,28055
32380,41061,28246
32261,41076,28171
32292,41065,28199
32288,41065,28211
32260,41005,28224
32396,41005,28292
32532,41015,28311
32580,41001,28381
32572,41013,28392
32536,41020,28500
32492,41068,28511
32372,41085,28617
32258,41071,28783
32244,41077,28725
32318,41052,28840
32468,41012,28807
32660,40999,28861
32570,41004,29047
32480,40965,29007
32512,40999,29156
32468,41087,29173
32342,41080,29262
32244,41060,29268
32240,41057,29416
32357,41047,29429
32448,40967,29569
32548,40964,29533
32592,40997,29562
32549,41021,29710
32535,41020,29697
32448,41063,29785
32292,41076,29854
32288,41024,30006
32342,41057,29973
32316,41045,30092
32373,41021,30064
32446,40953,30204
32453,41008,30209
32454,41023,30345
32472,41031,30292
32398,41056,30340
32337,41063,30448
32396,41071,30456
32344,41055,30580
32304,41040,30519
32412,41013,30554
32543,41013,30620
32561,41006,30672
32624,41017,30784
32692,40967,30740
32538,41065,30845
32353,41080,30823
32336,41069,30893
32384,41063,30844
32346,41055,30876
32444,40983,30983
32568,40967,30954
32546,41023,31044
32604,41025,31037
32520,41029,31135
32336,41036,31088
32352,41057,31175
32440,41058,31124
32456,41055,31221
32480,41006,31208
32586,40980,31268
32620,41012,31229
32608,40995,31278
32496,41020,31380
32373,40989,31351
32221,41069,31436
32104,41061,31390
32152,41057,31437
32292,41052,31439
32516,41053,31483
32692,40967,31490
32816,41007,31531
32869,41000,31550
32756,40997,31611
32720,41005,31626
32560,41055,31703
32372,41029,31656
32277,41069,31675
32336,41047,31704
32476,41055,31765
32658,41012,31779
32756,41005,31834
32729,40988,31831
32684,41013,31892
32704,40997,31856
32497,41047,31887
32284,41081,31934
32325,41051,31956
32336,41057,31996
32388,41060,31988
32548,40997,32042
32668,40999,32045
32652,40967,32079
32588,40966,32100
32496,41031,32151
32440,41047,32184
32300,41060,32207
32252,41044,32241
32300,41049,32253
32404,41045,32317
32630,40967,32313
32676,41007,32381
32709,41004,32375
32672,41014,32413
32478,41025,32429
32332,41060,32496
32288,41076,32496
32368,41013,32565
32424,41063,32561
32494,41049,32625
32548,41013,32619
32668,40999,32686
32724,40991,32676
32592,41001,32718
32480,41025,32743
32320,41065,32807
32156,41052,32802
32229,41053,32868
32352,41048,32859
32388,41025,32889
32468,41028,32925
32672,41007,32944
32724,40999,32994
32656,41019,32999
32628,41031,33020
32496,41063,33087
32396,41033,33105
32440,41079,33153
32546,41068,33156
32612,41036,33198
32736,41011,33226
32764,40999,33252
32728,41006,33300
32686,41023,33318
32601,41025,33329
32416,41061,33399
32316,41028,33405
32284,41071,33444
32408,41060,33460
32506,41036,33496
32728,41015,33522
32833,40955,33539
32820,41003,33584
32804,41023,33607
32788,41026,33646
32620,41061,33665
32400,41075,33708
32345,41016,33716
32412,41063,33753
32400,41039,33780
32544,41012,33817
32628,41007,33841
32640,40988,33870
32612,41031,33902
32632,41033,33922
32680,41061,33953
32620,41076,33980
32676,41071,34016
32628,41064,34039
32496,41032,34069
32533,41034,34096
32332,41003,34116
31980,41028,34141
31692,40977,34169
31478,41007,34193
31280,41084,34207
31108,41079,34246
31168,41085,34268
31141,41084,34301
31184,41079,34303
31276,41039,34340
31548,41028,34362
32312,41005,34407
33401,41064,34417
34766,41045,34471
35852,41095,34489
36440,41124,34516
36520,41121,34540
36188,41125,34567
35536,41094,34594
35206,41085,34603
35372,41069,34663
35950,41068,34685
36420,41071,34705
36548,41055,34735
36132,41095,34751
35648,41124,34796
35172,41079,34823
34702,41109,34870
34096,41092,34914
33708,41063,34895
33532,41004,34989
33320,41062,34991
33124,41063,35049
32728,41067,35075
32268,41111,35103
32093,41127,35136
31976,41087,35132
31917,41108,35199
31892,41095,35192
32024,41053,35261
32165,41049,35266
32212,41066,35324
32164,41061,35314
32072,41063,35380
31980,41111,35372
31942,41127,35420
31900,41108,35421
31904,41103,35463
32037,41083,35481
32068,41065,35495
32024,41039,35481
31908,41069,35508
31844,41061,35493
31705,41063,35533
31617,41053,35531
31644,41129,35556
31812,41103,35574
31904,41095,35550
32001,41103,35599
32137,41068,35556
32280,41045,35613
32348,41063,35604
32434,41068,35654
32404,41083,35671
32216,41105,35701
32069,41127,35719
32004,41103,35703
32072,41116,35777
32088,41103,35764
32256,41079,35823
32412,41049,35825
32432,41051,35864
32252,41069,35919
32160,41070,35901
32094,41117,35965
32132,41079,35957
32152,41100,35933
32276,41095,35976
32368,41103,35983
32604,41021,35992
32628,41069,35975
32596,41040,36001
32524,41076,36002
32486,41084,36029
32392,41122,36023
32332,41125,35973
32304,41124,36037
32280,41063,35988
32348,41112,36033
32428,41060,36033
32510,41063,36033
32544,41079,35980
32496,41054,36026
32456,41092,36006
32376,41109,36007
32388,41141,35960
32572,41135,35964
32668,41076,35978
32688,41069,35982
32780,41061,35928
32766,41020,35973
32812,41030,35957
32840,41089,35957
32748,41095,35934
32644,41127,35929
32500,41137,35895
32469,41137,35933
32576,41132,35932
32732,41094,35869
32917,41095,35907
33038,41061,35856
32984,41095,35892
32904,41095,35846
32765,41103,35899
32656,41153,35891
32652,41135,35836
32802,41142,35876
32984,41135,35829
33134,41113,35876
33226,41108,35815
33208,41086,35847
33080,41095,35815
32924,41111,35860
32850,41115,35847
32814,41125,35844
32860,41179,35836
32901,41137,35811
33024,41153,35817
33120,41149,35804
33281,41113,35807
33476,41061,35774
33500,41121,35789
33308,41116,35748
33024,41119,35797
32774,41175,35740
32652,41145,35773
32688,41186,35727
32832,41167,35765
32852,41159,35730
32980,41079,35748
33024,41076,35757
33064,41125,35716
33016,41140,35772
32876,41132,35731
32672,41180,35786
32488,41196,35778
32476,41185,35751
32480,41162,35773
32428,41183,35741
32564,41141,35812
32696,41127,35773
32712,41135,35825
32632,41146,35840
32708,41105,35856
32738,41193,35823
32612,41205,35865
32504,41173,35890
32316,41175,35888
32128,41135,35928
32206,41158,35924
32308,41117,35975
32388,41129,35967
32484,41127,36017
32556,41159,36006
32560,41183,36057
32536,41199,36030
32512,41214,36111
32478,41136,36101
32496,41188,36165
32720,41159,36168
32876,41121,36162
32736,41141,36212
32613,41092,36221
32564,41159,36252
32532,41198,36225
32462,41204,36276
32598,41212,36292
32672,41183,36313
32645,41143,36302
32636,41159,36375
32616,41137,36388
32622,41158,36359
32634,41145,36428
32653,41156,36412
32612,41199,36532
32488,41213,36550
32356,41211,36556
32380,41165,36612
32420,41193,36608
32684,41169,36717
32844,41148,36760
32824,41143,36792
32672,41157,36861
32522,41178,36862
32396,41199,36956
32416,41223,36998
32676,41210,36999
32852,41157,37111
32840,41169,37149
32848,41171,37156
32781,41159,37223
32568,41159,37201
32404,41175,37333
32520,41189,37326
32441,41172,37432
32412,41180,37463
32500,41223,37428
32644,41223,37559
32616,41205,37620
32692,41173,37670
32726,41166,37722
32741,41168,37724
32744,41175,37799
32813,41185,37803
32759,41223,37887
32568,41244,37879
32568,41247,37972
32552,41223,37989
32557,41209,38057
32744,41182,38020
32912,41172,38183
32852,41166,38222
32768,41199,38202
32736,41185,38289
32616,41223,38338
32613,41252,38318
32580,41247,38455
32624,41240,38482
32616,41196,38518
32744,41196,38557
32868,41191,38535
32868,41170,38672
32878,41188,38644
32854,41200,38762
32736,41239,38785
32644,41198,38743
32516,41245,38885
32520,41223,38828
32484,41223,38975
32568,41198,39028
32788,41185,38957
33054,41150,39113
33082,41181,39148
33124,41210,39184
32896,41216,39156
32732,41255,39290
32636,41252,39213
32500,41245,39350
32564,41191,39284
32788,41157,39431
32932,41167,39452
32936,41170,39378
32824,41215,39511
32828,41191,39478
32720,41245,39620
32584,41263,39564
32652,41255,39708
32802,41261,39631
32792,41255,39741
32858,41215,39785
32892,41203,39732
32796,41193,39917
32844,41213,39941
32876,41223,39994
32864,41260,40006
32844,41277,40037
32980,41265,40095
32968,41264,40116
32824,41232,40151
32912,41220,40101
32872,41196,40217
32748,41204,40175
32836,41219,40364
33008,41223,40343
32929,41223,40386
32869,41292,40357
32880,41263,40487
32852,41252,40520
32869,41265,40580
33084,41173,40577
33180,41220,40661
32965,41207,40711
32752,41223,40597
32632,41217,40735
32584,41272,40658
32560,41287,40861
32652,41273,40884
32887,41269,40944
32996,41244,40831
33100,41231,41020
32984,41207,41028
32784,41220,40964
32684,41223,41077
32708,41247,41004
32792,41237,41200
32860,41245,41185
32832,41277,41095
32772,41289,41273
32656,41279,41196
32644,41243,41310
32836,41212,41370
33000,41223,41252
33005,41236,41413
33048,41198,41318
32760,41253,41513
32588,41295,41545
32641,41249,41492
32644,41284,41653
32784,41282,41612
33108,41239,41575
33168,41233,41757
32972,41207,41761
32704,41199,41764
32648,41231,41787
32484,41263,41721
32536,41297,41794
32652,41309,41879
32794,41276,41844
32860,41271,41975
33020,41244,41964
32980,41186,42053
32792,41223,41980
32868,41259,42101
33096,41252,42012
32944,41277,42233
32832,41285,42209
32772,41307,42133
32750,41300,42161
32688,41287,42390
32796,41236,42383
33024,41237,42434
33152,41191,42441
33208,41222,42421
33100,41271,42496
32776,41300,42453
32545,41319,42589
32552,41285,42604
32636,41269,42472
32644,41277,42669
32992,41244,42565
33132,41189,42759
33136,41255,42598
33096,41236,42764
32958,41253,42631
32809,41301,42804
32852,41316,42868
32932,41295,42908
32960,41303,42895
32936,41271,42862
32885,41253,42929
32848,41247,42992
32765,41237,43048
32564,41252,42906
32504,41252,43063
32165,41300,43052
31793,41316,42982
31460,41317,43103
31316,41300,43132
31376,41245,43009
31493,41238,43220
31580,41263,43074
31588,41239,43278
31856,41263,43279
32673,41292,43208
33792,41327,43356
35242,41349,43356
36568,41308,43412
37584,41343,43399
37900,41324,43453
37872,41292,43442
37244,41282,43445
36684,41295,43493
36700,41300,43415
37036,41300,43501
37230,41333,43567
37104,41344,43527
36800,41303,43575
36264,41305,43460
35828,41325,43661
35392,41289,43516
35001,41262,43700
34517,41273,43741
33940,41282,43639
33508,41294,43804
32964,41345,43798
32465,41351,43817
32252,41326,43799
32224,41317,43823
32212,41309,43735
32288,41280,43927
32397,41269,43878
32300,41276,43765
32140,41282,43943
32152,41252,43965
32076,41308,43996
31956,41311,43961
31952,41343,43846
31960,41335,44039
32096,41321,44020
32336,41280,43956
32462,41255,44015
32324,41279,43916
32244,41287,43980
32132,41295,43887
32008,41279,44052
31886,41348,44030
31916,41343,44023
32216,41313,44039
32424,41310,44053
32524,41280,44039
32546,41220,43987
32429,41223,44032
32364,41284,43988
32292,41281,44085
32192,41327,44112
32102,41284,43951
32145,41336,44072
32216,41303,43962
32264,41311,44087
32461,41280,43959
32609,41237,44144
32672,41236,44134
32696,41293,43986
32636,41295,44079
32232,41319,44095
31940,41337,44071
31998,41276,44076
32202,41301,43871
32344,41318,43927
32576,41285,43949
32660,41252,43941
32656,41261,43876
32524,41275,43789
32380,41285,43767
32304,41324,43583
32292,41287,43716
32392,41343,43493
32424,41302,43608
32608,41306,43413
32720,41276,43568
32805,41269,43501
32704,41223,43408
32576,41282,43396
32496,41309,43260
32269,41303,43341
32100,41321,43318
32117,41319,43175
32341,41319,43252
32500,41311,43206
32728,41216,43207
32876,41277,42964
32790,41261,43119
32660,41281,43071
32576,41290,42964
32468,41328,43000
32424,41343,42956
32436,41332,42884
32644,41327,42860
32920,41316,42880
33108,41284,42708
33136,41273,42812
32985,41279,42765
32812,41293,42573
32664,41308,42645
32556,41312,42706
32661,41327,42631
32696,41349,42502
32816,41339,42524
32936,41321,42524
33053,41284,42415
33008,41255,42437
32836,41293,42389
32828,41292,42196
33032,41303,42332
33001,41325,42247
32908,41332,42119
32800,41321,42127
32744,41329,41956
32728,41326,42052
33020,41295,42012
33266,41275,41793
33392,41223,41868
33193,41297,41701
32985,41301,41767
32964,41327,41597
32760,41351,41676
32732,41343,41660
32904,41285,41646
33012,41319,41571
33276,41294,41532
33360,41276,41442
33342,41280,41284
33168,41288,41348
32983,41303,41183
32710,41305,41324
32620,41351,41252
32701,41326,41245
32856,41327,41175
32968,41319,41045
32978,41284,41071
33000,41287,40923
33045,41261,41049
33008,41294,40956
32992,41303,40932
32788,41350,40889
32504,41333,40839
32448,41324,40829
32500,41327,40751
32484,41327,40724
32751,41233,40578
32976,41273,40708
33156,41287,40631
33312,41294,40493
33276,41301,40536
32998,41325,40411
32797,41332,40524
32712,41333,40420
32732,41319,40268
32700,41324,40341
32824,41273,40308
33068,41278,40260
33152,41212,40199
33029,41288,40192
33001,41282,40124
32886,41324,40100
32828,41281,40021
32884,41279,39975
32904,41272,39943
32884,41261,39788
33084,41247,39852
33228,41260,39800
33229,41275,39765
33201,41274,39665
33184,41287,39559
32968,41294,39559
32916,41332,39519
32868,41330,39496
32952,41317,39366
33016,41287,39400
33064,41270,39274
33212,41260,39372
33256,41275,39329
33200,41223,39212
33204,41287,39313
33004,41293,39261
32757,41334,39260
32720,41307,39223
32752,41311,39226
32836,41271,39174
33036,41223,39061
33220,41223,39164
33296,41271,39113
33280,41277,39012
33292,41279,39104
33208,41301,39073
33048,41327,39035
32988,41276,39034
32812,41317,38919
32820,41293,38990
33048,41259,38983
33381,41257,38966
33412,41252,38965
33218,41279,38919
33044,41265,38873
32772,41300,38882
32628,41319,38805
32690,41269,38840
32892,41311,38830
33024,41271,38806
33208,41244,38679
33244,41231,38783
33204,41244,38687
33164,41271,38741
33152,41220,38717
33181,41316,38679
33181,41317,38564
33036,41311,38663
32992,41295,38641
33036,41295,38524
33160,41255,38598
33341,41242,38628
33412,41237,38500
33372,41210,38556
33324,41255,38455
33064,41311,38578
32768,41318,38455
32745,41293,38528
32920,41299,38527
33036,41268,38487
33380,41252,38481
33628,41223,38384
33560,41234,38469
33380,41241,38357
33156,41257,38440
33044,41295,38348
33080,41287,38436
33176,41295,38431
33168,41277,38426
33264,41275,38416
33460,41188,38399
33561,41185,38291
33460,41183,38380
33264,41245,38358
33156,41248,38296
33120,41281,38303
33072,41284,38208
33088,41289,38292
33049,41223,38228
33070,41271,38292
33132,41237,38279
33256,41215,38255
33322,41221,38265
33276,41196,38256
33192,41255,38245
33253,41292,38147
33248,41301,38247
33149,41255,38214
33188,41260,38150
33248,41255,38189
33308,41223,38113
33420,41209,38212
33408,41221,38183
33500,41223,38128
33348,41199,38181
33104,41261,38119
32980,41292,38204
33016,41261,38199
33124,41253,38127
33109,41241,38188
33216,41221,38118
33312,41216,38220
33340,41204,38213
33281,41213,38237
33180,41223,38231
33114,41254,38249
32964,41291,38228
33068,41263,38185
33204,41268,38241
33228,41223,38181
33328,41223,38241
33404,41197,38187
33304,41213,38263
33240,41231,38279
33316,41221,38226
33116,41217,38287
32804,41279,38203
32796,41260,38332
32880,41245,38324
33127,41191,38308
33424,41215,38219
33540,41203,38305
33476,41191,38241
33296,41207,38340
33064,41223,38268
33008,41261,38348
32972,41209,38361
33096,41261,38334
33240,41229,38245
33244,41233,38343
33340,41215,38273
33420,41181,38363
33429,41213,38335
33313,41191,38359
33151,41205,38295
32868,41247,38357
32829,41223,38332
32916,41261,38380
33012,41236,38388
32948,41223,38279
33096,41151,38367
33300,41199,38297
33332,41185,38371
33280,41145,38317
33216,41220,38389
32888,41247,38373
32668,41253,38319
32780,41245,38372
33044,41247,38292
33160,41208,38350
33292,41191,38263
33328,41191,38356
33376,41189,38303
33324,41185,38382
33159,41204,38251
32956,41245,38335
32792,41237,38255
32884,41241,38326
33084,41212,38279
33167,41223,38321
33304,41180,38310
33412,41183,38309
33341,41143,38311
33320,41204,38293
33380,41215,38204
33164,41239,38276
32892,41255,38188
32888,41215,38263
32941,41208,38205
33072,41217,38252
33264,41197,38188
33248,41151,38271
33080,41197,38247
33168,41189,38240
33326,41194,38149
33288,41241,38231
33284,41215,38188
33164,41239,38104
33108,41239,38177
32944,41213,38118
33022,41188,38172
33212,41149,38180
33385,41184,38168
33312,41179,38151
33284,41191,38064
33208,41231,38149
32976,41204,38061
32984,41243,38125
33140,41223,38112
33284,41194,38100
33404,41177,38089
33456,41171,38100
33406,41129,38002
33288,41193,38060
33096,41175,37958
32904,41217,38023
32820,41220,38047
33028,41223,37924
33228,41214,38008
33329,41175,37997
33416,41180,37916
33472,41152,37984
33512,41153,37887
33303,41176,37947
33060,41148,37861
32836,41172,37956
32624,41231,37881
32724,41223,37936
32868,41183,37939
32936,41197,37930
33072,41121,37848
33248,41145,37904
33280,41167,37828
33236,41159,37919
33122,41177,37809
32950,41210,37868
32800,41200,37780
32609,41207,37845
32364,41204,37831
32149,41191,37863
32184,41175,37844
32244,41147,37776
32132,41153,37831
31932,41108,37818
31764,41180,37829
31512,41199,37790
31529,41223,37772
31900,41223,37828
32692,41223,37732
33944,41199,37804
35412,41172,37756
36953,41164,37796
38244,41174,37788
38956,41175,37809
39192,41196,37816
38640,41207,37740
37877,41233,37784
37684,41234,37701
37744,41223,37781
37676,41215,37716
37576,41149,37801
37428,41149,37796
37108,41161,37789
36577,41176,37788
35800,41164,37783
34832,41212,37783
34016,41223,37701
33548,41159,37780
33184,41223,37761
32935,41188,37791
32916,41159,37727
32900,41151,37776
32830,41116,37721
32616,41174,37791
32184,41176,37718
31748,41197,37801
31640,41209,37735
31680,41206,37827
31748,41161,37741
31816,41191,37820
31990,41135,37742
32172,41132,37829
32285,41103,37799
32312,41158,37847
32260,41159,37862
32226,41186,37760
32060,41204,37838
31948,41177,37802
31792,41181,37869
31768,41172,37882
31956,41141,37799
32252,41125,37872
32192,41122,37814
32108,41140,37895
31960,41133,37932
31768,41120,37844
31708,41196,37968
31893,41175,37957
32064,41159,37905
32212,41156,37988
32212,41127,37916
32308,41068,38007
32276,41093,37968
32192,41119,38023
32240,41087,38015
32136,41158,37926
31856,41177,38004
31872,41165,37903
32005,41156,37970
32014,41143,37870
32232,41059,37924
32376,41103,37824
32281,41106,37895
32220,41111,37855
32128,41133,37765
32116,41159,37745
32125,41157,37783
32220,41143,37697
32448,41140,37728
32440,41133,37615
32360,41109,37671
32380,41084,37572
32446,41087,37600
32484,41103,37567
32380,41122,37525
32277,41156,37511
32148,41153,37421
31904,41144,37456
31900,41092,37372
32064,41095,37431
32460,41088,37398
32672,41065,37348
32664,41039,37357
32568,41095,37356
32388,41090,37239
32076,41090,37277
32052,41145,37217
32168,41124,37246
32353,41124,37206
32520,41120,37193
32584,41086,37103
32540,41076,37110
32508,41039,37119
32544,41092,37042
32724,41106,37076
32600,41140,36996
32324,41124,37044
32200,41124,36941
32093,41124,37012
32108,41113,36974
32300,41063,36940
32409,41069,36917
32528,41060,36869
32600,41071,36857
32428,41088,36776
32308,41094,36825
32276,41093,36775
32448,41093,36695
32592,41125,36724
32788,41086,36647
32998,41071,36664
32944,41027,36588
32657,41078,36591
32480,41077,36556
32468,41084,36540
32524,41110,36514
32596,41121,36470
32665,41121,36453
32762,41117,36359
32789,41087,36391
32821,41060,36295
32789,41039,36300
32768,41063,36231
32824,41079,36260
32784,41071,36196
32584,41122,36204
32316,41124,36180
32341,41095,36110
32341,41076,36135
32460,41084,36038
32780,41052,36070
32904,41039,36050
32906,41048,36045
32856,41050,35975
32796,41060,36009
32710,41090,35982
32424,41095,35945
32285,41108,35941
32344,41037,35932
32476,41078,35896
32664,41044,35887
32820,41028,35879
32904,41033,35813
32944,41033,35836
32988,41051,35779
32780,41065,35812
32612,41105,35781
32438,41076,35749
32481,41069,35744
32628,41058,35696
32896,41031,35711
33078,40996,35655
33184,41036,35697
33072,41012,35642
32844,41023,35656
32536,41061,35636
32364,41039,35633
32412,41085,35582
32604,41063,35601
32848,41038,35580
32980,41004,35557
33097,40995,35548
33060,40967,35500
32940,41012,35517
32836,40999,35456
32704,41071,35485
32628,41060,35439
32676,41044,35463
32652,41047,35444
32652,40994,35404
32889,40983,35388
32945,40996,35353
32804,41004,35382
32712,41007,35361
32641,41003,35317
32653,41047,35353
32612,41052,35324
32720,41012,35352
32816,41021,35316
32780,40967,35356
32936,40991,35329
33156,40959,35380
33249,40967,35350
33088,40967,35395
32932,40999,35387
32614,41018,35439
32262,41031,35448
32292,40983,35439
32460,41021,35500
32633,40997,35470
32876,40960,35527
33082,40964,35551
33180,40967,35565
33088,40967,35591
32902,40980,35561
32756,41023,35622
32604,41020,35623
32608,41015,35653
32646,41013,35655
32764,40967,35687
32948,40951,35660
33052,40947,35694
32876,40929,35676
32844,40967,35724
32849,40956,35732
32710,40990,35732
32538,41027,35704
32584,40991,35740
32664,41005,35734
32714,40988,35692
32887,40919,35744
33008,40911,35695
32976,40903,35700
32800,40954,35719
32684,40945,35685
32484,40996,35719
32360,40961,35671
32434,40983,35705
32576,40980,35684
32783,40966,35716
33084,40919,35702
33166,40920,35676
33056,40935,35704
33036,40924,35660
32956,40932,35719
32830,40967,35661
32724,40989,35694
32644,40991,35657
32704,40965,35695
32816,40956,35654
33020,40878,35716
32985,40879,35700
32852,40868,35660
32672,40916,35696
32728,40937,35664
32668,40967,35680
32560,40967,35676
32565,40910,35687
32580,40959,35693
32705,40933,35652
32949,40903,35673
33172,40900,35671
33222,40899,35631
33108,40917,35659
32919,40913,35621
32720,40951,35671
32532,40967,35641
32608,40943,35663
32608,40933,35667
32745,40932,35621
32996,40892,35664
33228,40887,35623
33188,40839,35676
33120,40852,35669
32924,40911,35637
32640,40944,35687
32516,40935,35680
32701,40935,35660
32848,40927,35681
32980,40912,35703
33097,40884,35665
33200,40853,35719
33216,40891,35733
33136,40887,35707
33006,40884,35748
32732,40891,35685
32640,40941,35758
32620,40919,35727
32748,40918,35784
32872,40853,35789
33008,40838,35739
33185,40839,35812
33226,40873,35807
33068,40870,35767
32956,40876,35809
32840,40925,35769
32648,40927,35837
32628,40921,35830
32669,40901,35796
32748,40884,35867
32964,40855,35872
33148,40821,35852
33136,40848,35869
33049,40871,35812
32996,40871,35873
32852,40901,35818
32936,40903,35872
33072,40855,35861
33016,40895,35815
32928,40869,35860
32904,40845,35800
32916,40839,35879
32816,40823,35817
32756,40839,35868
32872,40825,35797
32800,40902,35830
32764,40887,35802
32800,40879,35822
32804,40879,35767
32980,40815,35815
33056,40778,35741
33116,40777,35796
33184,40797,35753
32990,40788,35789
32900,40807,35768
32800,40890,35749
32668,40887,35712
32724,40853,35756
32760,40847,35765
32828,40855,35746
33044,40836,35736
33212,40807,35727
33194,40814,35659
33069,40825,35693
33024,40837,35657
32780,40869,35672
32664,40821,35665
32684,40871,35591
32772,40839,35624
32912,40800,35631
33084,40804,35561
33240,40789,35572
33204,40804,35572
33108,40797,35557
33120,40829,35537
32912,40852,35524
32728,40846,35522
32612,40844,35457
32696,40805,35488
32926,40829,35421
33220,40794,35460
33384,40783,35396
33284,40796,35408
33024,40782,35362
32750,40807,35386
32561,40827,35348
32460,40860,35308
32576,40836,35340
32800,40815,35277
33000,40826,35300
33308,40776,35296
33372,40772,35283
33172,40728,35265
33044,40779,35211
32936,40788,35236
32740,40821,35228
32688,40839,35181
32817,40823,35187
32892,40775,35152
32904,40805,35175
33100,40752,35165
33172,40758,35096
33128,40765,35100
33133,40775,35101
33180,40789,35104
33052,40817,35041
32860,40831,35063
32868,40823,35044
32820,40819,35028
32756,40789,35010
33072,40751,35009
33216,40702,34945
33244,40767,34952
33238,40751,34913
33312,40769,34924
33197,40801,34884
33037,40773,34874
32904,40805,34840
32824,40801,34833
32948,40781,34813
33220,40706,34791
33344,40737,34760
33190,40736,34719
33008,40695,34720
32977,40767,34695
32968,40773,34674
32896,40791,34645
32893,40736,34628
32888,40791,34612
32892,40760,34562
33024,40724,34559
33104,40725,34535
33192,40711,34500
33220,40735,34500
33224,40711,34444
33000,40791,34444
32861,40783,34397
32808,40775,34392
32904,40726,34380
32997,40751,34370
33100,40729,34311
33088,40703,34311
33070,40654,34305
33104,40724,34257
33135,40711,34253
33084,40771,34238
32974,40782,34196
32841,40756,34191
32880,40719,34160
32916,40749,34146
33032,40701,34136
33196,40639,34097
33286,40692,34092
33188,40697,34079
33036,40711,34039
32788,40753,34020
32708,40747,34007
32812,40728,33964
32900,40742,33958
32996,40687,33934
33104,40676,33912
33076,40687,33892
32940,40660,33879
32904,40689,33866
32957,40709,33829
32848,40717,33823
32746,40740,33815
32745,40735,33770
32813,40720,33762
32920,40711,33743
33072,40687,33711
33160,40655,33708
32960,40625,33689
32612,40684,33671
32208,40693,33658
31822,40730,33640
31516,40727,33612
31580,40735,33597
31728,40711,33586
31772,40695,33573
31716,40658,33537
31724,40663,33527
31876,40676,33511
32592,40677,33479
33804,40708,33461
35204,40729,33444
36624,40743,33426
37984,40733,33412
39084,40711,33376
39668,40703,33353
39512,40687,33327
38964,40673,33301
38516,40679,33279
38312,40673,33263
38000,40691,33236
37608,40721,33230
37184,40724,33205
36788,40724,33166
36256,40700,33159
35689,40701,33157
35108,40653,33125
34564,40631,33116
34048,40645,33111
33528,40664,33070
33048,40640,33055
32604,40703,33041
32200,40711,33015
32012,40687,33004
32060,40671,32959
32100,40679,32945
32249,40630,32943
32404,40620,32901
32380,40639,32893
32264,40621,32847
32084,40639,32834
31828,40685,32775
31632,40709,32763
31716,40676,32773
31880,40634,32711
32004,40656,32695
32096,40629,32655
32082,40623,32634
32008,40611,32633
31908,40621,32585
31856,40621,32569
31736,40667,32540
31742,40679,32533
31832,40669,32502
31973,40617,32519
32048,40646,32460
32164,40608,32457
32280,40583,32432
32292,40551,32440
32192,40612,32397
32128,40607,32406
31952,40653,32356
31792,40663,32326
31812,40605,32297
31832,40641,32249
31921,40620,32222
32108,40589,32229
32270,40583,32158
32276,40577,32157
32264,40583,32072
32244,40599,32071
32096,40633,31967
32084,40644,31947
32136,40636,31866
32141,40629,31846
32156,40594,31765
32320,40583,31739
32469,40550,31668
32396,40556,31600
32284,40578,31596
32280,40573,31493
32120,40620,31484
32050,40620,31384
32128,40620,31356
32216,40583,31257
32240,40604,31269
32388,40553,31156
32536,40551,31148
32585,40529,31029
32536,40545,30975
32522,40565,30921
32416,40599,30869
32292,40599,30905
32228,40596,30799
32297,40599,30800
32404,40561,30695
32516,40532,30718
32584,40547,30588
32540,40526,30609
32492,40556,30486
32412,40563,30417
32268,40583,30360
32236,40604,30319
32348,40599,30333
32405,40583,30239
32545,40568,30269
32712,40527,30134
32860,40523,30127
32808,40534,29981
32720,40543,29969
32628,40509,30005
32464,40583,29855
32270,40604,29764
32336,40573,29719
32492,40567,29702
32600,40565,29650
32804,40492,29581
32940,40519,29591
32888,40519,29473
32780,40479,29494
32696,40548,29348
32614,40567,29341
32540,40543,29212
32584,40583,29220
32676,40575,29104
32740,40547,29108
32900,40471,28960
33088,40509,28935
33093,40512,28837
33008,40517,28783
32968,40523,28724
32816,40553,28654
32664,40577,28716
32600,40571,28565
32634,40535,28478
32668,40539,28432
32848,40455,28363
32984,40500,28317
33014,40512,28253
32964,40510,28234
32900,40513,28133
32704,40564,28101
32672,40546,28033
32692,40554,28081
32725,40530,27959
32740,40519,28055
32876,40499,27894
33005,40445,27960
33070,40501,27816
33004,40487,27876
32924,40504,27703
32776,40540,27643
32692,40503,27737
32712,40546,27586
32696,40541,27516
32740,40503,27565
32937,40485,27456
33120,40447,27556
33148,40469,27413
33040,40487,27341
32980,40497,27476
32840,40517,27335
32788,40529,27298
32816,40518,27400
32857,40505,27215
32924,40455,27193
33104,40434,27156
33204,40452,27165
33248,40423,27072
33249,40455,27084
33225,40455,27040
33076,40496,27015
32932,40474,27116
32996,40502,26990
33052,40495,26886
33076,40448,26957
33142,40424,26869
33266,40421,26800
33252,40438,26862
33216,40411,26748
33196,40450,26778
33034,40493,26695
32953,40450,26732
32964,40479,26701
33004,40479,26605
33052,40445,26621
33200,40420,26722
33352,40367,26583
33348,40424,26588
33308,40431,26549
33272,40408,26559
33161,40478,26484
32993,40477,26537
32946,40417,26497
32912,40471,26588
33024,40436,26484
33180,40389,26494
33292,40413,26441
33344,40407,26454
33284,40412,26425
33200,40420,26520
32956,40409,26448
32832,40471,26488
32780,40448,26439
32812,40446,26492
32836,40394,26486
33012,40405,26557
33160,40375,26472
33181,40389,26446
33188,40404,26620
33150,40409,26459
32993,40398,26446
32852,40415,26401
32776,40386,26535
32836,40424,26466
32904,40390,26546
33108,40372,26370
33244,40327,26399
33202,40384,26388
33076,40377,26336
32992,40396,26301
32797,40386,26380
32698,40444,26281
32860,40416,26313
32977,40420,26241
32968,40419,26245
33040,40371,26392
33104,40328,26226
32992,40375,26257
32936,40367,26154
32884,40380,26261
32756,40375,26153
32688,40439,26286
32808,40417,26145
32904,40398,26247
32940,40388,26071
33112,40321,26023
33148,40349,26102
33120,40359,26024
33113,40341,26174
33046,40357,26045
32876,40406,26166
32785,40369,26045
32872,40415,26146
32992,40397,26028
33040,40372,26129
33168,40348,25980
33202,40311,26013
33132,40349,25982
32996,40327,26077
32956,40353,25969
32826,40382,26031
32756,40404,25933
32796,40383,26016
32912,40326,25863
32958,40369,25918
33140,40327,25828
33252,40291,25868
33278,40327,26005
33164,40335,25822
33092,40345,25863
32940,40357,25780
32788,40385,25858
32788,40378,25772
32760,40364,25851
32758,40317,25738
32920,40316,25766
33064,40303,25817
33016,40278,25767
32956,40327,25857
32896,40320,25736
32728,40375,25758
32652,40380,25725
32740,40360,25684
32844,40343,25761
32900,40295,25673
33072,40310,25703
33136,40294,25679
33100,40301,25696
32940,40316,25700
32888,40295,25693
32765,40343,25655
32652,40359,25760
32692,40349,25702
32852,40345,25791
32964,40321,25661
33136,40303,25804
33188,40245,25703
33168,40293,25823
33120,40300,25749
33028,40292,25839
32864,40327,25701
32732,40357,25724
32700,40292,25720
32748,40335,25676
32856,40324,25866
33060,40291,25732
33160,40275,25668
33188,40264,25724
33105,40276,25679
33015,40292,25797
32876,40327,25686
32740,40333,25751
32680,40313,25659
32752,40293,25696
32840,40299,25799
32984,40255,25719
33056,40263,25832
33040,40215,25700
32964,40273,25819
32844,40266,25649
32672,40311,25701
32616,40297,25596
32724,40324,25681
32772,40308,25636
32804,40286,25784
32953,40248,25649
33044,40259,25757
33060,40213,25605
33020,40271,25533
32940,40265,25636
32752,40294,25535
32636,40310,25636
32688,40272,25526
32760,40295,25660
32835,40285,25573
32948,40231,25607
33008,40226,25517
33008,40236,25525
32960,40240,25496
32900,40236,25562
32709,40293,25514
32544,40289,25585
32601,40287,25485
32741,40278,25560
32800,40271,25460
32940,40231,25533
33061,40220,25418
33048,40225,25524
32978,40231,25339
32925,40233,25374
32792,40276,25368
32676,40260,25355
32716,40280,25369
32728,40263,25308
32748,40251,25318
32884,40223,25312
32972,40215,25241
32956,40180,25382
32896,40223,25307
32840,40239,25207
32696,40253,25265
32624,40263,25188
32696,40261,25363
32736,40255,25205
32776,40249,25168
32950,40164,25368
33102,40156,25210
33080,40197,25221
32976,40215,25236
32900,40199,25181
32756,40249,25128
32692,40261,25313
32716,40249,25135
32756,40252,25084
32828,40236,25266
32985,40156,25100
33077,40157,25076
33044,40199,25226
33012,40196,25089
32980,40199,25029
32808,40232,25181
32700,40244,25115
32693,40237,25197
32696,40233,25095
32792,40229,25143
32952,40195,25102
33036,40167,25069
32999,40168,25062
32884,40183,25053
32829,40173,24971
32709,40236,25151
32599,40236,25040
32621,40226,25138
32686,40228,25022
32752,40210,25001
32925,40183,24945
33056,40119,25127
33040,40128,24967
32980,40175,24957
32905,40167,24987
32796,40208,24923
32728,40228,25104
32752,40213,24930
32836,40213,24877
32944,40149,25017
33072,40167,24937
33176,40167,24861
33140,40149,24991
33044,40157,24952
32936,40189,24940
32758,40160,24935
32668,40220,24857
32765,40184,24909
32884,40194,24852
32912,40197,25017
33008,40165,24912
33092,40149,25010
33076,40159,24870
33010,40167,24869
32928,40175,24862
32724,40196,25007
32636,40199,24911
32704,40165,24882
32788,40193,25045
32865,40156,24910
33008,40147,24948
33104,40135,24855
33076,40093,24994
32956,40132,24876
32888,40103,24839
32784,40173,24967
32720,40205,24922
32796,40172,25047
32853,40164,24913
32864,40127,24991
32992,40119,24870
33073,40116,24806
33044,40139,24909
33012,40125,24796
32924,40135,24903
32808,40171,24781
32748,40178,24924
32824,40171,24775
32908,40148,24834
32936,40159,24764
33036,40115,24829
33077,40100,24967
32996,40113,24819
32896,40070,24796
32848,40143,24807
32704,40159,24848
32624,40169,24806
32677,40159,24780
32712,40156,24826
32706,40149,24706
32712,40091,24857
32605,40100,24752
32292,40109,24773
32010,40071,24673
31756,40134,24809
31474,40159,24656
31293,40149,24703
31224,40169,24875
31280,40157,24745
31598,40148,24713
32201,40110,24699
33248,40105,24633
34512,40071,24733
35776,40081,24712
37092,40134,24842
38176,40175,24717
38972,40165,24811
39412,40173,24708
39248,40169,24721
38784,40148,24700
38600,40127,24703
38313,40103,24687
37821,40124,24812
37296,40124,24671
36780,40135,24620
36100,40156,24798
35384,40180,24708
34672,40171,24877
34100,40164,24721
33644,40149,24735
33398,40071,24764
33156,40061,24733
32872,40113,24921
32544,40109,24814
32288,40116,24949
32028,40140,24861
31918,40164,24855
31888,40148,24918
31914,40143,24861
31904,40127,24836
31999,40047,25044
32089,40092,24933
32072,40092,25063
32024,40082,24927
31904,40105,24948
31746,40132,24904
31674,40101,24995
31680,40095,24947
31784,40130,25071
31848,40113,24936
31944,40077,24879
32040,40059,24994
32029,40071,24877
31949,40061,24967
31864,40103,24903
31740,40128,25060
31664,40119,24983
31705,40121,24943
31832,40101,24949
31972,40103,24989
32100,40071,24937
32192,40023,24985
32148,40069,24965
32088,40040,25117
32000,40071,24930
31824,40111,25004
31696,40070,24921
31748,40111,25025
31828,40109,24885
31900,40081,25008
32064,40044,24871
32136,40045,24944
32120,40047,24793
32032,40060,24813
31973,40071,24724
31820,40103,24770
31760,40088,24670
31840,40100,24703
31944,40090,24729
32028,40071,24638
32212,40041,24541
32277,40017,24624
32208,40045,24496
32124,40044,24607
32060,40044,24415
31956,40088,24404
31882,40071,24363
31932,40071,24351
31968,40085,24249
32028,40065,24346
32180,40020,24183
32258,40021,24230
32244,40028,24183
32172,40033,24016
32125,40020,24071
32040,40093,23957
31980,40095,23995
32065,40079,23864
32136,40069,23941
32192,40048,23810
32336,40017,23903
32432,39988,23749
32388,40026,23778
32316,40020,23680
32256,40039,23814
32088,40070,23624
32008,40084,23820
32080,40063,23639
32158,40063,23554
32268,40040,23767
32388,40012,23564
32472,40007,23569
32489,40015,23438
32423,40009,23647
32384,40039,23476
32264,40027,23508
32224,40025,23406
32260,40079,23313
32344,40068,23423
32440,40047,23292
32580,40007,23461
32653,39995,23332
32640,40001,23282
32600,40020,23139
32564,40006,23331
32480,40055,23192
32404,40061,23052
32448,40045,23186
32504,40043,23079
32548,40037,22993
32672,40002,23172
32748,39999,22964
32696,40006,22865
32636,40010,23077
32559,40031,22862
32469,40020,22759
32388,40077,22903
32406,40040,22734
32500,40041,22865
32600,40030,22756
32736,39996,22650
32848,39988,22695
32828,39964,22556
32736,40009,22660
32672,40004,22564
32544,40061,22580
32509,40063,22488
32556,40052,22537
32664,40055,22401
32764,40029,22604
32932,39985,22433
33016,39983,22594
32904,39943,22388
32792,39959,22297
32732,40015,22414
32604,40053,22343
32526,40039,22278
32574,40036,22347
32716,40028,22316
32804,39973,22372
32944,39983,22239
33113,39940,22224
33137,39980,22248
33052,39994,22212
32928,40001,22092
32780,40015,22324
32708,40025,22135
32740,40022,22058
32850,40023,22243
32904,40000,22136
33044,39975,22106
33180,39970,22061
33184,39969,22089
33152,39943,22006
33096,39983,22197
32952,40018,22039
32840,40029,21919
32860,40005,22090
32897,40001,21993
32948,39988,21876
33052,39957,22074
33108,39909,21934
33073,39929,21953
32977,39937,21886
32910,39980,21780
32764,40000,21924
32652,40007,21880
32728,40003,21876
32808,40000,21797
32836,39996,21930
32944,39943,21724
33020,39940,21790
33017,39943,21866
32968,39943,21636
32869,39917,21708
32736,40003,21638
32640,40008,21667
32708,39989,21621
32821,39977,21705
32885,39967,21678
32993,39927,21556
33072,39925,21727
33024,39937,21612
32976,39937,21525
32924,39943,21704
32800,39989,21583
32770,39996,21644
32796,39989,21644
32889,39943,21603
32912,39935,21606
33024,39941,21602
33088,39935,21492
33020,39940,21732
32936,39941,21553
32868,39941,21500
32732,39979,21620
32644,39995,21563
32724,39959,21484
32796,39970,21543
32884,39962,21461
33060,39929,21572
33188,39917,21404
33148,39895,21635
33052,39927,21493
32924,39943,21612
32780,39937,21456
32716,39966,21350
32723,39985,21468
32760,39965,21317
32820,39955,21455
33004,39900,21295
33090,39910,21506
33056,39918,21349
32972,39929,21461
32913,39940,21319
32793,39964,21377
32676,39980,21280
32696,39975,21341
32748,39974,21215
32852,39935,21145
33032,39929,21249
33076,39906,21193
33044,39903,21255
32956,39917,21178
32864,39933,21132
32720,39919,21250
32656,39981,21160
32720,39972,21117
32790,39943,21127
32840,39917,21122
32956,39908,21093
33052,39911,21008
33008,39897,21155
32932,39919,21006
32880,39943,21098
32709,39958,21009
32620,39972,21092
32692,39967,21167
32792,39943,21110
32816,39927,21251
32952,39917,21114
33052,39903,21141
32996,39899,21124
32912,39900,21071
32878,39924,21118
32728,39932,21006
32608,39974,21124
32623,39957,21002
32696,39943,21139
32744,39936,21017
32863,39904,21140
32916,39894,21019
32877,39895,21266
32816,39909,21100
32793,39931,21029
32656,39921,21176
32544,39975,21056
32572,39943,21193
32612,39943,21030
32669,39905,21148
32792,39911,21030
32888,39887,21164
32877,39898,21037
32776,39907,21140
32724,39878,21244
32592,39961,21177
32513,39943,21253
32534,39957,21163
32610,39904,21085
32596,39920,21229
32740,39901,21105
32833,39884,21344
32800,39884,21156
32722,39854,21324
32684,39919,21144
32580,39943,21243
32516,39965,21158
32568,39938,21276
32608,39941,21185
32648,39927,21341
32780,39859,21292
32868,39892,21393
32821,39892,21320
32728,39900,21481
32685,39917,21353
32548,39943,21389
32464,39943,21349
32520,39943,21274
32560,39933,21374
32613,39933,21289
32744,39903,21450
32812,39885,21412
32792,39891,21405
32708,39894,21566
32641,39911,21415
32500,39959,21348
32384,39917,21527
32416,39957,21436
32476,39943,21580
32576,39919,21461
32724,39890,21396
32812,39876,21621
32752,39895,21512
32676,39901,21456
32588,39916,21591
32452,39915,21482
32356,39960,21715
32396,39943,21573
32442,39937,21696
32492,39924,21598
32652,39895,21518
32736,39901,21685
32692,39897,21588
32624,39860,21513
32569,39873,21704
32409,39959,21605
32340,39972,21532
32398,39959,21784
32453,39943,21646
32532,39880,21554
32680,39904,21724
32768,39903,21682
32737,39913,21569
32668,39911,21815
32584,39919,21706
32404,39956,21723
32328,39948,21689
32368,39959,21796
32440,39943,21724
32520,39903,21781
32692,39886,21766
32764,39895,21897
32720,39911,21769
32612,39910,21732
32521,39935,21771
32360,39943,21683
32332,39974,21833
32408,39926,21708
32497,39964,21864
32520,39943,21717
32652,39908,21897
32732,39893,21766
32685,39911,21952
32620,39872,21767
32532,39940,21935
32364,39973,21843
32268,39975,21997
32292,39967,21880
32373,39958,21836
32414,39916,22023
32584,39924,21925
32681,39885,22118
32644,39913,21998
32540,39884,22108
32464,39943,22022
32324,39982,22095
32236,39977,22012
32288,39973,21964
32356,39975,22069
32417,39941,21988
32576,39887,22212
32664,39907,22112
32597,39935,22242
32528,39933,22069
32476,39943,22239
32329,39985,22215
32236,40007,22151
32312,39989,22260
32374,39940,22189
32384,39973,22375
32544,39939,22298
32656,39918,22321
32654,39940,22304
32572,39926,22262
32472,39973,22385
32304,39994,22316
32224,40010,22409
32256,39943,22337
32308,40002,22522
32400,39980,22460
32533,39935,22596
32665,39938,22503
32632,39943,22503
32538,39909,22542
32470,39977,22482
32348,39999,22649
32280,40015,22549
32302,40015,22782
32360,39959,22685
32413,39997,22824
32544,39943,22713
32616,39943,22911
32584,39959,22800
32544,39969,22970
32464,39977,22837
32350,40012,23017
32316,40039,22912
32424,40031,23067
32504,40015,22954
32556,39997,23010
32704,39933,23030
32816,39959,23177
32756,39968,23013
32668,39959,23253
32629,39992,23145
32480,40037,23185
32368,40036,23177
32392,40031,23124
32484,40036,23234
32553,40008,23269
32684,39940,23328
32788,39976,23490
32760,39979,23351
32692,39943,23468
32632,40004,23321
32488,40047,23407
32385,40062,23583
32425,40037,23476
32492,40047,23485
32524,39987,23501
32673,40001,23666
32744,39977,23567
32652,39943,23594
32508,40004,23636
32316,40023,23652
32028,40063,23815
31748,40047,23685
31565,40061,23671
31448,40052,23704
31366,39996,23653
31401,40029,23751
31336,40004,23802
31256,39973,23810
31332,40039,23888
31648,40071,23797
32264,40084,23751
33276,40103,23919
34624,40062,23794
36121,40097,23907
37524,40076,23879
38694,40039,23938
39436,40036,24070
39392,40052,23976
38896,40063,24052
38432,40076,23973
37912,40127,23929
37320,40125,24033
36832,40117,23988
36356,40117,24217
35796,40108,24093
35276,40079,24069
34672,40060,24292
33996,40071,24181
33404,40089,24327
32944,40049,24189
32460,40148,24388
32124,40156,24230
31900,40149,24196
31796,40127,24360
31764,40119,24258
31824,40065,24420
31829,40089,24292
31748,40087,24372
31668,40100,24503
31568,40103,24471
31402,40141,24617
31324,40160,24495
31388,40101,24607
31432,40158,24468
31472,40109,24469
31624,40103,24543
31692,40069,24455
31696,40127,24589
31653,40110,24482
31576,40086,24591
31424,40178,24503
31388,40167,24583
31416,40173,24540
31500,40175,24592
31572,40142,24668
31724,40119,24673
31804,40108,24724
31792,40091,24608
31736,40138,24836
31660,40134,24740
31528,40188,24836
31500,40199,24740
31580,40183,24718
31592,40165,24827
31684,40165,24861
31845,40071,24882
31924,40133,24860
31864,40108,24820
31809,40137,24987
31756,40173,24881
31612,40177,25015
31532,40197,24904
31600,40199,24998
31672,40141,24899
31712,40190,25032
31852,40149,24975
31924,40140,25120
31900,40113,24965
31853,40163,25091
31805,40183,24982
31680,40211,25095
31612,40228,24940
31664,40220,24970
31736,40215,24935
31797,40177,25037
31956,40183,24922
32028,40126,25053
32000,40185,24886
31912,40171,25019
31874,40199,24857
31728,40199,24916
31672,40246,24816
31724,40239,24952
31804,40223,24804
31904,40223,24834
32086,40152,24727
32180,40195,24646
32148,40196,24765
32052,40196,24647
31956,40225,24828
31813,40217,24677
31760,40272,24641
31809,40247,24620
31876,40252,24540
31932,40197,24591
32092,40220,24524
32185,40199,24579
32180,40221,24583
32116,40237,24569
32048,40239,24549
31908,40289,24538
31836,40300,24629
31908,40279,24549
31988,40285,24663
32024,40265,24535
32168,40249,24572
32260,40231,24554
32244,40236,24656
32172,40261,24525
32148,40261,24678
32045,40317,24521
31996,40327,24607
32018,40301,24549
32105,40308,24583
32164,40300,24444
32288,40259,24524
32376,40218,24532
32340,40285,24421
32276,40277,24454
32217,40295,24447
32092,40308,24453
31988,40359,24383
32076,40338,24548
32148,40327,24383
32254,40313,24527
32412,40249,24407
32456,40276,24504
32440,40308,24388
32384,40308,24333
32296,40308,24556
32184,40371,24391
32121,40372,24463
32176,40353,24363
32240,40348,24302
32268,40327,24460
32417,40301,24399
32490,40301,24383
32492,40313,24410
32460,40327,24394
32448,40335,24345
32328,40372,24429
32284,40381,24365
32336,40377,24302
32396,40364,24475
32464,40357,24380
32642,40292,24343
32745,40309,24533
32664,40349,24407
32612,40343,24316
32566,40356,24366
32436,40396,24316
32376,40408,24455
32452,40359,24349
32524,40375,24542
32600,40384,24401
32751,40338,24348
32852,40340,24477
32824,40351,24469
32744,40364,24561
32676,40373,24454
32568,40429,24614
32532,40412,24484
32568,40401,24429
32617,40413,24536
32692,40392,24535
32845,40364,24487
32908,40363,24592
32872,40369,24514
32817,40375,24670
32736,40399,24549
32588,40439,24512
32536,40424,24689
32580,40419,24614
32660,40412,24548
32704,40406,24730
32860,40381,24656
32928,40383,24583
32896,40364,24688
32812,40396,24617
32744,40416,24829
32624,40442,24743
32548,40455,24735
32600,40446,24772
32660,40441,24748
32689,40423,24943
32848,40397,24826
32925,40382,24978
32869,40408,24871
32796,40413,24842
32700,40445,24872
32564,40455,24857
32508,40471,25024
32573,40454,24977
32684,40449,24993
32748,40455,25009
32832,40375,25001
32896,40381,25205
32828,40394,25095
32768,40386,25069
32728,40455,25219
32568,40495,25133
32496,40487,25302
32536,40476,25191
32620,40481,25361
32649,40471,25322
32772,40437,25372
32860,40412,25333
32836,40397,25299
32792,40413,25545
32716,40455,25405
32552,40505,25365
32460,40518,25537
32542,40505,25468
32608,40455,25424
32668,40452,25624
32808,40423,25508
32856,40453,25561
32832,40419,25497
32760,40455,25639
32680,40436,25607
32556,40485,25527
32532,40537,25623
32564,40530,25642
32624,40532,25614
32685,40504,25766
32832,40476,25661
32908,40447,25669
32864,40438,25704
32788,40487,25836
32732,40513,25689
32600,40541,25684
32496,40543,25721
32540,40530,25822
32580,40533,25784
32645,40524,25900
32800,40440,25772
32849,40454,25749
32836,40497,25980
32764,40503,25822
32697,40525,25879
32544,40566,25928
32452,40517,25845
32472,40517,26058
32540,40545,25972
32616,40541,26006
32768,40509,25975
32832,40503,26004
32770,40527,26041
32680,40519,26057
32604,40548,26208
32496,40583,26102
32436,40572,26092
32480,40573,26245
32526,40554,26176
32572,40540,26345
32708,40511,26216
32756,40513,26213
32728,40507,26304
32657,40535,26311
32608,40566,26493
32468,40591,26373
32444,40607,26328
32512,40589,26582
32582,40572,26439
32614,40551,26513
32777,40530,26469
32840,40524,26460
32816,40541,26593
32736,40499,26564
32656,40541,26740
32508,40609,26594
32452,40606,26678
32521,40601,26676
32596,40582,26651
32653,40579,26804
32772,40539,26757
32856,40546,26829
32792,40546,26794
32720,40562,26940
32690,40561,26849
32544,40613,26951
32476,40571,26825
32504,40619,26893
32592,40613,27045
32672,40583,26904
32801,40559,27057
32872,40551,26987
32825,40548,27132
32760,40575,27049
32660,40552,27160
32508,40599,27109
32468,40641,27190
32528,40639,27128
32600,40631,27113
32636,40615,27216
32800,40573,27168
32888,40577,27281
32825,40583,27236
32736,40583,27399
32672,40615,27331
32532,40653,27386
32488,40655,27357
32505,40645,27519
32612,40647,27412
32644,40615,27549
32792,40579,27415
32886,40567,27420
32852,40588,27541
32773,40599,27503
32716,40564,27655
32588,40647,27535
32516,40663,27669
32548,40655,27600
32576,40636,27655
32664,40631,27630
32800,40613,27655
32900,40605,27622
32856,40605,27740
32760,40607,27678
32701,40623,27840
32574,40677,27717
32500,40627,27800
32544,40662,27732
32620,40661,27849
32664,40655,27828
32797,40615,27846
32852,40619,27823
32800,40615,27891
32734,40604,27859
32652,40633,27859
32548,40679,27996
32493,40674,27924
32573,40679,27943
32644,40648,27965
32692,40621,27968
32804,40623,28111
32910,40623,28004
32861,40640,27993
32788,40647,28135
32708,40663,28028
32584,40692,28079
32521,40703,28133
32576,40647,28207
32676,40644,28116
32730,40649,28129
32888,40639,28094
32957,40620,28164
32932,40630,28183
32849,40655,28126
32784,40672,28280
32620,40711,28241
32560,40703,28212
32628,40681,28337
32696,40677,28212
32748,40673,28253
32912,40634,28262
32964,40639,28337
32948,40613,28260
32892,40628,28277
32788,40685,28447
32592,40710,28300
32504,40711,28317
32588,40695,28389
32648,40701,28396
32748,40687,28328
32880,40615,28468
32944,40628,28439
32912,40663,28396
32852,40668,28540
32788,40685,28468
32644,40709,28439
32552,40711,28516
32592,40694,28485
32616,40678,28625
32672,40694,28492
32848,40663,28490
32924,40653,28644
32861,40645,28556
32796,40663,28581
32736,40685,28634
32589,40725,28580
32541,40702,28594
32628,40733,28688
32704,40695,28614
32760,40687,28734
32916,40661,28612
32988,40647,28647
32935,40669,28774
32828,40671,28640
32764,40691,28671
32637,40732,28807
32620,40743,28688
32692,40735,28676
32740,40703,28736
32804,40655,28741
32948,40676,28860
33003,40671,28743
32960,40679,28737
32912,40679,28807
32842,40706,28800
32684,40687,28883
32620,40741,28812
32672,40711,28931
32748,40719,28836
32820,40701,28837
32952,40673,28986
33006,40671,28876
32952,40693,28968
32901,40665,28881
32840,40689,28884
32694,40743,28932
32648,40744,28905
32728,40703,28921
32788,40741,29046
32828,40701,29002
32980,40679,29094
33064,40679,28980
33028,40684,29036
32956,40645,29143
32864,40721,29036
32708,40733,29029
32668,40742,29074
32692,40732,29090
32729,40733,29197
32772,40668,29111
32892,40695,29207
32904,40686,29128
32737,40695,29186
32536,40693,29104
32244,40733,29112
31900,40727,29241
31648,40748,29136
31577,40749,29130
31548,40749,29144
31500,40732,29209
31552,40709,29149
31764,40695,29158
32053,40704,29305
32700,40702,29180
33692,40725,29190
34773,40765,29321
36065,40768,29217
37368,40772,29191
38385,40758,29280
39048,40743,29249
39192,40733,29327
38876,40708,29260
38492,40727,29337
38156,40724,29255
37684,40743,29256
37084,40773,29281
36488,40797,29415
35932,40775,29303
35336,40777,29356
34700,40759,29341
34188,40737,29431
33760,40711,29389
33340,40732,29490
32940,40697,29426
32608,40767,29535
32240,40781,29464
32030,40782,29575
31976,40735,29490
32001,40781,29554
32014,40743,29527
32097,40721,29575
32108,40679,29549
32046,40720,29615
31968,40724,29596
31908,40764,29663
31744,40765,29619
31721,40780,29660
31776,40741,29597
31820,40752,29584
31864,40751,29678
32052,40663,29622
32144,40712,29711
32104,40709,29615
32056,40725,29692
31968,40711,29609
31832,40781,29631
31780,40775,29633
31840,40767,29604
31900,40762,29604
31944,40687,29628
32106,40711,29636
32169,40692,29647
32160,40711,29769
32109,40674,29700
32024,40700,29769
31888,40775,29727
31858,40783,29789
31954,40761,29721
31960,40756,29804
32008,40745,29732
32184,40711,29841
32287,40700,29738
32252,40711,29739
32212,40711,29756
32148,40748,29780
31996,40777,29736
31956,40735,29788
32008,40756,29729
32076,40756,29780
32144,40740,29721
32288,40689,29805
32356,40700,29713
32296,40668,29729
32224,40724,29665
32157,40739,29660
32032,40770,29716
32005,40775,29639
32060,40756,29703
32140,40740,29605
32212,40725,29656
32348,40645,29560
32440,40706,29613
32384,40700,29518
32321,40703,29575
32228,40679,29465
32098,40775,29524
32064,40758,29372
32116,40765,29407
32196,40703,29307
32264,40735,29312
32416,40685,29247
32508,40695,29221
32484,40710,29289
32412,40700,29177
32380,40677,29135
32256,40760,29252
32220,40773,29116
32260,40711,29116
32316,40759,29023
32372,40726,29052
32502,40650,29083
32593,40702,28956
32584,40707,28972
32520,40687,29056
32484,40740,28921
32324,40756,28913
32262,40775,28900
32344,40770,28853
32444,40745,28954
32528,40740,28828
32680,40710,28871
32740,40687,28739
32725,40711,28710
32692,40719,28844
32636,40727,28721
32500,40760,28759
32420,40775,28609
32480,40759,28602
32564,40762,28666
32616,40733,28540
32772,40681,28544
32832,40710,28596
32800,40710,28441
32730,40725,28476
32624,40729,28449
32496,40724,28397
32421,40764,28366
32484,40724,28319
32562,40737,28434
32592,40729,28292
32736,40708,28313
32804,40684,28203
32748,40696,28167
32656,40687,28290
32621,40728,28113
32524,40774,28110
32452,40781,28143
32500,40747,28034
32600,40759,28073
32704,40748,28059
32864,40692,27956
32928,40646,28004
32896,40711,28051
32856,40704,27906
32788,40679,27932
32672,40767,27997
32630,40767,27841
32680,40761,27896
32756,40745,27902
32820,40735,27836
32990,40661,27952
33048,40699,27831
33020,40679,27841
32949,40654,27810
32900,40703,27767
32748,40751,27829
32672,40739,27789
32724,40727,27815
32797,40745,27711
32876,40685,27727
33040,40693,27751
33092,40668,27727
33042,40682,27865
32964,40640,27727
32916,40711,27725
32752,40740,27681
32668,40729,27734
32728,40749,27775
32800,40711,27679
32880,40711,27696
33036,40687,27852
33116,40677,27666
33072,40684,27733
32988,40676,27732
32920,40710,27724
32780,40751,27746
32721,40711,27862
32773,40724,27743
32856,40702,27826
32904,40687,27750
33088,40679,27877
33156,40660,27749
33092,40663,27817
33022,40677,27739
32948,40689,27751
32804,40732,27821
32738,40743,27809
32772,40711,27960
32844,40711,27868
32889,40684,27994
33012,40671,27906
33084,40639,27979
33040,40666,27941
32972,40673,27948
32888,40687,28085
32736,40687,28022
32660,40728,28092
32741,40704,28015
32788,40665,28052
32836,40694,28242
32980,40655,28129
33056,40644,28148
33024,40658,28167
32948,40648,28206
32876,40693,28309
32732,40719,28308
32676,40705,28444
32712,40673,28344
32784,40703,28511
32824,40673,28428
32972,40650,28551
33036,40661,28449
32996,40647,28518
32957,40652,28480
32872,40679,28519
32746,40700,28589
32684,40665,28551
32732,40703,28715
32776,40699,28588
32825,40679,28604
32968,40600,28679
33040,40613,28739
32996,40648,28677
32928,40656,28691
32872,40654,28679
32720,40707,28724
32617,40708,28796
32644,40695,28775
32724,40657,28773
32788,40679,28799
32948,40636,28892
33018,40609,28799
32985,40645,28806
32900,40648,28957
32805,40644,28841
32641,40698,28873
32584,40709,29014
32628,40695,28948
32684,40676,28972
32776,40663,28943
32942,40647,28965
33013,40612,29097
32976,40644,29061
32892,40644,29164
32804,40644,29072
32648,40687,29103
32556,40694,29252
32596,40676,29178
32636,40666,29273
32712,40655,29191
32865,40629,29223
32929,40609,29355
32908,40620,29274
32861,40628,29315
32744,40636,29440
32584,40679,29381
32520,40631,29476
32568,40677,29439
32632,40655,29545
32696,40648,29488
32836,40615,29598
32895,40596,29529
32856,40615,29582
32748,40577,29557
32680,40638,29574
32553,40658,29596
32508,40669,29646
32534,40637,29756
32584,40647,29671
32676,40589,29713
32836,40607,29799
32908,40583,29784
32844,40596,29895
32772,40612,29838
32724,40617,29946
32584,40660,29876
32496,40679,29944
32580,40615,29896
32644,40652,29874
32721,40633,30001
32860,40575,29959
32908,40541,29993
32876,40599,29982
32812,40582,30013
32756,40613,30101
32608,40604,30065
32544,40657,30125
32572,40633,30104
32644,40637,30186
32728,40618,30122
32880,40567,30139
32953,40520,30252
32925,40590,30191
32852,40580,30282
32776,40591,30193
32600,40597,30254
32560,40633,30255
32636,40629,30298
32694,40615,30245
32748,40604,30369
32884,40574,30280
32945,40571,30292
32885,40551,30402
32836,40565,30313
32773,40597,30327
32622,40583,30354
32553,40635,30364
32620,40615,30374
32677,40607,30374
32724,40549,30400
32876,40566,30439
32944,40548,30439
32940,40545,30515
32856,40564,30447
32736,40572,30445
32590,40613,30551
32544,40566,30500
32604,40614,30573
32652,40613,30528
32700,40591,30553
32844,40538,30534
32912,40532,30620
32888,40553,30573
32810,40515,30651
32737,40580,30580
32644,40602,30580
32560,40612,30664
32617,40563,30634
32672,40583,30716
32740,40580,30650
32868,40511,30686
32940,40522,30652
32892,40541,30662
32848,40497,30712
32772,40535,30684
32608,40605,30758
32549,40589,30713
32588,40583,30787
32661,40583,30756
32740,40544,30821
32876,40507,30766
32980,40509,30855
32948,40530,30791
32869,40517,30825
32780,40556,30781
32644,40583,30788
32596,40582,30772
32664,40581,30812
32732,40547,30810
32764,40551,30840
32904,40517,30913
32989,40504,30846
32961,40508,30864
32889,40528,30951
32800,40551,30880
32636,40561,30876
32572,40578,30967
32597,40575,30926
32665,40570,30993
32776,40530,30929
32948,40515,30946
33016,40510,30956
32996,40503,30966
32912,40511,31035
32796,40543,30968
32668,40553,30991
32601,40572,31073
32660,40564,30989
32713,40509,31024
32756,40522,31013
32896,40501,31103
32940,40503,31029
32884,40495,31044
32848,40452,31117
32778,40509,31055
32641,40553,31076
32608,40526,31133
32672,40549,31097
32744,40488,31124
32812,40512,31111
32964,40495,31153
33052,40476,31197
33033,40495,31151
32960,40500,31150
32888,40506,31185
32756,40549,31196
32696,40565,31215
32760,40527,31190
32808,40526,31196
32872,40505,31236
32982,40468,31256
33056,40471,31300
33037,40440,31255
32936,40494,31322
32832,40496,31264
32704,40495,31303
32677,40520,31295
32752,40529,31374
32832,40527,31315
32864,40492,31348
33000,40471,31399
33088,40449,31347
33052,40430,31370
32996,40455,31420
32924,40484,31407
32796,40477,31422
32740,40530,31405
32784,40506,31437
32824,40455,31494
32897,40495,31449
32992,40455,31456
33029,40452,31502
32988,40451,31495
32962,40455,31511
32904,40487,31487
32762,40509,31520
32697,40517,31581
32662,40501,31524
32624,40502,31548
32544,40452,31583
32477,40441,31588
32356,40402,31554
32156,40435,31570
31956,40455,31623
31808,40481,31573
31572,40511,31599
31389,40524,31618
31496,40495,31583
31758,40455,31608
32320,40487,31666
33396,40455,31619
34549,40452,31616
35748,40455,31636
36926,40468,31632
37834,40484,31628
38332,40526,31690
38416,40511,31634
38125,40487,31646
37836,40510,31710
37748,40485,31655
37644,40454,31678
37348,40429,31735
36860,40422,31708
36248,40465,31742
35532,40477,31751
34737,40519,31751
34104,40511,31801
33656,40511,31777
33356,40493,31810
33112,40480,31849
32977,40436,31823
32796,40388,31853
32552,40451,31863
32356,40421,31901
32220,40455,31906
32036,40471,31934
31960,40511,31964
31948,40486,31972
31976,40479,32021
32017,40417,32007
32140,40422,32041
32194,40414,32020
32142,40385,32050
32084,40403,32030
32008,40447,32053
31876,40484,32034
31812,40477,32076
31836,40455,32032
31924,40471,32072
31976,40408,32032
32124,40410,32064
32212,40397,32036
32164,40413,32044
32089,40412,32034
32036,40400,32063
31893,40455,32067
31832,40455,32074
31870,40455,32106
31988,40439,32086
32072,40425,32105
32236,40401,32097
32288,40384,32134
32240,40394,32135
32156,40351,32156
32121,40420,32150
32000,40441,32167
31933,40452,32160
31996,40425,32177
32064,40440,32168
32120,40392,32203
32252,40374,32175
32344,40373,32205
32337,40333,32180
32297,40388,32199
32208,40399,32148
32068,40438,32161
32010,40449,32145
32084,40416,32135
32133,40422,32148
32201,40409,32104
32376,40357,32117
32472,40356,32068
32420,40368,32052
32390,40356,32057
32320,40384,32046
32160,40405,31983
32096,40424,31973
32156,40425,31964
32238,40410,31933
32301,40348,31916
32450,40356,31852
32517,40357,31829
32492,40365,31844
32423,40358,31775
32349,40327,31764
32204,40427,31698
32164,40406,31680
32216,40409,31676
32317,40361,31622
32380,40387,31589
32524,40327,31560
32605,40334,31575
32556,40349,31508
32513,40340,31519
32468,40372,31436
32341,40415,31421
32320,40410,31436
32346,40375,31367
32436,40381,31359
32508,40375,31310
32676,40311,31327
32748,40326,31276
32710,40340,31292
32652,40351,31216
32600,40359,31227
32458,40398,31174
32420,40409,31192
32485,40373,31127
32556,40385,31149
32652,40365,31073
32834,40304,31092
32896,40324,31015
32844,40348,31033
32784,40295,30966
32740,40369,30957
32600,40391,30881
32544,40388,30855
32572,40340,30828
32628,40367,30866
32703,40358,30784
32834,40285,30801
32892,40327,30705
32856,40313,30727
32820,40327,30646
32772,40365,30652
32633,40383,30553
32560,40343,30532
32600,40371,30524
32656,40340,30480
32708,40346,30489
32848,40326,30388
32936,40317,30384
32864,40316,30321
32776,40327,30317
32692,40311,30273
32553,40386,30279
32481,40381,30208
32549,40339,30196
32608,40375,30157
32704,40349,30136
32856,40317,30103
32920,40301,30112
32872,40271,30155
32816,40303,30056
32748,40340,30085
32609,40380,29999
32576,40377,29989
32609,40319,29959
32654,40357,29934
32712,40325,29981
32860,40284,29927
32944,40295,29989
32949,40289,29892
32896,40274,29932
32816,40319,29860
32673,40347,29924
32614,40305,29831
32661,40345,29887
32732,40327,29792
32828,40311,29764
32952,40291,29838
33024,40233,29730
32980,40284,29710
32908,40289,29776
32852,40305,29700
32700,40326,29719
32656,40325,29712
32732,40327,29644
32784,40321,29732
32848,40313,29661
33004,40260,29703
33072,40215,29612
33040,40276,29604
32980,40279,29703
32901,40266,29612
32745,40316,29612
32673,40327,29572
32716,40277,29572
32776,40311,29662
32840,40289,29608
32980,40266,29588
33040,40244,29596
33000,40228,29575
32924,40271,29685
32837,40276,29608
32688,40317,29695
32660,40324,29624
32708,40310,29713
32732,40301,29639
32776,40287,29695
32936,40229,29661
33004,40254,29647
32982,40249,29703
32876,40261,29687
32800,40269,29725
32688,40307,29701
32616,40269,29765
32676,40303,29724
32748,40303,29732
32804,40257,29809
32944,40252,29786
33028,40231,29848
32940,40247,29804
32890,40252,29868
32824,40240,29843
32692,40284,29848
32628,40303,29916
32668,40287,29917
32716,40236,29951
32785,40263,29925
32940,40231,29904
33037,40215,29945
32960,40228,29928
32880,40237,29933
32832,40260,29947
32689,40281,30028
32628,40287,29981
32672,40285,30055
32748,40271,29968
32796,40260,30020
32946,40223,29966
33020,40217,30053
32952,40221,29991
32916,40229,30053
32854,40217,29956
32736,40271,30052
32663,40274,29981
32724,40261,30031
32797,40277,29986
32848,40247,30023
32984,40165,29969
33069,40219,29967
33028,40205,30004
32964,40212,29991
32884,40224,30057
32724,40279,30009
32645,40277,30124
32696,40268,30069
32712,40271,30156
32772,40245,30079
32908,40189,30110
32980,40211,30119
32912,40193,30119
32864,40219,30157
32772,40228,30215
32656,40270,30175
32613,40260,30191
32665,40257,30208
32732,40260,30241
32781,40217,30324
32916,40199,30279
32964,40189,30289
32892,40157,30340
32816,40207,30340
32732,40215,30373
32600,40220,30420
32569,40257,30423
32652,40220,30439
32684,40259,30500
32764,40199,30506
32916,40183,30596
32972,40151,30545
32944,40196,30608
32864,40189,30586
32768,40217,30604
32632,40213,30629
32564,40254,30715
32645,40231,30708
32724,40230,30744
32789,40221,30756
32912,40168,30781
32968,40161,30855
32917,40191,30836
32846,40169,30885
32788,40199,30884
32637,40199,30941
32620,40241,30950
32636,40239,30974
32696,40228,31017
32780,40208,31046
32924,40165,31046
33012,40164,31074
33000,40156,31149
32929,40170,31126
32821,40159,31175
32648,40237,31172
32564,40215,31194
32640,40220,31271
32696,40221,31261
32756,40148,31306
32892,40168,31293
32968,40160,31314
32944,40157,31333
32916,40167,31366
32812,40149,31386
32684,40229,31432
32598,40213,31445
32628,40215,31457
32724,40173,31513
32773,40199,31519
32924,40143,31551
32985,40148,31556
32920,40167,31560
32868,40173,31607
32808,40164,31606
32656,40215,31645
32584,40225,31636
32652,40196,31683
32737,40199,31685
32813,40175,31719
32932,40146,31725
32978,40144,31743
32956,40148,31801
32888,40140,31767
32820,40180,31805
32676,40183,31863
32596,40213,31836
32600,40199,31857
32652,40183,31908
32724,40177,31892
32872,40101,31929
32901,40137,31935
32868,40135,31972
32772,40130,31974
32708,40148,32004
32569,40189,32005
32500,40199,32049
32537,40191,32036
32620,40164,32064
32688,40167,32044
32796,40095,32091
32864,40135,32105
32812,40122,32124
32732,40151,32153
32685,40135,32148
32580,40199,32175
32538,40183,32175
32613,40180,32196
32684,40140,32211
32704,40159,32218
32840,40111,32225
32900,40120,32246
32848,40142,32260
32762,40108,32279
32677,40144,32277
32560,40143,32302
32516,40196,32308
32588,40167,32317
32620,40164,32329
32616,40095,32334
32784,40114,32363
32892,40101,32346
32864,40113,32391
32800,40085,32378
32740,40155,32408
32612,40165,32403
32552,40175,32420
32604,40136,32401
32692,40181,32425
32788,40135,32412
32940,40113,32445
33006,40101,32465
32956,40103,32455
32877,40114,32471
32812,40139,32472
32654,40159,32482
32572,40174,32508
32608,40155,32502
32660,40149,32512
32718,40134,32527
32856,40061,32536
32936,40064,32537
32896,40116,32575
32805,40093,32556
32752,40117,32588
32584,40159,32580
32517,40139,32601
32584,40135,32598
32677,40134,32613
32736,40076,32615
32877,40108,32623
32932,40087,32636
32884,40100,32658
32832,40071,32658
32804,40117,32685
32664,40148,32678
32612,40146,32692
32620,40130,32686
32684,40085,32707
32748,40119,32697
32884,40078,32710
32980,40071,32711
32928,40064,32735
32816,40093,32719
32756,40059,32751
32596,40143,32740
32484,40136,32757
32417,40143,32757
32340,40135,32761
32184,40108,32785
32136,40068,32767
32024,40084,32775
31879,40084,32775
31728,40056,32785
31552,40104,32784
31348,40134,32801
31368,40137,32788
31676,40151,32807
32420,40137,32793
33457,40105,32810
34718,40081,32801
35998,40081,32821
37012,40094,32812
37748,40108,32826
38028,40117,32821
37736,40127,32825
37336,40177,32829
37172,40142,32829
37124,40117,32845
36936,40129,32850
36716,40084,32855
36312,40047,32872
35776,40095,32879
35080,40099,32909
34416,40118,32903
33740,40144,32929
33249,40137,32949
32940,40148,32960
32748,40135,32983
32584,40119,32994
32536,40077,33012
32456,40039,33047
32293,40057,33044
32160,40091,33061
32062,40095,33076
31900,40135,33103
31809,40126,33127
31841,40135,33143
31902,40103,33145
31972,40111,33165
32096,40057,33156
32124,40058,33180
32096,40071,33174
32050,40084,33189
31980,40071,33147
31825,40135,33185
31756,40136,33169
31812,40108,33183
31872,40108,33180
31940,40087,33190
32095,40062,33185
32196,40053,33194
32152,40068,33201
32096,40061,33210
32080,40065,33222
31936,40108,33237
31872,40121,33240
31920,40100,33255
32016,40101,33276
32078,40053,33226
32214,40052,33287
32293,40007,33277
32254,40055,33308
32192,40045,33300
32116,40023,33327
31988,40089,33318
31933,40105,33334
32018,40054,33322
32057,40086,33338
32132,40063,33335
32268,40007,33328
32332,40039,33341
32288,40029,33324
32216,40051,33325
32176,40060,33305
32052,40099,33303
32000,40095,33276
32064,40093,33272
32125,40093,33248
32176,40063,33236
32329,40035,33216
32408,40028,33205
32352,40012,33168
32284,40039,33172
32240,40060,33135
32160,40086,33116
32072,40066,33100
32084,40084,33068
32120,40071,33052
32192,40013,33005
32378,40024,32977
32464,40013,32953
32404,40023,32911
32348,40023,32892
32268,39996,32809
32165,40087,32820
32121,40071,32773
32172,40087,32763
32260,40071,32721
32320,40035,32692
32480,40012,32645
32612,40015,32628
32604,40015,32602
32552,39980,32564
32472,40053,32535
32328,40061,32500
32313,40082,32486
32385,40070,32443
32448,40047,32434
32502,40045,32386
32653,40003,32383
32748,40009,32338
32705,40017,32320
32656,39999,32271
32612,40014,32256
32456,40071,32204
32424,40047,32195
32468,40071,32144
32548,40062,32125
32612,39992,32087
32804,40005,32070
32868,40007,32026
32832,40003,32030
32756,40021,31970
32676,39991,31957
32532,40071,31893
32504,40071,31879
32568,40063,31816
32592,40062,31792
32660,40037,31730
32844,40009,31718
32928,39999,31641
32920,40018,31623
32852,40023,31573
32744,40022,31548
32600,40021,31532
32525,40047,31476
32581,40060,31433
32622,40066,31391
32684,40039,31353
32804,40011,31342
32853,40005,31289
32816,40006,31290
32748,40019,31204
32696,40028,31166
32516,40036,31151
32464,40055,31111
32518,40052,31119
32597,40063,31030
32652,40023,30985
32788,39943,31013
32860,39973,30925
32813,39959,30913
32756,39988,30872
32701,40023,30869
32576,40061,30820
32496,40047,30841
32524,40039,30765
32576,40044,30736
32669,40016,30711
32820,39991,30691
32892,39988,30727
32868,39973,30663
32828,39943,30657
32741,40014,30599
32612,40021,30607
32562,40047,30562
32622,40021,30562
32676,40009,30604
32728,40004,30505
32865,39987,30495
32940,39966,30460
32928,39983,30471
32864,39973,30511
32777,40004,30430
32644,40029,30462
32612,40039,30402
32664,40007,30441
32728,40029,30358
32784,40004,30332
32908,39971,30401
32996,39943,30337
32932,39977,30384
32856,39981,30288
32780,39973,30308
32660,40031,30308
32624,40031,30258
32676,40014,30339
32732,40012,30255
32816,39989,30265
32936,39959,30228
33028,39943,30245
32985,39959,30231
32924,39943,30258
32820,39979,30307
32680,40015,30234
32636,40022,30271
32656,40000,30260
32724,40012,30299
32774,39981,30277
32901,39919,30298
32988,39941,30269
32968,39943,30290
32888,39968,30324
32820,39972,30290
32687,39991,30311
32592,40007,30393
32635,40004,30333
32688,40004,30375
32748,39973,30337
32900,39904,30351
32982,39943,30383
32965,39933,30367
32900,39896,30448
32812,39975,30384
32665,40002,30398
32600,40007,30401
32652,40003,30436
32725,39997,30392
32796,39975,30397
32942,39943,30432
32984,39909,30407
32928,39940,30440
32860,39943,30397
32788,39967,30469
32656,40001,30381
32564,39987,30402
32628,40002,30420
32700,39937,30375
32748,39973,30411
32880,39934,30353
32948,39887,30340
32920,39928,30419
32836,39921,30351
32764,39967,30409
32637,40004,30343
32556,39997,30346
32608,39966,30372
32668,39980,30334
32724,39961,30340
32904,39929,30399
32988,39909,30333
32946,39930,30367
32876,39927,30367
32801,39963,30391
32664,39991,30404
32616,39996,30447
32638,39982,30401
32712,39979,30413
32764,39943,30471
32888,39926,30461
32992,39909,30465
32980,39927,30470
32928,39935,30494
32866,39943,30555
32720,39969,30549
32652,39972,30624
32681,39964,30551
32736,39959,30592
32808,39907,30589
32952,39895,30633
33012,39919,30663
32932,39916,30724
32852,39927,30679
32768,39943,30712
32634,39972,30773
32572,39985,30814
32628,39967,30756
32716,39972,30810
32736,39932,30843
32904,39893,30892
32945,39902,30864
32892,39917,30893
32812,39923,30902
32720,39925,30978
32606,39952,30968
32529,39964,30983
32592,39972,31041
32632,39967,31039
32688,39933,31058
32842,39857,31132
32921,39903,31109
32888,39901,31151
32852,39909,31184
32764,39924,31204
32624,39964,31223
32564,39937,31270
32608,39943,31269
32712,39943,31303
32756,39885,31357
32872,39874,31325
32926,39900,31361
32921,39901,31369
32856,39906,31420
32796,39909,31469
32676,39933,31449
32632,39973,31476
32639,39940,31524
32684,39943,31527
32748,39939,31558
32904,39894,31593
32992,39882,31585
32924,39893,31601
32893,39861,31659
32825,39903,31647
32653,39943,31673
32600,39939,31696
32652,39943,31716
32736,39942,31756
32812,39925,31743
32973,39868,31777
33048,39870,31801
33020,39893,31821
32964,39871,31828
32872,39903,31847
32734,39943,31876
32636,39959,31911
32688,39943,31908
32760,39941,31929
32792,39911,31956
32989,39877,31961
33040,39833,32000
32936,39894,31996
32864,39893,32020
32796,39908,32044
32697,39919,32069
32640,39943,32080
32668,39930,32101
32732,39932,32122
32777,39916,32149
32925,39887,32156
32960,39863,32186
32912,39884,32216
32813,39894,32219
32747,39905,32244
32640,39943,32278
32576,39940,32279
32604,39933,32319
32668,39933,32318
32740,39909,32346
32904,39883,32354
33016,39866,32373
32992,39881,32391
32912,39887,32406
32788,39901,32423
32681,39943,32445
32628,39929,32452
32688,39890,32469
32730,39925,32485
32818,39866,32487
32972,39874,32519
33048,39861,32518
33025,39884,32531
32913,39890,32549
32824,39900,32567
32686,39941,32591
32612,39930,32583
32672,39884,32602
32732,39919,32613
32744,39909,32620
32920,39877,32636
33005,39869,32655
32956,39871,32655
32868,39876,32688
32798,39900,32679
32664,39937,32696
32614,39935,32705
32664,39927,32733
32730,39921,32735
32784,39895,32750
32960,39815,32738
33044,39871,32774
32972,39854,32769
32924,39873,32797
32856,39907,32804
32693,39915,32827
32620,39877,32836
32650,39925,32844
32744,39897,32877
32797,39880,32871
32917,39852,32885
32982,39853,32877
32940,39829,32901
32848,39847,32912
32764,39892,32907
32560,39912,32940
32388,39919,32924
32245,39906,32953
32117,39860,32951
31993,39888,32971
31992,39866,32976
31968,39853,32985
31876,39852,32998
31692,39871,33009
31613,39884,33020
31596,39927,33004
31908,39940,33031
32753,39919,33048
33808,39917,33038
34996,39897,33069
36256,39876,33061
37229,39868,33094
37816,39878,33087
37873,39884,33111
37532,39908,33108
37108,39943,33104
36960,39943,33137
36861,39930,33155
36688,39935,33164
36344,39903,33191
36052,39876,33205
35649,39856,33220
35084,39881,33239
34436,39880,33260
33870,39911,33258
33348,39927,33297
32976,39902,33316
32780,39916,33351
32613,39880,33379
32488,39900,33369
32492,39873,33421
32464,39877,33405
32380,39863,33444
32328,39855,33474
32220,39888,33484
32076,39897,33518
31964,39930,33543
31992,39933,33535
32048,39911,33582
32105,39860,33607
32256,39852,33578
32338,39800,33615
32310,39855,33591
32249,39832,33597
32160,39878,33621
32028,39892,33634
31960,39913,33614
32021,39885,33637
32081,39899,33647
32160,39838,33625
32298,39847,33663
32388,39812,33669
32348,39844,33669
32316,39869,33652
32224,39871,33692
32064,39911,33671
32008,39916,33717
32080,39893,33733
32160,39895,33734
32188,39871,33760
32344,39851,33744
32420,39842,33767
32400,39851,33790
32328,39852,33765
32240,39829,33798
32136,39905,33766
32058,39908,33799
32088,39873,33781
32176,39887,33790
32220,39878,33805
32380,39849,33793
32472,39829,33799
32416,39799,33798
32328,39839,33783
32264,39823,33754
32160,39906,33772
32108,39900,33760
32158,39894,33721
32204,39875,33724
32285,39877,33695
32432,39847,33695
32508,39834,33685
32508,39822,33660
32440,39847,33637
32401,39871,33618
32272,39894,33572
32208,39908,33563
32269,39881,33559
32344,39885,33487
32422,39866,33480
32572,39836,33463
32654,39791,33404
32617,39828,33369
32524,39845,33349
32484,39860,33319
32364,39898,33279
32326,39895,33236
32388,39892,33222
32468,39879,33175
32524,39868,33155
32676,39829,33127
32736,39830,33069
32684,39825,33047
32612,39853,33012
32556,39863,32973
32448,39894,32955
32424,39900,32913
32506,39896,32881
32568,39872,32852
32654,39869,32829
32792,39828,32815
32892,39837,32752
32857,39832,32733
32782,39813,32707
32734,39845,32660
32644,39901,32640
32576,39903,32582
32644,39887,32565
32726,39892,32544
32812,39858,32483
32952,39839,32452
33028,39815,32421
32968,39845,32383
32949,39832,32356
32849,39860,32300
32740,39900,32263
32660,39890,32214
32704,39853,32167
32776,39884,32132
32829,39871,32076
32956,39843,32041
33036,39829,31972
32992,39839,31948
32916,39836,31930
32838,39867,31847
32653,39900,31817
32562,39911,31798
32576,39885,31717
32622,39895,31680
32680,39861,31663
32800,39800,31597
32856,39824,31585
32802,39801,31516
32726,39825,31489
32684,39831,31450
32548,39895,31414
32456,39900,31389
32496,39900,31317
32548,39877,31295
32616,39871,31296
32740,39833,31236
32832,39836,31200
32780,39825,31169
32718,39813,31129
32640,39855,31125
32504,39885,31078
32437,39891,31087
32484,39871,31036
32568,39868,31039
32672,39860,30983
32840,39808,30982
32900,39815,30917
32856,39815,30888
32820,39833,30896
32774,39836,30849
32620,39853,30884
32562,39891,30818
32581,39877,30842
32640,39867,30773
32708,39847,30735
32869,39815,30788
32953,39809,30706
32888,39815,30694
32813,39815,30656
32736,39847,30646
32608,39874,30687
32568,39884,30624
32616,39868,30594
32686,39863,30561
32748,39845,30621
32900,39822,30552
32988,39791,30525
32902,39769,30535
32807,39792,30516
32730,39831,30550
32580,39823,30484
32500,39868,30468
32567,39856,30513
32640,39869,30478
32708,39833,30508
32860,39772,30468
32944,39806,30508
32882,39807,30471
32801,39797,30527
32761,39836,30472
32604,39855,30533
32554,39847,30481
32608,39861,30533
32662,39845,30501
32716,39837,30542
32832,39754,30504
32904,39780,30556
32856,39802,30505
32820,39815,30525
32760,39815,30524
32604,39861,30572
32564,39862,30548
32640,39860,30576
32676,39840,30559
32716,39785,30553
32832,39798,30577
32908,39780,30569
32864,39763,30572
32800,39812,30580
32728,39815,30589
32572,39823,30628
32540,39854,30599
32600,39809,30647
32672,39836,30587
32756,39804,30574
32909,39793,30615
32988,39799,30593
32968,39796,30633
32900,39805,30581
32809,39813,30564
32620,39852,30624
32576,39856,30569
32604,39852,30564
32681,39841,30580
32744,39837,30528
32870,39788,30530
32976,39781,30548
32944,39791,30520
32908,39788,30522
32840,39781,30567
32697,39860,30513
32584,39848,30532
32609,39841,30527
32704,39838,30535
32772,39816,30606
32920,39788,30565
32980,39775,30623
32902,39788,30580
32844,39796,30649
32801,39813,30588
32648,39837,30660
32574,39852,30631
32642,39832,30692
32704,39798,30660
32744,39815,30671
32900,39783,30705
32993,39741,30694
32932,39775,30727
32844,39796,30771
32764,39815,30748
32624,39852,30768
32566,39852,30793
32630,39844,30797
32688,39828,30828
32720,39815,30844
32858,39784,30877
32912,39764,30917
32872,39783,30921
32820,39789,30983
32752,39814,30964
32637,39845,31027
32584,39844,31013
32652,39807,31036
32704,39833,31041
32749,39800,31071
32865,39751,31097
32956,39780,31120
32940,39773,31176
32860,39744,31168
32774,39797,31205
32660,39847,31216
32612,39830,31263
32660,39822,31284
32729,39803,31301
32800,39815,31348
32964,39776,31365
33020,39772,31393
32992,39765,31399
32880,39777,31421
32809,39798,31480
32650,39845,31484
32588,39829,31541
32628,39812,31517
32724,39829,31583
32776,39788,31570
32920,39775,31609
32980,39765,31616
32940,39780,31660
32880,39783,31671
32804,39788,31705
32676,39837,31709
32616,39839,31762
32668,39825,31751
32752,39823,31772
32804,39807,31811
32932,39754,31801
33016,39765,31845
32944,39728,31853
32889,39779,31872
32801,39788,31892
32660,39820,31949
32604,39830,31949
32648,39786,31953
32740,39829,31983
32791,39783,31996
32920,39769,32012
32980,39740,32057
32948,39760,32047
32888,39774,32068
32784,39799,32090
32597,39815,32108
32544,39806,32141
32604,39826,32142
32712,39812,32170
32760,39804,32177
32865,39765,32204
32919,39741,32202
32848,39730,32228
32784,39777,32247
32725,39791,32263
32596,39815,32293
32520,39826,32293
32544,39791,32308
32640,39815,32333
32724,39788,32347
32904,39778,32367
32940,39748,32379
32908,39736,32391
32836,39770,32421
32800,39791,32429
32656,39801,32461
32592,39814,32460
32636,39815,32485
32661,39815,32470
32684,39780,32507
32856,39772,32520
32932,39763,32539
32904,39767,32551
32850,39767,32581
32796,39786,32583
32644,39775,32604
32625,39807,32617
32648,39815,32629
32709,39812,32647
32782,39783,32661
32916,39767,32671
32984,39736,32685
32950,39725,32703
32885,39748,32711
32812,39753,32720
32662,39815,32745
32588,39815,32753
32636,39809,32765
32696,39783,32775
32776,39789,32791
32880,39748,32809
32942,39703,32820
32916,39743,32829
32832,39765,32842
32772,39749,32841
32652,39807,32865
32556,39815,32879
32580,39801,32877
32585,39815,32912
32580,39764,32903
32612,39700,32921
32476,39743,32916
32248,39762,32940
32012,39751,32940
31788,39757,32964
31581,39808,32980
31445,39816,32965
31424,39815,32991
31528,39783,32997
31718,39800,32993
32296,39753,33018
33196,39761,33037
34152,39752,33043
35196,39749,33059
36140,39801,33053
36814,39831,33069
37260,39815,33069
37293,39839,33099
37056,39815,33082
36884,39815,33124
37024,39777,33123
36996,39759,33140
36736,39743,33141
36268,39783,33165
35756,39789,33188
35132,39791,33212
34540,39847,33221
34024,39825,33253
33608,39824,33252
33324,39807,33301
33160,39748,33309
32945,39764,33348
32708,39769,33375
32516,39781,33375
32326,39774,33414
32072,39781,33417
31956,39836,33457
31940,39815,33491
31993,39773,33507
32025,39797,33501
32148,39772,33556
32208,39764,33560
32176,39759,33580
32128,39761,33625
32041,39785,33602
31884,39815,33630
31820,39814,33615
31876,39815,33646
31952,39758,33633
32012,39793,33671
32152,39735,33671
32196,39744,33681
32160,39705,33653
32112,39764,33695
32065,39776,33681
31925,39811,33716
31900,39813,33716
31960,39796,33725
32016,39802,33721
32100,39783,33748
32276,39745,33765
32328,39730,33748
32320,39736,33799
32260,39746,33815
32177,39767,33813
32056,39812,33803
31980,39809,33839
32012,39805,33840
32086,39791,33864
32148,39772,33881
32266,39740,33844
32357,39738,33872
32332,39732,33890
32276,39708,33847
32160,39759,33882
32077,39750,33873
32021,39805,33842
32065,39796,33839
32120,39777,33851
32180,39776,33841
32364,39735,33799
32452,39732,33821
32413,39743,33817
32353,39757,33759
32312,39749,33775
32186,39802,33765
32129,39804,33719
32180,39797,33708
32239,39744,33692
32328,39773,33617
32456,39743,33637
32526,39733,33599
32524,39738,33584
32469,39747,33556
32425,39755,33533
32313,39785,33488
32248,39803,33463
32308,39796,33415
32388,39780,33391
32452,39756,33367
32608,39743,33313
32689,39720,33287
32684,39729,33253
32636,39741,33209
32594,39753,33189
32476,39766,33152
32452,39807,33136
32492,39775,33092
32620,39781,33065
32684,39760,33025
32796,39724,32980
32881,39687,32964
32884,39741,32935
32800,39736,32885
32732,39727,32866
32612,39809,32818
32552,39790,32800
32620,39783,32764
32692,39746,32736
32732,39768,32709
32893,39744,32660
33008,39724,32639
32961,39741,32598
32908,39749,32568
32840,39763,32525
32684,39790,32487
32624,39791,32441
32688,39743,32404
32728,39789,32377
32792,39764,32323
32908,39743,32276
33012,39734,32243
32988,39724,32175
32908,39703,32148
32836,39764,32117
32724,39805,32046
32620,39808,32007
32656,39790,31967
32692,39791,31940
32708,39769,31872
32856,39711,31832
32916,39729,31809
32844,39749,31745
32752,39756,31692
32660,39771,31676
32496,39810,31622
32453,39793,31580
32473,39799,31518
32532,39799,31495
32617,39768,31470
32780,39742,31431
32828,39745,31413
32736,39733,31333
32652,39713,31309
32602,39768,31295
32448,39791,31252
32364,39800,31199
32381,39740,31212
32468,39795,31151
32524,39752,31171
32668,39735,31098
32768,39737,31111
32740,39726,31043
32676,39732,31049
32640,39766,31002
32516,39785,30972
32446,39807,30951
32514,39777,30921
32577,39781,30901
32604,39746,30848
32764,39727,30842
32863,39728,30837
32821,39716,30799
32740,39713,30826
32697,39748,30780
32540,39783,30791
32488,39796,30715
32528,39773,30703
32596,39781,30708
32608,39755,30679
32789,39721,30664
32856,39716,30617
32860,39715,30608
32785,39687,30647
32728,39751,30610
32596,39783,30644
32548,39789,30561
32612,39772,30580
32660,39742,30551
32732,39700,30627
32868,39719,30564
32954,39713,30540
32924,39733,30540
32808,39719,30549
32736,39750,30610
32632,39772,30560
32586,39780,30569
32604,39739,30553
32640,39767,30565
32716,39751,30620
32846,39716,30598
32920,39687,30653
32872,39717,30620
32796,39675,30669
32728,39724,30615
32572,39720,30640
32524,39788,30703
32570,39767,30683
32668,39761,30727
32741,39705,30683
32916,39713,30690
32976,39687,30734
32952,39711,30695
32866,39720,30727
32768,39724,30726
32648,39772,30740
32596,39780,30791
32668,39755,30769
32736,39743,30791
32801,39730,30821
32924,39711,30782
32988,39701,30823
32956,39703,30772
32904,39706,30791
32840,39733,30814
32696,39735,30768
32609,39758,30765
32660,39760,30799
32724,39759,30788
32830,39737,30786
32952,39711,30744
32998,39693,30780
32948,39711,30748
32896,39709,30779
32832,39733,30796
32697,39751,30760
32644,39769,30823
32714,39753,30778
32768,39751,30836
32816,39733,30789
32988,39709,30839
33056,39700,30808
33004,39697,30820
32928,39708,30817
32838,39725,30829
32720,39753,30860
32689,39765,30855
32748,39763,30889
32816,39735,30936
32844,39728,30933
32970,39697,30989
33068,39679,30967
33058,39661,31033
32992,39713,31017
32920,39706,31089
32782,39756,31068
32700,39767,31129
32772,39745,31093
32838,39709,31132
32844,39708,31194
32944,39684,31175
33020,39677,31197
32973,39708,31230
32885,39693,31239
32837,39724,31269
32720,39741,31256
32656,39759,31277
32720,39755,31305
32804,39737,31329
32876,39684,31369
32970,39687,31348
33060,39679,31391
33016,39703,31372
32890,39687,31396
32821,39673,31416
32680,39749,31441
32616,39762,31467
32640,39750,31477
32716,39721,31538
32784,39676,31518
32932,39669,31535
33004,39660,31583
32985,39677,31559
32943,39649,31588
32888,39717,31636
32748,39743,31626
32652,39756,31645
32687,39741,31684
32764,39740,31664
32832,39711,31692
32964,39653,31732
33041,39657,31725
33024,39684,31750
32984,39698,31741
32880,39703,31769
32744,39743,31804
32696,39746,31796
32772,39700,31813
32816,39716,31859
32860,39719,31847
33024,39660,31879
33108,39653,31856
33056,39676,31884
32956,39680,31887
32853,39700,31914
32644,39731,31958
32556,39737,31934
32629,39733,31967
32688,39741,31964
32756,39700,31995
32898,39687,31997
32964,39645,32031
32952,39685,32014
32892,39684,32044
32800,39719,32052
32656,39729,32074
32600,39748,32088
32668,39716,32103
32740,39724,32134
32768,39717,32132
32924,39671,32161
33028,39668,32156
32992,39676,32188
32936,39680,32188
32912,39709,32224
32808,39732,32231
32728,39750,32260
32734,39743,32253
32752,39725,32282
32829,39717,32319
32970,39645,32341
33068,39676,32345
33010,39665,32388
32884,39680,32401
32836,39695,32432
32654,39732,32443
32576,39734,32479
32622,39741,32513
32692,39703,32517
32784,39706,32542
32924,39681,32564
32936,39661,32596
32905,39645,32628
32872,39685,32644
32832,39687,32683
32700,39741,32705
32672,39744,32740
32668,39728,32775
32749,39725,32796
32852,39708,32837
33044,39662,32884
33108,39671,32890
33065,39687,32934
33045,39673,32968
32992,39703,32986
32860,39736,33037
32780,39733,33057
32820,39721,33101
32840,39697,33127
32876,39683,33166
33025,39636,33209
33080,39668,33218
33052,39655,33268
32980,39631,33309
32904,39687,33319
32696,39721,33364
32576,39703,33401
32620,39725,33432
32612,39708,33479
32516,39655,33484
32500,39673,33519
32359,39652,33532
32159,39669,33581
31997,39681,33607
31902,39682,33617
31736,39727,33671
31572,39725,33697
31592,39729,33692
31693,39680,33759
32076,39703,33757
32980,39687,33794
34012,39685,33831
35044,39701,33825
35940,39696,33888
36524,39733,33912
36816,39750,33908
36688,39732,33964
36456,39749,33989
36244,39749,34020
36300,39724,34044
36412,39695,34081
36428,39681,34050
36216,39687,34127
35900,39687,34149
35454,39725,34185
34903,39750,34191
34300,39766,34224
33872,39741,34277
33552,39743,34324
33292,39716,34311
33180,39640,34383
33012,39687,34417
32792,39680,34397
32596,39644,34477
32448,39702,34527
32280,39746,34509
32193,39748,34559
32204,39724,34631
32210,39725,34641
32256,39725,34700
32388,39673,34711
32452,39652,34783
32376,39673,34832
32250,39685,34791
32124,39710,34877
31944,39732,34891
31865,39697,34947
31936,39734,34973
32064,39719,34932
32125,39703,35017
32268,39677,34973
32384,39665,35055
32374,39676,35110
32316,39679,35100
32258,39687,35166
32088,39735,35160
32000,39739,35168
32036,39714,35248
32104,39719,35270
32165,39695,35254
32324,39677,35297
32448,39660,35364
32468,39677,35412
32376,39670,35399
32284,39687,35406
32144,39724,35485
32048,39719,35460
32032,39719,35541
32088,39719,35570
32140,39687,35522
32320,39661,35621
32425,39647,35586
32428,39647,35684
32388,39663,35636
32340,39636,35701
32204,39716,35700
32129,39720,35748
32132,39719,35760
32224,39700,35740
32336,39680,35792
32455,39639,35732
32516,39637,35782
32476,39628,35768
32428,39668,35812
32384,39681,35801
32276,39701,35772
32256,39727,35821
32320,39718,35744
32416,39708,35813
32512,39687,35780
32652,39615,35792
32684,39653,35725
32652,39644,35774
32600,39627,35716
32524,39676,35761
32364,39703,35717
32288,39719,35757
32380,39677,35680
32484,39719,35697
32552,39669,35623
32680,39648,35676
32774,39648,35604
32752,39647,35655
32676,39669,35655
32608,39677,35647
32424,39719,35628
32352,39719,35540
32484,39671,35583
32632,39687,35571
32716,39687,35533
32885,39653,35549
32970,39647,35484
32900,39668,35544
32868,39641,35515
32828,39669,35520
32680,39671,35444
32596,39726,35510
32624,39711,35431
32688,39711,35481
32740,39669,35419
32900,39657,35463
32964,39658,35422
32928,39660,35457
32869,39667,35412
32776,39687,35404
32600,39717,35404
32581,39714,35388
32664,39716,35392
32704,39687,35384
32832,39692,35367
33048,39653,35358
33152,39660,35281
33116,39663,35308
33016,39657,35300
32920,39679,35242
32716,39697,35271
32552,39722,35263
32620,39719,35265
32687,39712,35248
32760,39676,35233
32860,39660,35212
32932,39628,35156
32892,39662,35182
32765,39633,35145
32662,39687,35168
32476,39716,35152
32360,39687,35085
32396,39717,35139
32352,39694,35065
32404,39683,35111
32594,39661,35040
32692,39627,35100
32740,39665,35039
32660,39655,35076
32576,39687,35063
32425,39724,35100
32333,39711,35087
32392,39719,35026
32460,39702,35072
32548,39678,35068
32760,39656,35103
32877,39647,35117
32772,39639,35055
32704,39660,35100
32650,39679,35096
32576,39701,35132
32500,39719,35084
32492,39708,35135
32540,39649,35079
32637,39687,35145
32782,39638,35094
32820,39645,35173
32800,39661,35172
32826,39655,35156
32824,39668,35143
32660,39705,35175
32559,39708,35191
32620,39705,35140
32676,39697,35190
32676,39672,35199
32800,39652,35172
32888,39628,35253
32849,39596,35175
32789,39655,35238
32708,39657,35204
32500,39661,35295
32392,39715,35308
32456,39699,35276
32496,39687,35335
32520,39669,35309
32628,39639,35384
32797,39619,35392
32826,39636,35405
32736,39645,35461
32672,39663,35500
32526,39697,35441
32444,39721,35534
32488,39687,35569
32580,39680,35527
32644,39652,35628
32828,39638,35684
32893,39623,35645
32876,39637,35719
32808,39653,35669
32732,39660,35764
32584,39695,35719
32480,39661,35816
32548,39708,35781
32568,39687,35872
32612,39669,35836
32769,39636,35955
32876,39587,35903
32838,39645,35978
32804,39639,35924
32781,39660,36023
32649,39703,35991
32628,39687,36080
32628,39646,36079
32721,39687,36052
32772,39671,36143
32908,39612,36155
33010,39631,36178
32920,39610,36129
32872,39632,36187
32829,39657,36116
32652,39685,36221
32560,39700,36153
32560,39687,36244
32629,39681,36185
32676,39663,36278
32844,39634,36231
32976,39589,36312
32996,39621,36257
32988,39655,36383
32976,39663,36393
32893,39676,36359
32788,39687,36416
32792,39695,36417
32793,39687,36462
32760,39669,36440
32904,39623,36497
33040,39623,36509
32982,39639,36564
32912,39633,36580
32868,39663,36525
32812,39687,36625
32804,39655,36676
32784,39687,36620
32793,39677,36688
32830,39669,36669
32992,39623,36756
33112,39621,36796
32992,39636,36709
32925,39629,36816
32864,39620,36799
32724,39687,36871
32613,39701,36897
32648,39674,36932
32692,39663,36970
32792,39663,36919
32960,39607,36996
33020,39604,36991
32960,39631,37052
32820,39650,37092
32740,39649,37031
32684,39687,37117
32660,39711,37036
32684,39677,37140
32684,39663,37119
32728,39655,37089
32928,39636,37204
32964,39622,37156
32924,39623,37255
32884,39618,37225
32832,39659,37317
32686,39687,37314
32620,39700,37265
32583,39671,37365
32608,39635,37292
32748,39663,37396
32889,39620,37319
32933,39618,37447
32904,39633,37479
32840,39630,37420
32812,39649,37518
32704,39673,37422
32596,39653,37528
32549,39663,37599
32644,39635,37492
32740,39647,37609
32860,39615,37625
32936,39628,37589
32860,39629,37660
32792,39631,37600
32708,39644,37719
32572,39639,37759
32480,39697,37639
32480,39679,37772
32556,39680,37801
32660,39653,37692
32788,39633,37815
32828,39619,37806
32788,39631,37720
32741,39628,37869
32749,39604,37895
32621,39672,37767
32568,39697,37885
32668,39684,37916
32709,39670,37911
32756,39653,37945
32924,39584,37844
32988,39604,37933
32944,39629,37966
32844,39616,37871
32842,39649,37949
32714,39684,37900
32670,39647,37989
32704,39664,37988
32684,39663,38007
32700,39658,37981
32865,39615,38044
33008,39620,37904
32944,39631,37956
32772,39601,38029
32680,39652,38010
32528,39684,38033
32436,39687,37983
32468,39669,38037
32584,39623,38084
32660,39655,37959
32832,39623,38061
32942,39583,38092
32924,39628,38012
32888,39623,38135
32836,39647,38020
32720,39687,38111
32606,39679,38151
32656,39681,38048
32736,39671,38060
32752,39652,38151
32848,39609,38045
32964,39612,38146
32884,39631,38143
32724,39623,38111
32694,39636,38160
32560,39675,38093
32464,39671,38159
32456,39677,38173
32480,39663,38119
32420,39653,38228
32356,39625,38118
32168,39604,38189
32004,39625,38161
31828,39617,38229
31680,39647,38215
31420,39679,38149
31204,39671,38261
31200,39687,38164
31453,39680,38274
32172,39677,38160
33308,39628,38245
34600,39601,38208
35592,39660,38277
36208,39644,38317
36312,39671,38206
35888,39718,38279
35276,39716,38207
34784,39687,38292
34880,39701,38255
35324,39677,38332
35830,39652,38279
36081,39630,38349
35996,39647,38389
35716,39636,38279
35280,39660,38407
34660,39701,38306
34144,39702,38412
33788,39655,38297
33433,39699,38406
33240,39674,38363
33164,39599,38446
33034,39628,38356
32760,39625,38468
32472,39647,38380
