ECG,EDA,RR
32712,52143,39009
32789,52119,39047
32908,52071,39084
32984,52086,39236
33156,52052,39175
33298,52051,39232
33305,52076,39327
33100,52077,39353
33036,52076,39383
32844,52029,39415
32736,52119,39404
32848,52135,39468
33052,52103,39499
33124,52103,39519
33232,52032,39525
33356,52060,39593
33292,52009,39616
33144,52079,39632
33104,52071,39681
33016,52117,39676
32968,52103,39606
33014,52140,39653
33100,52144,39669
33156,52127,39724
33324,52096,39744
33472,52005,39774
33340,52017,39809
33160,52044,39810
33013,52087,39849
32900,52068,39884
32836,52143,39908
32876,52124,39940
33085,52133,39953
33200,52103,39983
33372,52097,39999
33501,52047,40022
33384,52079,40045
33249,52055,40062
33216,52103,40085
33116,52120,40101
33045,52166,40100
33108,52076,40140
33216,52165,40185
33204,52148,40197
33300,52125,40204
33440,52085,40231
33392,52127,40289
33344,52125,40367
33172,52117,40364
33016,52164,40385
32972,52191,40358
33080,52169,40364
33176,52156,40396
33137,52092,40408
33260,52135,40450
33288,52124,40468
33272,52119,40494
33252,52143,40505
33256,52129,40532
33072,52160,40517
33000,52156,40580
33061,52184,40647
33092,52164,40668
33160,52167,40672
33196,52148,40645
33301,52125,40685
33332,52061,40624
33284,52124,40624
33216,52063,40711
33072,52176,40684
32892,52132,40709
32928,52223,40717
33054,52194,40731
33092,52204,40741
33258,52156,40684
33408,52129,40767
33265,52159,40821
33006,52157,40867
32885,52159,40873
32732,52157,40897
32528,52214,40916
32416,52231,40916
32321,52209,40902
32136,52228,40932
31976,52180,40957
31968,52101,40937
31932,52092,40952
31716,52165,40967
31628,52121,40967
31580,52220,40993
31552,52175,41002
32268,52253,41040
33452,52278,41068
34836,52266,41076
36208,52175,41108
37220,52255,41121
37392,52231,41154
37164,52271,41180
36512,52276,41199
35749,52316,41220
35648,52324,41249
36221,52324,41268
36900,52311,41282
37248,52317,41308
37284,52267,41330
37016,52225,41351
36468,52257,41382
35756,52188,41407
35132,52261,41428
34576,52295,41457
34036,52309,41479
33677,52327,41479
33536,52317,41529
33380,52320,41543
33336,52286,41553
33260,52279,41575
33024,52260,41602
32768,52231,41612
32616,52196,41633
32312,52313,41652
32070,52356,41663
31976,52255,41668
32092,52325,41676
32216,52335,41728
32320,52289,41735
32492,52199,41709
32545,52198,41717
32524,52287,41721
32500,52270,41719
32302,52324,41697
32145,52357,41636
32194,52284,41660
32260,52324,41637
32268,52261,41620
32396,52287,41602
32636,52294,41588
32630,52305,41577
32568,52295,41555
32580,52231,41522
32380,52345,41509
32272,52359,41545
32348,52372,41534
32444,52357,41503
32448,52300,41468
32536,52317,41452
32614,52223,41364
32552,52295,41377
32460,52268,41417
32436,52317,41364
32358,52295,41356
32356,52381,41338
32476,52391,41356
32624,52377,41304
32789,52381,41318
32932,52341,41254
32964,52335,41249
32868,52285,41228
32688,52349,41215
32606,52359,41247
32456,52343,41199
32416,52404,41178
32508,52359,41122
32548,52391,41072
32440,52359,41041
32568,52356,40956
32780,52327,40913
32856,52352,40850
32844,52397,40815
32788,52380,40756
32694,52383,40711
32628,52348,40660
32720,52423,40621
32774,52409,40564
32804,52425,40520
32920,52353,40527
32936,52357,40525
32896,52372,40455
32816,52388,40364
32732,52405,40327
32628,52356,40308
32516,52449,40241
32576,52381,40186
32737,52375,40221
32912,52446,40126
33056,52423,40060
33208,52407,40012
33184,52406,40076
33156,52335,39943
32977,52399,39868
32860,52397,39837
32688,52484,39829
32633,52396,39792
32686,52476,39765
32746,52441,39712
32869,52452,39665
32988,52423,39622
33044,52416,39591
33028,52399,39557
32916,52436,39525
32856,52400,39524
32824,52487,39520
32952,52463,39509
33080,52481,39503
33094,52415,39400
33192,52455,39232
33288,52369,39236
33324,52452,39191
33372,52485,39269
33312,52468,39108
33172,52511,39100
33092,52528,39047
33034,52534,39013
33104,52529,38957
33144,52543,38930
33201,52414,38900
33228,52455,38860
33148,52412,38829
33121,52487,38776
33084,52509,38726
32976,52540,38663
32869,52567,38658
32924,52540,38581
32886,52461,38541
32808,52525,38605
32920,52517,38612
33013,52494,38433
32924,52511,38400
32792,52535,38364
32593,52516,38336
32429,52564,38325
32337,52580,38293
32340,52503,38255
32356,52575,38193
32380,52549,38149
32512,52536,38109
32652,52471,38087
32615,52513,38156
32625,52513,38085
32468,52543,38017
32340,52580,37993
32208,52596,38061
32308,52546,38056
32504,52580,37933
32608,52580,37895
32736,52541,37925
32828,52549,37933
32637,52541,37907
32548,52509,37854
32461,52495,37844
32336,52601,37775
32288,52527,37775
32385,52597,37741
32444,52583,37696
32492,52599,37604
32637,52564,37548
32668,52541,37558
32516,52556,37463
32432,52487,37407
32437,52540,37383
32384,52611,37349
32320,52626,37324
32344,52615,37389
32372,52527,37443
32356,52576,37405
32516,52572,37395
32717,52569,37290
32744,52479,37383
32716,52567,37380
32700,52516,37319
32542,52615,37223
32304,52575,37220
32244,52631,37327
32302,52637,37255
32340,52615,37255
32481,52599,37294
32653,52577,37349
32652,52590,37204
32560,52580,37153
32476,52605,37189
32256,52615,37204
32104,52615,37196
32172,52654,37178
32226,52639,37188
32248,52655,37183
32360,52604,37182
32544,52599,37166
32594,52583,37148
32556,52590,37127
32428,52615,37140
32368,52637,37188
32217,52637,37157
32108,52649,37192
32020,52671,37249
32116,52669,37304
32344,52615,37237
32564,52596,37198
32662,52615,37255
32622,52525,37333
32600,52567,37317
32428,52577,37336
32196,52623,37271
32121,52679,37213
32188,52644,37228
32388,52611,37245
32640,52609,37181
32757,52589,37156
32792,52639,37151
32788,52624,37189
32720,52647,37237
32596,52670,37263
32484,52703,37232
32448,52672,37279
32392,52661,37306
32460,52668,37412
32636,52644,37264
32724,52637,37260
32684,52615,37316
32676,52655,37328
32634,52588,37311
32574,52677,37282
32508,52703,37351
32489,52674,37337
32572,52686,37296
32612,52703,37344
32712,52589,37427
32831,52643,37365
32768,52592,37428
32736,52653,37392
32724,52668,37526
32684,52605,37444
32576,52696,37421
32556,52628,37441
32680,52695,37440
32737,52712,37471
32776,52661,37487
32889,52655,37536
32864,52600,37473
32762,52655,37439
32696,52615,37400
32560,52700,37415
32421,52679,37461
32444,52718,37500
32528,52629,37532
32676,52671,37504
32820,52588,37566
33052,52669,37541
33020,52662,37506
32856,52680,37434
32728,52672,37405
32613,52670,37421
32544,52733,37481
32616,52732,37457
32694,52708,37436
32700,52644,37429
32836,52679,37412
32940,52640,37412
32872,52653,37484
32760,52631,37508
32704,52679,37497
32596,52696,37428
32544,52735,37413
32612,52743,37445
32716,52725,37461
32764,52743,37375
32812,52695,37204
32872,52661,37229
32824,52699,37231
32736,52684,37171
32738,52695,37149
32656,52653,37254
32500,52724,37240
32520,52742,37081
32600,52740,36951
32632,52647,37007
32766,52709,36933
32936,52665,36941
32982,52675,36900
32948,52711,36849
32889,52711,36839
32812,52743,36767
32694,52724,36700
32720,52719,36660
32800,52691,36628
32868,52735,36557
33008,52631,36500
33135,52682,36493
33024,52700,36477
32908,52711,36329
32916,52657,36279
32848,52743,36237
32832,52743,36189
32848,52677,36145
32852,52743,36101
32852,52743,36050
32908,52723,36012
32996,52706,35959
33014,52708,36000
32984,52676,35949
32956,52636,35925
32832,52743,35879
32792,52775,35823
32908,52788,35767
33029,52767,35737
33084,52772,35678
33210,52725,35621
33288,52719,35585
33246,52713,35548
33164,52652,35540
33084,52733,35559
32964,52727,35512
32808,52784,35318
32862,52781,35173
32920,52743,35125
32932,52679,35172
33004,52725,35200
33121,52724,35156
33196,52714,35093
33172,52726,35015
33136,52736,34977
33060,52775,34921
32970,52783,34852
33012,52789,34798
33090,52772,34740
33152,52743,34709
33162,52721,34646
33157,52720,34501
33108,52727,34468
33016,52712,34435
32880,52731,34580
32696,52772,34447
32436,52793,34389
32221,52796,34373
32072,52781,34293
31928,52797,34248
31936,52660,34161
32012,52696,34074
31964,52670,34007
31729,52740,33956
31660,52777,33908
31589,52804,33860
32058,52839,33824
33200,52821,33770
34600,52836,33720
36032,52839,33671
37352,52800,33639
38112,52728,33609
38260,52804,33521
37764,52821,33424
37024,52812,33396
36544,52853,33266
36748,52824,33197
37168,52858,33159
37436,52863,33216
37281,52764,33182
36964,52796,33189
36580,52801,33252
36056,52732,33162
35372,52797,33100
34828,52815,33065
34296,52772,33028
33744,52853,32992
33412,52804,32980
33192,52845,32936
32960,52853,32806
32842,52822,32727
32808,52791,32740
32760,52807,32783
32620,52727,32653
32552,52791,32889
32438,52812,32821
32238,52853,32808
32224,52870,32693
32252,52847,32675
32300,52831,32660
32444,52759,32565
32566,52784,32529
32577,52774,32411
32497,52740,32354
32372,52805,32388
32212,52839,32500
32048,52871,32412
32032,52820,32369
32120,52852,32344
32189,52844,32186
32276,52833,32112
32404,52792,32167
32420,52810,32243
32360,52825,32263
32332,52767,32161
32252,52860,32133
32172,52884,32092
32228,52844,31909
32377,52863,32119
32408,52858,32014
32476,52837,31991
32589,52731,31810
32548,52764,32049
32436,52815,32022
32412,52799,31990
32320,52858,31884
32184,52871,31815
32184,52894,31774
32232,52820,31641
32377,52868,31524
32528,52858,31469
32616,52829,31452
32552,52853,31404
32508,52772,31465
32476,52837,31521
32412,52891,31460
32332,52893,31396
32316,52891,31302
32412,52868,31238
32472,52893,31193
32508,52860,31107
32712,52863,30959
32716,52854,30876
32580,52815,30818
32552,52797,30741
32440,52893,30776
32312,52928,30807
32356,52921,30784
32493,52908,30705
32622,52921,30605
32782,52893,30551
32796,52825,30480
32776,52805,30440
32712,52871,30382
32628,52901,30329
32521,52836,30279
32460,52935,30215
32548,52852,30158
32640,52927,30113
32680,52923,30065
32788,52897,29993
32912,52899,29953
32964,52887,29895
32988,52916,29857
33016,52871,29797
33024,52911,29748
32956,52899,29701
32936,52957,29653
32900,52871,29589
32924,52958,29528
33004,52889,29482
33100,52905,29316
33100,52905,29277
33081,52948,29254
33104,52932,29245
33028,52964,29260
32890,52999,29162
32932,52900,29101
33052,52983,29036
33164,52964,28876
33304,52926,28751
33420,52935,28760
33417,52935,28846
33328,52973,28721
33228,52862,28665
33112,52999,28597
32992,52981,28400
33016,53012,28396
33110,52961,28482
33169,52999,28358
33220,52999,28324
33296,52957,28258
33256,52967,28173
33188,52925,28154
33088,52981,28065
32956,53015,27858
32864,53052,28045
32879,52989,27962
32889,53050,27847
32872,53016,27805
32952,52960,27773
33057,52988,27734
33060,52994,27684
33029,53021,27482
32960,52948,27399
32848,53052,27324
32708,53093,27270
32668,53076,27223
32716,53044,27385
32680,53076,27341
32848,53029,27398
33080,53015,27273
33172,52972,27304
33116,53031,27275
33052,53052,27256
32896,53076,27217
32712,53079,27158
32748,52993,27049
32796,53079,26970
32880,53100,27098
32978,53036,27004
33088,52948,26986
33102,53044,26918
33068,53031,26830
33036,53069,26700
32924,53095,26602
32792,53124,26844
32792,53061,26743
32884,53081,26725
32976,53108,26692
33080,53031,26658
33200,52964,26618
33196,53060,26551
33152,53076,26556
33092,53085,26514
33008,53127,26484
32926,53069,26444
32977,53119,26385
33044,53135,26282
33040,53121,26236
33108,53093,26119
33220,53061,26343
33156,53097,26284
33080,53116,26285
32956,53103,26119
32833,53124,26016
32721,53127,26263
32688,53111,26217
32718,53151,26188
32804,53148,26146
32937,53127,26026
33049,53031,25977
33048,53111,26056
32996,53149,26018
32944,53100,26074
32782,53167,26208
32648,53206,26157
32760,53191,26149
32888,53183,26124
32948,53204,26096
33072,53156,26112
33198,53124,26127
33168,53159,26078
33042,53159,26077
32960,53124,26054
32836,53148,26049
32708,53208,26052
32664,53221,26039
32680,53127,26016
32732,53212,26019
32832,53191,25954
32964,53103,25820
32988,53164,25855
32876,53187,25742
32810,53093,25727
32705,53221,26009
32592,53233,25918
32628,53250,25901
32696,53160,25889
32728,53241,25868
32804,53222,25833
32944,53189,25832
32920,53174,25796
32844,53208,25655
32832,53204,25601
32734,53245,25541
32608,53281,25844
32636,53188,25764
32748,53255,25755
32832,53287,25752
32932,53223,25789
32996,53212,25725
32977,53149,25756
32924,53242,25690
32848,53223,25631
32726,53284,25557
32624,53222,25485
32704,53245,25808
32776,53288,25794
32772,53301,25793
32824,53252,25735
32956,53247,25724
32986,53204,25711
32916,53279,25729
32814,53181,25705
32736,53295,25707
32636,53340,25702
32672,53239,25693
32728,53307,25686
32808,53319,25686
32888,53208,25634
32974,53255,25513
32956,53276,25460
32876,53197,25452
32820,53284,25613
32792,53337,25633
32672,53349,25673
32638,53359,25759
32708,53285,25752
32728,53332,25718
32792,53317,25661
32960,53255,25666
32976,53303,25702
32924,53281,25654
32798,53325,25653
32652,53351,25619
32552,53383,25618
32584,53293,25619
32688,53359,25532
32712,53380,25497
32828,53332,25431
32960,53300,25628
32961,53330,25746
32909,53247,25681
32864,53347,25669
32774,53383,25669
32644,53319,25659
32636,53396,25566
32690,53381,25431
32716,53412,25646
32814,53300,25727
32940,53326,25691
32976,53365,25711
32921,53352,25725
32808,53375,25689
32664,53309,25666
32472,53417,25544
32414,53425,25468
32484,53421,25665
32564,53401,25793
32684,53325,25735
32800,53369,25691
32760,53365,25688
32712,53316,25641
32656,53383,25482
32530,53433,25605
32397,53441,25716
32380,53446,25712
32468,53383,25692
32568,53461,25534
32668,53359,25644
32800,53383,25637
32832,53399,25634
32716,53327,25433
32652,53423,25713
32568,53452,25623
32428,53471,25589
32456,53485,25437
32560,53423,25348
32628,53463,25589
32753,53441,25567
32924,53413,25570
32908,53408,25484
32832,53356,25485
32760,53445,25590
32644,53453,25513
32480,53492,25540
32516,53500,25503
32578,53495,25329
32648,53479,25488
32756,53465,25468
32861,53412,25490
32864,53436,25456
32777,53462,25287
32756,53367,25207
32652,53479,25373
32524,53511,25444
32525,53510,25413
32592,53498,25294
32620,53485,25192
32726,53492,25405
32872,53372,25404
32848,53459,25419
32800,53464,25375
32744,53391,25241
32628,53500,25141
32552,53448,25261
32600,53448,25333
32704,53511,25382
32825,53470,25384
32917,53497,25383
33032,53396,25360
33004,53464,25317
32876,53463,25276
32772,53499,25125
32632,53431,25289
32432,53543,25317
32444,53557,25412
32544,53495,25317
32632,53525,25308
32750,53511,25283
32896,53397,25319
32860,53479,25262
32798,53502,25247
32740,53412,25089
32633,53511,25189
32472,53573,25309
32364,53511,25214
32348,53548,25204
32224,53564,25186
32005,53511,25161
31892,53505,25141
31636,53500,25124
31400,53518,25088
31288,53508,24928
31092,53556,25054
30886,53581,25140
31005,53591,25131
31356,53581,25045
32128,53583,25025
33369,53540,24828
34864,53556,24988
36296,53565,24996
37416,53591,25075
38233,53509,24980
38624,53615,24996
38316,53660,24965
37749,53639,24971
37460,53648,24927
37484,53567,24898
37504,53604,24950
37444,53511,24894
37141,53563,24924
36684,53516,24906
36056,53585,24866
35324,53575,24860
34508,53583,24820
33888,53628,24797
33532,53639,24774
33208,53633,24724
32965,53589,24666
32833,53597,24789
32680,53511,24840
32432,53581,24924
32220,53599,24917
32060,53623,24860
31886,53637,24903
31848,53639,24871
31844,53639,24869
31856,53535,24870
31968,53599,24854
32017,53501,24861
32036,53575,24846
31965,53599,24847
31900,53517,24839
31777,53612,24807
31620,53661,24599
31668,53569,24740
31769,53639,24896
31840,53628,24804
31936,53605,24799
32042,53591,24753
32068,53573,24637
32000,53612,24764
31976,53500,24821
31884,53623,24774
31752,53679,24799
31756,53661,24757
31784,53623,24748
31796,53637,24732
31884,53600,24750
32076,53597,24628
32088,53591,24733
32032,53601,24700
31984,53572,24616
31904,53639,24509
31808,53660,24484
31808,53668,24461
31936,53655,24473
32081,53575,24567
32208,53623,24637
32388,53604,24610
32336,53613,24588
32188,53612,24568
32132,53631,24564
32104,53623,24495
31984,53684,24508
32088,53671,24468
32241,53669,24413
32312,53645,24374
32342,53621,24336
32440,53604,24319
32407,53615,24255
32333,53625,24215
32236,53597,24170
32088,53661,24133
31892,53673,23958
31905,53689,23845
31972,53578,24039
31981,53671,24044
32080,53653,23927
32304,53524,23893
32420,53608,23860
32404,53620,23769
32364,53636,23748
32217,53671,23706
32096,53604,23654
32182,53672,23544
32297,53677,23419
32329,53673,23483
32373,53647,23602
32484,53639,23513
32496,53599,23471
32436,53620,23436
32376,53599,23404
32296,53671,23346
32137,53712,23340
32120,53631,23296
32284,53694,23177
32384,53631,23093
32456,53679,23324
32628,53558,23271
32648,53639,23246
32588,53639,23205
32536,53679,23189
32480,53607,22991
32384,53711,23210
32448,53684,23146
32648,53716,23132
32740,53696,22998
32772,53655,22954
32940,53671,23141
32913,53565,23092
32792,53663,23033
32676,53668,22868
32520,53711,23150
32409,53631,23092
32412,53728,23054
32456,53703,22828
32516,53698,23137
32572,53695,23078
32700,53655,23036
32684,53687,22868
32564,53633,23017
32528,53684,23095
32445,53703,23078
32312,53741,23052
32364,53731,23069
32416,53710,22951
32416,53724,22898
32464,53703,22865
32668,53679,23035
32732,53678,23121
32644,53657,23253
32572,53596,23279
32488,53723,23218
32310,53732,23293
32296,53736,23252
32344,53638,23140
32357,53719,23143
32458,53711,23118
32580,53607,23445
32600,53629,23428
32608,53612,23446
32612,53677,23532
32548,53725,23549
32468,53751,23559
32560,53735,23585
32688,53720,23644
32752,53653,23647
32712,53703,23548
32792,53692,23556
32769,53599,23584
32676,53687,23832
32612,53703,23997
32544,53708,24057
32433,53729,24071
32492,53670,24179
32624,53718,24170
32732,53734,24217
32856,53700,24340
32894,53681,24390
32854,53671,24369
32744,53698,24434
32636,53669,24494
32452,53724,24599
32384,53676,24622
32448,53734,24677
32604,53729,24748
32740,53636,24800
32752,53684,24909
32820,53621,24995
32846,53664,25069
32714,53689,25167
32664,53679,25145
32585,53701,25244
32417,53668,25316
32430,53719,25362
32524,53727,25490
32624,53727,25535
32756,53684,25591
32937,53676,25739
33000,53668,25819
32868,53655,25800
32676,53671,25689
32412,53612,25782
32160,53724,26022
32108,53743,26221
32256,53671,26360
32404,53692,26401
32516,53692,26466
32656,53665,26553
32668,53661,26629
32636,53692,26624
32624,53663,26695
32524,53722,26759
32360,53746,26812
32264,53679,26993
32272,53616,27095
32349,53729,27133
32488,53653,27308
32620,53685,27412
32564,53671,27446
32497,53678,27543
32469,53683,27751
32444,53716,27773
32334,53639,27830
32352,53711,27924
32488,53639,27992
32612,53709,28068
32714,53615,28145
32732,53663,28215
32600,53657,28295
32420,53665,28368
32296,53588,28455
32232,53700,28514
32186,53679,28461
32349,53701,28567
32496,53712,28751
32604,53738,28912
32656,53621,28897
32705,53671,28985
32700,53653,28927
32620,53700,29116
32588,53617,29302
32488,53704,29300
32372,53744,29398
32376,53652,29416
32460,53724,29372
32452,53708,29736
32537,53704,29727
32752,53599,29836
32764,53668,29924
32680,53652,30017
32566,53696,30010
32520,53668,29999
32432,53655,30164
32433,53731,30293
32460,53748,30493
32408,53735,30565
32392,53688,30628
32400,53684,30708
32420,53673,30761
32392,53693,30805
32350,53596,30905
32324,53710,30951
32225,53756,31004
32208,53648,31270
32324,53716,31355
32312,53655,31441
32381,53693,31549
32572,53652,31637
32617,53663,31733
32588,53695,31776
32472,53679,31901
32321,53672,32004
32144,53723,31953
32176,53684,32039
32279,53728,32271
32344,53694,32357
32436,53685,32300
32592,53636,32285
32628,53680,32464
32505,53692,32500
32328,53688,32554
32180,53733,32644
32024,53696,32867
32016,53735,33019
32072,53657,33077
32161,53639,33175
32269,53693,33265
32448,53691,33359
32472,53679,33444
32502,53671,33558
32420,53703,33551
32268,53716,33706
32084,53756,33812
31984,53743,33838
32116,53725,33856
32213,53660,33945
32281,53700,34076
32465,53591,34134
32417,53668,34265
32357,53596,34415
32233,53687,34519
32124,53637,34628
32052,53737,34708
32121,53684,34804
32084,53728,34895
32016,53748,34965
32040,53708,35076
32144,53671,35157
32096,53697,35247
31960,53599,35352
31916,53695,35400
31972,53704,35392
31866,53693,35476
31884,53749,35616
31928,53752,35752
31956,53732,35812
32096,53707,35973
32332,53650,36076
32340,53691,36085
32228,53604,36149
32186,53677,36324
32060,53639,36413
31840,53751,36486
31912,53766,36591
32049,53663,36673
32176,53744,36767
32260,53720,36885
32444,53698,37036
32580,53699,37184
32504,53615,37164
32407,53689,37196
32376,53695,37274
32180,53753,37424
32104,53717,37505
32240,53756,37572
32220,53760,37639
32216,53719,37772
32372,53683,37828
32368,53693,38005
32302,53724,38166
32216,53700,38151
32084,53757,38172
31894,53752,38279
31844,53767,38364
31864,53751,38431
31968,53764,38501
32200,53724,38577
32408,53682,38660
32420,53621,38740
32376,53684,38847
32376,53627,38949
32352,53745,39029
32288,53766,39132
32176,53767,39248
32296,53767,39362
32408,53756,39399
32396,53737,39328
32572,53695,39414
32692,53711,39508
32518,53718,39605
32329,53728,39671
32196,53732,39735
32084,53708,39798
32182,53689,39872
32452,53749,39941
32604,53721,40001
32620,53726,40071
32681,53605,40122
32644,53712,40269
32536,53721,40364
32401,53736,40406
32332,53751,40477
32252,53780,40572
32168,53685,40583
32168,53748,40626
32136,53767,40720
32008,53749,40805
31984,53724,40833
31792,53724,40836
31412,53738,40864
31172,53717,40932
30948,53767,41008
30704,53783,41084
30588,53761,41134
30652,53767,41191
30872,53746,41319
31200,53764,41366
32092,53661,41428
33428,53753,41439
34848,53780,41492
36220,53767,41572
37268,53827,41649
37820,53847,41734
37924,53855,41798
37448,53841,41848
36712,53820,41904
36532,53812,41959
36992,53748,41976
37284,53801,41991
37277,53797,42038
37012,53783,42085
36497,53767,42151
35760,53832,42212
35108,53797,42247
34448,53845,42312
33897,53827,42390
33621,53807,42471
33380,53767,42530
33060,53788,42580
32625,53767,42620
32277,53797,42639
31908,53753,42707
31596,53845,42789
31568,53860,42797
31780,53751,42832
31836,53820,42876
31864,53727,42926
31992,53767,42975
32136,53756,42999
32052,53796,43055
31916,53787,43086
31664,53828,43119
31392,53845,43156
31312,53860,43191
31388,53830,43215
31512,53847,43247
31704,53831,43265
31969,53752,43302
32116,53791,43356
32184,53781,43399
32132,53740,43415
31904,53805,43453
31768,53855,43436
31716,53877,43457
31808,53852,43485
32049,53853,43497
32272,53738,43553
32550,53783,43596
32524,53788,43613
32262,53732,43636
32080,53815,43673
31938,53828,43703
31756,53885,43724
31725,53861,43743
31825,53844,43778
31892,53804,43801
32016,53820,43807
32224,53729,43783
32304,53788,43833
32124,53735,43844
31940,53799,43857
31821,53767,43856
31676,53863,43877
31828,53885,43864
32056,53871,43868
32208,53795,43877
32408,53837,43868
32568,53732,43879
32425,53809,43873
32180,53791,43868
32066,53829,43873
32192,53869,43868
32172,53892,43865
32232,53853,43871
32384,53885,43849
32420,53892,43860
32420,53848,43864
32441,53847,43873
32388,53836,43873
32488,53855,43864
32480,53767,43849
32416,53879,43846
32300,53911,43847
32184,53895,43828
32160,53884,43816
32092,53909,43825
32154,53793,43820
32496,53852,43800
32662,53856,43804
32684,53863,43796
32640,53871,43809
32513,53895,43804
32340,53919,43804
32228,53893,43799
32340,53895,43813
32413,53916,43805
32636,53884,43804
33044,53841,43780
33016,53871,43783
32868,53890,43777
32780,53895,43773
32668,53919,43764
32536,53959,43760
32544,53951,43776
32724,53943,43766
32940,53932,43752
33089,53935,43749
33226,53885,43741
33284,53877,43733
33189,53833,43762
33052,53908,43758
33070,53959,43756
32937,53969,43756
33032,53943,43729
33140,53909,43727
33272,53959,43730
33472,53956,43723
33660,53901,43708
33644,53932,43741
33452,53836,43764
33341,53925,43756
33230,53884,43766
33140,53989,43760
33192,53908,43768
33348,53975,43765
33441,53957,43783
33588,53956,43809
33772,53877,43823
33824,53935,43828
33861,53895,43828
33620,53949,43861
33360,53980,43866
33220,54013,43911
33290,54023,43933
33420,54001,43944
33544,53980,43968
33584,53921,43988
33660,53949,44006
33560,53936,44016
33566,53958,44038
33414,53977,44052
33364,53895,44077
33352,54022,44103
33472,53980,44140
33656,54013,44151
33664,54008,44172
33718,53998,44207
33820,53967,44225
33868,53987,44245
33964,53975,44265
33989,53991,44277
33884,54008,44313
33749,54039,44337
33588,54023,44357
33573,54023,44389
33741,54023,44401
33873,53990,44422
34100,53975,44423
34248,53996,44436
34223,53949,44453
34084,53996,44457
33952,54023,44468
33672,54055,44480
33512,54048,44488
33530,53983,44485
33538,54036,44487
33676,54023,44481
34016,53916,44492
34208,53996,44488
34237,54022,44488
34140,54013,44479
33984,54022,44477
33748,53973,44478
33632,54057,44484
33656,54077,44480
33789,54052,44472
33844,53969,44492
34028,53919,44474
34068,54001,44481
33944,54023,44486
33877,54023,44484
33800,54047,44478
33712,54060,44482
33804,54088,44487
33976,54015,44487
33964,54057,44447
33900,54063,44484
34012,54022,44468
34096,53996,44480
34025,54007,44463
34004,54044,44444
33964,54047,44415
33784,54070,44436
33788,54100,44421
33848,54082,44428
33828,54045,44413
33888,54061,44396
34077,54061,44373
34220,54037,44344
34125,54060,44316
34006,53967,44295
34012,54082,44269
33848,54118,44245
33724,54116,44206
33780,54093,44158
33876,54119,44118
33896,54074,44073
34072,54056,44039
34164,53967,43996
34164,54055,43957
34174,54083,43913
34196,54101,43887
34100,54141,43836
33993,54119,43793
33992,54143,43751
33984,54119,43711
34080,54023,43662
34260,54005,43628
34360,54061,43596
34324,54082,43540
34224,54001,43504
34132,54051,43463
33936,54111,43437
33860,54118,43396
33944,54119,43358
34096,54127,43320
34208,54112,43287
34396,54083,43236
34436,54086,43221
34208,54095,43204
34000,54075,43162
33904,54124,43097
33764,54092,43044
33864,54132,43012
33933,54148,42967
33994,54143,42933
34045,54037,42895
34117,54023,42868
34128,54084,42820
34073,54069,42804
33988,54112,42751
33924,54140,42712
33748,54167,42693
33748,54165,42663
33912,54175,42620
34030,54143,42605
34040,54135,42631
34184,54100,42603
34212,54104,42589
34100,54088,42551
33985,54048,42463
33904,54082,42472
33792,54151,42456
33856,54172,42428
34008,54116,42429
34056,54087,42404
34156,54141,42436
34320,54111,42454
34272,54119,42468
34133,54113,42463
34064,54087,42432
33969,54125,42447
33800,54140,42375
33828,54191,42399
33876,54165,42420
33905,54087,42414
33988,54141,42436
34148,54071,42447
34161,54085,42461
34068,54125,42471
34021,54140,42503
33972,54076,42519
33822,54180,42517
33783,54108,42540
33860,54175,42556
33884,54180,42601
33952,54164,42629
34084,54044,42604
34104,54119,42632
34096,54116,42668
34056,54141,42681
33976,54180,42713
33772,54199,42743
33592,54199,42761
33597,54191,42788
33614,54127,42806
33608,54119,42855
33761,54143,42908
33792,54143,42961
33734,54140,42985
33624,54135,42980
33476,54088,43037
33232,54197,43056
33288,54196,43044
33445,54191,43068
33572,54132,43103
33660,54151,43133
33888,54144,43151
33964,54132,43175
33848,54164,43217
33708,54151,43241
33560,54191,43252
33348,54209,43301
33296,54205,43325
33432,54119,43333
33544,54183,43380
33652,54100,43428
33904,54149,43449
33960,54062,43484
33892,54151,43514
33804,54149,43541
33661,54181,43565
33440,54220,43573
33397,54127,43599
33444,54188,43639
33460,54109,43660
33532,54165,43687
33764,54133,43708
33878,54151,43720
33836,54179,43744
33844,54165,43778
33840,54209,43805
33794,54208,43835
33788,54224,43862
33808,54125,43860
33798,54196,43864
33788,54151,43879
33988,54151,43896
34080,54132,43911
34060,54105,43932
33953,54084,43936
33784,54189,43897
33518,54236,43981
33432,54151,44000
33550,54197,44017
33676,54180,44020
33784,54181,44025
33924,54173,44028
33952,54149,44053
33892,54183,44057
33896,54165,44073
33824,54183,44078
33648,54226,44101
33577,54240,44103
33556,54215,44121
33500,54228,44133
33440,54199,44142
33308,54151,44144
33076,54151,44152
32789,54127,44160
32448,54172,44167
32232,54140,44189
32044,54223,44197
31982,54249,44188
31968,54228,44217
32056,54180,44215
32156,54137,44245
32896,54206,44244
34092,54188,44260
35456,54205,44263
36944,54215,44263
38276,54260,44295
39152,54279,44295
39744,54303,44317
39640,54228,44312
39013,54276,44303
38472,54264,44310
38628,54228,44316
38772,54172,44319
38700,54144,44331
38356,54215,44356
37816,54269,44372
37076,54199,44374
36328,54266,44377
35616,54268,44392
34964,54266,44415
34472,54225,44438
34180,54208,44444
33909,54202,44452
33440,54216,44461
33016,54215,44456
32756,54255,44474
32428,54233,44484
32328,54236,44500
32396,54173,44500
32508,54244,44504
32568,54209,44521
32628,54108,44526
32604,54189,44516
32436,54127,44521
32304,54196,44519
32176,54191,44512
32064,54240,44496
32064,54165,44488
32164,54247,44476
32293,54257,44464
32376,54220,44460
32532,54125,44460
32560,54183,44444
32492,54209,44444
32328,54100,44416
32153,54213,44423
31976,54264,44440
31924,54175,44413
32056,54236,44404
32160,54247,44405
32256,54127,44401
32381,54173,44404
32405,54188,44406
32292,54116,44421
32176,54191,44397
32052,54172,44407
31896,54144,44407
31876,54246,44404
31968,54174,44399
32052,54228,44373
32164,54218,44352
32320,54172,44341
32376,54193,44319
32372,54188,44292
32280,54117,44261
32172,54124,44253
31934,54239,44228
31893,54256,44181
31905,54127,44143
31988,54209,44104
32068,54207,44065
32148,54181,44012
32176,54151,43972
32092,54164,43948
32016,54180,43884
31908,54207,43840
31773,54151,43791
31796,54222,43732
31896,54164,43703
31992,54212,43644
32020,54135,43592
32176,54165,43548
32244,54133,43495
32133,54173,43444
31980,54140,43391
31908,54209,43367
31788,54213,43309
31788,54225,43271
31852,54239,43236
31944,54219,43150
32072,54180,43111
32276,54140,43044
32300,54159,43049
32228,54169,42996
32224,54125,42916
32140,54197,42863
32024,54249,42826
32010,54238,42768
32093,54212,42703
32181,54132,42652
32316,54199,42590
32480,54135,42613
32524,54151,42560
32480,54087,42520
32372,54108,42469
32276,54109,42422
32124,54229,42369
32097,54215,42321
32264,54215,42264
32390,54175,42189
32425,54205,42069
32560,54180,42012
32584,54118,41961
32556,54150,41892
32420,54134,41844
32306,54199,41828
32140,54258,41798
32168,54239,41756
32328,54241,41701
32460,54127,41622
32576,54196,41549
32768,54196,41452
32837,54088,41351
32841,54180,41289
32790,54151,41204
32644,54184,41263
32460,54239,41188
32402,54237,41050
32466,54236,41011
32548,54228,40928
32656,54215,40926
32828,54108,40808
32920,54164,40772
32852,54173,40732
32704,54183,40656
32660,54125,40588
32453,54220,40532
32396,54212,40604
32488,54227,40529
32568,54228,40398
32637,54215,40372
32840,54183,40305
32884,54181,40244
32784,54189,40181
32692,54181,40199
32652,54212,40213
32560,54145,40185
32604,54207,40079
32744,54207,39964
32856,54196,39925
32861,54143,39911
32998,54164,39830
32980,54183,39748
32976,54108,39876
32992,54167,39725
32992,54199,39665
32916,54231,39616
32908,54195,39524
32964,54133,39524
33016,54196,39599
33036,54103,39538
33156,54164,39497
33160,54117,39404
33126,54151,39298
33044,54079,39230
32917,54184,39175
32748,54181,39137
32772,54205,39086
32836,54151,39081
32852,54199,39008
32936,54211,38932
33112,54151,38877
33188,54159,38865
33140,54151,38964
33077,54140,38945
33008,54100,38842
32860,54196,38724
32848,54167,38670
32876,54197,38641
32892,54119,38601
32852,54151,38580
32888,54151,38548
32912,54159,38519
32832,54083,38523
32740,54151,38465
32704,54205,38401
32568,54222,38527
32572,54204,38453
32632,54215,38397
32664,54191,38383
32712,54172,38316
32808,54148,38461
32792,54151,38500
32704,54167,38351
32620,54108,38357
32548,54181,38311
32448,54222,38260
32442,54204,38351
32460,54215,38380
32444,54189,38367
32484,54167,38418
32596,54141,38311
32628,54167,38240
32596,54117,38222
32556,54148,38228
32540,54199,38116
32416,54216,38241
32404,54196,38253
32480,54215,38133
32513,54199,38148
32549,54183,38076
32708,54141,38073
32760,54156,38000
32660,54144,37989
32573,54172,37993
32524,54172,38004
32408,54191,38113
32348,54120,38092
32344,54193,38047
32399,54111,38009
32412,54173,37920
32572,54148,37894
32644,54143,37900
32585,54172,37894
32549,54167,37847
32448,54180,37824
32276,54164,37887
32288,54205,37876
32380,54205,37962
32452,54191,37940
32508,54189,37812
32649,54151,37781
32732,54151,37803
32674,54151,37797
32616,54172,37759
32576,54097,37701
32488,54213,37663
32500,54149,37887
32608,54215,37801
32720,54185,37727
32804,54125,37684
32908,54143,37652
32932,54055,37639
32876,54151,37609
32796,54180,37504
32732,54180,37490
32592,54199,37487
32548,54229,37511
32588,54204,37461
32677,54201,37311
32772,54189,37190
32901,54076,37145
33004,54069,36980
32960,54151,36845
32908,54164,36815
32836,54183,36856
32680,54151,36764
32664,54206,36597
32732,54204,36420
32768,54189,36308
32840,54175,36072
33036,54060,36052
33096,54081,35953
33020,54151,35927
32968,54164,35776
32900,54111,35679
32718,54205,35468
32676,54116,35319
32750,54215,35215
32800,54199,35178
32840,54092,35063
32944,54151,34965
32988,54151,34843
32916,54164,34681
32892,54151,34619
32876,54184,34498
32776,54143,34375
32748,54196,34388
32812,54209,34213
32856,54205,34140
32900,54199,34101
33052,54149,34033
33120,54165,34004
33049,54159,33980
32978,54175,33845
32968,54188,33789
32900,54202,33762
32897,54224,33944
32980,54215,33972
33069,54205,33932
33156,54101,33924
33272,54144,33876
33285,54159,33872
33206,54151,33798
33156,54172,33797
33072,54172,33870
32936,54215,33860
32888,54215,33854
32984,54223,33845
33040,54198,33829
33124,54188,33815
33312,54093,33746
33349,54144,33653
33292,54175,33604
33204,54137,33556
33148,54175,33543
32974,54151,33511
32896,54215,33473
32920,54174,33436
32916,54205,33344
32932,54212,33265
33112,54072,33263
33180,54148,33222
33120,54183,33189
33068,54179,33041
32992,54116,33017
32853,54133,32925
32800,54215,32798
32888,54208,32676
33016,54212,32649
33144,54205,32601
33320,54087,32524
33376,54151,32329
33308,54116,32292
33242,54151,32124
33173,54111,31940
33028,54235,31777
32992,54243,31724
33028,54239,31680
33072,54213,31540
33089,54215,31377
33240,54181,31238
33292,54149,31066
33228,54116,30919
33173,54151,30741
33072,54106,30573
32865,54240,30405
32788,54231,30088
32876,54125,29945
32916,54158,29680
32972,54212,29587
33108,54165,29540
33169,54183,29348
33045,54188,29101
32972,54116,28878
32908,54133,28668
32764,54235,28437
32728,54260,28252
32788,54233,28119
32860,54241,27844
32940,54213,27533
33112,54205,27359
33120,54182,26994
33021,54215,26846
32928,54193,26754
32832,54239,26587
32660,54254,26405
32576,54253,26228
32592,54247,26028
32672,54205,25840
32740,54221,25696
32888,54117,25447
32960,54165,25166
32864,54151,24998
32816,54196,24843
32776,54230,24665
32640,54167,24506
32612,54244,24326
32688,54189,23897
32712,54253,23840
32728,54227,23769
32852,54196,23647
32940,54191,23472
32833,54148,23319
32718,54205,23135
32608,54242,22937
32400,54265,22789
32364,54273,22618
32436,54231,22445
32472,54244,22268
32500,54151,22132
32672,54196,21959
32752,54180,21823
32664,54215,21644
32544,54240,21540
32416,54245,21393
32263,54279,21238
32224,54276,21109
32320,54279,20928
32432,54248,20727
32502,54246,20511
32621,54207,20361
32645,54164,20199
32548,54127,20029
32444,54214,19904
32328,54223,19748
32218,54271,19632
32141,54191,19481
32208,54255,19438
32284,54279,19338
32332,54260,19174
32488,54175,19045
32525,54132,18967
32436,54201,18819
32348,54151,18718
32236,54232,18664
32016,54294,18359
31852,54196,18401
31668,54264,18373
31408,54279,18252
31208,54254,18116
31124,54228,17974
31032,54231,17860
30940,54207,17762
30756,54212,17638
30664,54255,17508
30770,54313,17418
31257,54313,17297
32300,54300,17149
33800,54308,16740
35444,54313,16790
37284,54276,16770
38864,54224,16634
39896,54279,16524
40484,54278,16488
40336,54317,16332
39596,54287,16237
38996,54300,16123
38652,54351,15839
38180,54356,15859
37644,54324,15833
37141,54279,15826
36492,54279,15694
35620,54215,15617
34760,54305,15498
33976,54335,15380
33221,54340,15239
32694,54324,15207
32336,54267,15108
32041,54316,14921
31856,54332,14842
31788,54233,15072
31656,54279,14964
31461,54303,14876
31332,54213,14776
31221,54301,14751
31036,54345,14552
30968,54246,14408
31056,54309,14381
31132,54244,14502
31201,54311,14502
31354,54279,14405
31438,54236,14362
31440,54269,14309
31393,54295,14235
31364,54296,14157
31228,54279,14082
31168,54269,13983
31256,54309,13804
31364,54337,13797
31444,54205,13977
31592,54263,13878
31644,54279,13860
31624,54276,13838
31533,54252,13761
31480,54317,13732
31324,54247,13492
31232,54329,13438
31270,54329,13509
31324,54317,13644
31384,54317,13618
31584,54181,13646
31672,54261,13631
31620,54279,13546
31560,54279,13536
31546,54300,13441
31420,54255,13273
31380,54319,13507
31440,54341,13475
31516,54230,13404
31556,54279,13159
31672,54245,13348
31716,54266,13371
31673,54224,13317
31612,54262,13268
31552,54255,13190
31456,54319,13029
31428,54340,13198
31500,54240,13149
31564,54319,12920
31616,54279,12991
31716,54262,13010
31777,54221,12953
31704,54269,12719
31596,54252,12927
31508,54301,12904
31344,54340,12892
31308,54295,12814
31376,54317,12617
31456,54248,12768
31540,54300,12778
31700,54191,12769
31784,54173,12752
31728,54276,12508
31648,54301,12732
31556,54279,12760
31404,54316,12781
31380,54348,12726
31460,54236,12576
31456,54234,12846
31492,54311,12642
31648,54264,12889
31724,54247,12874
31680,54244,12846
31624,54276,12796
31588,54314,12877
31440,54334,13068
31396,54340,13106
31445,54253,12951
31524,54244,13285
31614,54308,13293
31780,54276,13300
31848,54279,13193
31808,54204,13535
31757,54279,13536
31712,54279,13533
31572,54365,13490
31564,54273,13788
31664,54333,13802
31736,54335,13711
31776,54333,13680
31880,54279,14055
31952,54268,14086
31876,54311,14116
31784,54297,14095
31685,54305,14020
31552,54351,14375
31540,54354,14393
31608,54305,14420
31672,54273,14477
31724,54324,14472
31864,54264,14409
31877,54279,14776
31816,54279,14841
31752,54312,14878
31680,54311,14981
31544,54361,14978
31524,54352,15047
31591,54326,15141
31692,54340,15182
31792,54335,15289
31972,54266,15286
32032,54221,15371
31972,54301,15218
31884,54265,15493
31825,54308,15633
31714,54343,15660
31677,54336,15675
31752,54359,15786
31856,54343,15810
31960,54310,15756
32125,54279,15756
32232,54279,16095
32188,54279,16164
32112,54222,16248
32068,54300,16325
31932,54365,16354
31885,54351,16444
31944,54351,16525
32018,54252,16474
32036,54313,16468
32030,54279,16772
31933,54180,16924
31708,54278,16989
31480,54295,17053
31344,54207,17133
31202,54328,17210
31152,54340,17290
31213,54233,17318
31252,54309,17324
31336,54279,17362
31536,54279,17665
31625,54268,17858
31599,54279,17956
31560,54274,18052
31557,54279,18149
31436,54316,18202
31396,54256,18316
31508,54301,18404
31611,54316,18525
31672,54308,18651
31838,54272,18754
31880,54183,18813
31790,54256,18922
31704,54274,19039
31672,54228,19097
31564,54300,19086
31532,54332,19416
31629,54212,19634
31724,54279,19704
31800,54295,19881
31926,54247,19975
32004,54252,20094
31921,54248,20223
31812,54268,20324
31724,54260,20415
31556,54308,20399
31473,54259,20764
31525,54303,20936
31612,54241,21161
31620,54273,21269
31840,54234,21391
31968,54224,21389
31896,54255,21724
31704,54254,21846
31636,54252,22017
31556,54252,22169
31460,54279,22341
31564,54215,22468
31776,54277,22604
31808,54247,22679
31805,54224,22791
31736,54181,23112
31852,54204,23388
31792,54245,23543
31700,54266,23653
31448,54199,23867
31556,54279,23983
31572,54279,24121
31672,54220,24199
31708,54261,24336
31808,54240,24828
32012,54150,25019
32028,54222,25177
32016,54213,25332
32004,54239,25549
31856,54247,25738
31721,54188,25865
31788,54260,26083
31872,54276,26417
31972,54183,26596
32136,54212,26672
32188,54222,26964
32169,54218,27364
32156,54223,27484
32132,54244,27733
32020,54244,27760
31964,54279,28253
32032,54181,28393
32064,54252,28637
32112,54251,28820
32278,54124,28862
32372,54199,29404
32344,54212,29575
32228,54214,29754
32180,54215,30000
32060,54265,30239
31984,54256,30344
32032,54246,30561
32124,54183,30972
32172,54218,31111
32349,54204,31337
32405,54103,31574
32336,54197,31585
32252,54197,32052
32204,54160,32191
32072,54151,32301
31965,54247,32600
31977,54228,32791
32024,54244,32988
32100,54124,33004
32281,54182,33372
32420,54151,33531
32370,54191,33562
32288,54099,33900
32208,54183,34047
32048,54240,34119
31940,54175,34206
31997,54217,34227
32044,54227,34448
32096,54193,34739
32221,54151,34685
32274,54140,34799
32204,54151,34775
32156,54148,34844
32076,54111,35049
31965,54210,35144
31968,54151,35173
32028,54220,35092
32084,54127,35324
32136,54180,35349
32320,54148,35236
32432,54119,35462
32336,54125,35471
32198,54103,35364
32192,54165,35652
32080,54199,35576
32032,54137,35625
32148,54180,35550
32216,54181,35758
32272,54151,35689
32468,54135,35612
32548,54133,35884
32485,54151,35815
32405,54132,35804
32320,54143,35812
32204,54108,35726
32160,54188,36001
32252,54165,35929
32344,54189,35917
32412,54097,35828
32596,54133,36081
32688,54103,35953
32636,54069,35975
32552,54140,35861
32476,54037,35951
32328,54151,36149
32272,54167,36028
32305,54183,36045
32436,54069,35940
32520,54117,35918
32696,54117,36176
32792,54109,36032
32744,54023,36055
32661,54111,35951
32577,54112,35910
32396,54167,35964
32320,54151,35985
32372,54113,36028
32448,54125,36067
32498,54143,36077
32630,54073,35969
32716,54072,35961
32628,54103,35881
32544,54013,35788
32496,54095,35945
32373,54133,35928
32292,54140,35855
32341,54124,35846
32408,54127,35783
32464,54101,35781
32621,54087,35708
32717,54068,35609
32648,54053,35636
32552,54048,35673
32523,54084,35780
32365,54133,35668
32301,54023,35632
32381,54109,35601
32524,54114,35453
32616,54069,35565
32776,54045,35660
32820,53964,35583
32728,54045,35511
32656,54045,35457
32568,54061,35356
32384,54098,35321
32320,54096,35601
32372,54100,35476
32436,54053,35444
32492,54071,35436
32636,54023,35412
32704,54055,35348
32625,53959,35264
32558,54023,35305
32484,54023,35529
32272,54064,35484
32108,54084,35373
32117,54079,35365
32200,54076,35291
32304,53981,35452
32476,54023,35412
32584,54004,35398
32548,54023,35319
32468,53941,35282
32400,54022,35468
32236,54047,35492
32136,54084,35456
32188,54055,35453
32296,54063,35494
32348,53956,35508
32456,53999,35464
32540,54001,35436
32504,53999,35529
32414,54007,35542
32388,54009,35556
32280,54044,35552
32204,53967,35606
32281,54023,35732
32368,54041,35841
32424,53924,35804
32608,53983,35804
32709,53935,35860
32690,53989,35777
32572,53951,35933
32496,53976,36087
32378,54023,36037
32284,54023,36030
32304,53967,36053
32332,53954,36079
32368,53994,36081
32504,53941,36132
32592,53911,36145
32544,53951,36182
32448,53959,36178
32436,53959,36193
32300,53991,36137
32280,54023,36108
32352,53991,36240
32440,53966,36391
32514,53989,36317
32668,53941,36248
32804,53887,36221
32756,53849,36242
32728,53927,36188
32626,53952,36071
32456,53895,36209
32382,53987,36255
32436,53957,36094
32497,53968,36049
32496,53874,35916
32608,53919,35904
32704,53815,36034
32596,53837,36005
32360,53908,35864
32132,53924,35828
31772,53929,35760
31444,53965,35663
31304,53961,35584
31236,53948,35396
31205,53933,35392
31231,53909,35319
31252,53807,35412
31432,53860,35348
31937,53823,35222
32820,53895,35165
34144,53932,35007
35757,53968,34900
37620,53980,34784
39460,53880,34677
40768,53949,34612
41784,53871,34364
42068,53924,34316
41496,53895,34416
40692,53917,34325
39996,53935,34137
39188,53959,34028
38396,53959,33897
37688,53972,33679
36904,53953,33812
36048,53869,33653
35284,53893,33556
34560,53892,33472
33853,53877,33286
33308,53895,33119
32852,53840,33135
32436,53927,33193
32088,53935,33061
31908,53911,32917
31837,53902,32812
31773,53809,32735
31852,53848,32618
31904,53861,32423
31844,53789,32270
31780,53837,32276
31716,53767,32174
31532,53895,32226
31397,53895,32029
31429,53908,31925
31480,53789,31632
31536,53857,31638
31680,53836,31628
31804,53818,31575
31804,53817,31404
31744,53807,31302
31732,53846,31072
31584,53767,31089
31490,53876,31031
31564,53869,30914
31668,53756,30824
31728,53837,30596
31888,53812,30559
31992,53706,30594
31992,53767,30536
31890,53812,30404
31848,53792,30319
31713,53817,30262
31588,53848,30168
31616,53789,30092
31664,53807,30031
31764,53740,29957
31920,53767,29853
32070,53740,29759
32021,53767,29617
31936,53767,29482
31920,53767,29472
31832,53806,29530
31792,53807,29413
31888,53816,29341
31955,53741,29191
32012,53785,28943
32142,53724,29156
32220,53746,28975
32168,53677,28877
32064,53735,28705
32012,53767,28561
31924,53707,28606
31860,53796,28526
31956,53791,28433
32008,53767,28340
32100,53743,28232
32280,53727,28116
32372,53716,27873
32352,53639,27822
32316,53654,27921
32288,53731,27750
32156,53735,27629
32096,53685,27556
32160,53755,27452
32204,53764,27264
32232,53700,27143
32400,53706,27210
32520,53687,27037
32496,53716,26972
32453,53708,26855
32404,53685,26774
32284,53725,26656
32204,53761,26428
32212,53740,26488
32276,53751,26434
32312,53740,26351
32468,53677,26068
32597,53678,26263
32640,53692,26114
32608,53692,26041
32596,53647,25780
32456,53743,25935
32356,53743,25888
32440,53735,25840
32516,53735,25775
32576,53639,25652
32724,53679,25559
32800,53695,25509
32705,53679,25479
32636,53655,25333
32585,53597,25228
32424,53721,25126
32353,53748,25003
32465,53653,25197
32630,53639,25061
32692,53687,24875
32805,53684,24700
32840,53661,24956
32824,53655,24828
32764,53655,24774
32696,53679,24697
32576,53719,24648
32496,53639,24491
32560,53720,24474
32684,53692,24559
32780,53714,24462
32940,53575,24351
33040,53655,24102
32980,53647,24335
32908,53676,24249
32848,53668,24245
32706,53700,24145
32606,53628,24104
32656,53700,24028
32728,53702,23980
32788,53692,23936
32968,53623,23760
33080,53655,24007
33076,53649,23880
33005,53631,23886
32980,53636,23808
32916,53696,23614
32866,53704,23543
32932,53615,23726
33012,53672,23715
33024,53692,23684
33180,53639,23659
33284,53649,23613
33240,53639,23565
33164,53655,23557
33136,53565,23436
33060,53676,23276
33024,53716,23561
33120,53612,23460
33245,53668,23431
33292,53683,23346
33372,53628,23171
33464,53511,23348
33414,53629,23352
33328,53633,23325
33280,53631,23098
33136,53679,23292
32993,53684,23352
33020,53647,23281
33120,53661,23271
33140,53660,23201
33288,53623,23033
33348,53532,22938
33324,53612,23136
33264,53639,23177
33240,53533,23159
33116,53655,23047
32980,53687,23088
33004,53591,23141
33076,53629,23071
33117,53656,22896
33288,53597,23182
33400,53600,23133
33324,53612,23047
33192,53620,22983
33100,53639,23142
32992,53599,23145
32916,53671,23104
32964,53685,22908
33032,53605,23171
33060,53671,23117
33172,53588,22983
33208,53532,23144
33148,53612,23172
33068,53639,23125
32996,53591,23004
32864,53671,23238
32732,53676,23215
32780,53687,23026
32892,53588,23263
32920,53661,23185
33044,53639,23025
33156,53629,23192
33124,53632,23157
33046,53616,22967
32988,53639,23190
32888,53599,23140
32820,53685,22997
32880,53703,22912
32988,53629,23164
33037,53676,23094
33160,53607,22925
33272,53639,23124
33264,53629,23114
33144,53631,23053
33045,53569,23021
32944,53694,22919
32820,53679,22903
32864,53705,23081
32976,53656,23012
33036,53680,22909
33224,53663,22727
33372,53557,22886
33337,53639,22964
33268,53668,22911
33152,53631,22907
33017,53701,22833
32925,53707,22816
32988,53714,22822
33096,53710,22809
33156,53607,22747
33324,53668,22553
33468,53663,22783
33432,53573,22833
33352,53670,22798
33344,53700,22830
33204,53628,22769
33104,53729,22605
33160,53726,22845
33228,53712,22775
33264,53719,22812
33376,53652,22744
33469,53687,22772
33445,53653,22616
33365,53673,22799
33304,53692,22788
33144,53748,22801
33021,53671,22773
33072,53737,22667
33160,53746,22591
33233,53738,22548
33409,53721,22849
33572,53607,22777
33576,53711,22765
33460,53735,22761
33372,53721,22732
33208,53767,22718
33094,53767,22708
33133,53767,22692
33252,53767,22671
33329,53766,22702
33497,53657,22664
33548,53716,22578
33464,53700,22385
33358,53758,22389
33324,53652,22535
33224,53767,22457
33120,53817,22428
33176,53758,22343
33284,53789,22268
33344,53789,22201
33500,53767,22015
33616,53744,21938
33570,53762,22088
33504,53751,22030
33480,53692,22031
33344,53812,21937
33248,53799,21849
33252,53839,21748
33316,53791,21676
33364,53820,21388
33476,53798,21562
33580,53791,21440
33556,53767,21177
33489,53792,21339
33436,53804,21237
33276,53799,20940
33180,53861,21194
33248,53844,21068
33324,53862,20948
33316,53766,20676
33453,53823,20881
33546,53804,20699
33516,53804,20621
33421,53847,20414
33365,53754,20263
33252,53868,20446
33160,53895,20340
33200,53828,20304
33260,53806,19990
33280,53881,20175
33412,53812,20015
33476,53816,19977
33476,53855,19849
33348,53859,19617
33277,53876,19781
33150,53846,19682
33049,53859,19336
33124,53905,19570
33200,53895,19405
33232,53929,19300
33352,53796,19162
33476,53863,18959
33504,53894,19103
33428,53892,19132
33365,53895,19060
33224,53924,18952
33081,53908,18893
33104,53884,18841
33196,53941,18765
33242,53973,18710
33416,53927,18607
33560,53895,18399
33528,53895,18582
33460,53925,18503
33400,53865,18268
33269,53975,18400
33168,54004,18453
33181,53900,18347
33244,53982,18302
33308,53932,18128
33416,53895,18012
33472,53957,18202
33440,53965,18230
33360,53925,18197
33285,53975,18092
33132,54023,17963
33008,54039,18054
33064,54017,18132
33180,54009,18055
33248,54023,18068
33412,53996,18016
33508,53999,17829
33428,53927,18060
33304,54005,18017
33204,54023,18000
33080,54012,17883
32960,53984,18053
33016,54069,18032
33056,54076,17927
33094,54004,17761
33252,53990,18012
33388,54015,17981
33368,53998,17799
33286,53964,18076
33220,54045,18039
33100,54095,18017
32952,54023,17906
33024,54111,18032
33132,54116,18077
33176,54044,18087
33294,54075,17922
33396,54045,18197
33416,53999,18148
33352,54063,18131
33264,54092,18116
33136,54111,18187
33016,54149,18101
33044,54052,18004
33108,54116,18260
33189,54143,18365
33312,54023,18351
33425,54081,18334
33396,54087,18143
33292,54109,18484
33204,54047,18468
33068,54151,18398
32888,54188,18333
32936,54191,18564
33008,54181,18556
33076,54151,18428
33236,54112,18632
33376,54135,18741
33316,54061,18741
33224,54127,18741
33136,54145,18658
32884,54215,18823
32568,54222,18945
32285,54196,18970
32064,54151,19014
31872,54213,19013
31825,54183,19056
31908,54086,18974
31841,54159,18991
31632,54201,19091
31552,54124,19422
31624,54229,19420
32052,54279,19504
33093,54277,19592
34488,54279,19608
35997,54236,19669
37448,54260,19738
38656,54255,19712
39376,54261,19812
39428,54271,20082
38956,54270,20204
38368,54327,20312
38112,54317,20424
37933,54339,20485
37673,54307,20388
37248,54317,20719
36836,54234,20950
36328,54264,21073
35600,54238,21136
34776,54279,21254
34068,54306,21212
33468,54272,21296
32960,54343,21423
32662,54265,21566
32484,54330,21701
32317,54320,22079
32278,54319,22245
32262,54233,22368
32121,54316,22422
31984,54279,22476
31872,54311,22856
31733,54364,22939
31596,54375,23060
31565,54354,23150
31577,54381,23108
31580,54320,23496
31661,54328,23650
31724,54311,23724
31700,54343,23714
31608,54264,24069
31540,54343,24137
31468,54371,24166
31354,54397,24430
31388,54399,24589
31488,54399,24564
31568,54322,24798
31682,54341,24975
31748,54364,25140
31680,54344,25150
31552,54357,25126
31448,54265,25541
31360,54389,25708
31248,54421,25807
31280,54407,25887
31344,54407,25839
31384,54413,26256
31481,54388,26319
31640,54309,26487
31620,54327,26581
31584,54383,26527
31540,54337,26812
31401,54329,27044
31293,54439,27073
31344,54429,27185
31382,54423,27167
31416,54439,27166
31530,54388,27525
31645,54375,27611
31620,54388,27655
31533,54391,27630
31496,54388,27655
31424,54436,27872
31340,54479,28064
31364,54483,28173
31436,54447,28258
31496,54465,28341
31626,54348,28393
31776,54407,28440
31760,54377,28345
31616,54443,28653
31516,54428,28695
31356,54492,28788
31172,54407,28636
31176,54476,28973
31228,54503,28951
31261,54487,29047
31392,54375,29031
31565,54452,29159
31578,54447,29217
31477,54447,29276
31404,54477,29157
31340,54399,29431
31256,54524,29444
31308,54535,29424
31416,54437,29314
31476,54511,29673
31604,54493,29636
31754,54407,29692
31768,54460,29724
31684,54499,29652
31628,54484,29748
31524,54524,29860
31382,54565,29919
31384,54455,29841
31428,54530,29787
31516,54535,30103
31673,54503,30127
31848,54496,30154
31848,54407,30119
31796,54492,30087
31780,54519,30162
31680,54559,30305
31574,54559,30342
31696,54495,30374
31776,54564,30416
31812,54548,30241
31908,54535,30467
32052,54437,30513
32016,54508,30455
31892,54519,30370
31780,54535,30668
31640,54591,30599
31528,54497,30640
31564,54592,30504
31648,54597,30616
31701,54597,30727
31832,54519,30703
31948,54484,30749
31942,54535,30751
31836,54572,30710
31788,54567,30616
31660,54617,30736
31504,54614,30829
31504,54631,30918
31572,54605,30943
31592,54574,30881
31728,54599,30885
31804,54559,30828
31772,54564,30788
31732,54583,30737
31668,54587,30949
31532,54614,30922
31412,54647,30948
31452,54639,30829
31548,54610,30876
31596,54629,31060
31696,54599,30982
31864,54589,30980
31864,54517,31006
31816,54592,30917
31764,54535,30951
31668,54557,31076
31549,54647,31052
31596,54596,30933
31676,54653,31124
31760,54634,31081
31917,54596,30920
32120,54567,31132
32128,54596,31114
32100,54592,31028
32092,54595,30947
31976,54645,31181
31868,54637,31141
31888,54648,31087
31932,54631,31240
31936,54655,31169
32008,54629,30997
32088,54587,31228
32060,54573,31198
31972,54604,31061
31900,54511,31265
31776,54637,31228
31646,54607,31213
31672,54656,31137
31740,54640,31264
31790,54612,31265
31910,54535,31105
32033,54602,31305
32012,54597,31303
31908,54631,31300
31848,54517,31125
31772,54655,31422
31668,54684,31383
31690,54668,31252
31730,54566,31421
31738,54644,31451
31796,54629,31448
31862,54575,31404
31792,54612,31583
31716,54611,31544
31688,54594,31471
31648,54662,31645
31562,54660,31622
31577,54628,31673
31616,54663,31600
31638,54685,31596
31732,54647,31652
31856,54629,31636
31852,54631,31756
31756,54629,31959
31700,54654,31937
31584,54572,31912
31456,54693,31958
31436,54663,31864
31496,54685,31961
31592,54602,32088
31740,54639,32062
31902,54636,32084
31880,54639,32111
31720,54607,32135
31620,54535,32145
31520,54609,32165
31444,54652,32188
31532,54700,32046
31592,54677,32157
31633,54709,32309
31748,54582,32228
31850,54628,32253
31825,54654,32173
31705,54646,32082
31660,54663,32249
31596,54680,32263
31500,54720,32237
31520,54708,32375
31604,54662,32295
31620,54660,32317
31704,54652,32332
31845,54623,32260
31864,54655,32312
31776,54629,32404
31708,54573,32380
31596,54680,32391
31468,54741,32244
31486,54615,32479
31552,54711,32431
31624,54689,32432
31708,54679,32416
31820,54606,32497
31837,54663,32524
31728,54663,32445
31644,54663,32556
31548,54716,32497
31425,54629,32596
31400,54719,32629
31470,54719,32655
31528,54702,32548
31630,54684,32738
31756,54660,32717
31792,54605,32564
31760,54679,32812
31748,54599,32788
31700,54710,32652
31584,54716,32865
31572,54719,32854
31638,54716,32729
31664,54648,32964
31777,54596,32948
31940,54660,32948
31954,54684,32956
31872,54679,32833
31764,54685,32950
31642,54617,33071
31512,54726,33053
31508,54749,33052
31608,54727,33084
31700,54695,32927
31860,54700,33216
32061,54684,33117
32078,54677,33052
31976,54695,33128
31865,54596,33192
31732,54717,33193
31624,54703,33198
31640,54724,33141
31748,54740,33110
31840,54679,33319
31968,54701,33260
32112,54671,33255
32096,54701,33102
31996,54653,33375
31920,54695,33316
31829,54733,33327
31728,54753,33244
31800,54744,33244
31868,54759,33414
31872,54652,33385
31940,54719,33207
32057,54650,33459
32076,54700,33404
32068,54695,33273
32018,54696,33535
31857,54695,33420
31716,54775,33282
31700,54655,33517
31778,54737,33452
31845,54751,33396
31976,54700,33456
32193,54703,33272
32253,54704,33461
32157,54620,33327
32064,54713,33500
31921,54720,33431
31756,54780,33477
31752,54765,33462
31900,54728,33260
32024,54744,33548
32148,54692,33428
32304,54711,33337
32328,54645,33482
32228,54711,33408
32140,54737,33279
32014,54748,33455
31813,54758,33404
31780,54768,33402
31792,54759,33229
31832,54775,33344
31940,54663,33415
32108,54703,33360
32165,54636,33348
32148,54727,33191
32128,54711,33447
32052,54751,33182
31904,54750,33257
31968,54775,33399
32128,54696,33319
32212,54760,33287
32356,54748,33108
32492,54632,33366
32504,54717,33250
32468,54679,33238
32444,54733,33085
32336,54773,33109
32180,54752,33153
32176,54788,33083
32224,54757,32947
32260,54791,33020
32396,54663,32885
32556,54724,32837
32584,54741,32865
32544,54695,32765
32520,54732,32787
32432,54747,32655
32320,54772,32583
32364,54791,32382
32432,54735,32416
32460,54776,32305
32485,54756,32049
32576,54733,32206
32556,54661,32014
32508,54740,31778
32512,54749,31868
32464,54791,31687
32392,54748,31415
32447,54791,31415
32542,54791,31296
32625,54791,31111
32744,54766,31049
32932,54725,30836
32980,54718,30564
32896,54746,30527
32736,54767,30334
32598,54781,29967
32470,54785,29996
32525,54791,29831
32640,54784,29583
32604,54788,29514
32516,54774,29367
32578,54740,29165
32556,54743,29100
32304,54769,28895
31956,54656,28895
31612,54777,28727
31253,54808,28465
31144,54711,28535
31141,54791,28366
31056,54791,28039
31104,54785,28229
31320,54663,28063
31620,54769,27909
32392,54744,27673
33526,54693,27665
34744,54815,27628
36096,54868,27639
37288,54854,27500
38200,54836,27422
38625,54872,27176
38596,54759,27363
38292,54806,27226
37960,54791,27183
37688,54824,26975
37388,54812,27062
36952,54836,27124
36328,54887,27025
35844,54845,26998
35264,54836,26844
34652,54879,27085
34136,54780,27026
33788,54791,27015
33436,54790,26969
32956,54820,27137
32640,54815,27079
32428,54836,27150
32204,54864,27143
32157,54855,27167
32180,54852,27221
32144,54787,27156
32252,54813,27285
32420,54791,27474
32392,54789,27485
32204,54730,27575
32076,54727,27601
31976,54829,27671
31801,54823,27594
31700,54869,27516
31728,54847,27794
31809,54831,27953
31900,54837,27988
32076,54697,27968
32120,54791,27890
32100,54791,28145
32130,54823,28195
32092,54751,28263
32030,54861,28232
32060,54849,28404
32217,54868,28488
32284,54791,28572
32348,54821,28470
32473,54791,28810
32512,54788,28828
32416,54821,28814
32316,54791,28886
32268,54831,29068
32176,54871,29146
32132,54855,29068
32164,54860,29366
32220,54852,29362
32320,54806,29399
32448,54716,29247
32416,54791,29500
32353,54755,29519
32300,54821,29547
32273,54854,29428
32164,54816,29447
32218,54852,29593
32348,54851,29476
32480,54877,29388
32564,54750,29211
32724,54745,29332
32672,54791,29278
32528,54806,29088
32422,54785,29087
32396,54860,29114
32324,54877,29079
32420,54892,28994
32620,54791,28873
32686,54868,28823
32748,54847,28757
32840,54777,28659
32788,54741,28599
32705,54828,28572
32680,54823,28521
32605,54772,28460
32474,54791,28175
32468,54813,28333
32604,54876,28196
32720,54846,28025
32792,54862,28269
32940,54815,28148
32976,54747,27911
32950,54759,28099
32942,54847,28044
33016,54854,28012
33008,54911,28058
33069,54838,28072
33196,54879,28005
33244,54868,28105
33333,54871,28264
33408,54833,28239
33372,54831,28334
33220,54852,28375
33129,54772,28497
33064,54777,28646
32928,54910,28736
32978,54916,28717
33100,54909,29108
33152,54791,29227
33244,54871,29341
33380,54791,29534
33448,54807,29655
33344,54861,29717
33228,54783,30141
33128,54909,30258
32984,54879,30276
32996,54919,30693
33172,54903,30816
33344,54912,30953
33356,54855,31110
33396,54864,31429
33376,54877,31556
33256,54779,31751
33072,54887,31828
32940,54892,32055
32848,54936,32312
32862,54845,32452
32996,54919,32452
33088,54912,32854
33172,54916,32942
33316,54789,33105
33292,54854,33245
33204,54806,33310
32993,54887,33383
32784,54935,33727
32612,54943,33867
32720,54935,33969
32876,54936,33933
33028,54836,34305
33192,54909,34336
33334,54886,34460
33268,54791,34453
33136,54863,34522
33056,54791,34777
32952,54919,34900
32720,54951,35004
32652,54948,34933
32832,54933,35177
33033,54919,35389
33132,54828,35373
33316,54868,35417
33372,54873,35435
33304,54820,35764
33185,54893,35708
33102,54871,35792
33036,54863,35751
33088,54940,35915
33196,54940,36084
33212,54919,36116
33344,54895,36193
33456,54817,36257
33408,54864,36220
33292,54895,36350
33224,54791,36573
33176,54901,36565
33084,54919,36611
33248,54919,36700
33413,54935,36644
33524,54876,36816
33593,54884,36974
33724,54868,36973
33670,54854,37063
33584,54885,37116
33512,54877,37159
33392,54871,37200
33317,54919,37222
33376,54853,37399
33529,54911,37620
33593,54919,37588
33717,54885,37672
33912,54852,37741
33984,54868,37816
33828,54853,38055
33736,54812,38054
33720,54791,38121
33617,54909,38245
33544,54919,38266
33556,54908,38542
33614,54893,38518
33676,54901,38629
33760,54791,38775
33732,54836,39029
33636,54879,39044
33620,54855,39092
33604,54825,39212
33528,54834,39260
33640,54903,39377
33748,54908,39510
33712,54903,39577
33609,54893,39654
33736,54829,39759
33712,54758,39876
33634,54749,40009
33585,54860,40108
33516,54895,40221
33440,54911,40303
33464,54893,40410
33422,54900,40536
33520,54879,40621
33600,54823,40724
33696,54836,40795
33744,54791,40874
33664,54860,41127
33568,54868,41228
33449,54855,41311
33324,54807,41401
33348,54903,41391
33412,54908,41465
33504,54791,41583
33724,54864,41668
33844,54853,41735
33812,54748,41809
33752,54839,41964
33764,54862,42133
33796,54813,42095
33772,54900,42184
33797,54902,42275
33860,54836,42404
33892,54880,42503
33928,54865,42544
34012,54845,42613
33864,54851,42812
33745,54751,42796
33662,54841,42909
33600,54876,42956
33532,54863,43143
33580,54895,43181
33669,54872,43261
33740,54885,43330
33804,54852,43445
33908,54834,43543
34044,54816,43653
34024,54842,43692
34008,54828,43760
34029,54774,43860
33884,54788,43933
33788,54806,44025
33893,54791,44076
34028,54855,44196
34232,54767,44276
34465,54812,44372
34404,54727,44439
34296,54845,44524
34096,54828,44596
33980,54848,44679
33804,54876,44766
33816,54881,44844
33976,54855,44921
34160,54772,45004
34240,54821,45104
34320,54765,45181
34340,54791,45270
34316,54741,45348
34224,54791,45433
34156,54791,45510
33944,54852,45596
33704,54791,45661
33678,54853,45750
33628,54851,45839
33660,54813,45916
33924,54789,45985
34068,54791,46044
34072,54820,46134
34044,54791,46222
34036,54804,46320
34024,54856,46386
34048,54791,46404
34062,54847,46513
34102,54808,46599
34092,54791,46655
34248,54791,46718
34368,54791,46756
34252,54791,46854
34224,54812,46952
34184,54815,47015
34028,54868,47056
33976,54851,47127
33980,54853,47189
33988,54831,47237
34021,54759,47300
34168,54769,47313
34208,54726,47364
34080,54776,47455
34004,54791,47520
34016,54813,47555
34004,54823,47597
33992,54840,47655
33980,54821,47645
33956,54820,47700
33980,54719,47780
34168,54757,47804
34348,54668,47824
34364,54783,47852
34368,54780,47876
34273,54807,47922
34092,54820,47960
34068,54761,47972
34165,54812,48046
34236,54809,48090
34308,54701,48124
34420,54739,48133
34421,54696,48161
34304,54752,48190
34184,54711,48214
33996,54692,48194
33844,54791,48220
33828,54750,48237
33804,54791,48259
33816,54784,48295
33932,54741,48309
34100,54641,48328
34148,54712,48359
34229,54752,48421
34228,54749,48420
34152,54717,48484
34041,54757,48496
34068,54769,48519
34076,54719,48543
33988,54777,48556
33840,54732,48519
33849,54663,48540
33656,54696,48576
33352,54744,48597
33052,54692,48636
32800,54749,48708
32561,54740,48724
32388,54772,48740
32456,54780,48692
32590,54752,48703
32968,54758,48720
33940,54748,48741
35004,54746,48765
36228,54764,48848
37268,54766,48852
37764,54791,48895
37564,54736,48841
37084,54807,48860
36366,54820,48879
36192,54791,48885
36881,54768,48943
37836,54685,48948
38336,54720,49001
38380,54725,49025
38060,54756,48976
37602,54720,49016
36856,54777,49088
36216,54784,49100
35772,54759,49108
35356,54740,49143
35060,54708,49076
34952,54695,49096
34772,54652,49168
34428,54677,49159
34068,54703,49156
33825,54717,49159
33600,54756,49157
33512,54743,49072
33492,54742,49132
33512,54716,49140
33604,54719,49124
33680,54679,49092
33724,54653,49090
33668,54599,49084
33572,54679,49004
33484,54710,49004
33308,54727,49015
33260,54732,49016
33272,54712,48988
33308,54613,48952
33340,54612,48944
33485,54633,48896
33569,54589,48860
33564,54655,48816
33440,54679,48792
33344,54692,48684
33212,54724,48660
33140,54613,48647
33212,54692,48658
33264,54663,48620
33312,54663,48607
33492,54646,48576
33556,54632,48568
33480,54599,48564
33373,54561,48508
33340,54649,48507
33220,54703,48485
33192,54684,48553
33273,54660,48592
33336,54687,48578
33416,54644,48596
33632,54551,48625
33712,54516,48583
33724,54620,48604
33724,54636,48670
33660,54544,48688
33448,54663,48703
33424,54685,48666
33584,54591,48722
33689,54647,48744
33748,54621,48760
33908,54575,48775
33960,54596,48793
33876,54612,48751
33768,54524,48748
33672,54628,48790
33508,54662,48821
33408,54566,48833
33476,54645,48812
33630,54639,48824
33748,54535,48829
33884,54580,48772
33977,54559,48775
33916,54528,48767
33767,54591,48764
33644,54585,48784
33504,54653,48809
33468,54575,48832
33641,54628,48804
33752,54629,48793
33860,54524,48797
34110,54583,48801
34204,54567,48718
34160,54567,48765
34156,54573,48780
34144,54607,48767
34052,54531,48767
34052,54624,48761
34152,54599,48677
34244,54583,48704
34316,54583,48695
34464,54567,48717
34532,54556,48724
34480,54535,48711
34360,54586,48681
34268,54503,48678
34168,54604,48605
34136,54567,48601
34224,54583,48624
34304,54598,48647
34412,54589,48628
34564,54523,48592
34692,54497,48596
34613,54542,48519
34540,54535,48536
34470,54584,48561
34296,54601,48552
34264,54588,48528
34238,54613,48503
34256,54580,48508
34336,54496,48412
34560,54535,48440
34664,54525,48452
34692,54561,48429
34668,54469,48412
34606,54557,48385
34376,54599,48328
34280,54516,48316
34296,54576,48284
34272,54535,48268
34280,54557,48237
34456,54487,48244
34508,54535,48276
34460,54455,48260
34340,54533,48237
34152,54535,48232
33900,54597,48164
33796,54583,48135
33844,54573,48132
33868,54564,48124
33864,54479,48112
33984,54524,48164
34000,54516,48159
33852,54535,48152
33748,54518,48116
33688,54520,48124
33556,54567,48121
33488,54528,48061
33540,54567,48084
33648,54534,48084
33660,54500,48082
33821,54489,48052
33909,54488,48040
33892,54496,48048
33772,54485,47971
33576,54516,47960
33420,54535,47936
33420,54567,47948
33508,54503,47968
33580,54452,47940
33656,54439,47919
33864,54473,47848
33892,54460,47836
33784,54420,47869
33650,54497,47828
33509,54412,47832
33384,54533,47769
33364,54525,47748
33417,54503,47792
33520,54508,47764
33668,54503,47760
33836,54404,47694
33824,54367,47726
33701,54466,47713
33644,54457,47703
33550,54481,47653
33308,54477,47623
33224,54429,47678
33336,54494,47659
33432,54485,47653
33520,54468,47591
33661,54431,47580
33726,54445,47588
33644,54413,47574
33540,54439,47546
33436,54477,47521
33332,54406,47487
33308,54493,47477
33420,54480,47447
33504,54407,47380
33508,54445,47353
33620,54431,47357
33668,54428,47304
33604,54407,47244
33529,54452,47215
33464,54389,47176
33277,54383,47172
33169,54485,47127
33233,54471,47084
33328,54452,46999
33412,54463,46973
33558,54350,46948
33708,54405,46916
33677,54381,46876
33608,54447,46814
33549,54437,46772
33380,54455,46714
33324,54484,46663
33392,54391,46598
33476,54439,46548
33572,54454,46493
33760,54352,46436
33856,54388,46375
33812,54421,46329
33760,54319,46277
33712,54428,46210
33552,54391,46129
33473,54461,46072
33484,54456,46017
33465,54414,46003
33516,54367,45920
33631,54375,45863
33668,54389,45783
33616,54335,45740
33528,54399,45684
33452,54407,45644
33276,54431,45572
33204,54460,45504
33296,54407,45444
33373,54397,45388
33476,54407,45359
33653,54375,45281
33780,54380,45213
33781,54399,45133
33711,54356,45084
33632,54397,45031
33452,54431,44972
33392,54444,44901
33465,54415,44844
33552,54420,44772
33576,54392,44710
33664,54396,44639
33728,54380,44572
33644,54309,44488
33568,54383,44452
33492,54396,44405
33380,54407,44325
33348,54437,44252
33416,54393,44189
33478,54332,44132
33540,54388,44039
33693,54357,43997
33796,54335,43952
33744,54279,43845
33620,54389,43796
33481,54364,43719
33284,54327,43685
33236,54407,43604
33336,54399,43527
33472,54399,43454
33524,54380,43399
33740,54351,43329
33796,54338,43283
33684,54365,43240
33608,54343,43132
33568,54279,43081
33422,54405,42980
33313,54407,43012
33392,54391,42881
33472,54381,42809
33528,54389,42783
33665,54265,42742
33728,54327,42612
33668,54303,42557
33645,54338,42487
33568,54349,42436
33422,54392,42438
33340,54407,42297
33380,54309,42247
33460,54388,42215
33476,54365,42157
33605,54344,42034
33648,54300,41991
33508,54256,41950
33392,54342,41900
33345,54356,41796
33236,54367,41693
33288,54399,41760
33398,54381,41585
33504,54360,41530
33554,54372,41492
33712,54344,41434
33781,54247,41294
33717,54329,41265
33620,54333,41151
33529,54367,41223
33348,54361,41071
33228,54380,40949
33268,54341,40918
33345,54332,40820
33441,54359,40831
33693,54341,40828
33790,54319,40620
33672,54228,40562
33548,54319,40468
33452,54355,40558
33276,54303,40430
33240,54374,40280
33272,54371,40236
33300,54359,40134
33332,54324,40240
33464,54320,40041
33540,54246,39967
33504,54311,39943
33473,54309,39881
33421,54324,39815
33300,54292,39694
33272,54367,39829
33396,54373,39716
33508,54268,39571
33560,54279,39503
33657,54304,39477
33684,54292,39500
33576,54311,39317
33448,54265,39252
33344,54309,39160
33220,54362,39297
33133,54340,39126
33132,54372,39031
33132,54301,38986
33088,54324,38864
33128,54311,38919
32972,54313,38789
32652,54215,38732
32296,54212,38676
31992,54236,38636
31720,54352,38577
31592,54367,38493
31612,54367,38433
31588,54344,38348
31708,54338,38412
32128,54279,38279
32908,54335,38142
33988,54279,38308
35288,54276,38068
36676,54331,38017
37818,54399,38101
38672,54407,37928
39252,54405,37846
39196,54390,37855
38656,54373,37809
38380,54356,37674
38441,54337,37804
38332,54341,37608
38116,54352,37506
37688,54375,37511
37152,54397,37535
36529,54388,37435
36004,54336,37287
35380,54365,37476
34821,54359,37316
34492,54311,37278
34184,54317,37196
33752,54321,37076
33304,54331,37289
32920,54311,37181
32561,54383,37077
32352,54324,36935
32312,54373,36925
32308,54343,36994
32353,54356,36942
32488,54318,36861
32556,54303,36783
32440,54302,36760
32340,54324,36844
32256,54237,36721
32112,54356,36637
32097,54370,36599
32152,54260,36487
32196,54351,36476
32280,54329,36488
32405,54304,36408
32444,54205,36287
32388,54279,36468
32281,54293,36280
32236,54303,36159
32120,54324,36263
32040,54365,36151
32068,54334,36133
32152,54326,35949
32196,54311,36156
32400,54297,36069
32553,54276,35940
32540,54277,35940
32412,54261,35756
32288,54279,35981
32160,54247,35805
32072,54340,35711
32104,54309,35588
32197,54247,35732
32233,54317,35644
32433,54231,35588
32524,54268,35416
32400,54256,35516
32296,54265,35439
32208,54279,35360
32008,54322,35319
31981,54342,35185
32037,54279,35039
32121,54311,35140
32184,54228,35049
32336,54263,34873
32428,54244,34796
32357,54276,34907
32296,54173,34759
32248,54188,34632
32120,54279,34678
32072,54316,34533
32184,54305,34308
32244,54300,34433
32344,54275,34320
32512,54264,34149
32588,54252,34046
32544,54245,34151
32404,54245,34044
32313,54274,33799
32192,54311,33927
32161,54252,33825
32204,54216,33778
32304,54294,33680
32370,54276,33455
32532,54252,33564
32624,54224,33473
32556,54265,33237
32480,54267,33352
32409,54254,33307
32266,54273,33053
32200,54279,33184
32281,54205,33102
32340,54279,32892
32400,54191,32940
32544,54205,33022
32640,54208,32857
32596,54244,32801
32540,54215,32589
32528,54279,32791
32388,54196,32628
32308,54297,32580
32384,54279,32317
32500,54303,32567
32529,54191,32394
32660,54245,32343
32764,54240,32263
32704,54149,32130
32580,54255,32181
32508,54247,32119
32429,54292,32034
32408,54303,31868
32500,54279,31861
32558,54311,31937
32632,54191,31805
32797,54240,31731
32924,54227,31516
32900,54248,31708
32770,54172,31561
32644,54252,31517
32520,54272,31408
32432,54271,31332
32492,54292,31168
32612,54268,31224
32640,54276,31292
32740,54180,31191
32830,54135,30996
32789,54233,31039
32781,54218,31065
32692,54268,30983
32569,54191,30796
32560,54279,30893
32688,54279,30836
32816,54242,30704
32940,54279,30778
33064,54151,30713
33060,54212,30652
32932,54220,30513
32824,54236,30669
32704,54151,30551
32532,54271,30396
32452,54277,30549
32536,54236,30457
32636,54274,30389
32708,54173,30183
32896,54212,30428
32980,54207,30324
32936,54220,30169
32840,54127,30343
32732,54209,30245
32570,54268,30221
32496,54172,30181
32612,54260,29968
32674,54236,30143
32692,54242,30196
32864,54206,30096
32941,54177,30052
32893,54213,29861
32816,54151,30048
32776,54207,30020
32600,54233,29932
32462,54260,29933
32492,54224,29959
32593,54180,29956
32648,54220,29797
32780,54204,29924
32876,54180,29922
32832,54172,29712
32708,54103,29885
32608,54196,29886
32452,54237,29667
32376,54237,29934
32404,54241,29867
32524,54151,29771
32596,54204,29878
32760,54165,29836
32841,54180,29872
32744,54181,29649
32624,54094,29922
32640,54183,29919
32576,54207,29792
32544,54164,30026
32648,54236,29971
32796,54181,29788
32876,54201,30078
33004,54151,30046
32997,54105,30006
32872,54183,30071
32808,54088,30093
32692,54166,30116
32544,54151,30158
32460,54216,30180
32484,54224,30067
32500,54149,30292
32504,54192,30239
32592,54149,30265
32676,54160,30220
32644,54061,30228
32585,54156,30403
32572,54176,30372
32440,54124,30344
32308,54212,30380
32345,54215,30293
32460,54111,30273
32532,54172,30271
32676,54140,30471
32761,54166,30474
32716,54053,30407
32700,54151,30423
32688,54167,30492
32572,54191,30480
32516,54234,30496
32628,54197,30578
32766,54125,30668
32820,54118,30588
32948,54137,30620
33016,54119,30604
32948,54100,30588
32900,54167,30660
32860,54084,30703
32712,54197,30569
32609,54207,30655
32619,54133,30788
32640,54166,30772
32644,54151,30803
32752,54143,30829
32824,54100,30831
32808,54127,30727
32706,54127,30884
32664,54135,30921
32568,54148,30953
32488,54180,30892
32532,54173,31111
32588,54173,31046
32626,54158,31101
32752,54116,31101
32866,54103,30980
32756,54057,31151
32628,54140,31236
32544,54023,31253
32413,54143,31293
32364,54180,31286
32440,54077,31173
32508,54148,31464
32516,54140,31412
32648,54103,31261
32759,54118,31420
32724,54097,31572
32633,54095,31500
32504,54112,31548
32436,54140,31573
32452,54175,31580
32576,54151,31492
32708,54045,31716
32776,54124,31671
32900,54085,31582
32980,54103,31620
32900,54004,31775
32769,54100,31777
32654,54085,31768
32500,54117,31711
32416,54137,31672
32448,54149,31828
32452,54097,31876
32489,54118,31897
32592,54041,31832
32692,53996,31764
32652,54054,31911
32612,54097,32028
32560,54023,32024
32384,54116,31897
32274,54111,31996
32340,54141,32138
32452,54023,32125
32408,54085,32037
32476,54081,32071
32560,53979,32195
32548,54068,32213
32464,54069,32135
32473,54022,32188
32392,54119,32309
32312,54023,32297
32392,54115,32274
32448,54020,32149
32480,54093,32436
32622,54059,32372
32716,54047,32396
32653,54023,32404
32588,54053,32301
32546,54076,32273
32388,54093,32428
32296,54111,32504
32356,54015,32480
32408,54084,32452
32464,54039,32510
32620,54054,32525
32720,53927,32527
32685,54023,32425
32577,54053,32397
32480,53944,32582
32332,54079,32609
32244,54087,32519
32284,54060,32668
32324,54087,32644
32372,53976,32671
32500,54023,32527
32624,53991,32712
32644,53940,32796
32568,54013,32733
32520,54007,32687
32412,54069,32662
32284,54004,32837
32284,54068,32797
32368,54052,32740
32472,54023,32841
32680,54015,32745
32757,53933,32869
32704,53909,32877
32548,53989,32751
32444,54017,32876
32292,53996,32938
32156,54048,32935
32192,54036,32831
32216,54052,32949
32120,53983,32988
32036,54005,32973
31872,53969,32991
31500,53933,32989
31108,53983,32997
30836,54007,32913
30640,53935,32848
30496,54047,33125
30364,54045,33044
30432,54023,33031
30629,54045,33052
31292,54004,33063
32494,53971,32918
33872,54009,32960
35352,54004,33172
36672,54012,33093
37548,54087,33103
38165,54023,32933
38184,54074,33159
37782,54061,33117
37304,54055,32992
37276,54023,33240
37348,53929,33140
37248,53988,33110
36936,54005,33062
36488,54015,33213
35848,54017,33204
35092,54063,33208
34388,54023,33241
33793,54023,33236
33368,54036,33096
33000,53911,33257
32680,53973,33321
32292,53948,33315
31892,53956,33188
31604,53975,33428
31352,54017,33357
31176,54023,33317
31201,53996,33356
31268,53949,33450
31272,53997,33445
31385,53949,33327
31444,53955,33355
31412,53951,33524
31396,53949,33484
31336,53943,33476
31168,53999,33479
31017,53895,33488
31032,53980,33325
31092,53964,33501
31136,53947,33540
31288,53924,33495
31425,53927,33504
31433,53821,33464
31397,53921,33444
31348,53925,33504
31225,53951,33344
31100,53988,33554
31084,53888,33519
31128,53951,33455
31160,53931,33592
31284,53879,33574
31436,53887,33531
31472,53885,33493
31396,53904,33711
31360,53861,33604
31204,53943,33493
31108,53936,33609
31142,53892,33674
31217,53933,33617
31240,53895,33583
31364,53893,33661
31465,53876,33572
31472,53791,33535
31396,53880,33464
31342,53869,33534
31212,53932,33484
31152,53895,33287
31250,53844,33485
31322,53908,33393
31360,53895,33193
31516,53881,33414
31628,53852,33268
31620,53840,33173
31584,53869,33170
31541,53785,33157
31416,53895,33111
31280,53919,32893
31318,53815,33115
31381,53894,32974
31400,53895,32832
31489,53860,33012
31624,53831,32836
31684,53829,32800
31656,53767,32624
31652,53847,32624
31596,53863,32663
31469,53904,32493
31517,53807,32684
31636,53873,32543
31748,53819,32469
31852,53820,32383
31912,53810,32425
31820,53813,32376
31732,53798,32246
31676,53839,32279
31568,53863,32276
31476,53890,32240
31544,53887,32144
31696,53791,32172
31812,53863,32064
31928,53751,32093
32068,53831,32068
32057,53727,31973
31986,53821,31961
31944,53825,31969
31864,53821,31937
31776,53863,31716
31792,53857,31876
31920,53861,31829
32022,53767,31660
32188,53806,31832
32297,53799,31698
32288,53758,31654
32224,53798,31509
32148,53815,31657
32012,53783,31553
31929,53852,31517
31982,53868,31444
32111,53753,31295
32200,53831,31404
32316,53796,31345
32428,53791,31192
32396,53797,31257
32257,53800,31034
32192,53716,31258
32080,53831,31149
32024,53833,31026
32096,53836,30949
32188,53767,31075
32244,53817,30988
32408,53785,30951
32528,53684,30759
32512,53767,30935
32448,53767,30847
32344,53794,30718
32210,53809,30591
32125,53825,30756
32224,53823,30727
32332,53823,30527
32392,53796,30593
32541,53767,30638
32696,53757,30617
32676,53744,30607
32564,53671,30510
32448,53759,30397
32288,53787,30631
32180,53807,30532
32229,53767,30460
32276,53767,30423
32266,53767,30526
32388,53733,30479
32536,53741,30300
32544,53677,30545
32493,53743,30431
32404,53724,30432
32240,53767,30319
32112,53690,30433
32196,53764,30402
32260,53759,30255
32304,53760,30478
32424,53639,30393
32600,53703,30360
32588,53701,30183
32524,53722,30360
32460,53716,30358
32328,53648,30167
32231,53764,30340
32232,53744,30350
32344,53754,30189
32458,53737,30404
32644,53703,30341
32781,53687,30311
32736,53596,30168
32676,53684,30436
32660,53679,30349
32528,53728,30331
32412,53700,30236
32472,53737,30367
32564,53720,30348
32556,53735,30212
32617,53605,30426
32672,53661,30422
32648,53639,30308
32572,53685,30543
32556,53588,30507
32416,53711,30396
32256,53719,30565
32309,53703,30589
32400,53684,30567
32436,53671,30630
32532,53676,30502
32640,53615,30752
32669,53593,30727
32640,53655,30577
32573,53639,30788
32440,53692,30820
32300,53694,30708
32284,53686,30959
32340,53697,30917
32404,53628,30924
32524,53653,30919
32661,53620,31007
32692,53639,31018
32648,53556,31026
32608,53633,31073
32504,53677,31077
32368,53660,31021
32381,53684,31116
32444,53599,31140
32485,53663,31165
32646,53633,31077
32816,53607,31180
32772,53615,31231
32684,53620,31172
32624,53607,31281
32521,53655,31281
32408,53679,31202
32408,53661,31335
32508,53639,31365
32568,53639,31332
32696,53607,31255
32792,53596,31471
32740,53511,31439
32624,53607,31396
32628,53581,31469
32556,53589,31500
32469,53652,31392
32496,53637,31421
32580,53623,31657
32649,53616,31605
32772,53511,31588
32928,53564,31485
32932,53580,31727
32880,53605,31702
32816,53497,31668
32697,53605,31740
32564,53652,31870
32602,53634,31828
32624,53615,31852
32657,53626,31703
32788,53511,32006
32892,53561,31946
32880,53540,31863
32758,53580,32029
32681,53576,32033
32600,53559,31878
32480,53613,32148
32520,53613,32119
32629,53597,32085
32664,53533,32013
32764,53575,32263
32878,53541,32225
32837,53556,32167
32700,53477,32101
32608,53548,32405
32484,53599,32313
32420,53511,32340
32472,53599,32181
32584,53575,32473
32632,53599,32409
32748,53471,32421
32884,53535,32303
32864,53494,32595
32768,53551,32510
32688,53453,32341
32556,53575,32556
32416,53604,32573
32428,53568,32437
32548,53572,32705
32588,53591,32652
32708,53468,32644
32796,53511,32604
32752,53471,32527
32602,53466,32644
32488,53519,32818
32352,53567,32751
32260,53488,32757
32296,53571,32631
32404,53575,32748
32492,53569,32951
32640,53543,32854
32789,53500,32887
32764,53500,32729
32665,53509,33015
32568,53526,32940
32444,53543,32952
32286,53587,32972
32288,53567,32935
32372,53551,32916
32444,53567,33044
32505,53487,33025
32604,53511,32889
32597,53468,33103
32600,53521,33093
32604,53511,32936
32552,53526,33171
32428,53532,33125
32432,53558,33159
32496,53569,33145
32536,53545,33045
32640,53543,33007
32793,53415,33236
32768,53503,33198
32637,53476,33117
32516,53509,33287
32369,53461,33229
32212,53565,33125
32252,53543,33371
32288,53511,33293
32309,53540,33287
32440,53479,33217
32584,53423,33148
32520,53493,33387
32420,53477,33327
32364,53415,33329
32270,53511,33353
32140,53567,33319
32168,53545,33196
32256,53543,33453
32344,53469,33395
32500,53503,33279
32688,53479,33551
32704,53455,33428
32577,53494,33436
32492,53487,33274
32388,53541,33492
32276,53446,33464
32296,53540,33414
32396,53505,33334
32500,53551,33526
32604,53428,33524
32730,53479,33356
32712,53472,33621
32620,53503,33549
32570,53502,33522
32482,53429,33583
32358,53545,33581
32348,53537,33504
32396,53543,33611
32372,53439,33584
32389,53495,33503
32380,53487,33566
32244,53392,33625
31904,53489,33593
31544,53501,33509
31168,53522,33454
30880,53529,33585
30860,53567,33595
30872,53543,33543
30784,53509,33471
30925,53463,33351
31356,53493,33413
31981,53492,33475
33061,53495,33412
34438,53519,33372
35924,53566,33312
37300,53607,33382
38508,53529,33273
39364,53597,33201
39540,53599,33058
39144,53575,33031
38749,53556,33145
38508,53479,33041
38216,53551,32968
37756,53559,32798
37212,53501,32889
36596,53606,32871
35972,53588,32832
35280,53605,32718
34552,53508,32630
33940,53560,32864
33521,53527,32728
33124,53540,32532
32660,53527,32718
32288,53478,32657
31920,53580,32527
31584,53620,32630
31454,53606,32496
31412,53500,32548
31400,53586,32636
31456,53511,32590
31612,53533,32553
31582,53468,32399
31484,53534,32693
31400,53528,32562
31265,53528,32574
31112,53607,32447
31160,53492,32512
31304,53588,32577
31364,53601,32557
31496,53559,32549
31656,53524,32504
31696,53487,32408
31632,53557,32654
31568,53503,32614
31440,53489,32465
31308,53596,32714
31332,53588,32680
31440,53588,32705
31460,53601,32575
31548,53476,32893
31696,53543,32797
31712,53551,32823
31620,53452,32805
31532,53557,32740
31436,53564,32948
31325,53611,32945
31353,53540,32846
31448,53590,32876
31484,53588,32983
31573,53549,32988
31756,53543,32809
31737,53461,33057
31698,53556,32949
31645,53541,32908
31530,53605,32718
31360,53510,32901
31348,53607,32837
31400,53615,32758
31468,53596,32673
31573,53557,32604
31744,53511,32484
31789,53559,32363
31741,53524,32418
31693,53583,32272
31594,53604,32180
31428,53604,31918
31416,53527,31874
31472,53615,31954
31580,53623,31753
31681,53525,31652
31820,53575,31436
31861,53565,31485
31804,53543,31287
31764,53599,31017
31628,53575,31007
31476,53639,30894
31456,53623,30760
31546,53639,30518
31620,53543,30537
31728,53591,30373
31958,53589,30217
32032,53604,29954
31968,53577,29948
31964,53607,29831
31877,53620,29584
31788,53639,29622
31734,53669,29468
31828,53565,29312
31877,53639,29028
31940,53607,29168
32080,53613,28980
32136,53565,28804
32100,53533,28740
32024,53623,28714
31900,53669,28570
31808,53677,28361
31869,53671,28304
31960,53668,28260
32050,53604,28166
32192,53639,28052
32336,53605,27897
32313,53629,27907
32244,53567,27812
32178,53629,27647
32100,53623,27465
31992,53703,27543
32010,53713,27529
32080,53677,27367
32109,53668,27292
32144,53639,27098
32284,53639,26942
32360,53560,26973
32312,53631,26954
32272,53660,26860
32202,53673,26637
32072,53660,26464
32092,53719,26699
32200,53727,26512
32249,53655,26462
32320,53679,26351
32440,53585,26276
32474,53661,26188
32413,53684,25941
32362,53621,26119
32296,53713,25965
32156,53738,25872
32216,53742,25649
32336,53637,25664
32412,53716,25719
32500,53718,25566
32656,53583,25479
32676,53668,25281
32630,53696,25266
32576,53607,25320
32508,53723,25201
32388,53756,25128
32368,53678,24924
32458,53733,24775
32508,53751,24936
32609,53708,24833
32813,53692,24780
32852,53687,24719
32802,53708,24788
32704,53652,24673
32588,53716,24597
32480,53767,24516
32456,53759,24484
32540,53692,24357
32596,53660,24225
32685,53712,24113
32842,53633,24401
32872,53708,24277
32830,53685,24245
32736,53704,24188
32620,53748,24121
32505,53762,23969
32488,53756,24109
32572,53750,24106
32656,53736,24054
32764,53639,23940
32920,53700,23794
32988,53717,24055
32912,53712,24036
32817,53716,23990
32680,53661,24018
32496,53767,23974
32493,53796,23967
32608,53765,23983
32684,53709,24024
32776,53749,23921
32928,53713,23780
32970,53743,24123
32845,53716,24037
32752,53726,24063
32604,53767,23965
32388,53718,24068
32352,53783,24252
32420,53789,24207
32493,53801,24192
32580,53689,24365
32734,53687,24345
32788,53741,24156
32693,53736,24437
32610,53761,24398
32528,53791,24506
32412,53731,24589
32428,53809,24439
32528,53791,24708
32600,53806,24687
32731,53688,24715
32921,53736,24679
32904,53764,24562
32780,53706,24849
32644,53685,24871
32593,53796,24896
32492,53818,24990
32447,53831,24876
32544,53829,25079
32592,53828,25022
32676,53726,25136
32828,53712,25086
32864,53767,24876
32788,53767,25212
32676,53796,25212
32542,53807,25161
32376,53823,24983
32376,53767,25337
32436,53831,25294
32532,53831,25302
32696,53796,25264
32877,53767,25134
32876,53789,25437
32817,53740,25389
32740,53766,25358
32623,53823,25484
32489,53807,25413
32540,53862,25510
32640,53807,25508
32720,53767,25297
32772,53821,25556
32900,53767,25581
32886,53764,25552
32780,53823,25644
32680,53805,25592
32556,53831,25760
32436,53847,25711
32464,53884,25520
32604,53760,25794
32664,53848,25793
32776,53809,25602
32920,53819,25896
32942,53807,25879
32868,53789,25880
32812,53728,25874
32768,53836,25708
32644,53889,26049
32605,53836,25997
32652,53863,25975
32752,53855,25801
32832,53844,26140
32944,53735,26081
32972,53732,26012
32900,53823,25880
32805,53839,26141
32724,53783,26085
32537,53887,26098
32534,53860,26164
32677,53893,26188
32809,53828,26144
32912,53860,26196
33054,53832,26167
33061,53845,26276
33012,53760,26213
32940,53836,26198
32884,53893,26192
32750,53817,26220
32688,53893,26127
32804,53895,26239
32880,53852,26175
32944,53808,25960
33048,53840,26260
33073,53828,26191
33012,53860,26116
32924,53861,26095
32828,53876,26128
32684,53825,26112
32676,53836,26055
32724,53892,26082
32732,53895,25964
32788,53863,26101
32952,53852,26020
33012,53868,25927
32941,53871,25973
32848,53767,25888
32812,53885,25659
32728,53925,25879
32768,53895,25753
32804,53815,25876
32817,53860,25747
32844,53895,25818
32952,53887,25700
32936,53871,25684
32829,53830,25622
32716,53877,25412
32628,53887,25545
32488,53895,25476
32516,53940,25390
32656,53933,25373
32724,53895,25192
32808,53861,25292
32924,53871,25205
32928,53807,25122
32828,53790,25124
32789,53876,24993
32736,53895,24878
32604,53925,24899
32592,53959,24712
32657,53861,24763
32704,53933,24647
32800,53924,24508
32936,53855,24519
32972,53797,24312
32900,53885,24322
32808,53884,24273
32773,53932,23976
32672,53965,24117
32668,53861,23963
32740,53943,23655
32824,53927,23834
32916,53895,23679
33080,53895,23402
33152,53909,23509
33116,53919,23396
33072,53908,23334
32988,53924,23202
32872,53885,22906
32901,53884,22989
33008,53954,22831
33020,53948,22568
33068,53912,22671
33232,53833,22548
33292,53913,22532
33264,53879,22389
33136,53887,22086
33008,53940,22099
32860,53949,22012
32801,53983,21881
32856,53863,21636
32920,53951,21465
33036,53935,21594
33210,53920,21440
33249,53887,21132
33156,53839,21320
33096,53923,21158
33000,53929,20861
32852,53991,20985
32776,53991,20816
32860,53892,20682
32937,53953,20638
33032,53925,20468
33192,53895,20199
33262,53916,20356
33200,53927,20208
33140,53846,20004
33058,53944,19817
32884,53980,19980
32836,53988,19790
32872,53981,19480
32960,53936,19641
33048,53943,19556
33136,53917,19420
33092,53933,19154
32864,53940,19267
32533,53876,19150
32164,53857,18938
31808,53975,18945
31612,53964,18911
31564,53913,18680
31536,53990,18793
31456,53868,18682
31508,53927,18549
31673,53855,18295
31949,53877,18194
32732,53893,18335
33900,53981,18221
35102,54020,18208
36448,54008,18090
37725,54039,17899
38700,54008,17874
39120,54008,17828
39006,53990,17687
38527,53989,17706
38280,53990,17559
38236,53980,17487
38000,54023,17461
37576,54063,17184
37136,53960,17279
36716,54023,17213
36165,54023,17084
35520,54006,17044
34976,53973,17014
34496,53943,16931
34038,53991,16667
33616,53958,16803
33244,54021,16800
32776,53951,16683
32496,54039,16581
32416,54023,16436
32368,53936,16300
32340,53983,16215
32429,53878,16132
32460,53960,16335
32404,53964,16278
32316,53991,16180
32210,53917,15924
32066,54023,15829
32020,53996,15984
32124,54023,15936
32218,54013,15851
32292,53981,15813
32424,53979,15684
32436,53940,15469
32386,53971,15360
32312,53989,15513
32248,53991,15534
32148,54009,15451
32124,54041,15322
32200,53927,15158
32276,53999,15001
32340,53999,15185
32496,53960,15122
32579,53967,15089
32520,53879,15105
32464,53956,15056
32408,53941,14953
32268,54018,14896
32268,54028,14837
32328,53917,14594
32340,54004,14804
32364,53972,14727
32540,53947,14692
32576,53861,14604
32460,53965,14469
32364,53964,14357
32276,53985,14284
32118,54020,14206
32100,53959,14447
32208,53997,14379
32312,54023,14295
32396,53982,14219
32560,53955,14166
32568,53959,14103
32500,53959,13883
32448,53940,13813
32412,53983,13996
32318,54017,13881
32269,54012,13792
32284,54023,13605
32312,53988,13742
32398,53983,13641
32612,53965,13594
32656,53863,13497
32576,53961,13370
32480,53884,13217
32424,53904,13410
32316,54005,13303
32284,54038,13193
32360,54004,13161
32405,53989,12930
32448,53997,12852
32620,53964,13004
32644,53933,12967
32604,53895,12886
32608,53957,12846
32608,53985,12806
32516,54020,12695
32492,53999,12436
32596,54018,12443
32652,54015,12617
32748,53987,12532
32936,53959,12480
33022,53877,12224
32956,53964,12377
32920,53957,12362
32864,54005,12330
32750,53952,12228
32767,54022,12052
32880,54020,12172
32992,54004,12160
33020,53996,12097
33156,53911,11863
33208,53957,12038
33164,53971,12046
33112,53991,11983
33068,53991,11964
32917,54020,11863
32864,53984,11877
32892,54015,11829
32956,54023,11769
33056,53917,11557
33224,53959,11578
33292,53981,11701
33262,53965,11711
33212,53957,11653
33152,54004,11641
33036,53988,11573
33052,54023,11401
33113,54023,11326
33181,53940,11542
33264,53999,11491
33400,53965,11453
33440,53951,11301
33360,53983,11469
33338,53977,11436
33316,53964,11412
33164,54037,11389
33124,53952,11157
33172,54021,11403
33208,54001,11381
33228,53971,11341
33368,53964,11287
33416,53886,11102
33364,53927,11316
33284,53966,11382
33256,53980,11357
33116,54023,11310
33116,53935,11282
33208,54001,11229
33288,54013,11298
33384,53989,11237
33572,53967,11316
33625,53871,11364
33537,53948,11332
33452,53895,11176
33409,53957,11203
33274,54012,11385
33240,54004,11460
33281,53999,11463
33372,53983,11430
33436,53991,11436
33616,53943,11470
33696,53943,11430
33670,53921,11381
33584,53889,11497
33520,53959,11361
33408,54012,11367
33324,54015,11370
33356,53988,11611
33397,53996,11664
33396,53966,11654
33503,53839,11716
33504,53857,11681
33444,53943,11740
33360,53954,11652
33280,53876,11581
33112,53972,11582
33060,54004,11663
33144,53977,11740
33204,53981,11695
33276,53940,11737
33494,53911,11828
33576,53928,11810
33484,53920,11906
33408,53909,12101
33374,53946,12135
33204,53988,12097
33100,53990,12141
33164,53981,12161
33236,53964,12199
33252,53964,12219
33392,53863,12487
33392,53895,12545
33292,53927,12673
33234,53933,12706
33156,53923,12752
32992,53985,12823
32916,53987,12894
32982,53959,12974
33056,53951,12996
33136,53937,13030
33272,53895,13102
33264,53839,13135
33136,53895,13197
33008,53837,13252
32924,53940,13327
32748,53868,13353
32716,53957,13408
32788,53953,13449
32872,53951,13488
32932,53935,13583
33064,53852,13649
33088,53893,13662
33016,53916,13756
32984,53863,13755
32909,53919,13804
32754,53964,13826
32700,53956,13892
32784,53940,13736
32864,53959,13792
32893,53850,14036
32992,53893,14155
33052,53895,14169
32992,53804,14205
32861,53877,14271
32764,53908,14366
32632,53916,14397
32596,53925,14460
32616,53949,14503
32624,53928,14553
32628,53895,14575
32792,53813,14652
32848,53887,14744
32792,53893,14791
32729,53895,14836
32668,53871,14893
32560,53928,14961
32532,53884,15011
32632,53916,15058
32720,53935,15144
32796,53895,15120
32924,53888,15188
32972,53871,15298
32864,53886,15396
32768,53880,15438
32702,53895,15433
32540,53843,15476
32516,53916,15389
32620,53893,15421
32724,53888,15714
32774,53895,15807
32885,53767,15844
32928,53853,15911
32853,53871,15964
32800,53863,15985
32752,53884,15996
32626,53828,16012
32576,53908,15989
32592,53905,16108
32636,53888,16098
32653,53792,16220
32782,53817,16407
32788,53831,16492
32697,53868,16550
32572,53847,16694
32504,53817,16722
32344,53876,16774
32296,53895,16608
32352,53878,16678
32408,53797,16769
32462,53863,16837
32640,53805,17043
32692,53831,17124
32668,53822,17189
32612,53831,17257
32576,53762,17402
32437,53871,17449
32380,53800,17519
32468,53887,17585
32548,53788,17631
32608,53843,17716
32754,53836,17760
32792,53813,17815
32704,53836,17877
32624,53828,17942
32542,53855,18053
32380,53864,18043
32296,53831,18116
32388,53820,18040
32436,53860,18075
32473,53853,18117
32636,53804,18213
32692,53807,18364
32608,53805,18351
32576,53815,18412
32536,53828,18497
32406,53812,18567
32392,53860,18652
32484,53805,18792
32556,53749,18846
32636,53805,18890
32824,53767,18887
32880,53789,19125
32844,53813,19337
32788,53799,19357
32712,53819,19376
32532,53837,19302
32449,53860,19357
32452,53839,19473
32484,53767,19781
32516,53746,19893
32694,53795,19920
32772,53762,19969
32736,53767,19837
32736,53791,19969
32708,53815,20231
32572,53829,20366
32504,53839,20525
32596,53738,20630
32666,53802,20697
32656,53813,20773
32733,53767,20866
32788,53725,20935
32784,53704,21081
32724,53762,21204
32660,53696,21317
32480,53828,21404
32420,53816,21535
32476,53749,21645
32536,53706,21737
32560,53767,21860
32716,53668,21958
32780,53743,22116
32768,53739,22245
32664,53766,22381
32588,53680,22535
32476,53767,22686
32357,53788,22825
32485,53812,23019
32441,53757,23140
32476,53766,23317
32638,53663,23481
32748,53727,23660
32716,53679,23856
32712,53712,24104
32749,53752,24288
32644,53789,24501
32540,53788,24717
32608,53721,24935
32648,53692,25157
32704,53743,25423
32852,53741,25633
32876,53704,25890
32828,53740,26154
32751,53721,26424
32648,53712,26712
32488,53767,26869
32408,53757,27203
32500,53763,27577
32616,53756,27871
32660,53719,28178
32784,53630,28489
32836,53668,28844
32748,53703,29213
32660,53713,29524
32596,53704,29788
32496,53766,30084
32492,53748,30429
32580,53752,30761
32664,53721,31116
32712,53720,31494
32860,53695,31901
32952,53604,32103
32884,53637,32320
32736,53605,32675
32632,53660,33103
32372,53666,33501
32140,53742,33860
31932,53732,34174
31736,53724,34519
31580,53704,34841
31552,53637,35164
31556,53581,35495
31448,53679,35794
31236,53671,36096
31196,53677,36413
31240,53679,36716
31766,53737,36990
32948,53741,37285
34336,53735,37548
35812,53748,37796
37252,53700,38045
38336,53711,38308
38900,53714,38512
38752,53708,38727
38194,53691,38994
37677,53757,39189
37600,53767,39559
37556,53751,39775
37360,53743,39909
36968,53678,40023
36636,53689,40215
36152,53685,40394
35446,53679,40591
34684,53613,40830
34029,53702,41030
33433,53727,41108
32992,53628,41256
32720,53727,41383
32500,53699,41604
32372,53663,41693
32368,53639,41828
32340,53653,41936
32224,53661,42132
32048,53663,42244
31916,53687,42351
31716,53699,42422
31608,53704,42449
31692,53684,42592
31746,53703,42670
31820,53655,42772
31972,53638,42844
32072,53623,42902
32020,53572,43013
31952,53639,43047
31884,53639,43066
31724,53691,43137
31677,53684,43191
31748,53660,43225
31844,53615,43269
31935,53632,43319
32105,53631,43351
32224,53575,43381
32160,53612,43413
32088,53628,43445
32048,53628,43484
31888,53629,43516
31844,53623,43527
31912,53655,43557
32004,53653,43575
32113,53620,43552
32304,53607,43612
32405,53597,43608
32364,53607,43612
32280,53592,43622
32220,53620,43615
32081,53647,43599
32024,53622,43581
32092,53558,43559
32140,53605,43527
32172,53580,43494
32340,53583,43448
32458,53588,43415
32384,53589,43356
32296,53521,43303
32220,53511,43239
32112,53639,43169
32100,53639,43100
32199,53637,43015
32316,53629,42935
32412,53597,42868
32628,53500,42751
32736,53559,42711
32700,53581,42616
32612,53532,42503
32548,53583,42361
32404,53638,42260
32376,53631,42148
32452,53636,42013
32496,53605,41925
32576,53552,41868
32732,53565,41735
32820,53567,41588
32712,53564,41431
32653,53540,41287
32592,53567,41158
32478,53551,41017
32484,53607,40808
32617,53549,40732
32750,53598,40572
32849,53545,40380
33000,53564,40232
33072,53479,40071
32984,53561,39934
32932,53552,39756
32880,53591,39555
32716,53615,39403
32637,53541,39159
32740,53511,38948
32812,53584,38722
32864,53549,38540
33064,53545,38363
33184,53567,38180
33104,53553,38007
33040,53575,37768
32972,53497,37509
32873,53600,37391
32860,53614,37348
32945,53599,37152
33036,53607,36863
33148,53577,36628
33312,53565,36397
33360,53557,36227
33308,53543,36014
33212,53524,35781
33124,53573,35461
33034,53600,35524
32980,53557,35228
33061,53607,34959
33164,53612,34780
33272,53581,34492
33456,53564,34196
33540,53553,34016
33488,53564,33851
33436,53563,33574
33372,53576,33370
33240,53596,33190
33146,53535,32946
33200,53588,32888
33266,53599,32805
33344,53591,32516
33477,53575,32311
33564,53541,32113
33476,53575,31924
33376,53564,31716
33308,53571,31509
33173,53601,31329
33096,53580,31103
33100,53604,30855
33156,53553,30661
33256,53589,30388
33444,53572,30415
33520,53559,30238
33464,53484,30017
33365,53464,29796
33237,53573,29496
33088,53615,29552
33037,53533,29324
33104,53607,29152
33238,53606,28973
33350,53543,28805
33512,53549,28628
33600,53508,28465
33572,53567,28228
33524,53503,27949
33508,53580,27821
33364,53628,27684
33268,53623,27499
33336,53621,27346
33360,53597,27152
33349,53551,27181
33488,53474,27104
33568,53543,26958
33536,53567,26857
33468,53557,26740
33416,53599,26565
33297,53511,26389
33257,53613,26241
33312,53625,26141
33380,53535,25987
33432,53591,25842
33568,53511,25742
33620,53549,25611
33524,53572,25469
33424,53556,25224
33352,53588,25047
33256,53637,24933
33233,53621,25026
33280,53599,24995
33336,53561,24933
33365,53606,24867
33548,53565,24698
33612,53526,24600
33532,53573,24550
33480,53607,24457
33460,53597,24387
33332,53631,24266
33284,53567,24173
33312,53631,24116
33361,53639,23980
33408,53621,23791
33580,53576,23994
33676,53593,23860
33600,53596,23852
33509,53623,23740
33384,53628,23618
33160,53668,23544
33053,53583,23526
33069,53648,23565
33092,53655,23442
33143,53567,23388
33328,53612,23300
33436,53617,23247
33392,53591,23193
33340,53633,23170
33312,53583,23145
33192,53637,23092
33132,53607,23036
33180,53646,22983
33228,53655,22948
33244,53660,22853
33396,53631,22773
33476,53534,22764
33420,53639,22708
33324,53667,22565
33288,53575,22489
33189,53681,22431
33188,53696,22423
33304,53695,22374
33344,53712,22322
33372,53693,22336
33509,53677,22263
33552,53661,22474
33516,53639,22556
33476,53593,22551
33464,53686,22473
33316,53735,22444
33258,53736,22436
33306,53703,22460
33328,53733,22385
33324,53699,22412
33436,53623,22485
33464,53689,22457
33408,53714,22431
33340,53702,22471
33274,53736,22513
33156,53685,22492
33112,53767,22463
33188,53767,22487
33225,53673,22528
33284,53742,22506
33456,53728,22569
33568,53711,22555
33509,53724,22541
33400,53751,22601
33368,53751,22620
33260,53799,22675
33252,53708,22632
33344,53785,22639
33408,53749,22651
33424,53767,22661
33552,53764,22711
33608,53686,22735
33512,53723,22779
33452,53690,22821
33388,53767,22901
33224,53839,22964
33156,53844,22932
33208,53839,22981
33257,53812,23166
33228,53763,23190
33365,53785,23365
33376,53807,23375
33269,53799,23322
33156,53792,23383
33089,53829,23460
32976,53877,23506
32928,53849,23580
32976,53837,23729
33064,53781,23846
33146,53788,24046
33280,53831,24180
33356,53767,24233
33242,53839,24355
33160,53762,24341
33124,53852,24213
32984,53908,24492
32928,53919,24449
32984,53933,24470
33000,53913,24596
33056,53895,24726
33172,53799,24965
33185,53869,25069
33092,53871,25162
32980,53895,25230
32900,53865,25279
32732,53952,25413
32689,53959,25516
32797,53972,25566
32912,53959,25674
32973,53959,25700
33093,53935,25696
33152,53877,25724
33148,53932,25813
33100,53964,25908
33024,53972,26007
32844,54004,26276
32736,53933,26404
32796,54022,26579
32864,54020,26622
32893,53997,26767
33088,53991,26790
33176,53967,26796
33112,53999,26885
33044,53989,26861
32980,54023,27015
32824,54055,27175
32720,54087,27292
32720,54072,27425
32714,54044,27529
32692,54063,27613
32836,54020,27717
32932,54036,27820
32884,54033,27918
32828,54063,28036
32776,54063,28116
32624,54116,28220
32540,54040,28318
32572,54055,28419
32612,54049,28526
32664,54077,28613
32924,53991,28725
33044,54073,28823
32994,54023,28933
32904,54047,29038
32856,54039,29121
32680,54151,29136
32588,54089,29276
32596,54183,29460
32624,54132,29561
32648,54166,29669
32796,54095,29779
32780,54110,29896
32636,54049,29996
32492,54117,30092
32421,54180,30228
32288,54233,30333
32272,54239,30436
32356,54151,30549
32452,54208,30689
32504,54151,30776
32668,54213,30910
32768,54207,31039
32676,54135,31158
32533,54167,31280
32488,54228,31405
32341,54188,31478
32256,54214,31623
32333,54279,31732
32464,54300,31919
32536,54276,32056
32664,54260,32202
32716,54255,32335
32597,54272,32381
32436,54279,32534
32320,54305,32657
32228,54263,32736
32202,54345,32956
32308,54352,33247
32396,54340,33340
32460,54340,33479
32612,54215,33624
32736,54295,33780
32688,54328,33909
32652,54343,33985
32586,54269,34089
32456,54399,34276
32389,54407,34565
32416,54360,34805
32386,54343,34877
32368,54381,34996
32473,54303,35162
32525,54356,35309
32464,54346,35463
32348,54384,35640
32268,54415,35767
32104,54444,35935
32028,54463,36047
32120,54365,36133
32144,54455,36489
32124,54460,36733
32228,54423,36782
32225,54354,36924
32094,54407,37105
31898,54431,37213
31656,54395,37390
31292,54501,37668
31020,54482,37854
30928,54516,37925
30896,54527,38109
30852,54511,38304
30844,54501,38472
30796,54484,38653
30797,54508,38831
30944,54513,38928
31548,54535,39117
32472,54591,39303
33636,54604,39487
35061,54527,39740
36344,54612,40012
37332,54582,40173
37960,54585,40367
37925,54607,40532
37454,54607,40629
37092,54631,40749
37060,54628,40912
36840,54663,41080
36496,54663,41290
36076,54684,41494
35564,54663,41713
34928,54655,41866
34340,54628,42041
33716,54615,42180
33172,54647,42270
32712,54663,42425
32320,54588,42590
31908,54703,42741
31632,54660,42880
31488,54711,43028
31397,54676,43181
31328,54704,43342
31424,54695,43490
31420,54582,43656
31328,54682,43796
31216,54708,43909
31160,54709,44038
30944,54753,44152
30760,54761,44278
30796,54779,44372
30888,54767,44463
30956,54737,44568
31181,54736,44658
31272,54633,44746
31248,54724,44833
31201,54656,44908
31216,54753,44999
31136,54807,45060
31088,54813,45129
31128,54821,45188
31153,54821,45264
31168,54791,45319
31292,54791,45376
31376,54780,45445
31372,54752,45476
31288,54791,45541
31212,54813,45597
31064,54870,45632
30974,54788,45656
31020,54855,45710
31064,54868,45744
31076,54769,45792
31232,54828,45820
31328,54823,45848
31284,54783,45868
31232,54840,45905
31200,54884,45908
31078,54911,45925
30969,54903,45936
30989,54888,45941
31040,54911,45940
31112,54791,45933
31340,54788,45933
31452,54853,45927
31372,54791,45910
31224,54891,45888
31140,54919,45868
30916,54965,45840
30888,54957,45853
31024,54983,45821
31188,54960,45805
31292,54974,45772
31424,54932,45748
31500,54938,45725
31493,54949,45694
31436,54951,45668
31332,54951,45639
31129,54997,45607
31112,55033,45564
31228,55014,45542
31352,55015,45506
31431,55021,45461
31680,54980,45437
31790,54983,45413
31736,54980,45372
31705,54996,45333
31628,55036,45293
31476,55047,45263
31328,55077,45212
31236,55047,45180
31244,55071,45140
31280,55081,45112
31456,54959,45063
31645,55044,45014
31776,55047,44961
31789,55069,44928
31804,55069,44887
31640,55132,44854
31564,55129,44800
31620,55151,44766
31748,55124,44713
31860,55102,44677
32032,55015,44631
32112,55111,44584
32005,55101,44536
31873,55101,44513
31860,55127,44461
31676,55109,44420
31576,55175,44367
31600,55205,44308
31656,55095,44237
31696,55175,44196
31829,55156,44140
31881,55156,44096
31812,55077,44026
31736,55167,43984
31722,55152,43927
31636,55223,43879
31628,55240,43820
31680,55232,43740
31740,55212,43708
31787,55205,43638
31928,55205,43593
31968,55197,43527
31830,55115,43476
31648,55214,43422
31564,55250,43375
31412,55271,43309
31340,55206,43244
31448,55213,43184
31584,55265,43141
31670,55287,43071
31852,55244,43015
31936,55260,42928
31852,55268,42963
31768,55268,42897
31700,55175,42855
31528,55303,42737
31408,55345,42717
31484,55327,42682
31588,55336,42591
31736,55303,42436
31918,55225,42446
32012,55207,42364
31918,55289,42311
31808,55271,42260
31676,55303,42143
31520,55327,42073
31456,55375,42008
31453,55381,41952
31464,55366,41885
31434,55364,41845
31504,55303,41815
31552,55239,41756
31444,55325,41668
31333,55284,41617
31228,55358,41536
31156,55404,41477
31164,55355,41408
31252,55389,41360
31352,55367,41300
31356,55381,41244
31444,55380,41188
31520,55356,41127
31492,55327,41092
31485,55380,41057
31396,55302,41008
31212,55407,40967
31108,55460,40861
31124,55431,40805
31248,55447,40820
31357,55431,40871
31576,55372,40837
31700,55303,40764
31708,55389,40646
31600,55426,40556
31406,55428,40465
31184,55420,40432
31040,55420,40416
31088,55479,40334
31212,55493,40268
31308,55389,40327
31452,55423,40368
31525,55445,40327
31480,55446,40239
31348,55469,40220
31236,55460,40180
31136,55516,40101
31041,55504,40071
31088,55511,40015
31140,55500,39909
31188,55501,39796
31333,55431,39752
31429,55405,39704
31340,55479,39687
31204,55494,39647
31140,55495,39589
31000,55559,39527
30905,55557,39469
30956,55559,39422
30988,55549,39381
30964,55492,39310
31128,55423,39246
31232,55484,39204
31176,55524,39165
31104,55519,39128
31080,55539,39037
30988,55559,38981
30900,55559,38910
30856,55541,38884
30888,55573,38820
30806,55524,38746
30824,55535,38658
30932,55431,38588
30897,55520,38557
30825,55471,38545
30780,55559,38423
30740,55618,38325
30740,55607,38277
30828,55600,38213
30968,55511,38187
31004,55593,38103
31144,55588,37999
31172,55559,37937
31124,55572,37876
30992,55559,37820
30880,55591,37728
30710,55559,37655
30640,55637,37548
30640,55644,37449
30708,55557,37583
30804,55632,37526
31040,55612,37428
31200,55597,37356
31172,55588,37277
31142,55635,37211
31104,55623,37116
30941,55653,37060
30844,55609,36996
30916,55660,36959
30900,55664,36861
30856,55583,36684
30940,55608,36615
31014,55527,36612
31032,55599,36532
31045,55541,36452
30968,55655,36615
30788,55687,36628
30708,55707,36536
30748,55708,36492
30798,55687,36353
30838,55702,36269
30988,55644,36096
31052,55658,36090
31004,55655,36007
30949,55652,36026
30928,55664,35988
30833,55687,35956
30716,55728,35951
30749,55719,35911
30760,55725,35958
30776,55714,35796
30952,55629,35753
31128,55660,35718
31128,55591,35732
31108,55684,35821
31028,55687,35804
30808,55736,35777
30697,55736,35756
30717,55744,35751
30804,55727,35742
30877,55637,35847
31053,55636,35778
31189,55677,35583
31120,55687,35574
30968,55636,35712
30816,55628,35692
30604,55687,35685
30560,55664,35700
30696,55711,35692
30816,55655,35676
30820,55740,35693
30888,55632,35700
30996,55699,35710
31056,55671,35749
31125,55750,35731
31148,55734,35589
31044,55723,35637
30977,55799,35711
31004,55780,35775
31048,55774,35770
31040,55767,35796
31148,55751,35847
31276,55722,35762
31276,55660,35751
31220,55751,35877
31170,55758,35975
30980,55765,35956
30828,55788,35971
30812,55712,36009
30792,55780,36021
30808,55732,36020
30972,55744,35940
31038,55762,36033
30960,55751,35840
30886,55743,35844
30888,55760,35865
30788,55765,35884
30708,55815,35893
30784,55791,35975
30878,55802,35944
30928,55815,35932
31102,55679,35980
31276,55760,35969
31236,55751,36013
31224,55776,36026
31220,55797,36064
31112,55815,36135
31016,55863,36236
31077,55831,36230
31140,55815,36260
31180,55764,36280
31310,55791,36253
31400,55728,36364
31248,55789,36404
31072,55796,36420
30940,55815,36436
30760,55852,36476
30812,55875,36516
30956,55844,36552
31060,55863,36572
31140,55752,36601
31349,55796,36636
31472,55749,36668
31408,55810,36703
31308,55815,36729
31308,55738,36756
31250,55860,36777
31242,55815,36804
31356,55856,36846
31444,55863,36865
31504,55860,36908
31712,55836,36932
31900,55808,37025
31877,55815,37077
31740,55815,37045
31636,55815,36964
31460,55879,37025
31364,55911,37092
31424,55879,37215
31498,55879,37233
31636,55853,37284
31824,55838,37338
31908,55739,37424
31840,55815,37453
31796,55751,37529
31740,55815,37492
31564,55781,37540
31412,55894,37684
31412,55875,37735
31474,55881,37690
31556,55877,37700
31760,55772,37709
31900,55839,37751
31884,55845,37796
31832,55844,37849
31832,55868,37895
31692,55895,37939
31558,55919,37980
31524,55895,38068
31548,55900,38161
31513,55877,38245
31680,55852,38067
31832,55852,38135
31822,55845,38252
31772,55796,38344
31712,55852,38389
31520,55863,38441
31352,55911,38481
31314,55871,38636
31312,55892,38764
31288,55800,38767
31264,55873,38717
31190,55847,38733
30981,55815,38837
30760,55792,39047
30630,55863,39047
30485,55927,39008
30268,55828,39071
30132,55919,39087
30200,55924,39090
30476,55815,39137
31376,55894,39300
32613,55905,39311
33896,55908,39391
35300,55932,39374
36468,55924,39428
37196,55965,39582
37488,56006,39762
37388,55965,39755
37028,55975,39908
36928,55988,39860
37088,55935,39936
37016,55917,40015
36636,55937,40111
35996,55849,40068
35340,55927,40190
34584,55983,40257
33828,55980,40324
33220,55975,40292
32656,55917,40326
32224,55879,40421
32110,55924,40476
32004,55920,40519
31720,55919,40532
31408,55932,40596
31176,55933,40711
30916,55976,40736
30804,55972,40620
30872,55943,40656
30972,55937,40700
31016,55943,40740
31192,55837,40799
31288,55894,40831
31185,55920,40822
31056,55844,40964
30990,55928,41052
30928,55972,41033
30930,55877,41056
30984,55967,41041
31068,55964,41030
31077,55904,40974
31196,55919,41047
31308,55847,41057
31256,55896,41045
31196,55844,40839
31180,55928,40902
31044,55951,40876
30884,55966,41031
30936,55969,40986
31080,55948,40924
31221,55948,40892
31440,55815,40929
31604,55895,40865
31602,55929,40876
31604,55928,40821
31620,55912,40781
31468,55976,40805
31396,55975,40831
31432,55943,40839
31494,55895,40812
31488,55943,40788
31608,55852,40805
31724,55892,40788
31780,55815,40711
31744,55916,40703
31708,55919,40574
31632,55964,40432
31589,55895,40400
31670,55870,40365
31776,55943,40246
31824,55972,40229
31960,55927,40221
32168,55901,40264
32244,55868,40136
32308,55876,40076
32348,55836,39961
32240,55942,39985
32160,55886,39899
32152,55967,39839
32228,55901,39740
32320,55943,39697
32509,55860,39592
32616,55911,39488
32576,55916,39397
32468,55924,39321
32408,55935,39268
32253,55956,39175
32173,55885,39084
32240,55924,38975
32365,55967,38740
32457,55932,38716
32600,55908,38575
32692,55796,38516
32664,55841,38425
32564,55876,38375
32524,55921,38329
32348,55983,38300
32292,55988,38212
32444,55991,38121
32633,55975,38055
32728,55972,37980
32896,55941,37908
33033,55900,37749
33004,55919,37612
32962,55932,37647
32982,55933,37741
32952,55972,37574
32942,55933,37462
33045,55985,37410
33121,55940,37343
33210,55879,37255
33400,55924,37127
33504,55852,37024
33432,55927,37013
33324,55895,36981
33233,55940,36932
33076,55879,36861
32998,55972,36790
33041,56004,36718
33084,55975,36637
33072,55891,36569
33160,55932,36508
33276,55868,36441
33236,55911,36368
33164,55900,36305
33176,55943,36255
33121,55983,36172
33056,55900,36061
33101,55988,35956
33200,55988,35871
33272,55895,35969
33368,55940,36004
33476,55941,35952
33452,55903,35902
33360,55935,35812
33272,55943,35745
33048,55997,35703
33012,56013,35685
33176,55896,35605
33272,55975,35479
33284,55924,35465
33408,55924,35468
33504,55855,35437
33488,55908,35396
33460,55895,35265
33428,55935,35056
33308,55975,34981
33244,55983,34929
33388,55893,34925
33500,55943,34972
33604,55884,34975
33812,55927,34868
33996,55815,34797
33964,55912,34679
33888,55943,34916
33800,55845,34797
33604,55967,34763
33464,55993,34727
33485,55960,34552
33497,55913,34623
33572,55943,34649
33740,55927,34614
33888,55815,34565
33864,55889,34543
33832,55815,34469
33740,55908,34360
33594,55972,34396
33468,55972,34487
33500,55943,34389
33592,55886,34352
33652,55938,34343
33782,55903,34303
33920,55887,34293
33892,55921,34247
33844,55909,34121
33832,55891,34055
33688,55957,34114
33586,55973,34239
33668,55943,34141
33804,55956,34127
33780,55845,34104
33920,55887,34076
34028,55876,34012
33964,55892,33878
33848,55909,34025
33764,55890,34104
33640,55965,34092
33608,55964,34073
33684,55943,34009
33716,55935,33920
33749,55940,33943
33922,55895,33919
33950,55890,33825
33836,55883,33759
33776,55884,33879
33784,55919,33866
33709,55941,33912
33632,55939,33838
33716,55871,33831
33768,55911,33835
33713,55933,33839
33764,55903,33863
33850,55833,33785
33848,55871,33761
33802,55899,33756
33785,55895,33722
33636,55933,33620
33504,55853,33526
33541,55927,33527
33753,55940,33508
33928,55916,33676
34120,55863,33746
34228,55796,33737
34180,55860,33712
34108,55878,33613
33992,55815,33599
33792,55916,33591
33660,55940,33572
33668,55927,33511
33740,55893,33397
33788,55815,33477
34004,55864,33581
34232,55874,33592
34284,55865,33559
34220,55878,33509
34140,55784,33505
33996,55909,33445
33852,55932,33317
33856,55879,33623
33910,55892,33552
33968,55908,33527
34112,55853,33535
34200,55837,33543
34140,55865,33521
34056,55854,33477
34085,55879,33477
34088,55887,33511
34140,55916,33509
34236,55864,33497
34308,55882,33624
34384,55867,33762
34528,55847,33748
34596,55741,33757
34532,55751,33781
34441,55832,33824
34348,55860,33852
34160,55882,33892
33984,55900,33917
33944,55880,33888
33988,55892,33837
34028,55789,33876
34148,55815,33940
34284,55771,33988
34320,55815,34041
34312,55815,34073
34305,55815,34106
34252,55876,34178
34192,55887,34188
34268,55895,34465
34348,55869,34479
34320,55879,34636
34468,55829,34688
34600,55811,34644
34556,55839,34695
34412,55815,34695
34328,55815,34731
34185,55873,34967
34060,55879,34999
34152,55869,35056
34340,55783,35128
34468,55812,35212
34592,55735,35260
34680,55780,35277
34688,55730,35378
34584,55815,35393
34568,55831,35397
34472,55760,35460
34312,55860,35520
34316,55879,35484
34412,55764,35498
34508,55840,35719
34680,55814,35804
34816,55708,35807
34736,55801,35840
34540,55813,35906
34456,55809,35949
34308,55847,35972
34260,55756,36039
34344,55844,36030
34412,55863,36099
34424,55736,36052
34464,55789,36070
34613,55788,36292
34612,55687,36309
34552,55780,36304
34484,55778,36354
34368,55839,36375
34332,55761,36331
34440,55815,36323
34557,55839,36569
34592,55732,36597
34732,55768,36589
34768,55679,36623
34684,55751,36708
34492,55701,36641
34380,55764,36660
34188,55799,36774
34120,55815,36755
34208,55845,36807
34296,55815,36756
34368,55815,36741
34516,55687,36716
34628,55749,36792
34552,55665,36823
34476,55752,36816
34476,55760,36671
34426,55815,36669
34368,55812,36708
34484,55815,36785
34548,55791,36780
34500,55808,36773
34616,55764,36686
34720,55750,36721
34740,55751,36772
34656,55727,36912
34596,55671,36915
34454,55789,36831
34336,55815,36814
34317,55805,36821
34356,55783,36800
34336,55796,36791
34437,55772,36808
34464,55741,36794
34428,55751,36797
34352,55744,36765
34317,55764,36763
34236,55780,36740
34224,55813,36733
34284,55788,36718
34284,55793,36700
34248,55686,36719
34366,55728,36678
34452,55751,36545
34456,55730,36576
34436,55751,36480
34468,55649,36527
34500,55718,36479
34488,55794,36463
34516,55784,36401
34572,55772,36376
34568,55751,36532
34652,55663,36501
34744,55700,36569
34652,55718,36540
34536,55709,36485
34488,55712,36421
34400,55748,36375
34305,55798,36348
34392,55769,36276
34476,55771,36221
34464,55751,36200
34640,55718,36171
34765,55703,36143
34692,55704,36142
34576,55711,36120
34484,55718,36034
34348,55646,36023
34236,55763,35935
34244,55767,35893
34308,55736,35792
34352,55749,35769
34448,55684,35719
34556,55700,35636
34508,55681,35751
34432,55647,35856
34420,55612,35729
34272,55731,35644
34056,55750,35631
33984,55730,35580
33940,55676,35471
33756,55734,35436
33644,55684,35514
33620,55673,35505
33497,55661,35423
33368,55671,35358
33292,55652,35304
33101,55712,35274
32944,55741,35236
33056,55728,35143
33344,55730,35140
33981,55647,34996
34980,55687,34950
36252,55687,34905
37540,55692,35010
38552,55685,35100
39352,55645,35004
39600,55748,34946
39356,55687,34911
39020,55745,34887
38972,55768,34879
39020,55740,34798
39030,55698,34671
38848,55687,34655
38405,55677,34604
37797,55684,34591
37128,55661,34567
36384,55728,34646
35660,55761,34678
35201,55679,34785
34852,55711,34763
34520,55645,34724
34352,55669,34701
34298,55669,34683
34132,55654,34684
33941,55675,34695
33796,55668,34732
33660,55714,34753
33496,55708,34785
33484,55615,34727
33536,55660,34770
33528,55685,34671
33676,55661,34751
33804,55530,34716
33736,55636,34725
33593,55639,34616
33558,55644,34559
33380,55660,34523
33181,55710,34612
33220,55676,34613
33376,55687,34624
33444,55661,34655
33600,55597,34559
33732,55508,34541
33724,55564,34521
33590,55584,34500
33484,55612,34485
33356,55632,34463
33248,55612,34405
33312,55655,34337
33420,55598,34389
33500,55647,34422
33585,55622,34279
33652,55599,34311
33644,55593,34514
33548,55515,34513
33504,55559,34504
33366,55588,34409
33244,55663,34400
33236,55624,34399
33248,55632,34362
33216,55649,34343
33352,55591,34340
33508,55481,34320
33561,55588,34305
33504,55585,34256
33436,55575,34084
33248,55621,34147
33108,55605,34236
33084,55612,34150
33256,55600,34120
33448,55551,34084
33728,55573,33988
34000,55559,34013
33980,55476,33864
33840,55559,33831
33752,55572,33940
33596,55526,33874
33372,55613,33823
33312,55617,33807
33376,55596,33764
33505,55596,33725
33713,55471,33664
33828,55537,33487
33753,55552,33430
33648,55545,33483
33565,55556,33516
33445,55480,33560
33380,55580,33532
33560,55509,33501
33728,55568,33429
33809,55553,33361
33974,55540,33327
34116,55513,33281
34064,55524,33272
33956,55535,33243
33800,55551,33185
33576,55512,33068
33492,55588,32986
33548,55559,32981
33612,55508,32937
33600,55559,32921
33636,55543,32920
33744,55516,32909
33768,55501,32865
33736,55495,32825
33790,55445,32985
33876,55541,32992
33856,55590,33036
33916,55572,32961
34008,55530,32948
34040,55559,32924
34074,55525,32844
34116,55521,32875
34048,55503,32767
33977,55521,32679
33932,55508,32695
33860,55549,32757
33789,55559,32700
33876,55559,32690
33972,55550,32612
34020,55549,32626
34156,55431,32641
34257,55477,32634
34216,55431,32628
34072,55495,32640
34068,55506,32695
33933,55479,32829
33820,55540,32931
33816,55535,32957
33892,55525,32884
33888,55524,32911
33964,55495,32966
34029,55493,32945
34068,55479,32991
34016,55477,32840
33944,55501,33045
33864,55527,33060
33764,55547,33097
33844,55520,33128
33900,55525,33159
33904,55425,33188
33896,55456,33223
33940,55431,33244
33872,55455,33204
33784,55479,33235
33772,55460,33279
33736,55516,33345
33616,55516,33423
33632,55516,33457
33684,55493,33481
33768,55500,33476
33893,55460,33361
34016,55407,33559
33984,55398,33596
33848,55453,33600
33800,55356,33759
33708,55468,33759
33596,55509,33741
33592,55484,33757
33672,55428,33791
33660,55488,33784
33760,55431,33717
33861,55414,33682
33812,55399,33880
33696,55429,33985
33568,55431,33919
33384,55452,33933
33172,55482,33957
33204,55390,33977
33364,55442,33989
33444,55461,34004
33534,55415,34023
33637,55412,34047
33712,55381,34055
33700,55414,34071
33648,55303,34071
33468,55431,34097
33344,55463,33938
33364,55381,34119
33481,55428,34149
33556,55441,34140
33660,55389,34156
33754,55389,34180
33722,55303,34133
33596,55369,34069
33505,55381,34043
33346,55404,34063
33180,55447,34132
33216,55342,34276
33272,55423,34319
33304,55431,34370
33440,55397,34372
33568,55303,34375
33608,55375,34377
33576,55360,34278
33512,55366,34533
33356,55428,34496
33141,55420,34514
33072,55407,34548
33070,55396,34522
33116,55399,34439
33284,55373,34561
33460,55279,34700
33476,55341,34700
33364,55357,34597
33348,55341,34620
33252,55397,34823
33124,55405,34932
33132,55388,34868
33200,55364,34864
33236,55393,34888
33376,55342,34916
33540,55316,34934
33528,55268,34951
33416,55324,34980
33360,55257,34993
33301,55360,35023
33168,55415,34967
33168,55384,34999
33216,55361,35170
