ECG,EDA,RR
33108,64765,26623
32965,64791,26448
32968,64813,26615
33048,64733,26304
33080,64773,26585
33116,64774,26494
33255,64751,26524
33225,64757,26568
33092,64743,26288
33012,64751,26569
32944,64775,26545
32844,64807,26552
32900,64804,26589
32996,64800,26513
33020,64796,26543
33080,64795,26532
33212,64687,26246
33184,64775,26612
33068,64775,26326
32972,64775,26598
32872,64797,26516
32772,64831,26493
32838,64823,26548
32964,64800,26306
33032,64887,26556
33140,64775,26381
33300,64775,26545
33232,64701,26428
33166,64716,26479
33072,64727,26536
32992,64742,26420
32820,64775,26580
32840,64832,26421
32900,64820,26561
32912,64812,26481
32984,64812,26560
33145,64788,26497
33128,64775,26296
33040,64748,26489
32998,64807,26463
32892,64812,26478
32772,64839,26450
32824,64840,26551
32908,64832,26284
32980,64748,26508
33064,64807,26332
33166,64772,26500
33120,64765,26357
33016,64775,26536
32965,64805,26469
32908,64824,26457
32772,64853,26442
32804,64772,26420
32872,64832,26391
32944,64829,26444
33068,64775,26177
33220,64796,26432
33156,64789,26450
32997,64797,26405
32888,64775,26506
32752,64813,26415
32512,64845,26388
32332,64871,26380
32192,64861,26400
31964,64839,26252
31808,64823,26442
31740,64775,26309
31632,64800,26375
31436,64770,26127
31208,64815,26414
31093,64855,26064
31101,64887,26400
31580,64878,26199
32616,64887,26388
34080,64871,26262
35720,64868,26357
37424,64869,26038
38736,64823,26327
39644,64895,26389
40136,64903,26204
39932,64925,26300
39280,64972,26004
38928,64893,26283
38832,64951,26367
38516,64940,26243
38144,64903,26308
37776,64901,26050
37204,64871,26358
36376,64885,26066
35504,64807,26290
34596,64839,26276
33804,64908,26388
33290,64863,26141
32972,64852,26372
32677,64840,26339
32460,64869,26331
32400,64846,26435
32232,64816,26249
32020,64806,26353
31828,64840,26433
31665,64901,26396
31516,64900,26423
31540,64895,26166
31633,64900,26453
31668,64903,26191
31736,64872,26492
31862,64863,26410
31876,64853,26153
31781,64775,26454
31704,64800,26324
31624,64884,26447
31508,64903,26345
31537,64885,26463
31632,64871,26437
31676,64876,26503
31792,64879,26428
31916,64844,26512
31854,64847,26323
31740,64861,26532
31669,64860,26398
31572,64876,26601
31412,64903,26333
31446,64839,26611
31576,64893,26697
31636,64887,26474
31788,64847,26716
32008,64847,26460
32048,64840,26790
31884,64764,26527
31786,64852,26841
31769,64861,26780
31628,64895,26861
31588,64903,26556
31657,64816,26941
31740,64893,26676
31872,64852,26908
32037,64824,26897
32036,64849,26887
31928,64775,26953
31852,64852,26647
31794,64871,26901
31612,64900,26920
31604,64900,26612
31672,64815,26903
31740,64884,26985
31822,64853,26674
31954,64821,26900
31940,64765,26916
31860,64775,26609
31860,64868,26848
31824,64868,26852
31720,64885,26667
31724,64902,26870
31845,64889,26842
31928,64893,26621
31984,64844,26766
32096,64812,26829
32132,64834,26557
32060,64841,26804
31962,64767,26685
31844,64876,26690
31688,64972,26721
31700,64895,26385
31798,64900,26688
31872,64822,26366
32016,64834,26648
32192,64846,26352
32172,64823,26585
32014,64844,26631
31920,64815,26317
31872,64873,26692
31764,64903,26656
31852,64903,26504
31972,64876,26662
32033,64893,26567
32164,64868,26571
32324,64832,26594
32312,64844,26387
32225,64840,26560
32148,64861,26519
32024,64871,26540
31880,64903,26249
31956,64892,26572
32056,64884,26509
32120,64876,26208
32208,64868,26546
32342,64836,26473
32332,64788,26436
32228,64853,26478
32112,64855,26455
32008,64871,26452
31940,64916,26426
31960,64838,26453
32093,64830,26389
32164,64816,26460
32232,64879,26242
32364,64835,26358
32332,64853,26397
32217,64775,26105
32160,64827,26335
32106,64893,26159
32004,64903,26337
32036,64893,26172
32228,64885,26321
32312,64884,26270
32432,64863,26060
32560,64826,26294
32544,64844,26225
32464,64863,26290
32404,64863,26212
32360,64879,26284
32292,64871,26207
32332,64893,26158
32437,64900,26223
32504,64893,25893
32609,64871,26197
32776,64834,26204
32824,64816,26188
32744,64839,26189
32708,64852,26262
32628,64879,25956
32512,64885,26213
32544,64895,26181
32662,64847,26210
32724,64868,26300
32784,64839,26244
32956,64821,26268
32960,64824,25961
32844,64827,26349
32752,64831,26247
32696,64852,26286
32576,64893,26279
32592,64828,26336
32688,64871,26357
32740,64844,26082
32840,64838,26458
33016,64759,26488
33008,64788,26436
32893,64825,26508
32820,64821,26485
32701,64836,26521
32580,64853,26536
32580,64855,26279
32660,64868,26675
32720,64869,26488
32780,64839,26725
32879,64775,26657
32908,64742,26759
32852,64757,26744
32812,64730,26580
32735,64839,26837
32577,64775,26794
32596,64815,26895
32668,64820,26928
32704,64845,26945
32788,64796,26990
32964,64772,27035
32948,64802,27085
32844,64813,27104
32765,64725,27169
32648,64769,27197
32501,64839,27311
32532,64828,27111
32641,64839,27377
32728,64833,27229
32824,64807,27454
32929,64775,27477
32908,64767,27503
32772,64775,27566
32681,64797,27516
32596,64807,27635
32476,64824,27669
32488,64820,27407
32576,64813,27740
32552,64821,27745
32620,64793,27540
32788,64765,27836
32770,64768,27749
32671,64793,27876
32636,64796,27879
32588,64821,27649
32476,64852,27941
32472,64774,27835
32548,64807,27983
32600,64821,27960
32680,64775,27936
32792,64743,28000
32756,64757,27717
32642,64775,28085
32592,64775,28036
32480,64799,28002
32332,64820,28114
32356,64828,27845
32460,64815,28117
32510,64821,28081
32626,64793,28084
32752,64775,28180
32728,64743,27943
32664,64701,28165
32624,64757,28156
32584,64815,27904
32448,64835,28242
32484,64833,28200
32600,64809,27944
32676,64804,28324
32744,64775,28245
32925,64772,27964
32924,64768,28319
32824,64701,28095
32716,64701,28372
32628,64727,28319
32508,64775,28356
32488,64805,28350
32564,64815,28353
32637,64797,28429
32724,64767,28351
32870,64732,28415
32864,64685,28105
32714,64751,28431
32656,64741,28384
32580,64775,28511
32468,64820,28226
32516,64796,28514
32640,64775,28351
32712,64775,28541
32773,64756,28520
32836,64740,28309
32776,64749,28541
32680,64756,28489
32648,64757,28167
32553,64775,28508
32390,64813,28474
32460,64725,28452
32616,64716,28471
32696,64711,28133
32799,64749,28508
32894,64743,28216
32852,64743,28492
32672,64753,28382
32600,64756,28181
32508,64765,28365
32364,64749,28409
32328,64725,28185
32404,64796,28260
32468,64772,28357
32552,64738,28269
32664,64729,28238
32672,64735,28176
32592,64679,27999
32572,64740,28120
32436,64769,28201
32320,64796,28146
32348,64768,28092
32389,64766,27940
32440,64767,28017
32464,64765,28073
32589,64732,27999
32552,64709,27687
32448,64684,28005
32368,64685,27871
32310,64709,27930
32157,64735,27932
32169,64725,27716
32293,64711,27940
32316,64695,27869
32436,64758,27716
32604,64668,27879
32596,64647,27785
32512,64743,27557
32428,64736,27809
32348,64684,27649
32228,64800,27703
32304,64807,27710
32424,64775,27652
32472,64767,27695
32548,64684,27334
32720,64676,27629
32701,64743,27528
32604,64726,27612
32560,64743,27484
32448,64765,27530
32328,64775,27574
32344,64775,27460
32456,64772,27567
32536,64775,27488
32620,64765,27436
32764,64724,27517
32722,64726,27345
32586,64735,27416
32548,64721,27439
32452,64743,27161
32332,64775,27440
32408,64775,27271
32520,64771,27471
32596,64773,27396
32656,64751,27372
32752,64727,27453
32696,64724,27231
32550,64668,27436
32480,64743,27216
32452,64759,27461
32320,64775,27365
32312,64764,27337
32416,64772,27404
32456,64768,27365
32548,64660,27428
32706,64724,27361
32732,64711,27380
32672,64724,27097
32609,64724,27433
32540,64764,27070
32340,64775,27413
32302,64711,27260
32316,64774,27434
32285,64769,27357
32184,64727,27337
32040,64711,27356
31788,64727,27441
31484,64647,27348
31212,64647,27068
31056,64685,27438
30849,64719,27196
30700,64799,27365
30760,64767,27171
30972,64772,27428
31493,64775,27350
32698,64679,27269
34132,64741,27412
35592,64775,27350
36968,64791,27327
38092,64807,27416
38820,64871,27060
39112,64839,27391
38925,64833,27198
38524,64871,27405
38432,64820,27308
38472,64807,27449
38128,64775,27380
37628,64788,27113
37029,64804,27492
36300,64839,27404
35420,64775,27533
34592,64800,27316
33976,64836,27505
33508,64793,27498
33142,64807,27254
32916,64760,27644
32584,64775,27502
32208,64775,27614
31900,64791,27713
31708,64800,27550
31493,64837,27766
31449,64837,27743
31532,64828,27588
31681,64804,27850
31808,64772,27827
31944,64758,27789
31888,64773,27919
31792,64767,27607
31705,64775,27920
31592,64791,27919
31456,64824,27988
31504,64822,27941
31612,64813,27713
31664,64813,28054
31732,64735,27916
31908,64716,28096
31936,64756,28009
31840,64767,28159
31772,64764,28100
31736,64796,27868
31628,64826,28183
31620,64833,28124
31712,64774,28225
31772,64812,28266
31804,64775,28007
31956,64734,28364
31964,64764,28211
31848,64767,28455
31810,64767,28324
31740,64800,28514
31633,64735,28380
31632,64775,28596
31732,64807,28287
31784,64796,28710
31884,64804,28390
32084,64716,28709
32140,64751,28391
32052,64751,28724
31964,64768,28684
31860,64775,28747
31684,64820,28705
31668,64815,28745
31848,64812,28726
31901,64732,28708
31964,64774,28806
32112,64767,28774
32080,64748,28847
31932,64759,28652
31808,64775,28815
31705,64796,28752
31584,64834,28724
31640,64748,28740
31807,64767,28505
31909,64775,28773
31913,64801,28397
32048,64767,28761
32044,64759,28380
31940,64770,28694
31864,64767,28596
31801,64792,28671
31700,64821,28637
31712,64821,28602
31805,64815,28628
31844,64820,28299
31936,64807,28607
32132,64741,28548
32184,64732,28565
32156,64805,28577
32087,64775,28423
32008,64800,28618
31856,64836,28497
31932,64844,28536
32052,64839,28544
32100,64756,28446
32140,64820,28562
32272,64765,28549
32292,64775,28380
32172,64796,28513
32128,64802,28200
32028,64788,28495
31936,64861,28569
32004,64861,28413
32104,64853,28492
32144,64820,28237
32256,64815,28540
32418,64807,28155
32448,64815,28473
32376,64823,28436
32336,64822,28143
32284,64847,28497
32117,64879,28231
32084,64829,28478
32180,64871,28388
32272,64841,28401
32352,64844,28476
32496,64820,28349
32496,64743,28469
32380,64828,28372
32332,64832,28327
32288,64852,28426
32168,64885,28100
32196,64876,28361
32292,64884,28345
32317,64877,28031
32364,64846,28364
32517,64821,28317
32548,64775,28038
32526,64775,28356
32441,64775,28293
32404,64815,28013
32280,64877,28390
32308,64892,28230
32436,64885,28316
32500,64869,28324
32528,64847,28039
32684,64835,28359
32696,64827,28244
32624,64831,28308
32568,64838,28368
32492,64855,28377
32356,64892,28157
32402,64894,28442
32540,64888,28400
32616,64895,28196
32688,64775,28487
32844,64756,28415
32864,64751,28140
32776,64845,28470
32712,64831,28519
32640,64855,28516
32517,64901,28423
32556,64860,28473
32668,64877,28542
32720,64876,28271
32762,64855,28597
32916,64831,28419
32960,64823,28597
32828,64839,28553
32780,64842,28670
32712,64863,28665
32612,64863,28412
32568,64871,28742
32640,64863,28729
32720,64860,28708
32840,64861,28805
32985,64820,28617
32992,64835,28897
32884,64837,28852
32812,64849,28812
32740,64856,28956
32592,64900,28619
32576,64807,28999
32633,64871,28913
32692,64879,29063
32750,64772,29015
32896,64807,28766
32902,64832,29124
32792,64830,29104
32708,64852,28861
32629,64852,29204
32500,64799,29084
32565,64800,29312
32648,64796,29286
32760,64791,29264
32824,64856,29380
32932,64740,29205
32908,64751,29493
32820,64775,29456
32768,64751,29333
32672,64863,29457
32536,64887,29585
32568,64892,29508
32665,64887,29312
32720,64861,29668
32780,64844,29696
32952,64825,29636
32924,64837,29403
32760,64800,29780
32654,64844,29773
32576,64869,29805
32456,64893,29856
32492,64885,29779
32584,64884,29785
32648,64827,29945
32684,64871,29920
32849,64837,29892
32897,64830,29863
32760,64844,29927
32657,64838,29873
32557,64876,29881
32449,64884,29997
32416,64885,29844
32549,64871,29942
32624,64871,30048
32702,64836,29976
32877,64818,29736
32876,64820,30096
32788,64853,30044
32704,64841,30026
32620,64869,30073
32478,64872,30076
32484,64884,29919
32568,64879,30160
32601,64853,30124
32676,64847,29828
32849,64823,30174
32828,64836,30180
32752,64855,29966
32708,64853,30252
32636,64829,30253
32472,64839,30181
32464,64832,30358
32576,64796,30303
32648,64807,30293
32764,64768,30406
32884,64853,30403
32856,64838,30111
32696,64853,30503
32640,64860,30471
32600,64870,30304
32452,64903,30560
32464,64820,30567
32548,64803,30577
32628,64815,30625
32737,64775,30348
32884,64836,30721
32860,64815,30748
32736,64872,30617
32688,64855,30702
32628,64868,30825
32456,64903,30663
32448,64903,30772
32528,64855,30913
32604,64797,30712
32681,64775,30876
32852,64839,30892
32886,64835,30597
32780,64839,31004
32672,64855,30676
32580,64861,31006
32448,64895,30764
32480,64893,31054
32572,64868,30983
32632,64863,30945
32708,64839,30997
32844,64832,30686
32868,64840,31077
32729,64844,30705
32692,64861,31078
32633,64831,30886
32528,64829,31057
32493,64903,31008
32564,64892,30999
32672,64887,31039
32730,64860,30964
32904,64855,31072
32869,64839,30900
32712,64829,31002
32612,64834,31047
32480,64857,30976
32312,64893,30971
32312,64895,31084
32382,64892,30801
32456,64805,31068
32524,64796,31033
32644,64852,30695
32644,64845,31109
32524,64853,31071
32448,64844,30935
32376,64863,31068
32296,64893,31029
32364,64887,31095
32480,64887,31013
32548,64879,31078
32644,64869,30927
32808,64844,31068
32777,64845,31001
32684,64871,30943
32616,64860,31029
32524,64885,30726
32368,64824,31007
32336,64903,30904
32424,64885,30956
32508,64879,30964
32624,64868,30947
32773,64849,30668
32761,64853,30975
32656,64855,30925
32576,64853,30919
32524,64887,30974
32384,64878,30645
32388,64900,30909
32492,64877,30876
32586,64871,30828
32660,64863,30864
32828,64829,30543
32844,64827,30919
32760,64845,30613
32690,64772,30855
32592,64799,30796
32484,64834,30831
32468,64820,30844
32596,64884,30837
32648,64884,30820
32706,64853,30749
32825,64825,30861
32852,64829,30563
32732,64829,30855
32636,64799,30863
32580,64863,30692
32444,64877,30785
32444,64884,30592
32564,64884,30807
32620,64807,30704
32660,64805,30847
32784,64832,30778
32748,64832,30711
32588,64868,30783
32384,64839,30721
32160,64869,30814
31796,64903,30441
31545,64888,30801
31428,64793,30536
31288,64815,30820
31276,64815,30485
31324,64801,30766
31158,64812,30644
31080,64855,30778
31176,64841,30567
31712,64869,30759
32684,64934,30565
34104,64876,30765
35744,64912,30592
37264,64903,30772
38564,64945,30671
39504,64924,30672
39704,64927,30776
39204,64927,30414
38712,64928,30727
38532,64936,30639
38264,64959,30724
37868,64967,30604
37456,64952,30751
36984,64903,30463
36400,64928,30727
35785,64876,30655
35004,64877,30742
34204,64884,30727
33596,64895,30692
33080,64924,30756
32604,64860,30457
32356,64900,30807
32200,64934,30600
32052,64933,30817
32008,64892,30748
32101,64879,30666
32056,64917,30833
31908,64869,30709
31784,64873,30787
31684,64879,30574
31524,64927,30788
31520,64924,30754
31580,64927,30677
31628,64903,30786
31709,64802,30498
31854,64855,30713
31857,64839,30551
31752,64836,30671
31710,64840,30594
31628,64863,30727
31520,64901,30590
31560,64925,30685
31648,64863,30564
31728,64880,30703
31800,64847,30630
31952,64834,30577
31968,64839,30621
31900,64812,30679
31812,64839,30594
31732,64861,30641
31592,64892,30629
31600,64871,30594
31700,64863,30658
31736,64873,30592
31845,64856,30676
31992,64839,30415
32016,64824,30693
31908,64759,30646
31844,64839,30725
31788,64840,30637
31660,64877,30580
31672,64871,30625
31804,64877,30604
31852,64792,30560
31892,64775,30657
32056,64820,30564
32073,64807,30567
32008,64809,30437
31968,64806,30529
31880,64839,30454
31736,64877,30103
31726,64877,30458
31814,64852,30416
31892,64832,30256
31936,64829,30296
32068,64775,30330
32096,64801,30073
31998,64804,30178
31940,64804,30136
31888,64828,30071
31725,64856,30079
31717,64869,29872
31828,64839,29988
31920,64836,29932
32040,64829,29838
32212,64788,29890
32209,64775,29825
32100,64813,29818
32048,64807,29792
31988,64839,29429
31888,64807,29716
31920,64796,29657
32060,64824,29304
32136,64804,29604
32220,64775,29551
32348,64758,29575
32356,64799,29498
32269,64815,29476
32188,64815,29453
32169,64820,29463
32084,64849,29236
32101,64860,29390
32209,64847,29191
32272,64772,29375
32405,64820,29159
32576,64789,29289
32532,64775,29100
32412,64804,29259
32320,64804,29083
32276,64841,29193
32188,64860,29021
32208,64775,29209
32294,64772,29135
32360,64775,28802
32436,64832,29140
32612,64799,28855
32628,64775,29097
32548,64775,28863
32472,64797,29036
32368,64839,28935
32240,64853,29016
32276,64868,28932
32356,64861,28908
32436,64852,28953
32524,64815,28620
32684,64751,28909
32688,64813,28748
32620,64813,28860
32560,64793,28645
32464,64804,28795
32344,64839,28690
32340,64855,28815
32488,64845,28731
32572,64839,28501
32652,64828,28740
32835,64799,28690
32858,64775,28646
32790,64775,28693
32708,64800,28582
32644,64817,28708
32509,64853,28583
32560,64856,28726
32709,64758,28589
32814,64836,28660
32933,64784,28367
33074,64756,28664
33098,64766,28359
32976,64775,28704
32909,64775,28695
32846,64775,28487
32720,64812,28736
32744,64837,28638
32872,64824,28797
32924,64817,28742
33020,64792,28716
33176,64765,28820
33153,64756,28597
33060,64775,28855
32973,64774,28831
32904,64794,28807
32772,64829,28905
32756,64813,28896
32864,64797,28888
32928,64775,28980
33016,64760,28984
33164,64743,28844
33148,64748,29052
33028,64764,29088
32925,64756,29071
32897,64796,29129
32748,64798,29180
32764,64813,28918
32857,64700,29294
32921,64751,29081
32972,64761,29351
33120,64740,29269
33112,64701,29425
33020,64748,29477
32948,64735,29558
32888,64775,29487
32720,64775,29681
32708,64775,29684
32825,64761,29512
32897,64757,29791
32932,64735,29823
33072,64708,29841
33060,64727,29992
32960,64725,29813
32871,64724,30121
32788,64740,30126
32676,64774,30013
32676,64736,30202
32756,64701,30345
32808,64692,30393
32888,64749,30396
33028,64644,30522
33044,64633,30392
32920,64664,30663
32830,64716,30646
32748,64751,30693
32602,64768,30869
32612,64767,30578
32708,64775,30917
32784,64756,30889
32832,64727,30957
32984,64701,31095
32988,64703,31005
32892,64685,31164
32768,64719,31160
32680,64732,31196
32544,64772,31303
32549,64709,31251
32668,64676,31348
32692,64677,31388
32748,64703,31383
32904,64703,31473
32904,64700,31321
32820,64726,31598
32768,64711,31565
32732,64748,31541
32580,64735,31673
32604,64740,31473
32684,64740,31663
32724,64745,31765
32772,64709,31503
32960,64684,31837
32992,64695,31491
32864,64631,31844
32776,64671,31868
32712,64700,31897
32580,64733,31614
32564,64668,31959
32656,64684,31902
32737,64661,32044
32824,64668,32028
32952,64607,31829
32944,64610,32105
32848,64703,32109
32792,64628,32070
32712,64628,32168
32544,64644,32187
32540,64748,32018
32645,64647,32310
32680,64727,32263
32748,64709,32101
32928,64668,32372
32960,64663,32340
32864,64679,32287
32760,64679,32445
32672,64700,32229
32548,64739,32436
32536,64647,32109
32620,64644,32500
32676,64620,32354
32768,64701,32486
32932,64671,32573
32940,64663,32276
32816,64676,32572
32736,64607,32361
32680,64613,32593
32548,64716,32359
32516,64716,32642
32613,64709,32445
32668,64647,32631
32724,64647,32374
32868,64578,32665
32888,64660,32607
32796,64668,32740
32700,64677,32631
32636,64671,32620
32476,64701,32709
32512,64703,32628
32610,64616,32802
32680,64700,32729
32782,64676,32404
32929,64647,32758
32948,64647,32698
32824,64665,32744
32752,64647,32452
32629,64669,32788
32448,64687,32695
32476,64695,32764
32570,64660,32796
32644,64671,32857
32689,64647,32789
32896,64634,32819
32896,64629,32837
32768,64646,32700
32648,64646,32869
32592,64584,32652
32397,64711,32841
32405,64695,32839
32548,64647,32516
32656,64679,32885
32748,64647,32785
32850,64632,32895
32856,64629,32763
32754,64643,32860
32700,64628,32924
32660,64661,32832
32528,64700,32857
32596,64647,32913
32672,64622,32669
32751,64672,32903
32848,64647,32829
33024,64620,32585
33004,64629,32845
32928,64604,32824
32877,64556,32504
32824,64660,32818
32696,64676,32735
32704,64669,32836
32752,64647,32770
32812,64647,32824
32885,64636,32775
33060,64584,32541
33084,64519,32785
32980,64635,32753
32940,64632,32669
32892,64632,32751
32772,64647,32441
32752,64640,32752
32868,64647,32538
33000,64628,32735
33077,64552,32664
33236,64519,32716
33197,64517,32584
33120,64640,32676
33056,64620,32604
33000,64631,32545
32868,64644,32640
32892,64643,32387
32992,64645,32528
33064,64607,32542
33128,64628,32493
33272,64601,32321
33220,64578,32518
33128,64599,32457
33052,64596,32181
32982,64607,32443
32824,64629,32169
32832,64637,32437
32944,64637,32364
32974,64535,32157
32965,64613,32372
32992,64581,32279
32828,64569,31970
32465,64584,32304
32136,64600,32228
31852,64596,32068
31556,64639,32140
31440,64620,32165
31436,64605,32241
31380,64615,32148
31508,64623,31877
31920,64552,32198
32632,64568,32102
33736,64519,32017
35086,64630,32134
36577,64647,31879
37929,64677,32120
39152,64684,32038
40018,64684,31965
40237,64679,32074
39912,64669,31949
39688,64620,32032
39584,64623,31990
39240,64631,31910
38684,64631,31972
38016,64644,31915
37224,64656,32004
36460,64679,31905
35736,64671,31916
35004,64642,32021
34440,64565,31800
34148,64604,32020
33800,64598,31975
33364,64590,31700
32984,64595,31953
32656,64621,31948
32344,64647,31708
32200,64594,32014
32200,64556,31968
32188,64641,31845
32237,64608,31849
32373,64581,31991
32392,64581,31724
32288,64583,31971
32228,64572,31923
32134,64584,31795
31952,64604,31748
31916,64605,31817
32004,64564,31773
32087,64509,31516
32142,64588,31784
32312,64571,31682
32340,64508,31589
32240,64560,31679
32172,64551,31563
32100,64583,31531
31960,64560,31575
32024,64599,31349
32144,64599,31608
32240,64568,31572
32328,64560,31342
32516,64519,31532
32516,64519,31505
32429,64519,31398
32340,64545,31125
32272,64477,31481
32104,64599,31489
32148,64581,31404
32256,64557,31207
32296,64567,31337
32352,64511,31442
32481,64471,31344
32516,64473,31109
32420,64519,31313
32332,64484,31239
32236,64454,31208
32116,64495,31266
32128,64484,31061
32216,64562,31100
32296,64519,31168
32357,64519,31085
32524,64489,30983
32548,64500,31047
32485,64509,30903
32416,64519,30969
32381,64447,30932
32212,64560,30877
32228,64573,30661
32356,64548,30836
32444,64519,30761
32488,64502,30541
32668,64461,30672
32652,64501,30616
32542,64509,30373
32464,64495,30542
32448,64438,30458
32289,64551,30115
32285,64519,30413
32388,64519,30324
32469,64460,30053
32544,64519,30249
32708,64476,30196
32764,64476,29857
32684,64476,30137
32580,64391,30079
32484,64519,29917
32352,64551,29959
32377,64519,29902
32513,64511,29793
32592,64509,29876
32704,64477,29636
32876,64431,29412
32884,64391,29735
32806,64467,29660
32748,64503,29581
32704,64500,29612
32568,64493,29556
32584,64495,29233
32704,64488,29505
32768,64511,29153
32832,64484,29468
33020,64471,29344
33004,64463,29351
32904,64460,29433
32856,64489,29351
32808,64487,29033
32680,64516,29329
32692,64519,29297
32793,64519,29232
32864,64463,29264
32948,64447,29191
33089,64388,29308
33092,64477,29012
32964,64479,29282
32901,64476,29143
32812,64485,29140
32656,64493,29247
32676,64508,28991
32788,64503,29157
32868,64463,29201
32944,64495,29140
33112,64388,29180
33112,64383,29140
33048,64477,28876
33024,64463,29208
32968,64503,29186
32828,64511,29009
32800,64519,29220
32888,64519,29143
32976,64495,28838
33056,64423,29215
33209,64468,29156
33236,64445,28962
33144,64460,29239
33086,64460,28985
33000,64485,29256
32876,64484,29036
32876,64469,29253
32981,64476,29255
33046,64487,28960
33132,64389,29321
33297,64439,29132
33277,64431,29364
33164,64445,29244
33116,64436,29338
33030,64447,29412
32888,64465,29103
32900,64452,29481
33008,64455,29165
33060,64423,29500
33192,64431,29308
33388,64391,29564
33404,64389,29541
33328,64327,29244
33276,64414,29604
33228,64429,29513
33072,64431,29668
33076,64431,29605
33132,64447,29669
33180,64436,29737
33220,64391,29478
33366,64381,29788
33357,64353,29713
33248,64344,29892
33160,64303,29865
33100,64423,29832
32916,64447,29934
32892,64444,29897
32948,64436,30057
32985,64408,30045
33048,64391,29756
33180,64347,30137
33230,64357,30149
33156,64389,30200
33089,64372,30297
32982,64303,30292
32817,64431,30064
32800,64429,30441
32892,64421,30423
32928,64327,30553
32986,64308,30516
33149,64353,30463
33124,64356,30542
33044,64361,30658
32960,64357,30678
32864,64360,30438
32708,64391,30801
32676,64405,30815
32788,64391,30709
32855,64335,30575
32924,64380,30917
33080,64327,31015
33076,64295,31014
32972,64343,30864
32880,64284,31035
32793,64367,31204
32656,64391,31156
32620,64391,31037
32712,64383,31195
32749,64351,31337
32777,64359,31376
32912,64323,31305
32904,64307,31061
32812,64263,31426
32716,64245,31455
32640,64263,31172
32472,64327,31540
32440,64375,31564
32520,64365,31500
32564,64349,31607
32624,64302,31676
32769,64319,31717
32768,64311,31595
32664,64259,31719
32600,64229,31892
32514,64343,31943
32364,64344,31879
32340,64348,31721
32412,64343,32068
32460,64348,32047
32486,64317,31954
32668,64290,32102
32716,64221,32197
32628,64310,32300
32544,64263,32343
32480,64320,32351
32308,64348,32404
32300,64337,32324
32364,64343,32176
32428,64341,32492
32472,64258,32668
32628,64207,32714
32648,64279,32712
32512,64263,32629
32436,64280,32903
32352,64295,32924
32196,64333,32965
32200,64260,32921
32253,64326,32976
32328,64319,33124
32361,64285,33041
32470,64263,33254
32508,64263,33209
32416,64258,33199
32340,64260,33401
32236,64263,33415
32096,64247,33399
32072,64308,33156
32157,64287,33510
32220,64284,33513
32268,64263,33504
32414,64237,33601
32412,64228,33540
32300,64247,33693
32212,64237,33521
32117,64263,33752
31992,64287,33701
31994,64285,33373
32117,64291,33735
32144,64263,33738
32205,64261,33556
32332,64231,33741
32374,64223,33761
32224,64167,33660
32157,64247,33391
32100,64244,33724
31960,64285,33725
31972,64263,33639
32080,64262,33671
32184,64213,33716
32268,64159,33606
32421,64121,33646
32404,64116,33697
32308,64180,33531
32252,64125,33685
32146,64167,33615
31992,64263,33409
31957,64255,33631
32040,64239,33616
32149,64228,33584
32224,64191,33431
32336,64188,33232
32341,64188,33584
32232,64189,33543
32116,64197,33306
32020,64208,33587
31924,64236,33476
31908,64196,33436
31988,64231,33532
32044,64220,33334
32125,64196,33492
32312,64172,33404
32324,64173,33460
32210,64165,33429
32096,64175,33092
32065,64204,33436
31936,64220,33300
31984,64215,33397
32108,64204,33348
32160,64200,33241
32284,64199,33325
32396,64099,33260
32406,64111,33286
32348,64166,33170
32273,64167,33278
32216,64096,33129
32090,64173,33217
32109,64196,33063
32244,64172,33188
32316,64173,33028
32388,64151,33215
32516,64135,33159
32548,64135,33003
32464,64151,33209
32412,64087,33135
32352,64135,33159
32216,64172,33116
32229,64135,32852
32336,64071,33152
32394,64135,33055
32456,64167,33030
32624,64135,33137
32628,64127,32900
32529,64029,33135
32444,64044,32902
32364,64135,33147
32213,64167,33097
32212,64164,32911
32335,64148,33161
32408,64135,33108
32484,64113,32983
32620,64059,33076
32646,64101,33124
32528,64103,33137
32448,64101,32932
32377,64127,33188
32228,64154,33140
32268,64135,32932
32356,64135,33175
32393,64132,33108
32436,64100,33263
32524,64079,33248
32486,64007,33159
32268,63991,33162
32052,64091,33245
31760,64108,33196
31366,64124,33262
31092,64118,33255
31008,64045,33333
30976,64007,33260
30949,64100,32933
30924,64060,33301
30852,64055,33273
30920,64062,33039
31276,64087,33270
32184,64076,33189
33412,64135,32932
34896,64164,33248
36524,64164,33135
37932,64173,33232
38942,64135,33025
39484,64127,33238
39244,64124,33095
38760,64135,33216
38492,64116,33177
38285,64084,33044
37788,64118,33188
37232,64109,32972
36684,64064,33236
36032,64144,33214
35304,64129,32980
34660,64095,33233
33952,64086,33166
33320,64094,33164
32796,64092,33189
32372,64110,33117
31944,64120,33220
31736,64125,32999
31632,64101,33264
31560,64096,33247
31573,64029,33104
31660,64046,33266
31628,64055,33061
31492,64040,33229
31401,64053,33026
31269,64056,33273
31132,64093,33200
31124,64080,33205
31260,64076,33164
31313,64068,33159
31365,64053,33177
31502,64007,33067
31532,64007,33132
31464,64038,32796
31408,64031,33103
31372,64040,33022
31236,64071,32994
31244,64055,33077
31328,64060,33003
31404,64052,33085
31517,64039,33056
31696,63917,32813
31728,63932,33073
31649,64007,33054
31600,63991,32963
31532,64007,33077
31389,63980,33010
31380,64045,33104
31461,64037,33132
31531,64031,32863
31580,64004,33156
31768,63900,33092
31756,63879,33013
31700,63980,33097
31664,63981,32756
31568,64007,33084
31404,64024,32995
31408,64007,33076
31524,63997,32991
31592,63999,32952
31680,63948,33018
31824,63951,32988
31848,63943,32687
31756,63964,32983
31706,63973,32896
31620,63983,32786
31512,64007,32856
31517,64005,32646
31628,63951,32764
31717,63996,32793
31776,63983,32519
31968,63919,32725
32000,63918,32591
31944,63956,32639
31853,63879,32548
31758,63879,32260
31604,63932,32495
31612,63980,32314
31720,63980,32431
31824,63964,32330
31900,63863,32172
32040,63846,32289
32058,63847,32185
31972,63877,31824
31928,63943,32156
31884,63951,32063
31768,63968,31860
31788,63974,31947
31904,63903,31777
31998,63901,31918
32074,63932,31821
32256,63871,31444
32284,63835,31737
32220,63847,31702
32184,63879,31603
32100,63935,31632
31948,63959,31260
31972,63860,31618
32100,63965,31576
32160,63943,31291
32228,63943,31468
32421,63901,31344
32448,63879,31348
32380,63879,31423
32310,63829,31215
32220,63935,31362
32080,63956,31257
32116,63954,31169
32236,63956,31268
32332,63935,31118
32421,63925,31158
32586,63879,31055
32584,63879,31108
32492,63903,31077
32408,63900,31015
32340,63925,31001
32160,63948,31060
32164,63944,30673
32264,63942,30996
32372,63920,30813
32448,63879,30924
32596,63828,30892
32625,63879,30864
32504,63900,30820
32416,63879,30839
32360,63879,30732
32232,63877,30832
32252,63847,30761
32368,63863,30833
32468,63919,30756
32521,63901,30425
32692,63871,30732
32737,63845,30519
32656,63864,30727
32584,63751,30620
32540,63895,30733
32421,63909,30618
32444,63912,30687
32577,63869,30680
32628,63803,30614
32732,63879,30677
32880,63860,30397
32932,63855,30680
32828,63860,30633
32758,63863,30680
32669,63879,30631
32512,63901,30740
32532,63879,30657
32664,63876,30697
32720,63879,30660
32793,63832,30791
32976,63815,30637
32976,63797,30812
32892,63830,30764
32820,63829,30498
32724,63861,30845
32548,63877,30754
32524,63877,30806
32648,63871,30496
32752,63847,30901
32800,63836,30565
32960,63715,30900
32988,63807,30879
32895,63808,30893
32801,63814,30927
32698,63839,30636
32552,63869,30957
32556,63855,30735
32672,63852,31025
32726,63836,30691
32780,63813,31025
32904,63791,30727
32932,63780,31101
32848,63792,30895
32744,63796,31137
32648,63801,31076
32520,63823,31268
32533,63815,31190
32604,63803,31277
32668,63815,31165
32724,63780,31404
32876,63772,31389
32876,63780,31151
32764,63693,31471
32688,63788,31463
32604,63788,31476
32444,63800,31659
32436,63808,31318
32544,63814,31684
32626,63812,31711
32668,63798,31681
32852,63726,31804
32850,63664,31839
32716,63751,31807
32636,63767,31943
32566,63769,31949
32400,63815,31761
32390,63808,32077
32500,63775,32055
32581,63792,31919
32640,63781,32125
32804,63743,32185
32824,63743,31871
32720,63717,32223
32624,63764,32064
32560,63772,32277
32444,63796,32297
32425,63788,32305
32528,63799,32231
32580,63782,32377
32676,63680,32289
32844,63735,32140
32876,63724,32420
32742,63741,32433
32628,63661,32196
32524,63679,32485
32409,63687,32365
32458,63693,32500
32556,63679,32396
32608,63768,32623
32672,63743,32580
32862,63727,32544
32864,63733,32616
32780,63732,32552
32700,63727,32717
32636,63751,32460
32484,63764,32697
32488,63765,32668
32568,63743,32751
32656,63740,32745
32748,63727,32689
32928,63708,32804
32950,63692,32751
32844,63617,32500
32760,63711,32850
32688,63727,32853
32556,63751,32657
32572,63673,32564
32664,63644,32903
32701,63652,32855
32733,63637,32947
32872,63652,32877
32897,63693,32980
32820,63707,32980
32749,63669,32936
32652,63649,32716
32512,63645,32972
32516,63671,32949
32624,63623,32887
32700,63725,32998
32762,63623,32762
32916,63583,32976
32936,63589,32908
32832,63661,32958
32744,63622,32869
32628,63612,32984
32500,63638,32881
32512,63693,32964
32616,63719,32823
32680,63724,33013
32768,63703,32692
32932,63673,32986
32916,63655,32763
32832,63645,32968
32760,63613,32880
32696,63687,32941
32544,63724,32839
32516,63735,32980
32616,63708,32951
32680,63678,32908
32760,63589,32951
32928,63615,32717
32926,63559,32925
32806,63591,32829
32685,63669,32925
32612,63681,32746
32464,63708,32921
32470,63665,32758
32576,63695,32895
32648,63703,32812
32740,63572,32871
32924,63648,32924
32928,63654,32813
32817,63656,32859
32733,63660,32615
32660,63680,32848
32492,63700,32503
32476,63717,32827
32552,63703,32885
32612,63580,32644
32720,63623,32799
32862,63653,32663
32868,63652,32769
32780,63653,32593
32672,63654,32825
32592,63671,32657
32512,63696,32670
32540,63683,32791
32668,63670,32735
32776,63668,32647
32840,63588,32727
32996,63639,32653
33042,63636,32391
32972,63559,32690
32900,63645,32655
32820,63671,32316
32660,63684,32642
32652,63613,32613
32748,63687,32373
32816,63676,32526
32873,63566,32581
33068,63549,32428
33061,63534,32568
32976,63567,32527
32925,63572,32544
32848,63663,32542
32693,63693,32365
32672,63687,32546
32772,63669,32472
32832,63668,32381
32906,63645,32444
33052,63623,32442
33048,63623,32186
32948,63597,32456
32870,63551,32405
32810,63623,32208
32680,63676,32420
32668,63668,32385
32748,63663,32057
32812,63655,32410
32900,63623,32157
33052,63610,32348
33092,63560,32352
32990,63622,32341
32896,63623,32012
32832,63645,32335
32656,63679,32068
32672,63556,32356
32768,63574,31975
32800,63583,32358
32836,63557,32089
32916,63606,32261
32836,63605,32220
32544,63615,32313
32240,63623,32255
31908,63640,31916
31548,63649,32250
31397,63660,32227
31383,63650,31889
31337,63549,32284
31284,63641,32233
31409,63615,32127
31589,63615,32149
32018,63636,32193
32972,63653,32190
34200,63663,32159
35512,63709,32061
36916,63717,32036
38180,63684,31798
39020,63668,32164
39232,63700,32127
39072,63653,31964
38756,63604,32047
38628,63703,32161
38408,63700,32134
38032,63703,31898
37356,63735,32176
36784,63725,32142
36184,63719,31985
35524,63717,32057
34840,63684,32109
34344,63661,32045
33884,63653,32049
33392,63668,32123
32948,63661,32151
32592,63686,31927
32228,63684,32080
32057,63715,32172
32056,63692,32148
32056,63678,32006
32144,63663,32064
32268,63598,32157
32264,63637,32151
32160,63644,32135
32064,63644,31820
31968,63655,32201
31800,63686,32134
31796,63673,32111
31888,63685,31967
31964,63671,32007
32032,63649,32132
32192,63623,32072
32156,63560,31978
32060,63636,31909
32001,63623,31920
31920,63652,32001
31796,63680,31968
31802,63673,31980
31916,63671,31941
31996,63655,31652
32088,63623,31944
32240,63620,31790
32304,63594,31974
32212,63616,31974
32153,63623,31728
32068,63644,31973
31933,63668,31909
31966,63670,31703
32056,63597,31948
32128,63616,31983
32208,63528,31852
32332,63623,31808
32324,63622,31913
32288,63623,31841
32208,63540,31917
32152,63588,31801
31988,63599,31930
31977,63576,31870
32080,63663,31768
32124,63658,31851
32240,63607,31653
32388,63567,31871
32440,63495,31780
32416,63623,31440
32304,63614,31745
32213,63637,31690
32084,63672,31437
32088,63679,31639
32192,63604,31581
32264,63567,31497
32320,63543,31558
32472,63517,31396
32480,63605,31520
32390,63623,31428
32312,63623,31137
32260,63652,31403
32156,63680,31189
32176,63685,31327
32308,63652,31239
32388,63671,31158
32484,63641,31172
32660,63622,31078
32692,63549,31077
32576,63632,30895
32510,63623,31035
32476,63648,30927
32348,63687,30997
32389,63686,30892
32529,63679,30808
32613,63686,30833
32716,63670,30581
32880,63644,30820
32916,63636,30727
32848,63640,30480
32789,63660,30759
32724,63672,30655
32580,63700,30413
32604,63701,30612
32696,63695,30569
32792,63677,30242
32856,63655,30572
33012,63643,30449
33032,63655,30537
32956,63565,30337
32896,63605,30519
32856,63687,30428
32738,63708,30438
32755,63703,30335
32864,63701,30349
32924,63692,30407
33020,63680,30103
33196,63655,30352
33212,63663,30306
33096,63681,30215
33029,63677,30324
32960,63648,30068
32814,63741,30292
32796,63741,30191
32908,63655,30141
32940,63623,30185
33004,63641,29880
33184,63620,30140
33248,63677,29947
33164,63685,30178
33048,63645,30151
32944,63623,30079
32820,63640,30004
32829,63669,30068
32944,63709,29979
33012,63733,30004
33060,63713,30029
33224,63620,29993
33280,63687,29761
33180,63693,30004
33109,63689,29831
33024,63708,30014
32900,63716,29940
32892,63741,29725
33028,63726,29943
33092,63735,29822
33176,63725,29876
33368,63695,29913
33381,63599,29853
33271,63708,29925
33200,63712,29837
33149,63717,29824
33032,63743,29917
33036,63751,29876
33120,63726,29844
33173,63704,29909
33236,63709,29788
33380,63669,29924
33357,63684,29940
33260,63689,29760
33161,63700,29969
33073,63716,29903
32956,63751,29630
32992,63648,29983
33092,63743,29957
33148,63735,29668
33208,63727,29966
33353,63692,29949
33380,63681,29761
33288,63693,30038
33200,63702,30041
33084,63700,30002
32940,63751,29796
32940,63751,30117
33020,63741,30105
33096,63751,30080
33153,63724,29870
33264,63685,30164
33292,63702,30056
33194,63704,30261
33112,63704,30238
33048,63687,29953
32906,63687,30340
32902,63719,30146
32988,63660,30476
33057,63655,30422
33092,63743,30229
33240,63719,30552
33273,63709,30529
33132,63709,30629
33032,63741,30600
32960,63751,30781
32800,63783,30770
32813,63773,30509
32884,63778,30893
32940,63751,30598
33010,63639,30955
33152,63711,30892
33168,63709,31085
33032,63735,31072
32964,63726,30816
32912,63748,31184
32778,63719,31147
32768,63791,31166
32860,63783,31305
32920,63783,31319
32996,63751,31279
33132,63743,31445
33112,63719,31215
33057,63647,31550
32968,63724,31506
32908,63707,31513
32768,63709,31622
32740,63711,31326
32872,63696,31646
32932,63781,31678
33000,63680,31728
33160,63693,31750
33172,63735,31768
33036,63733,31805
32980,63768,31525
32897,63788,31925
32696,63815,31846
32648,63799,32020
32725,63740,31993
32788,63700,31874
32877,63789,32159
33076,63750,32188
33124,63751,32114
33016,63781,31993
32932,63775,32277
32884,63796,32308
32721,63808,32041
32728,63772,32430
32788,63719,32468
32816,63764,32218
32856,63805,32607
33020,63751,32633
33048,63751,32369
32925,63781,32775
32860,63788,32852
32812,63712,32857
32696,63735,32641
32704,63808,33017
32817,63732,33031
32856,63751,32964
32869,63805,33044
32997,63777,33225
33008,63783,33324
32908,63708,33340
32860,63793,33276
32776,63823,33373
32622,63736,33533
32612,63847,33569
32672,63835,33612
32752,63822,33452
32784,63780,33807
32890,63799,33837
32836,63796,33765
32704,63802,33652
32609,63804,34045
32564,63824,34079
32376,63788,33991
32396,63781,34124
32440,63853,34216
32476,63837,34231
32580,63820,34001
32756,63751,34409
32768,63789,34441
32652,63789,34369
32556,63810,34611
32476,63804,34678
32292,63804,34620
32286,63760,34801
32384,63863,34805
32440,63852,34590
32484,63831,34983
32620,63808,35012
32624,63815,34951
32512,63828,35060
32420,63799,35196
32312,63732,35273
32140,63777,35105
32104,63879,35476
32164,63869,35524
32276,63864,35561
32344,63852,35472
32484,63822,35684
32488,63732,35764
32352,63844,35635
32269,63834,35844
32164,63863,36020
31980,63879,36054
31936,63855,36062
32013,63879,36117
32084,63879,35918
32160,63868,36375
32292,63776,36377
32308,63751,36436
32216,63847,36408
32136,63832,36349
32058,63868,36631
31932,63896,36678
31928,63824,36750
32068,63824,36644
32136,63879,36793
32192,63868,36947
32364,63845,36977
32389,63844,36994
32280,63793,36961
32200,63751,37127
32133,63855,37173
32004,63916,37012
31976,63911,37242
32044,63879,37245
32092,63877,37278
32208,63876,37381
32360,63783,37392
32366,63855,37280
32280,63860,37419
32208,63832,37477
32161,63887,37398
32044,63919,37452
32020,63820,37540
32144,63903,37504
32232,63892,37426
32324,63879,37552
32500,63863,37540
32524,63868,37479
32424,63879,37580
32356,63845,37402
32260,63901,37588
32136,63836,37560
32108,63935,37344
32232,63903,37617
32301,63924,37532
32396,63901,37471
32580,63852,37433
32596,63760,37509
32480,63869,37404
32392,63879,37480
32324,63901,37407
32176,63943,37237
32224,63932,37397
32316,63919,37352
32352,63919,37277
32360,63879,37216
32400,63869,37271
32221,63828,37156
31864,63879,37175
31548,63895,37216
31297,63909,36887
31026,63903,37140
30968,63932,36975
30968,63871,37148
30924,63934,37093
31024,63924,36855
31356,63909,37076
32012,63901,36994
33048,63863,36702
34308,63934,36951
35672,63980,36927
36800,64007,36649
37812,64031,36898
38424,63991,36829
38425,64007,36830
38148,64004,36756
38141,63909,36472
38188,63980,36756
37966,63916,36750
37580,63989,36719
36956,63940,36679
36220,63940,36543
35544,63973,36629
34900,64007,36629
34248,63999,36440
33774,63975,36602
33532,63948,36599
33216,63940,36500
32816,63941,36476
32476,63931,36508
32176,63983,36468
31856,64007,36389
31789,64006,36478
31860,63999,36336
31893,63989,36413
31976,63975,36435
32120,63940,36149
32133,63942,36428
32040,63948,36385
31924,63943,36221
31812,63975,36270
31653,63903,36260
31648,64001,36223
31740,63983,36063
31821,63975,36132
31920,63975,36112
32104,63934,35966
32148,63943,35965
32045,63937,35966
31948,63909,35933
31856,63975,35670
31736,63988,35924
31765,63893,35820
31901,63982,35778
31996,63972,35508
32092,63951,35779
32248,63938,35685
32301,63943,35545
32244,63948,35631
32176,63938,35512
32124,63903,35553
31988,63997,35565
31977,63908,35415
32068,63973,35493
32144,63975,35488
32224,63967,35432
32368,63935,35098
32388,63900,35357
32272,63853,35325
32192,63879,35220
32136,63877,35300
32014,63919,35079
32016,63991,35254
32112,63991,35117
32184,63981,35169
32268,63973,35111
32434,63927,35014
32461,63932,35005
32380,63928,34951
32316,63919,34808
32228,63977,34894
32088,63996,34613
32110,63908,34772
32225,63877,34712
32288,63976,34598
32396,63975,34619
32572,63925,34461
32592,63940,34583
32512,63943,34480
32456,63956,34279
32373,63924,34396
32253,63961,34328
32260,63999,34317
32404,63989,34205
32448,63983,34212
32556,63951,34109
32698,63932,34038
32740,63938,34025
32668,63943,33748
32636,63965,33935
32568,63972,33820
32436,63993,33791
32468,64007,33733
32592,64004,33742
32664,63999,33695
32764,63983,33653
32940,63869,33553
32988,63948,33609
32913,63961,33201
32824,63967,33518
32796,63988,33273
32672,64007,33422
32732,64006,33252
32832,64005,33366
32940,64004,33309
33008,63991,32974
33188,63964,33256
33185,63956,33165
33148,63967,33186
33088,63956,33141
33004,63988,33062
32892,63951,33105
32888,64007,33069
32980,64007,32952
33060,63964,33020
33172,63896,32951
33345,63916,32892
33338,63975,32937
33206,63973,32923
33125,63981,32886
33048,63996,32879
32878,64025,32592
32892,64007,32828
33016,64007,32733
33088,64007,32844
33152,63924,32751
33308,63975,32401
33312,63975,32769
33184,63980,32435
33088,63988,32676
33021,63999,32460
32832,64044,32687
32844,64036,32351
32952,64031,32661
33016,64007,32337
33088,63900,32620
33240,63871,32233
33236,63871,32572
33181,63901,32207
33079,63960,32543
33008,64006,32453
32880,64007,32500
32852,64028,32239
32932,64007,32481
33008,63999,32373
33080,63983,32564
33232,63969,32468
33288,63959,32514
33241,63973,32482
33140,63981,32428
33060,63972,32452
32888,64004,32452
32900,64007,32486
33000,64007,32228
33056,63997,32477
33120,63941,32357
33264,63924,32519
33268,63957,32365
33172,63959,32539
33068,63969,32493
32980,63975,32356
32820,64007,32526
32808,64007,32450
32909,64004,32565
32945,63992,32526
33004,63972,32276
33156,63956,32549
33181,63837,32529
33092,63869,32564
33006,63863,32534
32936,63980,32552
32760,63996,32619
32756,63996,32574
32836,63976,32549
32884,63984,32682
32914,63964,32591
33092,63943,32580
33108,63927,32671
33012,63943,32409
32952,63933,32693
32884,63877,32604
32716,63940,32751
32673,64007,32720
32736,63972,32676
32780,63982,32753
32848,63964,32708
32977,63937,32799
33014,63927,32543
32904,63954,32775
32844,63951,32684
32776,63969,32866
32663,63949,32838
32664,64004,32684
32736,63989,32909
32744,63975,32877
32841,63877,32646
32968,63879,32927
32948,63847,32821
32872,63853,32943
32824,63847,32994
32732,63911,32786
32588,63903,32948
32601,63981,33018
32714,63980,32908
32776,63973,32971
32817,63967,33083
32968,63932,32959
32969,63934,33084
32868,63941,32980
32788,63940,33196
32660,63972,33156
32512,63989,33056
32512,63991,33214
32600,63973,33237
32676,63975,33166
32732,63951,33300
32836,63933,33234
32824,63940,33349
32732,63943,33371
32656,63943,33412
32556,63852,33474
32412,63951,33205
32436,63969,33585
32544,63975,33612
32612,63975,33592
32688,63879,33711
32808,63924,33692
32828,63925,33860
32740,63927,33701
32636,63927,33986
32532,63936,33975
32364,63948,34038
32341,63983,34084
32456,63975,33892
32520,63963,34191
32544,63901,34172
32684,63844,34248
32672,63919,34366
32549,63932,34213
32416,63934,34452
32327,63840,34463
32140,63879,34237
32161,63911,34620
32272,63879,34567
32324,63860,34768
32396,63861,34750
32549,63896,34501
32548,63903,34839
32420,63909,34652
32340,63909,34903
32288,63930,34943
32136,63951,34676
32140,63967,35013
32213,63969,34886
32253,63879,35020
32325,63924,34924
32472,63845,35096
32512,63879,35012
32436,63903,35171
32344,63925,35124
32241,63835,35073
32116,63879,35156
32120,63959,34854
32208,63951,35172
32320,63911,35097
32388,63919,35173
32576,63903,35103
32568,63888,35236
32476,63831,34936
32416,63909,35255
32341,63925,34993
32204,63949,35220
32200,63965,35092
32284,63853,35260
32348,63943,35220
32444,63879,35333
32640,63879,35295
32662,63879,35165
32556,63893,35367
32452,63801,35244
32352,63841,35382
32196,63930,35167
32172,63945,35413
32236,63919,35124
32288,63879,35420
32376,63924,35487
32552,63877,35373
32608,63879,35505
32488,63879,35482
32368,63901,35497
32280,63842,35326
32208,63943,35504
32256,63957,35260
32372,63879,35578
32428,63935,35429
32476,63903,35541
32624,63791,35410
32689,63808,35589
32640,63885,35535
32628,63877,35607
32548,63917,35605
32400,63935,35537
32412,63855,35612
32532,63917,35664
32574,63916,35559
32604,63911,35647
32800,63871,35605
32828,63863,35593
32716,63877,35568
32668,63871,35299
32608,63879,35538
32480,63871,35532
32468,63935,35241
32596,63925,35479
32672,63911,35257
32774,63896,35401
32924,63879,35441
32946,63871,35205
32796,63871,35330
32740,63871,35252
32677,63893,35280
32529,63924,35166
32528,63919,35077
32645,63908,35097
32724,63800,34908
32808,63805,35045
32996,63800,34657
33032,63853,34927
32952,63860,34621
32856,63863,34773
32758,63879,34648
32600,63836,34651
32641,63879,34524
32732,63879,34572
32772,63879,34468
32796,63860,34392
32908,63840,34340
32816,63847,33968
32580,63751,34228
32280,63751,34000
31952,63852,34094
31648,63893,33996
31496,63893,33647
31540,63879,33874
31512,63879,33697
31484,63773,33749
31622,63832,33664
31791,63837,33493
32228,63868,33577
33175,63864,33164
34324,63901,33415
35588,63911,33021
36908,63917,33273
38020,63879,33199
38762,63933,33044
38868,63836,33107
38688,63823,32892
38448,63823,32861
38432,63879,32866
38296,63911,32800
37936,63916,32546
37312,63943,32707
36732,63932,32637
36168,63916,32452
35552,63924,32554
34956,63892,32386
34581,63863,32341
34165,63844,32317
33676,63855,32245
33286,63868,32103
32940,63879,32128
32576,63815,32100
32440,63806,31993
32408,63845,31729
32404,63871,31864
32420,63861,31666
32600,63841,31716
32630,63820,31527
32524,63838,31525
32502,63845,31418
32424,63871,31084
32253,63869,31223
32202,63877,31087
32304,63863,30668
32412,63855,30865
32484,63847,30709
32616,63825,30396
32652,63816,30441
32600,63800,30258
32568,63727,30035
32484,63775,29986
32284,63760,29815
32242,63780,29500
32328,63751,29496
32356,63855,29316
32408,63841,29143
32616,63807,28770
32660,63797,28856
32648,63804,28625
32600,63811,28278
32512,63812,28356
32416,63847,28092
32384,63853,27856
32504,63828,27764
32584,63841,27553
32644,63823,27116
32756,63789,27286
32741,63775,27010
32602,63788,26791
32544,63796,26726
32414,63831,26378
32248,63768,26014
32221,63836,25821
32392,63839,25895
32520,63813,25648
32606,63802,25554
32824,63783,25332
32877,63772,24918
32785,63791,24930
32740,63789,24711
32644,63796,24388
32460,63828,24360
32388,63829,24233
32472,63807,23925
32516,63801,23925
32604,63700,23714
32828,63772,23506
32880,63765,23336
32812,63781,23249
32720,63748,22929
32652,63732,22926
32528,63796,22796
32520,63815,22393
32592,63814,22599
32557,63740,22257
32588,63687,22372
32793,63692,21972
32864,63751,22172
32780,63749,21940
32740,63751,22063
32732,63740,21906
32620,63751,21653
32672,63799,21807
32768,63804,21648
32860,63796,21762
33012,63780,21619
33184,63751,21404
33224,63741,21615
33068,63751,21532
32973,63751,21284
32868,63780,21568
32660,63798,21477
32632,63804,21255
32756,63798,21535
32784,63751,21452
32848,63704,21239
32926,63643,21476
32852,63655,21287
32784,63743,21510
32776,63725,21396
32736,63693,21458
32620,63772,21548
32596,63800,21269
32660,63783,21517
32688,63783,21470
32708,63766,21249
32848,63733,21314
32820,63735,21525
32640,63680,21474
32522,63661,21509
32324,63660,21559
32176,63781,21476
32200,63799,21497
32308,63782,21516
32365,63768,21229
32456,63748,21595
32640,63740,21580
32628,63735,21517
32464,63732,21255
32292,63743,21604
32224,63751,21556
32097,63751,21543
32048,63776,21528
32084,63751,21564
32080,63751,21322
32072,63751,21665
32278,63725,21380
32336,63613,21736
32196,63623,21413
32202,63735,21764
32152,63748,21562
32004,63751,21840
31992,63660,21806
32040,63663,21890
32044,63678,21917
32145,63733,21714
32311,63612,22027
32280,63713,22055
32120,63717,21826
31992,63716,22217
31848,63709,22020
31694,63733,22307
31656,63749,22258
31816,63751,22473
31936,63713,22452
32012,63709,22486
32160,63686,22569
32152,63679,22645
32092,63693,22756
32064,63695,22757
31992,63704,22845
31720,63725,22983
31728,63735,22767
31808,63725,23128
31876,63727,23104
31944,63717,23250
32137,63586,23264
32084,63581,23372
31873,63680,23420
31824,63680,23498
31704,63700,23629
31685,63718,23447
31796,63716,23815
31956,63700,23812
32078,63705,24052
32076,63649,24013
32144,63647,24215
32044,63636,24287
31856,63623,24374
31692,63536,24601
31704,63559,24441
31652,63686,24759
31664,63668,24852
31700,63681,25028
31696,63687,25017
31728,63654,25284
31829,63644,25319
31712,63641,25509
31428,63648,25545
31246,63580,25749
31152,63578,25806
30924,63697,25770
30868,63597,26135
30837,63687,26260
30788,63676,26260
30816,63655,26446
30976,63623,26568
30916,63623,26548
30762,63623,26860
30724,63636,27001
30616,63579,27079
30413,63661,27196
30400,63686,27412
30544,63671,27432
30640,63683,27304
30727,63664,27794
30844,63623,27870
30853,63604,27786
30778,63557,28192
30732,63645,28276
30693,63645,28369
30621,63668,28485
30618,63623,28343
30681,63655,28800
30708,63552,28945
30788,63655,28984
30969,63616,28813
30964,63623,29270
30840,63623,29371
30864,63647,29300
30948,63623,29706
30872,63679,29782
30869,63575,29828
31044,63559,29969
31252,63572,30165
31340,63623,30284
31316,63614,30191
31328,63495,30556
31250,63567,30598
31032,63623,30884
30849,63644,30949
30708,63669,31028
30789,63623,31228
30960,63589,31066
31104,63644,31527
31136,63623,31623
31356,63615,31728
31360,63592,31924
31209,63604,31980
31181,63607,32085
31144,63623,32317
31042,63576,32325
31092,63671,32545
31248,63490,32538
31396,63584,32772
31508,63616,32914
31664,63584,32775
31580,63597,33209
31413,63599,33294
31348,63495,33350
31288,63580,33573
31192,63600,33357
31172,63599,33832
31304,63645,33773
31417,63623,34015
31516,63623,34052
31696,63569,34306
31776,63578,34421
31761,63583,34389
31668,63592,34680
31592,63620,34724
31408,63645,34854
31356,63645,34992
31422,63591,35010
31504,63548,35253
31581,63615,35044
31748,63590,35489
31787,63533,35605
31720,63550,35519
31718,63572,35883
31676,63580,35957
31500,63622,35965
31605,63623,36024
31768,63599,36260
31855,63632,36229
31948,63609,36500
32152,63596,36599
32124,63605,36656
31960,63611,36727
31880,63605,36932
31825,63623,37021
31726,63655,37049
31772,63648,37231
31905,63620,37091
31956,63623,37424
32060,63607,37525
32308,63572,37471
32404,63568,37711
32272,63591,37776
32060,63596,37875
31937,63613,37996
31808,63639,38045
31812,63634,38229
31940,63623,38266
32060,63557,38349
32148,63517,38459
32368,63492,38337
32408,63495,38631
32316,63559,38669
32216,63597,38836
32132,63584,38839
32068,63623,38958
32120,63608,39013
32264,63591,38894
32373,63620,39161
32448,63609,39134
32616,63495,39377
32628,63495,39381
32464,63556,39324
32356,63593,39538
32288,63596,39392
32140,63623,39662
32148,63650,39708
32280,63558,39887
32344,63623,39848
32378,63597,40028
32484,63583,39996
32388,63556,40071
32072,63591,40101
31736,63570,40039
31488,63623,40202
31208,63540,40124
31148,63639,40313
31228,63622,40295
31176,63623,40401
31200,63623,40335
31328,63495,40527
31597,63599,40502
32200,63621,40677
33100,63623,40644
34221,63649,40656
35188,63616,40727
35652,63727,40617
35581,63637,40860
35196,63704,40685
34662,63619,40931
34656,63687,40892
35196,63660,41026
35904,63623,41226
36304,63660,41125
36400,63684,41350
36133,63684,41268
35808,63700,41436
35488,63612,41399
35112,63682,41527
34760,63675,41528
34508,63641,41726
34132,63623,41629
33680,63540,41561
33332,63655,41735
33032,63655,41844
32740,63677,41892
32564,63679,41829
32564,63687,42132
32552,63623,42124
32656,63640,42190
32832,63623,42208
32868,63540,42405
32789,63589,42338
32704,63623,42316
32594,63640,42449
32484,63663,42465
32469,63687,42660
32516,63668,42705
32610,63663,42692
32668,63528,42855
32844,63623,42789
32873,63615,42965
32824,63623,42900
32805,63535,43049
32772,63644,43015
32624,63668,43200
32616,63664,43099
32716,63664,43310
32756,63577,43208
32842,63644,43349
33060,63604,43237
33097,63612,43444
33012,63632,43300
32928,63569,43500
32828,63655,43392
32696,63687,43524
32704,63676,43463
32844,63674,43447
32952,63644,43668
32994,63640,43604
33185,63615,43769
33268,63620,43676
33216,63623,43843
33124,63616,43756
33088,63660,43903
32956,63589,43791
32948,63680,43981
33024,63675,43872
33064,63660,44029
33080,63644,43910
33248,63623,44053
33316,63532,43940
33224,63528,44095
33204,63557,43940
33140,63645,44076
32976,63692,43933
32932,63698,44039
32956,63687,43893
33036,63613,43879
33121,63670,44071
33312,63641,43868
33364,63622,43839
33304,63640,43804
33252,63648,43788
33209,63568,43733
33092,63612,43779
33132,63607,43718
33266,63685,43704
33384,63692,43655
33481,63672,43631
33708,63655,43772
33717,63641,43631
33576,63583,43736
33436,63560,43517
33392,63684,43668
33268,63703,43473
33292,63719,43581
33452,63612,43364
33556,63707,43436
33652,63689,43276
33813,63534,43415
33860,63653,43192
33712,63670,43225
33592,63591,43052
33584,63685,43031
33508,63727,42980
33524,63733,43096
33636,63678,42949
33696,63712,43053
33800,63705,42832
34032,63583,43004
34072,63687,42798
34029,63700,42927
34044,63655,42668
34016,63712,42548
33868,63749,42580
33812,63751,42469
33860,63751,42492
33917,63653,42367
33972,63708,42390
34120,63692,42246
34150,63685,42257
34112,63655,42132
34036,63641,42262
33980,63735,42078
33784,63751,42201
33640,63684,42016
33628,63724,42055
33625,63751,41808
33620,63701,41871
33728,63716,41636
33700,63719,41727
33572,63724,41532
33488,63702,41672
33396,63749,41513
33248,63791,41620
33180,63783,41375
33228,63775,41327
33216,63768,41231
33228,63751,41083
33324,63663,41125
33268,63623,40914
33132,63740,41132
32992,63687,40903
32896,63751,40758
32732,63799,40753
32761,63686,40506
32880,63719,40616
32984,63701,40388
33092,63708,40493
33224,63623,40273
33176,63727,40452
33076,63743,40260
33002,63735,40065
32884,63781,40044
32711,63719,40103
32726,63796,39991
32873,63783,39791
32960,63781,39951
33069,63773,39802
33228,63732,39664
33236,63727,39677
33132,63741,39477
33092,63749,39596
32980,63773,39505
32820,63804,39236
32804,63805,39392
32924,63790,39310
33032,63791,39313
33076,63768,39236
33245,63743,39174
33258,63751,39136
33208,63751,38957
33180,63751,39102
33120,63788,39005
32954,63820,38762
32920,63727,38903
33024,63712,38708
33040,63815,38796
33076,63796,38673
33180,63751,38764
33204,63751,38661
33158,63768,38464
33096,63775,38580
33040,63780,38326
32864,63820,38497
32856,63820,38433
32954,63807,38499
33076,63835,38375
33148,63790,38307
33332,63777,38343
33344,63769,38261
33256,63775,38087
33172,63781,38189
33056,63811,37953
32910,63833,38143
32912,63833,38060
33029,63823,37837
33140,63828,38052
33200,63815,37942
33408,63788,37782
33436,63781,37876
33412,63792,37743
33338,63807,37716
33225,63792,37741
33076,63839,37584
33036,63845,37695
33121,63836,37484
33180,63847,37573
33224,63814,37462
33402,63796,37574
33440,63815,37492
33368,63812,37366
33316,63810,37434
33212,63741,37356
33032,63861,37312
33040,63856,37233
33152,63863,37277
33247,63796,37149
33319,63829,37175
33452,63831,37020
33488,63815,37101
33377,63833,36967
33336,63775,37000
33249,63809,37004
33096,63780,36645
33068,63839,36948
33128,63868,36757
33160,63871,36847
33208,63724,36743
33392,63815,36780
33453,63823,36711
33412,63828,36722
33320,63829,36517
33233,63824,36708
33072,63901,36615
33104,63903,36389
33192,63813,36524
33224,63807,36521
33272,63826,36412
33404,63751,36464
33432,63796,36357
33301,63793,36385
33238,63751,36241
33204,63780,36340
33070,63879,36199
33077,63911,36270
33137,63903,36189
33197,63903,36212
33280,63879,36110
33426,63860,36151
33472,63751,35956
33388,63796,35994
33341,63838,35777
33248,63901,35964
33074,63917,35613
33048,63924,35898
33120,63847,35649
33174,63911,35853
33268,63911,35748
33414,63879,35637
33432,63773,35709
33384,63782,35389
33304,63900,35674
33233,63900,35603
33113,63934,35324
33068,63947,35524
33164,63934,35210
33220,63916,35455
33287,63847,35073
33428,63896,35397
33420,63835,35224
33260,63832,35297
33116,63804,35054
33076,63900,35215
32988,63863,35170
32960,63877,34847
33040,63877,35079
33073,63853,35036
33189,63943,34804
33408,63927,35007
33481,63919,34928
33380,63924,34740
33305,63930,34853
33220,63943,34821
33068,63980,34624
33068,63975,34748
33196,63975,34653
33272,63964,34300
33324,63951,34604
33444,63927,34420
33468,63940,34503
33316,63947,34446
33204,63879,34360
33174,63975,34400
33056,63924,34197
33056,64004,34271
33141,63997,34231
33204,63991,33960
33320,63975,34169
33492,63949,34110
33529,63973,33783
33393,63948,34061
33320,63973,33927
33288,63972,33963
33150,63967,33917
33124,64007,33543
33200,64007,33849
33308,64007,33799
33376,63975,33679
33540,63965,33763
33592,63958,33446
33472,63903,33645
33360,63965,33535
33228,64007,33636
33104,64039,33529
33108,64044,33260
33200,64007,33476
33220,64028,33416
33240,63998,33434
33420,63985,33333
33445,63992,33192
33324,63917,33267
33240,63916,32964
33044,63943,33152
32717,63965,33108
32528,64068,32904
32384,64044,33017
32216,63948,32964
32072,63940,32828
32116,64007,32854
32020,64007,32788
31712,64007,32652
31552,64033,32711
31513,64055,32588
31632,64089,32549
32448,64096,32548
33736,64101,32168
35133,64116,32420
36536,64119,32245
37685,64100,32234
38309,64103,32252
38361,64108,32114
37920,64063,32062
37444,64159,32092
37256,64152,31926
37452,64188,31933
37704,64108,31892
37696,64159,31737
37364,64124,31799
37004,64111,31681
36476,64135,31558
35696,64127,31615
34988,64054,31185
34440,64133,31457
33888,64157,31255
33508,64159,31364
33268,64126,31140
33025,64135,31238
32852,64132,31029
32848,64111,31096
32732,64110,31041
32584,64125,31060
32461,64133,30930
32332,64135,30823
32186,64164,30872
32181,64172,30553
32296,64165,30727
32344,64167,30727
32392,64148,30465
32560,64135,30574
32581,64110,30466
32485,64103,30228
32400,64099,30352
32372,64067,30212
32232,64101,30260
32260,64129,30129
32412,64078,30085
32473,64181,30068
32540,64048,29741
32676,64132,30013
32684,64135,29869
32608,64135,29518
32525,64036,29842
32424,64079,29499
32240,64128,29671
32200,64199,29466
32304,64188,29599
32360,64183,29477
32476,64173,29477
32692,64156,29369
32704,64167,29446
32640,64169,29129
32560,64167,29308
32444,64118,29060
32268,64229,29206
32241,64133,28999
32336,64119,29108
32445,64120,28914
32516,64135,28988
32684,64108,28843
32744,64103,28924
32664,64076,28769
32632,64093,28815
32548,64200,28700
32332,64231,28417
32308,64228,28609
32361,64216,28501
32448,64231,28497
32564,64212,28378
32760,64196,28379
32788,64102,28133
32702,64125,28208
32628,64197,27891
32596,64221,28147
32465,64252,28037
32455,64245,27964
32536,64244,27920
32640,64228,27857
32728,64228,27793
32876,64207,27748
32920,64208,27386
32860,64135,27682
32788,64228,27452
32758,64245,27574
32676,64197,27389
32684,64278,27517
32829,64262,27344
32920,64263,27415
32948,64247,27299
33052,64231,27073
33084,64223,27292
33012,64175,27170
32956,64244,26895
32917,64276,27136
32764,64300,26945
32740,64303,27080
32869,64293,26688
32996,64295,27021
33124,64263,26628
33260,64260,26957
33304,64260,26607
33212,64258,26853
33172,64239,26699
33144,64300,26802
33040,64300,26709
33065,64300,26400
33160,64311,26725
33216,64300,26415
33333,64279,26606
33470,64292,26468
33440,64291,26540
33296,64295,26321
33204,64289,26521
33140,64316,26225
33052,64349,26525
33132,64359,26176
33261,64263,26409
33340,64295,26375
33356,64263,26469
33444,64312,26110
33452,64327,26442
33380,64324,26304
33295,64328,26450
33253,64359,26421
33122,64377,26428
33076,64308,26528
33149,64314,26369
33176,64383,26564
33216,64359,26548
33332,64320,26385
33304,64315,26688
33182,64340,26652
33102,64324,26492
33020,64380,26829
32926,64391,26793
32942,64390,26825
33082,64391,26966
33184,64381,26758
33228,64381,27066
33412,64348,26859
33384,64365,27167
33248,64357,27078
33148,64359,27305
33016,64322,27163
32852,64389,27508
32884,64383,27332
33029,64320,27651
33152,64322,27602
33233,64320,27823
33408,64263,27731
33480,64313,27989
33388,64312,27959
33288,64336,28156
33192,64340,28130
33036,64344,28260
33000,64351,28316
33088,64335,28388
33129,64341,28493
33180,64319,28484
33350,64295,28634
33364,64295,28719
33321,64364,28516
33236,64391,28886
33160,64420,28842
33056,64447,29012
33068,64447,29143
33176,64423,28964
33248,64423,29289
33312,64391,29343
33452,64359,29338
33404,64372,29559
33332,64376,29480
33278,64383,29673
33192,64429,29760
33040,64455,29765
33012,64421,29900
33116,64407,30013
33174,64428,29879
33220,64423,30172
33348,64389,30199
33346,64391,30268
33262,64420,30484
33184,64415,30334
33089,64436,30646
32900,64471,30709
32932,64465,30693
33032,64471,30768
33084,64463,30942
33152,64452,30829
33308,64431,31092
33316,64420,31180
33256,64416,31163
33182,64414,31239
33080,64431,31447
32932,64455,31139
32932,64487,31557
33008,64485,31550
33058,64447,31703
33140,64444,31690
33284,64422,31773
33306,64447,31961
33216,64447,31649
33145,64367,32065
33084,64479,32064
32937,64493,32196
32938,64472,32239
33100,64489,32340
33192,64492,32356
33272,64484,32517
33413,64463,32426
33398,64391,32660
33268,64463,32669
33186,64460,32758
33133,64455,32800
32964,64511,32703
32978,64519,32957
33088,64519,33004
33180,64423,33130
33254,64461,33100
33396,64455,33212
33437,64455,33096
33364,64485,33356
33280,64391,33366
33216,64494,33500
33092,64519,33462
33084,64519,33612
33172,64519,33513
33236,64518,33757
33276,64445,33700
33415,64422,33927
33430,64391,33968
33344,64493,33684
33256,64479,34107
33212,64485,34087
33092,64519,34134
33092,64519,34257
33196,64513,34239
33272,64519,34383
33320,64463,34456
33420,64495,34439
33398,64468,34557
33293,64511,34404
33188,64441,34679
33096,64468,34719
32928,64509,34644
32916,64559,34873
33020,64519,34640
33128,64519,34933
33252,64519,34821
33412,64479,35024
33380,64455,34993
33276,64511,35140
33216,64500,35033
33134,64516,35305
32934,64558,35311
32916,64572,35152
33064,64485,35385
33144,64519,35401
33236,64519,35462
33333,64504,35513
33304,64511,35238
33228,64496,35625
33196,64519,35642
33172,64519,35457
33048,64552,35783
33024,64582,35788
33120,64574,35758
33200,64485,35872
33276,64476,35737
33452,64453,36000
33488,64519,35974
33376,64519,36103
33280,64516,36019
33192,64551,36072
33022,64584,36183
33004,64495,35895
33088,64503,36236
33148,64558,36271
33220,64548,36265
33352,64517,36348
33373,64519,36359
33316,64447,36433
33229,64519,36359
33176,64556,36524
33024,64575,36296
33020,64564,36573
33112,64585,36543
33164,64588,36519
33216,64580,36664
33381,64455,36631
33364,64495,36686
33296,64549,36732
33244,64513,36670
33172,64574,36796
33036,64601,36663
33000,64608,36847
33074,64519,36884
33112,64584,36911
33132,64558,36949
33324,64519,36757
33368,64511,37077
33280,64519,37028
33174,64519,36921
33096,64557,37110
32945,64607,37060
32928,64607,37069
32962,64607,37138
32884,64588,36934
32820,64509,37188
32692,64556,37187
32416,64540,37124
32086,64484,37300
31820,64544,37252
31645,64576,37249
31500,64601,37298
31340,64594,37228
31364,64601,37348
31466,64599,37169
31941,64592,37383
33036,64583,37340
34296,64574,37383
35601,64519,37345
36816,64629,37375
37704,64647,37421
38256,64684,37255
38304,64687,37456
38016,64684,37424
37688,64687,37305
37784,64631,37442
38032,64592,37302
38016,64628,37535
37655,64636,37505
37208,64628,37401
36620,64647,37468
35832,64597,37511
35124,64581,37540
34560,64668,37407
34109,64647,37613
33736,64556,37561
33520,64536,37316
33208,64519,37672
32868,64554,37607
32556,64519,37552
32356,64631,37574
32140,64600,37616
32097,64665,37639
32138,64640,37484
32165,64633,37679
32176,64616,37659
32312,64607,37380
32292,64607,37655
32190,64599,37655
32088,64607,37485
32004,64615,37639
31844,64637,37580
31828,64636,37666
31936,64638,37610
32048,64615,37508
32118,64597,37461
32242,64583,37604
32272,64568,37573
32188,64585,37460
32101,64583,37569
32028,64609,37359
31872,64644,37581
31836,64646,37543
31920,64632,37324
31981,64631,37480
32046,64604,37535
32236,64595,37497
32312,64578,37255
32212,64576,37604
32133,64583,37539
32096,64599,37536
31948,64642,37523
31924,64637,37541
32040,64623,37340
32144,64620,37575
32236,64580,37511
32384,64569,37477
32420,64586,37232
32308,64583,37502
32192,64596,37394
32128,64519,37244
32017,64632,37036
32012,64639,37306
32140,64631,37253
32230,64607,37014
32332,64596,37180
32472,64568,37109
32488,64551,37025
32404,64584,36693
32328,64595,36982
32269,64606,36911
32152,64642,36596
32172,64640,36852
32304,64629,36759
32376,64612,36493
32400,64592,36668
32536,64575,36500
32528,64561,36509
32415,64555,36516
32360,64578,36396
32304,64599,36296
32180,64639,36353
32204,64641,36260
32308,64630,36180
32372,64572,36205
32476,64519,36157
32648,64513,36029
32688,64503,36064
32648,64585,36016
32601,64599,35713
32584,64601,35952
32448,64629,35889
32480,64631,35836
32545,64621,35601
32600,64609,35834
32632,64613,35726
32832,64582,35682
32862,64571,35651
32820,64581,35405
32776,64580,35637
32697,64576,35534
32588,64616,35202
32584,64631,35479
32664,64613,35370
32732,64614,35374
32824,64613,35380
33000,64583,35086
33052,64585,35312
33004,64605,35228
32928,64607,35300
32925,64542,35207
32848,64559,35220
32848,64583,35156
32964,64599,35142
33005,64623,35127
33055,64562,34959
33168,64519,34994
33162,64484,35010
33093,64519,34989
33032,64607,34706
32992,64628,34940
32860,64647,34909
32848,64641,34761
32952,64622,34772
33008,64623,34840
33053,64601,34848
33224,64567,34740
33268,64588,34559
33181,64568,34647
33101,64561,34733
33016,64615,34709
32896,64574,34616
32896,64647,34492
32996,64630,34624
33072,64623,34689
33169,64596,34735
33312,64576,34439
33320,64565,34695
33248,64588,34695
33184,64591,34465
33108,64621,34741
32993,64592,34510
33000,64579,34757
33120,64599,34710
33180,64621,34476
33220,64579,34725
33360,64479,34671
33405,64495,34780
33320,64487,34733
33256,64588,34462
33166,64519,34737
33020,64552,34732
33004,64551,34652
33057,64560,34807
33116,64611,34509
33169,64568,34791
33264,64564,34630
33234,64519,34748
33140,64557,34759
33076,64556,34661
33032,64556,34785
32844,64588,34676
32804,64623,34760
32912,64519,34417
32932,64519,34742
32973,64495,34759
33112,64519,34668
33142,64537,34799
33016,64519,34533
32908,64541,34760
32840,64577,34601
32732,64605,34806
32696,64519,34769
32761,64603,34711
32788,64568,34820
32832,64570,34616
32961,64519,34889
33008,64497,34854
32925,64557,34677
32876,64519,34885
32817,64557,34883
32676,64572,34821
32644,64594,34964
32752,64594,34789
32800,64493,34948
32856,64492,34980
32996,64519,34984
32957,64519,34914
32841,64543,35055
32756,64519,35023
32632,64548,34919
32484,64575,35032
32464,64583,35151
32518,64516,35157
32616,64570,35017
32672,64549,35135
32824,64516,35197
32860,64516,34969
32776,64519,35191
32673,64519,35175
32604,64553,35053
32428,64568,35160
32412,64551,35201
32508,64567,35143
32584,64548,35079
32668,64519,35183
32812,64488,35133
32848,64509,35164
32728,64519,35180
32628,64519,34965
32600,64550,35241
32444,64583,35172
32416,64519,35012
32544,64549,35208
32592,64546,34973
32692,64544,35220
32828,64516,35145
32828,64516,35017
32696,64512,35146
32672,64519,35021
32648,64516,35186
32508,64559,35145
32496,64560,34853
32600,64548,35228
32672,64551,35181
32714,64519,34988
32816,64511,35138
32828,64492,35031
32748,64503,35108
32652,64519,35196
32580,64519,35138
32420,64564,35020
32425,64509,35094
32516,64487,35183
32553,64544,35186
32576,64436,35150
32700,64511,35207
32697,64495,35214
32616,64500,35076
32524,64509,35228
32457,64463,35153
32328,64561,35184
32345,64553,35258
32444,64519,35206
32482,64516,35135
32548,64492,35293
32708,64495,35281
32736,64480,35135
32632,64510,35309
32568,64511,35308
32484,64519,35228
32352,64545,35320
32344,64501,35262
32492,64455,35277
32552,64470,35384
32572,64441,35257
32709,64431,35417
32705,64412,35357
32620,64436,35058
32496,64503,35420
32428,64519,35266
32300,64549,35385
32320,64553,35041
32448,64544,35381
32504,64543,35311
32552,64455,35429
32690,64391,35387
32724,64391,35260
32614,64445,35444
32508,64487,35389
32496,64487,35344
32396,64519,35405
32416,64519,35180
32496,64517,35421
32588,64503,35400
32633,64468,35388
32808,64471,35095
32797,64471,35428
32720,64471,35380
32612,64478,35191
32564,64495,35434
32420,64517,35380
32420,64516,35204
32516,64502,35428
32608,64502,35380
32688,64486,35077
32868,64455,35375
32828,64460,35252
32708,64469,35396
32641,64477,35356
32580,64477,35400
32452,64519,35376
32472,64519,35191
32620,64519,35396
32688,64476,35349
32764,64391,35316
32912,64413,35344
32892,64444,35404
32800,64422,35287
32696,64455,35324
32568,64495,35029
32384,64422,35340
32296,64455,35018
32260,64479,35335
32144,64463,35289
31916,64479,35334
31816,64447,35324
31620,64436,35228
31393,64445,35335
31224,64420,35332
31080,64449,35036
30816,64503,35326
30812,64503,35324
31112,64495,35213
31788,64485,35321
32988,64488,35309
34512,64469,35191
36048,64470,35344
37392,64495,35301
38501,64519,35280
39220,64548,35252
39232,64585,35173
38872,64583,35272
38681,64551,35262
38716,64557,35140
38592,64511,34956
38281,64487,35244
37748,64445,35196
37088,64485,34914
36252,64508,35271
35352,64519,35244
34413,64544,35036
33716,64519,35246
33280,64519,35260
32912,64511,34936
32606,64503,35279
32437,64476,35215
32204,64473,35205
31912,64412,35295
31700,64407,35279
31573,64509,35030
31368,64516,35357
31348,64518,35321
31440,64508,35175
31490,64492,35300
31560,64460,35288
31740,64454,35079
31758,64412,35356
31632,64383,35318
31536,64468,35225
31484,64471,34932
31346,64471,35270
31273,64495,35217
31356,64474,35031
31424,64488,35201
31456,64468,35220
31588,64414,35152
31653,64428,35060
31568,64428,35181
31512,64452,35156
31416,64389,35103
31324,64496,34991
31360,64500,35167
31468,64471,35204
31508,64476,35133
31580,64455,35053
31736,64421,35226
31769,64389,35188
31692,64340,35013
31589,64359,35256
31543,64460,35239
31420,64471,35148
31400,64450,35049
31476,64471,35212
31560,64428,35164
31628,64373,35108
31780,64429,35202
31790,64422,35128
31709,64414,34893
31608,64408,35164
31520,64421,35128
31400,64471,34838
31380,64454,35124
31472,64388,35076
31524,64468,34983
31612,64452,34855
31768,64420,34951
31780,64391,34879
31713,64429,34537
31648,64391,34820
31606,64454,34734
31445,64469,34396
31464,64463,34616
31576,64462,34508
31636,64452,34501
31713,64450,34500
31880,64391,34331
31912,64364,34300
31828,64436,34260
31768,64421,34207
31696,64437,34062
31560,64471,34092
31584,64471,34033
31697,64461,33764
31806,64377,33996
31864,64455,33852
32032,64421,33721
32058,64391,33679
31958,64428,33736
31916,64431,33525
31856,64367,33559
31740,64484,33579
31748,64468,33537
31852,64453,33287
31909,64447,33429
32012,64455,33422
32176,64423,33220
32212,64391,33116
32144,64357,33174
32104,64437,33253
32044,64439,33200
31917,64487,33017
31916,64471,32965
32000,64391,33038
32088,64471,33012
32152,64453,32895
32304,64423,32897
32316,64414,32868
32256,64438,32734
32192,64423,32844
32120,64463,32580
31998,64485,32702
32028,64487,32639
32156,64489,32365
32230,64471,32560
32262,64470,32337
32393,64436,32485
32404,64429,32320
32316,64422,32340
32248,64429,32263
32184,64447,32060
32040,64476,32175
32028,64484,31931
32160,64484,32067
32224,64487,31988
32324,64468,31684
32536,64424,31899
32584,64439,31758
32509,64448,31765
32470,64367,31557
32388,64453,31620
32306,64493,31495
32308,64478,31407
32405,64484,31364
32496,64476,31370
32592,64471,31212
32776,64357,31213
32836,64391,31013
32744,64368,31080
32673,64391,30940
32584,64376,30927
32440,64429,30815
32465,64415,30696
32576,64391,30702
32661,64413,30537
32696,64460,30545
32816,64431,30526
32840,64423,30408
32752,64437,30103
32736,64444,30336
32680,64452,30097
32536,64487,30140
32552,64476,30120
32665,64469,29924
32716,64471,29938
32773,64447,29949
32912,64421,29748
32920,64391,29725
32829,64431,29727
32756,64424,29516
32660,64413,29524
32556,64485,29535
32600,64479,29447
32716,64452,29228
32800,64391,29292
32864,64465,29285
32976,64422,29151
32960,64436,29104
32872,64447,29154
32790,64359,28996
32733,64380,28991
32592,64495,29021
32568,64492,28900
32680,64461,28849
32758,64468,28929
32833,64452,28551
33000,64436,28836
33008,64359,28713
32932,64431,28698
32852,64444,28749
32764,64437,28629
32620,64476,28579
32628,64463,28657
32704,64463,28431
32784,64462,28529
32844,64413,28301
32997,64373,28494
33012,64436,28247
32876,64391,28461
32812,64436,28053
32756,64455,28356
32648,64476,28300
32672,64495,27953
32800,64473,28304
32876,64477,28217
32920,64391,28172
33088,64436,28141
33088,64436,28082
32956,64436,28012
32888,64452,27799
32816,64470,27936
32648,64423,28012
32648,64423,27895
32764,64492,27763
32864,64495,27798
32924,64474,27844
33072,64457,27716
33124,64446,27746
33008,64469,27761
32928,64471,27418
32864,64391,27702
32744,64436,27543
32760,64439,27665
32848,64439,27622
32912,64414,27303
32938,64413,27597
33077,64375,27537
33088,64447,27530
33020,64463,27607
32940,64463,27289
32852,64455,27578
32696,64517,27347
32656,64500,27583
32788,64511,27461
32832,64501,27625
32889,64497,27591
33021,64455,27479
33028,64466,27561
32937,64462,27655
32856,64465,27647
32748,64460,27543
32592,64508,27724
32588,64509,27692
32680,64519,27543
32744,64503,27789
32812,64497,27749
32948,64469,27748
32970,64476,27868
32876,64471,27821
32800,64456,27827
32713,64492,27946
32576,64519,27802
32564,64519,28029
32660,64540,28065
32716,64461,27999
32784,64439,28047
32924,64503,28188
32921,64488,28181
32828,64511,28103
32718,64492,28295
32623,64519,28298
32526,64548,28046
32548,64558,28452
32624,64557,28445
32696,64551,28187
32728,64519,28541
32865,64504,28487
32893,64503,28648
32808,64445,28605
32754,64519,28702
32672,64546,28783
32540,64564,28714
32544,64488,28764
32609,64557,28877
32694,64503,28896
32756,64455,29015
32937,64431,28973
32960,64447,28967
32844,64519,29067
32772,64519,28881
32708,64519,29156
32568,64559,29119
32560,64519,29284
32628,64540,29173
32676,64551,29289
32769,64536,29124
32904,64519,29406
32904,64452,29340
32796,64511,29354
32668,64516,29580
32600,64552,29493
32460,64517,29575
32448,64492,29703
32552,64466,29557
32632,64516,29788
32698,64519,29774
32828,64519,29509
32860,64511,29900
32772,64447,29944
32696,64439,29708
32628,64463,30118
32500,64583,30100
32476,64580,29910
32552,64508,30249
32576,64485,30097
32596,64454,30420
32628,64468,30418
32492,64460,30160
32152,64462,30564
31796,64519,30487
31492,64557,30748
31128,64580,30716
31036,64568,30892
31060,64568,30885
31041,64580,30938
31052,64500,31071
31340,64519,31047
31792,64518,31192
32660,64559,31148
33916,64580,31377
35294,64605,31375
36648,64639,31151
37916,64668,31524
38940,64672,31567
39292,64663,31568
39032,64647,31732
38806,64628,31420
38783,64608,31847
38632,64623,31566
38248,64623,31890
37620,64576,31800
36840,64607,31989
36156,64679,31944
35504,64647,32108
34768,64635,32014
34080,64631,32148
33700,64598,32132
33264,64601,32244
32796,64607,32199
32400,64604,32308
32012,64630,32321
31688,64581,32344
31556,64631,32217
31560,64634,32412
31586,64628,32339
31644,64615,32476
31746,64605,32176
31760,64592,32486
31669,64551,32192
31616,64613,32438
31538,64631,32412
31406,64647,32353
31344,64647,32357
31420,64647,32254
31493,64556,32296
31528,64608,32276
31640,64588,32141
31656,64585,32167
31560,64566,32188
31520,64556,32055
31408,64628,32007
31264,64669,32010
31285,64677,31677
31392,64634,31916
31480,64640,31812
31580,64628,31877
31752,64551,31796
31776,64511,31729
31680,64517,31719
31610,64557,31354
31560,64624,31707
31430,64647,31381
31408,64636,31572
31464,64639,31438
31540,64639,31567
31664,64623,31471
31840,64599,31097
31824,64607,31428
31724,64608,31121
31648,64585,31335
31572,64615,31261
31462,64647,31022
31476,64647,31162
31588,64641,31065
31648,64630,30983
31764,64613,30938
31948,64599,30829
31964,64589,30845
31900,64615,30551
31814,64608,30727
31740,64620,30589
31608,64656,30462
31580,64672,30494
31692,64665,30073
31780,64615,30285
31888,64580,29948
32045,64615,30181
32060,64594,29892
32000,64582,29968
31924,64632,29660
31896,64647,29781
31811,64676,29511
31804,64660,29637
31888,64647,29491
31956,64663,29423
32020,64646,29348
32192,64569,29326
32244,64588,29180
32152,64637,29093
32080,64646,29013
32048,64660,28605
31944,64695,28874
31992,64684,28476
32111,64695,28747
32213,64597,28581
32320,64663,28555
32472,64647,28184
32484,64636,28449
32404,64645,28060
32354,64640,28320
32348,64668,28164
32225,64711,28109
32240,64716,28023
32386,64711,28076
32492,64692,27745
32556,64647,27937
32704,64647,27778
32702,64644,27713
32608,64692,27711
32520,64661,27615
32508,64684,27588
32372,64711,27594
32380,64727,27208
32456,64663,27529
32544,64711,27365
32600,64684,27338
32768,64669,27376
32796,64676,27103
32724,64601,27236
32624,64643,27111
32550,64677,27208
32408,64735,27012
32396,64724,27096
32505,64719,26861
32572,64709,26981
32632,64709,26828
32792,64695,26909
32808,64692,26725
32724,64679,26903
32645,64687,26820
32600,64708,26693
32468,64740,26762
32492,64701,26700
32592,64732,26676
32688,64735,26631
32780,64700,26640
32924,64695,26576
32961,64676,26584
32908,64685,26596
32868,64703,26537
32848,64724,26237
32696,64724,26576
32652,64740,26190
32732,64732,26479
32796,64735,26431
32916,64711,26530
33085,64695,26269
33074,64700,26468
32956,64701,26373
32916,64695,26441
32888,64735,26388
32752,64672,26404
32727,64684,26385
32793,64751,26364
32868,64733,26364
32964,64711,26343
33144,64679,26357
33132,64692,26374
33028,64703,26335
32932,64700,26096
32869,64700,26403
32741,64748,26325
32740,64751,26293
32820,64740,26357
32880,64647,26059
32936,64647,26322
33084,64700,26248
33105,64685,26366
33044,64700,26295
32960,64681,26268
32864,64703,26359
32716,64724,26284
32708,64735,26292
32773,64724,26399
32812,64735,26208
32852,64711,26399
33032,64685,26373
33072,64679,26360
32984,64708,26434
32901,64687,26382
32812,64717,26415
32676,64756,26469
32664,64775,26473
32800,64751,26545
32844,64743,26545
32877,64725,26553
33004,64708,26684
32996,64700,26509
32916,64719,26673
32836,64719,26558
32760,64663,26760
32592,64768,26759
32592,64753,26743
32716,64759,26820
32780,64732,26596
32844,64734,26893
32988,64711,26809
33012,64703,26913
32926,64727,26965
32856,64711,26961
32812,64733,26738
32676,64751,27045
32637,64772,26960
32728,64759,27124
32816,64759,27078
32896,64742,26812
33060,64713,27236
33064,64711,26878
32968,64727,27257
32868,64647,27073
32816,64662,27351
32684,64679,27296
32684,64711,27373
32790,64695,27422
32864,64709,27142
32928,64732,27500
33088,64700,27202
33084,64701,27524
33008,64701,27472
32950,64724,27653
32881,64743,27612
32748,64711,27728
32756,64774,27689
32852,64765,27775
32896,64767,27824
32960,64732,27655
33088,64711,27955
33096,64671,27928
33032,64703,27737
32953,64677,28081
32901,64740,28069
32752,64774,28111
32744,64764,28196
32832,64743,28228
32864,64759,28068
32852,64693,28384
32996,64678,28410
33020,64671,28373
32868,64720,28563
32788,64718,28551
32764,64732,28575
32572,64757,28677
32576,64775,28500
32680,64676,28845
32716,64736,28605
32760,64743,28929
32970,64713,28944
32969,64709,28758
32856,64716,29116
32772,64719,29047
32704,64730,29157
32548,64767,29255
32548,64775,29069
32652,64727,29357
32704,64772,29369
32772,64765,29117
32900,64632,29492
32884,64660,29438
32782,64668,29253
32696,64711,29661
32604,64767,29566
32480,64759,29648
32476,64761,29785
32592,64734,29801
32644,64775,29535
32692,64742,29933
32852,64726,29943
32868,64713,29810
32784,64734,30053
32697,64732,30055
32608,64751,30108
32484,64759,30161
32492,64765,29879
32608,64765,30256
32637,64765,30300
32660,64743,30154
32856,64700,30433
32868,64719,30343
32776,64692,30452
32672,64732,30413
32624,64727,30559
32500,64751,30632
32492,64741,30599
32584,64796,30427
32660,64743,30711
32700,64726,30717
32856,64711,30509
32888,64708,30841
32792,64711,30820
32736,64711,30565
32700,64712,30941
32576,64757,30928
32560,64743,30904
32660,64761,31002
32710,64740,31036
32704,64722,30727
32856,64711,31168
32876,64693,31138
32773,64719,31087
32728,64716,31239
32648,64741,31225
32513,64756,31132
32456,64676,31222
32501,64680,31332
32520,64684,31273
32516,64734,31365
32532,64700,31271
32352,64711,31373
31992,64711,31477
31684,64701,31204
31400,64730,31529
31156,64774,31544
31077,64743,31446
31096,64764,31438
31056,64756,31588
31128,64748,31366
31436,64677,31596
32132,64716,31537
33204,64740,31463
34460,64774,31620
35824,64748,31399
36920,64805,31591
37864,64816,31514
38400,64775,31590
38382,64767,31551
38112,64800,31235
38168,64775,31544
38292,64740,31407
38080,64759,31533
37648,64768,31528
37052,64711,31184
36340,64771,31560
35664,64718,31512
35040,64805,31442
34412,64775,31508
33888,64748,31521
33596,64720,31527
33248,64734,31228
32866,64732,31580
32472,64748,31525
32208,64748,31264
31932,64775,31564
31840,64767,31540
31896,64772,31447
31904,64703,31545
31920,64735,31264
32100,64716,31580
32092,64708,31604
31984,64719,31454
31908,64703,31506
31796,64737,31548
31597,64767,31265
31573,64767,31524
31692,64751,31444
31765,64701,31429
31801,64711,31487
31960,64701,31254
31993,64692,31479
31948,64724,31425
31908,64720,31199
31848,64720,31407
31704,64743,31350
31724,64732,31342
31808,64734,31413
31905,64735,31294
31993,64709,31364
32148,64693,31220
32172,64696,31341
32136,64623,31280
32064,64634,31255
32028,64711,31340
31905,64740,31039
31888,64724,31293
32000,64730,31145
32050,64732,31239
32084,64703,31192
32228,64687,31119
32216,64679,31164
32109,64660,30790
32040,64677,31087
31992,64703,30885
31864,64716,31004
31870,64719,30828
31956,64732,30930
32040,64647,30686
32148,64647,30853
32332,64647,30756
32364,64675,30630
32312,64692,30695
32280,64600,30586
32224,64711,30208
32142,64735,30523
32173,64740,30402
32300,64647,30307
32396,64647,30335
32460,64669,30005
32625,64664,30167
32668,64647,30087
32612,64647,29797
32584,64640,30050
32524,64695,29872
32404,64709,29876
32398,64711,29828
32534,64708,29550
32620,64718,29673
32744,64695,29652
32912,64673,29357
32908,64646,29548
32852,64640,29421
32832,64647,29092
32808,64684,29333
32662,64701,29212
32676,64703,29167
32792,64687,29228
32861,64708,28948
32928,64687,29125
33112,64589,29020
33152,64677,28950
33080,64647,28988
33044,64647,28738
33009,64695,28922
32868,64728,28825
32868,64647,28740
32944,64647,28807
33054,64711,28496
33144,64647,28750
33328,64667,28565
33356,64647,28681
33268,64647,28548
33234,64662,28510
33220,64677,28489
33060,64727,28480
33052,64727,28479
33136,64709,28353
33220,64685,28332
33290,64671,28409
33461,64647,28125
33480,64647,28348
33381,64677,28234
33276,64647,28248
33184,64676,28091
33060,64701,28158
33060,64725,27957
33152,64620,28128
33237,64676,27896
33280,64677,28064
33436,64663,27989
33444,64645,27929
33356,64668,27959
33272,64663,27920
33212,64687,27872
33052,64719,27931
33065,64701,27692
33184,64687,27837
33244,64679,27857
33344,64671,27661
33512,64647,27782
33548,64646,27750
33488,64647,27718
33410,64647,27804
33328,64639,27696
33216,64692,27689
33220,64692,27430
33312,64687,27708
33372,64676,27668
33432,64639,27356
33625,64615,27719
33628,64628,27340
33512,64612,27645
33408,64647,27719
33348,64644,27640
33208,64668,27606
33226,64647,27639
33336,64660,27360
33397,64641,27647
33452,64620,27613
33632,64601,27620
33652,64605,27668
33576,64620,27622
33524,64628,27632
33452,64639,27676
33304,64646,27651
33256,64647,27390
33332,64632,27748
33372,64646,27764
33444,64631,27628
33588,64600,27788
33588,64588,27758
33488,64599,27595
33400,64604,27865
33320,64623,27801
33148,64647,27660
33120,64647,27932
33188,64633,27884
33272,64620,27604
33332,64597,27977
33492,64572,27973
33500,64572,28004
33404,64588,28118
33336,64588,27934
33232,64621,28196
33060,64644,28162
33048,64645,27973
33116,64623,28320
33162,64629,28269
33252,64613,28037
33428,64582,28407
33452,64580,28382
33380,64596,28407
33292,64505,28516
33189,64560,28255
33016,64622,28557
32984,64606,28580
33084,64631,28560
33144,64607,28695
33212,64583,28444
33392,64559,28726
33436,64566,28409
33344,64501,28725
33224,64500,28550
33140,64576,28807
32997,64594,28644
32976,64604,28824
33088,64604,28612
33124,64608,28870
33152,64503,28873
33268,64519,28896
33316,64541,28978
33224,64550,28735
33134,64560,28981
33048,64577,28908
32920,64606,28933
32909,64606,28989
33008,64596,28965
33033,64582,29064
33080,64568,28817
33238,64559,29060
33264,64455,29005
33174,64551,29138
33092,64519,29100
33006,64560,29198
32848,64575,29116
32812,64592,29145
32916,64588,29199
32996,64509,28923
33032,64563,29287
33168,64518,28941
33160,64519,29293
33116,64447,29021
33024,64519,29340
32976,64541,29226
32796,64574,29400
32800,64544,29428
32901,64568,29381
32951,64566,29487
32972,64548,29398
33091,64481,29518
33096,64505,29511
33034,64519,29485
32956,64519,29620
32856,64557,29574
32684,64485,29540
32681,64519,29697
32798,64552,29381
32868,64551,29684
32908,64519,29680
33004,64504,29510
32996,64500,29792
32900,64511,29728
32824,64519,29736
32748,64519,29823
32564,64551,29490
32525,64551,29848
32600,64519,29820
32664,64519,29818
32712,64519,29938
32896,64495,29852
32936,64497,29988
32820,64420,29945
32720,64428,29916
32660,64517,29983
32520,64549,29935
32488,64519,30079
32604,64519,29865
32672,64519,30055
32712,64519,29968
32832,64505,30144
32880,64430,30087
32775,64429,30155
32692,64503,30114
32628,64504,30087
32488,64545,30159
32480,64519,30086
32556,64519,30165
32622,64519,30073
32684,64519,30263
32858,64416,30211
32916,64420,30160
32813,64487,30291
32732,64487,30004
32668,64493,30247
32500,64519,30208
32486,64533,30316
32565,64519,30052
32632,64431,30342
32728,64452,30244
32880,64464,30399
32880,64468,30335
32788,64455,30036
32761,64429,30385
32720,64460,30254
32578,64516,30397
32596,64487,30349
32708,64470,30500
32728,64495,30457
32764,64476,30546
32925,64423,30418
32968,64429,30552
32864,64468,30360
32764,64456,30540
32712,64468,30616
32594,64487,30452
32544,64493,30630
32612,64389,30344
32673,64477,30705
32696,64455,30356
32832,64391,30726
32876,64429,30757
32776,64359,30670
32692,64420,30789
32612,64391,30786
32496,64476,30855
32492,64485,30759
32580,64455,30905
32628,64468,30842
32676,64455,30962
32852,64421,30967
32886,64416,30650
32733,64356,31049
32608,64336,30781
32496,64367,31061
32289,64391,30994
32157,64391,31160
32060,64468,31107
31844,64455,30874
31676,64439,31202
31640,64412,31170
31536,64407,30884
31417,64420,31220
31256,64423,31117
31048,64431,31220
30876,64471,31324
31032,64391,31121
31788,64376,31359
32956,64436,31332
34280,64468,31422
35848,64452,31312
37100,64415,31444
37948,64445,31397
38300,64473,31493
38136,64503,31432
37640,64519,31413
37492,64519,31481
37708,64503,31564
37700,64500,31484
37444,64468,31559
37084,64436,31613
36572,64429,31261
35816,64429,31655
35009,64437,31316
34244,64455,31705
33512,64488,31688
33064,64471,31626
32768,64391,31817
32536,64460,31464
32348,64445,31836
32256,64420,31599
32149,64400,31888
31992,64428,31751
31861,64415,31912
31793,64405,31975
31612,64445,31881
31565,64455,32071
31640,64416,32060
31708,64380,31783
31710,64391,32125
31877,64383,32080
31916,64320,32219
31820,64345,32208
31736,64381,31873
31680,64391,32229
31508,64408,31959
31480,64400,32313
31584,64423,32272
31645,64391,32047
31734,64367,32325
31908,64348,32327
31964,64359,32281
31888,64357,32455
31813,64367,32215
31740,64391,32456
31584,64422,32429
31592,64414,32450
31696,64391,32589
31780,64381,32495
31824,64372,32671
31992,64359,32636
32052,64340,32441
31972,64365,32775
31860,64359,32743
31772,64381,32616
31601,64391,32825
31584,64352,32832
31684,64304,32573
31802,64380,32750
31836,64359,32821
31988,64347,32680
31992,64340,32780
31924,64333,32839
31860,64348,32604
31786,64365,32722
31664,64383,32786
31630,64380,32595
31729,64359,32596
31816,64367,32657
31876,64343,32620
32008,64313,32496
32028,64313,32564
31956,64324,32532
31889,64347,32340
31861,64343,32506
31716,64347,32497
31752,64292,32350
31872,64324,32411
31990,64356,32332
32044,64340,32348
32210,64308,32307
32216,64312,31975
32152,64311,32277
32088,64314,32263
32052,64263,32134
31926,64292,32125
31934,64285,32177
32028,64367,32149
32128,64351,31988
32172,64320,32052
32389,64309,32125
32436,64295,32092
32334,64293,32077
32276,64285,32109
32284,64316,32029
32173,64355,32148
32177,64358,31873
32292,64327,32208
32364,64333,32196
32408,64285,32095
32608,64281,32191
32656,64263,31903
32576,64263,32245
32476,64309,32082
32472,64312,32353
32352,64356,32141
32349,64248,32417
32440,64268,32330
32489,64236,32479
32529,64236,32459
32700,64199,32340
32756,64207,32588
32688,64205,32577
32580,64211,32277
32508,64261,32696
32389,64332,32409
32376,64295,32747
32457,64295,32598
32516,64324,32793
32584,64237,32508
32704,64284,32812
32705,64263,32921
32617,64284,32743
32512,64285,32996
32452,64303,32854
32284,64313,33031
32229,64324,32932
32296,64312,33153
32356,64311,33087
32408,64300,33153
32588,64268,33111
32637,64181,33176
32508,64184,33199
32405,64199,32886
32349,64223,33214
32193,64263,33208
32184,64327,32903
32300,64311,33255
32368,64309,33245
32416,64291,32924
32584,64263,33323
32624,64236,33205
32561,64263,33260
32440,64256,33332
32352,64263,33192
32248,64303,33410
32229,64220,33351
32324,64215,33082
32376,64207,33396
32440,64185,33340
32633,64183,33469
32662,64164,33423
32584,64191,33375
32492,64239,33462
32452,64262,33399
32312,64287,33532
32264,64253,33404
32381,64263,33576
32425,64261,33583
32480,64236,33342
32616,64191,33581
32640,64128,33549
32592,64197,33660
32484,64229,33637
32440,64229,33581
32272,64263,33676
32284,64263,33536
32349,64247,33748
32424,64247,33732
32465,64236,33669
32628,64132,33775
32661,64209,33679
32568,64207,33854
32472,64204,33671
32420,64223,33829
32276,64263,33885
32229,64231,33709
32301,64173,33949
32380,64157,33988
32441,64236,33860
32604,64201,34002
32648,64207,34020
32532,64199,34005
32400,64189,33764
32324,64215,34126
32192,64228,34076
32184,64196,33965
32258,64223,34000
32352,64237,34173
32404,64215,34149
32548,64196,33852
32568,64181,34183
32504,64191,34127
32448,64197,34127
32393,64205,34188
32228,64236,33975
32216,64231,34219
32308,64151,34062
32392,64204,34183
32465,64207,34030
32624,64189,34150
32688,64183,34094
32588,64183,34040
32500,64183,34161
32460,64189,34140
32304,64217,33885
32276,64197,34119
32364,64130,34122
32420,64213,34015
32485,64164,34120
32644,64153,34045
32716,64167,34036
32652,64160,34013
32592,64135,33814
32534,64172,34044
32384,64205,33972
32344,64229,33856
32454,64188,34012
32494,64207,33948
32576,64199,33764
32740,64167,33882
32772,64100,33901
32672,64079,33884
32616,64092,33548
32568,64164,33877
32444,64196,33853
32420,64173,33748
32476,64167,33860
32552,64191,33849
32616,64094,33636
32788,64103,33856
32832,64063,33880
32740,64089,33641
32680,64143,33895
32608,64173,33636
32452,64109,33823
32432,64199,33860
32520,64189,33668
32568,64191,33825
32632,64175,33740
32780,64135,33853
32809,64133,33753
32764,64135,33866
32696,64135,33837
32608,64148,33511
32449,64175,33833
32376,64180,33695
32512,64183,33893
32596,64172,33829
32684,64161,33810
32868,64126,33867
32888,64121,33742
32800,64135,33874
32728,64135,33705
32640,64135,33836
32508,64165,33869
32484,64135,33756
32556,64167,33780
32596,64167,33869
32616,64135,33741
32772,64120,33735
32828,64102,33844
32749,64085,33612
32652,64055,33834
32592,64064,33789
32420,64093,33695
32372,64184,33784
32476,64156,33777
32572,64135,33664
32652,64120,33756
32840,64108,33740
32868,64097,33733
32736,64116,33748
32608,64109,33543
32484,64135,33718
32296,64156,33757
32286,64164,33464
32400,64132,33740
32492,64135,33693
32552,64052,33513
32684,64097,33677
32708,64068,33685
32612,64117,33441
32540,64118,33703
32492,64135,33655
32344,64167,33590
32336,64166,33652
32420,64149,33600
32497,64167,33413
32588,64063,33710
32792,64007,33640
32858,64097,33485
32768,64101,33602
32669,64118,33647
32616,64127,33642
32464,64070,33476
32444,64056,33639
32512,64069,33689
32576,64079,33449
32640,64068,33701
32824,64038,33644
32844,64110,33551
32744,64103,33649
32664,64108,33652
32592,64074,33469
32448,64055,33732
32432,64159,33721
32517,64135,33676
32580,64125,33404
32648,64108,33737
32840,64060,33712
32896,63992,33495
32776,64093,33723
32688,64053,33728
32628,64007,33412
32476,64119,33756
32448,64135,33740
32532,64116,33583
32628,64127,33772
32684,64098,33817
32868,64089,33623
32904,64069,33858
32801,64092,33837
32728,64084,33808
32656,64100,33608
32492,64108,33786
32496,64117,33844
32620,64105,33860
32712,64103,33597
32792,64092,33933
32932,64060,33925
32912,64037,33841
32836,64063,33815
32740,64064,33986
32640,64101,33956
32508,64129,33869
32472,64037,33633
32572,64116,34020
32588,64101,34000
32560,64079,33892
32588,64053,33942
32429,64044,34027
32056,64007,33996
31720,64068,33934
31448,64084,33941
31160,64119,34012
31024,64102,34031
31032,64111,33721
30967,64103,34037
31096,64004,34036
31440,64045,33972
32144,64068,34100
33228,64089,33836
34476,64099,34120
35860,64125,34118
37012,64173,33912
38000,64183,34101
38652,64188,34060
38672,64095,33983
38328,64109,34116
38300,64123,33991
38448,64111,33972
38173,64121,34049
37688,64086,34078
37060,64135,33799
36308,64165,34089
35604,64161,34088
34941,64135,33807
34312,64135,34151
33806,64124,34100
33516,64089,34100
33172,64077,34199
32772,64100,34094
32404,64095,34221
32104,64103,34213
31813,64129,34153
31680,64132,34249
31708,64119,34284
31753,64124,33972
31788,64045,34372
31920,64055,34352
31952,64047,34353
31840,64073,34396
31756,64079,34311
31700,64084,34433
31548,64108,34119
31488,64135,34469
31597,64108,34340
31656,64093,34535
31708,64067,34469
31862,64047,34548
31860,64007,34408
31784,64007,34549
31672,64053,34432
31636,64068,34639
31518,64096,34326
31548,64092,34707
31680,64084,34522
31740,64091,34776
31820,64071,34755
31996,64060,34862
32044,64041,34838
31944,64046,34682
31828,64039,34925
31752,64062,34823
31596,64090,35061
31553,64080,35020
31636,64081,34717
31700,64087,35068
31785,64061,35095
31944,64031,34857
31956,64007,35187
31900,64031,35132
31824,64036,34957
31740,64041,35166
31604,64080,35097
31577,64071,34948
31700,64071,34952
31792,64068,35071
31824,63959,34997
32020,64007,34964
32072,64007,34740
31982,63999,34836
31918,64007,34894
31848,64039,34608
31728,63999,34675
31720,64007,34678
31844,64060,34626
31928,64063,34346
31996,64047,34548
32168,64007,34513
32164,64007,34279
32085,64006,34340
32036,64031,34277
32020,64039,34104
31905,64056,34209
31896,64071,33957
32008,64065,34031
32096,64063,33957
32172,63954,33863
32348,63964,33860
32401,64007,33841
32312,64007,33749
32260,64007,33674
32202,64060,33570
32068,63973,33652
32069,64047,33476
32164,64063,33505
32272,63996,33477
32348,63959,33280
32545,63919,33358
32596,63936,33314
32558,63983,33060
32480,64007,33183
32408,64032,33092
32256,64036,33132
32262,64063,33028
32412,64054,32708
32498,64046,33017
32592,64039,32961
32780,64007,32791
32872,64007,32812
32812,64007,32792
32762,64007,32671
32693,64037,32412
32572,64056,32711
32592,64079,32596
32696,64071,32229
32750,64068,32557
32812,64055,32472
33012,64007,32221
33064,64007,32434
33000,64007,32373
32908,64037,32164
32836,64045,32300
32672,64068,32245
32644,64061,31983
32718,64064,32197
32760,64064,32112
32820,63983,32060
33004,64007,32051
33073,64007,31847
32972,64007,32031
32876,64007,31969
32804,64036,31812
32688,64079,31786
32692,64004,31878
32784,63983,31836
32852,63988,31525
32885,63959,31773
33008,64007,31692
33028,64007,31656
32934,64007,31486
32890,64007,31566
32840,64036,31615
32684,64053,31529
32664,64048,31298
32796,64036,31559
32916,63951,31463
32968,64039,31349
33120,64007,31084
33156,63933,31421
33064,63911,31364
32992,63935,31141
32940,64001,31333
32796,64039,31228
32773,64052,31264
32852,64044,31253
32924,64037,31102
33004,64007,31183
33180,64007,31232
33220,63972,31008
33124,63999,31103
33061,64007,31140
33000,64007,31096
32829,64055,31060
32804,64028,31102
32888,64039,30799
32988,64007,31149
33048,64007,31066
33180,63980,30804
33180,63975,31077
33052,63983,31030
32944,63924,30697
32892,64004,31020
32768,64037,31004
32744,63981,30678
32844,63943,31040
32896,64036,30936
32948,64007,31000
33132,63983,31029
33156,63975,30775
33069,63983,31048
32956,63991,30793
32884,63996,31015
32720,63935,30948
32712,63949,31072
32809,64031,30910
32873,64007,31032
32916,64005,30949
33088,63989,31070
33109,63978,31040
33018,63987,30972
32928,63993,31064
32856,63909,31038
32744,64037,30894
32676,64039,30988
32754,64004,31079
32828,64007,31070
32852,64007,30983
33017,63901,30820
33048,63879,31075
32958,63981,31053
32884,63991,30913
32828,64005,31085
32674,64037,31025
32660,64007,30700
32774,64006,31028
32840,64007,30902
32864,63999,31018
33024,63939,31031
33016,63973,30961
32940,63975,30964
32841,63975,30965
32774,63996,30901
32600,63981,30620
32588,64031,30940
32714,64007,30948
32796,64006,30951
32860,63972,30762
32994,63968,31012
33044,63973,30944
32932,63980,30757
32860,63983,30975
32766,63901,30939
32616,64007,30692
32608,64007,30625
32736,64007,30884
32806,64007,30997
32856,63996,30957
33016,63879,30759
33040,63860,30983
32993,63901,31005
32912,63973,30886
32848,63999,30974
32704,64007,31063
32720,63999,31068
32809,64007,30996
32897,64007,31041
32952,63989,31142
33096,63871,31161
33108,63965,31013
33044,63967,31284
32920,63964,31234
32832,63967,31101
32684,63981,31314
32645,63996,31286
32760,64001,31354
32817,63999,31375
32852,63973,31175
33024,63965,31488
33070,63951,31470
32972,63949,31225
32912,63973,31615
32868,63980,31581
32708,63895,31553
32672,64007,31556
32788,64007,31751
32824,63990,31719
32876,63879,31761
33040,63853,31850
33052,63863,31749
32986,63871,31622
32912,63876,31950
32834,63916,31951
32656,64006,31677
32640,63951,32029
32714,63924,31983
32781,63988,32135
32868,63913,32165
33036,63924,31996
33044,63956,32252
32948,63955,32236
32900,63876,32166
32812,63944,32388
32624,63925,32354
32600,63981,32153
32672,63996,32564
32732,63879,32540
32772,63879,32366
32880,63958,32640
32885,63951,32510
32784,63861,32709
32712,63948,32816
32628,63972,32808
32524,64007,32617
32520,64006,32879
32556,63993,32913
32636,63990,32879
32684,63957,32992
32837,63927,33018
32900,63932,32828
32813,63943,33158
32701,63917,33172
32616,63975,33143
32512,64007,33135
32529,63973,33243
32596,63990,33020
32688,63901,33321
32708,63981,33287
32820,63949,33223
32844,63900,33039
32796,63861,33329
32736,63952,33372
32680,63879,33313
32536,63936,33453
32496,63940,33429
32628,64005,33124
32705,63981,33447
32756,63961,33453
32892,63943,33263
32956,63863,33476
32904,63876,33415
32796,63852,33559
32708,63879,33501
32572,63999,33268
32536,63989,33588
32644,63924,33544
32732,63991,33358
32820,63972,33554
32996,63943,33520
32992,63935,33184
32864,63879,33524
32780,63863,33516
32716,63962,33300
32560,63989,33526
32551,63991,33508
32662,63980,33167
32744,63975,33562
32808,63940,33415
32976,63928,33497
32968,63927,33548
32888,63943,33233
32808,63949,33511
32736,63956,33489
32586,63999,33407
32572,63981,33487
32692,63980,33439
32773,63972,33447
32861,63949,33487
33012,63829,33173
33040,63840,33502
32960,63943,33449
32844,63933,33201
32736,63951,33398
32501,63983,33455
32346,63975,33244
32260,63967,33407
32064,63962,33350
31857,63943,33305
31822,63919,33439
31704,63919,33148
31544,63940,33381
31376,63938,33326
31210,63948,33408
31128,63893,33287
31310,63983,33346
32072,64006,33109
33284,63988,33373
34600,63983,33220
36176,63983,33317
37428,63944,33199
38300,64005,33342
38720,64007,33292
38600,64007,33127
38080,64068,33255
37924,64060,33236
38088,64053,33240
38044,64036,33238
37760,63927,32903
37356,63917,33197
36808,63879,33071
36070,63933,33204
35232,63941,33109
34480,64000,33153
33804,64007,33096
33368,64038,33145
33072,64007,33132
32840,64007,32791
32622,63999,33110
32572,63975,32772
32469,63956,33127
32288,63981,32848
32158,63975,33068
32064,63983,33053
31878,64007,32800
31824,64007,33052
31892,63991,33040
31984,64004,33021
32044,63988,33047
32212,63961,32705
32252,63950,33007
32168,63879,32660
32081,63959,32952
32020,63967,32842
31852,64007,32911
31836,63943,32924
31932,63942,32727
32016,63911,32861
32094,63956,32804
32268,63860,32735
32302,63917,32837
32220,63928,32579
32176,63876,32852
32084,63861,32812
31925,63903,32724
31921,63932,32732
32020,63879,32834
32100,63876,32590
32145,63964,32725
32316,63942,32775
32352,63844,32714
32248,63951,32823
32157,63852,32621
32128,63919,32789
31968,63983,32724
31940,63988,32726
32040,63975,32823
32092,63975,32564
32142,63967,32783
32312,63932,32695
32356,63925,32718
32256,63932,32733
32188,63932,32483
32121,63944,32718
32009,63980,32613
31992,63909,32706
32096,63973,32607
32180,63964,32570
32248,63959,32581
32430,63921,32287
32429,63924,32565
32318,63869,32381
32233,63901,32467
32174,63948,32343
32052,63977,32467
32052,63972,32257
32174,63980,32402
32268,63981,32263
32336,63975,32194
32532,63935,32256
32548,63935,32059
32480,63940,32231
32384,63855,32085
32316,63950,32127
32220,63957,32076
32210,63975,31719
32316,63957,32007
32400,63975,31964
32464,63954,31610
32656,63936,31946
32700,63931,31924
32624,63879,31824
32564,63844,31620
32552,63961,31777
32388,63996,31789
32408,64004,31599
32564,63983,31692
32684,63988,31690
32760,63972,31632
32924,63943,31337
32976,63900,31588
32909,63949,31559
32840,63852,31460
32788,63975,31196
32656,63997,31556
32676,63988,31532
32792,63980,31401
32876,63991,31372
32916,63965,31423
33068,63940,31319
33084,63934,31349
32974,63879,31383
32948,63903,31343
32888,63903,31049
32716,63988,31386
32677,63999,31329
32772,64007,31197
32868,63994,31266
32928,63975,31268
33092,63879,30974
33092,63852,31196
32972,63932,31111
32896,63877,31146
32836,63924,31196
32676,63990,30959
32656,63972,31121
32736,63903,31112
32781,63981,31069
32800,63974,30727
32932,63951,31097
32968,63949,31029
32908,63879,30756
32816,63964,31038
32772,63975,30983
32632,64007,30684
32624,63919,30965
32756,63924,30903
32861,63989,30948
32912,63983,30991
33088,63943,30831
33108,63928,30925
32968,63948,30951
32893,63943,30821
32820,63972,30886
32688,63999,30973
32704,63992,30869
32812,63997,30948
32864,63991,30933
32904,63927,30882
33082,63927,31000
33148,63932,30677
33068,63940,31026
32976,63954,30796
32897,63932,31031
32745,63991,31061
32708,63996,30937
32812,63988,30990
32868,63973,31105
32904,63964,31064
33080,63943,30908
33088,63925,31034
32972,63935,31136
32864,63943,31112
32768,63953,31089
32620,63991,31239
32600,63973,31269
32684,63980,31181
32732,63980,31212
32760,63960,31336
32924,63861,31113
32919,63843,31445
32816,63852,31445
32737,63879,31194
32700,63957,31526
32536,63972,31567
32492,63988,31533
32608,63911,31693
32676,63869,31717
32676,63956,31505
32790,63925,31878
32808,63925,31910
32660,63925,31802
32548,63900,31651
32504,63959,32106
32368,63972,32116
32304,63983,32063
32360,63972,32233
32436,63972,32279
32480,63951,32092
32670,63926,32435
32736,63903,32406
32668,63901,32251
32568,63916,32581
32500,63928,32565
32336,63983,32583
32261,63989,32715
32366,63879,32420
32434,63879,32788
32452,63879,32609
32604,63911,32883
32660,63924,32583
32596,63932,32991
32512,63911,32676
32456,63941,33060
32320,63975,32743
32264,63879,33148
32364,63879,32921
32416,63908,33196
32480,63958,33006
32672,63879,33311
32676,63916,33260
32576,63927,33295
32456,63942,33381
32380,63972,33285
32264,63977,33448
32292,63965,33385
32372,63969,33511
32464,63879,33311
32536,63903,33605
32677,63924,33568
32680,63927,33677
32604,63932,33653
32516,63924,33693
32453,63943,33732
32302,63972,33700
32296,63972,33784
32417,63964,33711
32496,63919,33828
32592,63956,33860
32716,63928,33606
32760,63901,33935
32668,63847,33604
32565,63916,33994
32487,63940,33783
32372,63964,34055
32348,63981,34013
32468,63973,34005
32548,63973,34065
32576,63927,34140
32748,63942,34128
32772,63903,34183
32685,63941,33980
32566,63935,34225
32520,63855,34031
32373,63934,34324
32344,63975,34254
32452,63959,34351
32520,63949,34444
32560,63951,34287
32701,63901,34508
32692,63935,34180
32616,63924,34510
32512,63928,34496
32452,63860,34596
32308,63983,34686
32280,63956,34556
32408,63972,34676
32464,63964,34624
32492,63961,34805
32656,63903,34695
32684,63808,34873
32584,63900,34799
32472,63892,34943
32424,63949,34876
32276,63951,34972
32264,63971,34812
32352,63973,35025
32420,63959,34999
32472,63956,34997
32656,63927,35121
32672,63919,34820
32548,63934,35192
32398,63847,34873
32320,63944,35221
32172,63940,35233
32160,63981,35079
32276,63972,35292
32341,63959,35177
32388,63965,35348
32532,63869,35216
32576,63917,35364
32464,63941,35333
32336,63933,35377
32316,63959,35374
32161,63879,35237
32164,63983,35409
32276,63909,35388
32333,63957,35319
32400,63957,35364
32594,63844,35167
32664,63835,35385
32602,63942,35308
32524,63943,35327
32449,63948,35372
32328,63975,35293
32293,63973,35305
32370,63965,35277
32432,63961,35252
32476,63957,35232
32656,63928,35133
32692,63924,35241
32656,63943,34951
32588,63951,35200
32520,63964,34864
32393,63984,35196
32364,63896,35013
32456,63893,35183
32508,63903,34874
32540,63942,35132
32708,63943,34947
32772,63932,35108
32716,63932,35045
32649,63940,35162
32588,63956,35103
32429,63975,35152
32416,63979,35105
32516,63879,35089
32588,63879,34866
32672,63956,35132
32826,63919,35020
32892,63925,35112
32788,63935,35013
32688,63942,35125
32632,63900,35079
32472,63903,35121
32440,63956,35049
32573,63964,35169
32633,63943,34943
32676,63935,35141
32832,63932,34949
32888,63919,35165
32836,63855,35064
32708,63879,35206
32576,63855,34960
32444,63909,35198
32424,63975,35014
32516,63958,35225
32521,63959,34941
32548,63942,35223
32600,63911,35111
32519,63901,35216
32180,63911,35207
31820,63935,35146
31525,63932,35287
31224,63964,35024
31088,63975,35237
31087,63964,35118
31048,63965,35238
31072,63959,34932
31376,63943,35256
31901,63940,35117
32791,63956,35245
33904,63964,35148
35216,63981,35177
36344,64028,35189
37260,64039,34956
37956,64036,35150
38116,64036,34964
37908,64024,35108
37852,63959,35045
38000,64004,35129
37880,64007,35060
37544,64004,34967
36986,63984,35029
36300,64028,34916
35628,64036,35004
35016,64007,34924
34380,64007,35012
33856,63983,34741
33616,63953,35012
33300,63959,34932
32912,63960,34713
32545,63966,34949
32256,63973,34892
31956,64007,34665
31836,64007,34890
31812,63965,34860
31856,63909,34623
31896,63879,34892
32024,63965,34866
32020,63967,34757
31920,63955,34487
31836,63960,34802
31792,63973,34708
31656,63997,34791
31668,63999,34711
31792,63998,34685
31872,63983,34735
31912,63980,34399
32084,63871,34718
32085,63943,34388
32028,63943,34676
31916,63903,34624
31840,63879,34480
31700,63932,34585
31696,63964,34618
31808,63983,34252
31896,63972,34564
31957,63967,34439
32112,63925,34545
32192,63920,34372
32088,63942,34591
32000,63935,34363
31932,63956,34549
31814,63949,34404
31761,63967,34580
31868,63967,34464
31964,63975,34551
32044,63964,34516
32213,63929,34394
32240,63879,34508
32161,63869,34373
32064,63871,34492
32008,63879,34348
31908,63973,34463
31896,63975,34389
32016,63968,34412
32048,63975,34344
32066,63964,34005
32221,63934,34281
32264,63863,34063
32212,63935,34198
32136,63934,34098
32084,63879,34106
31909,63972,34132
31868,63983,33956
32002,63959,33994
32100,63879,33964
32197,63934,33769
32372,63893,33916
32414,63869,33831
32336,63879,33700
32237,63913,33741
32184,63928,33511
32064,63973,33644
32033,63879,33460
32124,63975,33532
32224,63901,33484
32332,63936,33451
32554,63916,33167
32592,63933,33357
32505,63925,33170
32388,63879,33252
32356,63943,32994
32244,63959,33196
32264,63964,32951
32372,63980,33100
32481,63972,32908
32577,63877,33003
32780,63935,32858
32844,63916,32956
32800,63943,32909
32736,63879,32770
32692,63959,32860
32552,63972,32780
32540,63900,32764
32660,63967,32771
32744,63967,32648
32800,63965,32716
32981,63940,32637
33037,63924,32557
32968,63940,32580
32932,63949,32620
32917,63959,32524
32780,63980,32423
32740,63998,32480
32836,63991,32343
32912,63938,32413
32952,63932,32337
33100,63836,32425
33180,63869,32341
33032,63909,32388
32950,63945,32298
32868,63879,32217
32716,63983,32261
32704,63988,31997
32824,63980,32218
32884,63980,31844
32920,63983,32185
33077,63935,31802
33089,63927,32118
33000,63943,32058
32928,63961,31969
32858,63967,32045
32724,63991,32017
32708,63900,31664
32820,63879,31973
32904,63916,31880
32908,63972,31949
33046,63941,31916
33072,63924,31684
32956,63909,31946
32928,63942,31907
32876,63965,31717
32704,63983,31725
32676,63969,31847
32792,63997,31724
32872,63879,31821
32936,63964,31591
33104,63926,31797
33152,63854,31729
33085,63916,31405
32970,63943,31756
32920,63935,31525
32760,63980,31698
32704,63916,31541
32797,63972,31689
32868,63868,31375
32958,63950,31669
33117,63916,31519
33148,63928,31624
33052,63917,31641
32954,63935,31500
32880,63942,31590
32756,63968,31631
32736,63967,31618
32816,63956,31379
32884,63959,31620
32940,63948,31605
33096,63863,31380
33144,63855,31684
33056,63909,31564
32948,63942,31658
32860,63942,31640
32704,63949,31321
32673,63958,31664
32772,63876,31533
32852,63879,31732
32934,63940,31699
33084,63863,31751
33124,63869,31737
33020,63911,31426
32944,63916,31819
32876,63828,31463
32696,63956,31825
32628,63973,31892
32708,63861,31816
32772,63951,31897
32832,63936,31832
32993,63900,31956
33031,63893,31810
32937,63911,32033
32816,63932,32007
32764,63847,31954
32600,63868,32109
32574,63879,31831
32644,63861,32164
32720,63952,32118
32773,63943,31981
32908,63908,32157
32958,63909,31988
32840,63916,32214
32720,63919,32231
32676,63932,32169
32508,63964,32294
32517,63965,32113
32632,63869,32332
32756,63853,32367
32772,63847,32172
32936,63836,32401
33008,63903,32303
32888,63909,32391
32817,63815,32432
32760,63920,32385
32588,63949,32111
32552,63943,32417
32632,63954,32418
32688,63934,32373
32749,63916,32446
32917,63901,32396
32972,63908,32472
32913,63903,32172
32772,63924,32509
32737,63920,32532
32600,63967,32452
32572,63966,32600
32641,63853,32260
32717,63948,32636
32768,63943,32386
32946,63901,32685
32996,63879,32582
32892,63909,32703
32768,63831,32748
32732,63847,32695
32588,63951,32801
32545,63943,32804
32661,63951,32839
32724,63847,32848
32732,63940,32928
32920,63840,32823
32949,63909,32910
32864,63815,32679
32796,63911,33025
32756,63863,32924
32612,63951,33049
32592,63964,32992
32688,63942,33081
32704,63941,33137
32748,63926,33081
32916,63903,33152
32960,63893,33092
32892,63892,33157
32796,63909,33251
32725,63935,33020
32560,63916,33317
32572,63879,33052
32645,63864,33324
32716,63940,33386
32724,63879,33119
32864,63903,33415
32946,63900,33165
32828,63903,33461
32724,63912,33309
32669,63825,33477
32489,63853,33404
32492,63924,33488
32632,63940,33508
32704,63956,33364
32764,63832,33603
32920,63911,33468
33016,63828,33572
32920,63903,33668
32836,63917,33480
32733,63918,33621
32544,63959,33569
32420,63966,33671
32509,63957,33573
32588,63871,33734
32656,63861,33693
32860,63917,33629
32928,63901,33708
32840,63911,33738
32752,63924,33741
32656,63945,33799
32492,63917,33668
32495,63969,33780
32622,63951,33506
32676,63869,33844
32744,63951,33732
32908,63916,33836
32970,63924,33866
32900,63852,33862
32760,63932,33895
32664,63935,33799
32500,63972,33945
32500,63981,33895
32608,63975,33639
32698,63956,33990
32772,63972,33932
32969,63932,33920
33044,63828,33953
33012,63916,33911
32952,63943,33992
32884,63967,33756
32676,63983,34013
32612,63989,33813
32709,63973,34037
32776,63983,33732
32772,63861,34054
32936,63932,33991
32992,63921,33983
32914,63916,34161
32858,63940,34112
32821,63959,34135
32668,63879,34137
32660,63909,33916
32773,63911,34180
32880,63977,33916
32956,63969,34172
33112,63933,34116
33149,63924,34196
33060,63911,34214
32952,63927,33958
32869,63935,34287
32728,63916,34245
32680,63996,34020
32753,63965,34276
32860,63972,34096
32906,63967,34288
33061,63945,34274
33088,63927,34236
33028,63942,34305
32980,63943,34231
32897,63967,34369
32756,63901,34265
32736,63948,34388
32852,63983,34292
32901,63988,34232
32886,63983,34374
32936,63940,34146
32820,63957,34372
32517,63876,34143
32160,63951,34434
31860,63972,34140
31549,63998,34465
31412,64001,34412
31456,63916,34396
31412,64007,34289
31401,63991,34404
31612,63975,34405
32056,63964,34140
32864,63967,34482
33936,64007,34452
35176,64036,34368
36281,64068,34308
37164,64036,34434
37936,64073,34309
38128,64101,34361
37928,64007,34421
37868,64062,34439
37992,64052,34437
37913,64060,34220
37668,64044,34463
37176,64067,34500
36512,64090,34351
35896,64075,34500
35284,64068,34474
34668,64076,34159
34148,64086,34552
33864,64033,34439
33544,64031,34585
33197,64044,34541
32848,63951,34528
32548,64060,34576
32252,64080,34278
32116,64088,34591
32132,64087,34605
32173,64071,34552
32172,64007,34640
32316,64039,34593
32332,64030,34679
32249,64031,34616
32160,63959,34741
32076,63965,34555
31904,64039,34733
31876,64096,34625
31972,64084,34756
32048,64057,34609
32104,64071,34695
32265,63965,34469
32340,64039,34767
32212,64007,34608
32132,64055,34724
32037,64070,34616
31900,64007,34759
31876,64103,34744
31984,64095,34764
32070,64100,34597
32112,64071,34752
32284,64071,34742
32308,64045,34680
32276,64061,34801
32212,63983,34520
32188,64077,34776
32060,64047,34615
32028,64127,34816
32100,64119,34805
32216,64031,34793
32280,64095,34808
32468,64070,34644
32512,64066,34848
32436,64065,34701
32348,64071,34836
32296,64007,34761
32124,64135,34816
32108,64135,34775
32192,64135,34732
32232,64116,34735
32280,64080,34727
32448,64061,34401
32494,64068,34665
32425,64037,34647
32372,64082,34588
32376,64111,34588
32240,64127,34626
32184,64135,34527
32268,64135,34231
32352,64151,34485
32420,64128,34226
32624,64116,34437
32696,64119,34284
32632,64057,34378
32544,64040,34276
32472,64078,33976
32324,64174,34207
32264,64196,34104
32380,64180,34018
32492,64175,34076
32566,64175,33895
32760,64124,34039
32856,64132,33786
32764,64156,33940
32696,64167,33873
32700,64183,33793
32560,64209,33836
32518,64189,33576
32644,64135,33764
32700,64149,33661
32744,64207,33311
32920,64180,33606
33008,64080,33425
32996,64102,33532
32960,64200,33525
32928,64204,33385
32812,64245,33082
32792,64249,33382
32908,64135,33300
33028,64240,33062
33112,64239,33297
33236,64207,33263
33268,64134,32901
33216,64220,33232
33129,64159,33159
33080,64167,33031
32948,64255,33095
32969,64191,32990
33116,64197,33048
33186,64276,32996
33264,64263,32868
33376,64236,32943
33428,64231,32868
33332,64188,32918
33254,64176,32832
33180,64204,32719
32997,64228,32840
32956,64293,32688
33004,64239,32745
33056,64319,32720
33116,64308,32528
33264,64263,32647
33348,64263,32607
33218,64284,32587
33108,64303,32548
33076,64308,32276
32901,64353,32524
32865,64344,32456
32944,64335,32210
32996,64320,32487
32997,64323,32393
33104,64303,32340
33152,64292,32336
33068,64300,32111
33012,64314,32292
33016,64316,32233
32896,64372,32178
32860,64375,32241
32981,64376,32201
33088,64284,32146
33172,64263,32178
33344,64337,31876
33372,64327,32190
33276,64293,32183
33180,64320,32133
33124,64357,31949
32976,64391,32172
32928,64375,32103
33020,64327,31940
33089,64391,31733
33128,64391,32083
33326,64348,32055
33404,64357,31816
33312,64375,32103
33184,64365,32025
33116,64373,31996
32952,64420,31901
32900,64423,32014
32960,64412,31935
33048,64391,31939
33076,64389,32021
33240,64383,31989
33344,64364,31807
33252,64383,32087
33144,64391,32037
33080,64423,31751
32960,64445,32096
32964,64455,32054
33080,64428,32041
33152,64391,31829
33169,64431,32128
33300,64391,32084
33313,64405,32057
33232,64404,32148
33156,64423,31817
33108,64415,32216
32960,64476,32108
32888,64479,32183
32940,64466,32228
33013,64479,31943
33044,64470,32348
33220,64428,32217
33262,64445,32390
33158,64372,32352
33066,64429,32295
33004,64391,32460
32884,64436,32430
32808,64455,32229
32868,64508,32478
32940,64519,32502
32992,64505,32444
33172,64471,32572
33216,64458,32501
33120,64472,32660
32997,64502,32608
32960,64516,32327
32820,64465,32652
32768,64508,32572
32860,64519,32719
32960,64551,32698
32980,64519,32487
33096,64503,32791
33156,64479,32744
33088,64503,32714
33004,64519,32816
32964,64541,32728
32816,64570,32720
32784,64598,32829
32864,64599,32686
32901,64582,32885
32957,64576,32855
33132,64492,32595
33199,64549,32952
33116,64508,32875
33020,64559,32991
32966,64566,32952
32846,64603,32741
32836,64603,33004
32950,64596,33025
33060,64580,32737
33110,64569,33153
33248,64549,33094
33268,64551,32852
33176,64548,33125
33082,64588,33173
33012,64583,33117
32841,64631,33231
32792,64629,33258
32873,64640,33060
32902,64636,33337
32942,64639,33276
33080,64623,33421
33096,64511,33341
33004,64571,33420
32928,64620,33444
32916,64629,33392
32742,64679,33542
32676,64660,33413
32766,64662,33552
32849,64676,33463
32921,64647,33639
33092,64581,33560
33144,64623,33716
33024,64644,33614
32936,64647,33740
32906,64647,33759
32750,64703,33636
32696,64708,33848
32804,64701,33842
32860,64701,33856
32916,64695,33860
33072,64592,33985
33124,64676,33924
33076,64668,34015
33004,64668,33985
32920,64684,33945
32744,64717,34048
32705,64740,33732
32784,64727,34128
32864,64724,34106
32909,64714,33937
33038,64693,34113
33100,64703,34181
33016,64709,34204
32948,64689,33961
32886,64685,34265
32736,64769,34261
32652,64775,34105
32704,64752,34281
32780,64756,34324
32832,64743,34340
33000,64736,34192
33088,64743,34360
33025,64748,34430
32956,64756,34380
32880,64756,34423
32712,64775,34467
32616,64792,34375
32694,64774,34420
32784,64792,34524
32796,64774,34439
32992,64775,34433
33064,64767,34591
32984,64775,34468
32872,64775,34239
32852,64815,34580
32720,64767,34543
32692,64825,34547
32804,64775,34641
32856,64815,34579
32884,64775,34578
33044,64743,34657
33136,64751,34668
33012,64813,34708
32925,64833,34764
32860,64839,34717
32736,64871,34468
32684,64879,34838
32804,64877,34800
32880,64887,34752
32901,64879,34721
33072,64801,34812
33172,64845,34775
33104,64841,34752
33000,64839,34856
32948,64829,34877
32836,64838,34697
32772,64839,34905
32844,64839,34961
32908,64824,34857
32937,64903,34616
33084,64860,35037
33148,64857,34999
33100,64868,34823
32996,64893,34926
32946,64900,35028
32809,64925,35033
32788,64934,34874
32892,64989,35046
32944,64934,35076
32992,64932,35093
33132,64834,34890
33189,64815,35180
33080,64917,35145
32976,64927,34992
32896,64943,35185
32724,64978,35164
32742,64900,34913
32880,64884,35207
32948,64892,35196
32976,64967,35196
33108,64917,35160
33148,64927,35196
33080,64940,35295
33004,64903,35143
32924,64933,35265
32800,65005,35130
32756,65012,35276
32828,65016,35309
32832,65005,35009
32740,65180,35372
32748,64957,35065
32608,64941,35367
32272,64959,35140
31954,65030,35385
31724,64983,35328
31476,65028,35389
31329,65052,35406
31260,65062,35482
31273,64965,35363
31396,64961,35501
31884,64932,35464
32736,64941,35313
33772,64956,35536
34973,65068,35484
36252,65090,35525
37160,65263,35516
37900,65191,35412
38180,65205,35527
38032,65188,35374
37764,65189,35586
37924,65140,35452
38044,65031,35612
37884,65079,35568
37396,65116,35612
36832,65153,35688
36094,65180,35428
35396,65228,35700
34748,65199,35678
34252,65191,35375
33888,65159,35733
33668,65136,35773
33381,65121,35551
33032,65128,35839
32693,65159,35816
32440,65159,35748
32144,65247,35926
32028,65237,35672
32088,65228,35971
32128,65095,35908
32164,65076,35893
32322,65175,36004
32372,65156,36021
32272,65176,35797
32152,65239,36012
32056,65159,36049
31900,65229,35985
31828,65225,36139
31948,65380,36084
32044,65260,36076
32056,65223,36084
32192,65173,35812
32241,65159,36144
32176,65189,35961
32112,65223,36124
32068,65221,36097
31944,65271,36024
31900,65159,36116
31952,65145,36077
32029,65149,36044
32096,65180,36125
