ECG,EDA,RR
31432,13669,33280
32220,13650,33052
32613,13653,33034
32660,13656,32988
32668,13759,33061
32701,13807,33013
32884,13700,33003
33056,13700,32945
32988,13688,32976
32961,13684,33060
32576,13683,32929
32012,13677,32994
31529,13654,32629
31540,13662,32813
31860,13738,32940
32390,13755,32741
32476,13755,32804
32412,13740,32897
32284,13723,32530
32084,13714,32647
31852,13689,32672
31756,13684,32744
31736,13676,32861
31548,13713,32710
31366,13700,32677
32121,13702,32664
33080,13726,32691
33760,13708,32519
34124,13694,32644
34000,13680,32750
33772,13742,32574
33648,13698,32623
33260,13666,32623
32728,13657,32628
32324,13768,32628
32420,13782,32582
33096,13770,32481
32952,13739,32581
32368,13717,32331
32016,13680,32328
32200,13663,32528
32452,13730,32381
32608,13711,32403
32808,13684,32452
33432,13687,32305
33724,13703,32368
32588,13728,32151
32208,13730,32257
32268,13695,32350
32552,13753,32263
32641,13719,32280
32260,13679,32156
31732,13673,32256
31608,13668,31972
31885,13676,32036
32224,13685,32160
33096,13693,32109
33888,13701,31985
33444,13694,32061
31892,13781,31781
31182,13754,31880
31664,13651,31849
32878,13650,31876
33756,13658,31961
33788,13668,31863
33689,13684,31798
33508,13699,31713
33704,13780,31543
33900,13735,31700
33820,13707,31615
33384,13680,31729
32748,13655,31508
31904,13748,31349
31568,13726,31525
31952,13719,31536
32712,13738,31350
33344,13771,31420
33848,13768,31317
33596,13727,31444
33005,13716,31216
32404,13722,31228
31992,13735,31069
31752,13654,31201
31824,13652,31116
32160,13665,31107
32764,13686,30810
33268,13690,30928
33164,13697,30916
32584,13693,30672
32005,13682,30756
31928,13665,30740
32288,13653,30479
32324,13644,30564
32372,13657,30612
32436,13668,30340
32881,13791,30496
33416,13692,30548
33948,13701,30293
34260,13694,30344
34030,13757,30342
33384,13708,30288
32668,13670,30085
32124,13669,30133
32420,13696,30130
32572,13730,29820
32864,13718,29959
33256,13713,29822
33916,13730,29943
33916,13708,29812
33748,13679,29626
33392,13663,29676
33504,13657,29484
33744,13648,29476
33313,13654,29493
32572,13668,29364
31800,13680,29150
31596,13698,29240
32192,13781,29358
32920,13779,29025
33652,13680,29044
33774,13663,28968
32792,13703,28820
31356,13680,28881
30872,13688,28862
31612,13735,28881
32676,13774,28928
33144,13766,28604
33420,13780,28646
33581,13798,28560
33884,13677,28618
33708,13732,28628
33216,13713,28423
32756,13702,28512
32605,13677,28345
32900,13695,28308
33252,13701,28372
33559,13742,28261
33088,13753,28268
32420,13740,28223
32448,13716,28236
33152,13689,28284
33800,13677,27977
33190,13676,28134
32608,13669,28044
32746,13693,28052
33576,13709,28024
33380,13716,28029
33544,13744,27900
33476,13760,27968
33024,13776,27845
32464,13764,27915
31920,13768,27828
31800,13712,27913
32181,13708,27768
33029,13708,27764
33872,13728,27838
34513,13732,27928
34968,13719,27666
35000,13713,27762
34440,13694,27830
33716,13684,27756
32840,13702,27804
32144,13690,27527
31964,13719,27568
32048,13720,27655
32301,13735,27652
32614,13730,27596
32608,13738,27450
32316,13720,27508
31828,13687,27584
31552,13672,27560
32116,13678,27487
32704,13663,27321
33248,13681,27380
33620,13716,27352
33840,13702,27461
33544,13712,27496
33098,13720,27284
32412,13685,27212
31648,13677,27384
31533,13712,27287
31976,13668,27428
32612,13655,27227
33008,13650,27121
32797,13764,27289
32804,13756,27241
33060,13749,27230
33540,13732,27054
33312,13706,27132
32612,13699,27237
32044,13666,27004
32184,13639,27184
32272,13713,27079
32852,13696,27207
33412,13681,27024
33804,13699,26949
33832,13695,27127
34016,13682,27007
33868,13677,27178
33108,13672,26968
32264,13721,26911
31924,13669,27088
31608,13676,27172
31944,13665,26954
32528,13668,26898
33116,13668,27054
33476,13684,27023
33500,13771,26974
33344,13752,27040
33176,13737,26887
32684,13714,27014
32440,13667,26941
32008,13664,27020
31792,13668,26851
32000,13678,26949
32480,13692,26900
32745,13688,26992
33040,13686,26996
33200,13748,26753
33412,13687,26693
33652,13668,26836
33628,13636,26836
33380,13706,26800
33072,13713,26772
33440,13684,26774
34360,13685,26615
34336,13697,26718
33068,13683,26601
31458,13674,26732
30606,13716,26618
30653,13674,26437
31236,13655,26593
32026,13637,26456
32468,13645,26631
32396,13652,26604
32752,13729,26385
33272,13702,26293
33753,13695,26445
33340,13668,26400
32885,13779,26294
32764,13683,26322
33016,13649,26419
33234,13644,26161
33236,13656,26277
33036,13668,26175
33065,13680,26261
33228,13701,26060
33572,13677,26159
33692,13669,26014
33662,13656,26036
33488,13637,25886
33012,13689,25915
32569,13645,25998
32268,13638,25850
32661,13640,25986
33184,13664,25756
33484,13730,25688
33520,13695,25820
33472,13687,25780
33312,13649,25676
32880,13636,25696
32424,13697,25518
31909,13654,25652
31780,13650,25583
32132,13639,25472
32600,13741,25543
33152,13700,25412
33528,13698,25325
33468,13662,25433
33492,13649,25380
33304,13633,25196
33536,13697,25312
33352,13664,25165
32968,13650,25284
32169,13658,25044
31744,13660,25148
31804,13664,25034
32292,13661,25111
32736,13730,24887
32916,13660,24836
32712,13629,24804
32289,13707,24932
32109,13664,24836
32308,13634,24888
32468,13660,24648
32600,13663,24741
33012,13666,24645
33364,13737,24622
33140,13721,24533
32576,13687,24660
32229,13643,24407
32120,13634,24522
31872,13620,24418
31872,13661,24492
32140,13661,24263
32509,13648,24377
33184,13660,24312
34012,13716,24318
34097,13675,24095
33792,13669,24098
33284,13631,24181
32805,13613,24207
32052,13613,24042
31472,13690,23966
31332,13671,24061
31176,13667,24090
31212,13681,23852
31236,13663,23984
31432,13645,23988
32160,13630,23781
32740,13613,23908
33080,13603,23729
33132,13605,23814
33156,13617,23695
33304,13623,23697
34008,13636,23638
34256,13661,23761
33824,13651,23824
33206,13643,23619
33312,13624,23693
33268,13611,23584
32868,13607,23735
32068,13597,23540
31588,13689,23696
32124,13676,23706
32910,13679,23687
33472,13684,23620
33942,13668,23527
33704,13663,23676
33376,13629,23589
33004,13610,23701
32660,13710,23517
32372,13633,23668
32288,13620,23577
32544,13625,23718
33256,13628,23512
33476,13641,23695
33684,13720,23716
33662,13705,23552
33557,13687,23716
33544,13639,23639
33224,13607,23695
32684,13595,23581
32564,13604,23751
32933,13684,23662
33244,13701,23647
33308,13711,23773
33264,13709,23680
33428,13676,23752
33625,13640,23687
33669,13616,23810
33352,13606,23711
33016,13612,23829
32840,13608,23748
32824,13603,23911
33016,13701,23700
33548,13635,23917
34036,13708,23862
34348,13662,23730
33800,13632,23890
32724,13618,23860
31408,13581,23789
31028,13584,23908
31428,13595,23805
31677,13605,23957
31572,13617,23744
31364,13632,23910
31193,13693,23844
31112,13643,23960
31038,13631,23772
30628,13606,23904
30484,13601,23876
30168,13602,23753
30192,13590,23906
30632,13598,23881
31452,13715,23948
32800,13693,23732
34620,13699,23861
35796,13679,23822
36512,13626,23852
36744,13609,23696
36368,13566,23842
35488,13567,23784
36101,13644,23696
36893,13636,23797
37940,13666,23773
38860,13669,23601
39684,13640,23772
40444,13633,23665
40676,13608,23692
40116,13585,23599
39288,13559,23732
38892,13688,23608
39596,13650,23699
40204,13610,23548
39744,13629,23693
38812,13624,23592
38704,13607,23727
38560,13732,23521
37920,13669,23551
36904,13628,23556
35980,13599,23637
35392,13604,23498
34904,13604,23649
34476,13601,23548
34456,13604,23693
34485,13604,23489
34120,13604,23597
33496,13719,23691
32753,13646,23476
32040,13585,23503
31581,13562,23634
31220,13559,23621
30952,13561,23580
31016,13650,23665
31470,13631,23448
31920,13614,23449
32010,13622,23599
31378,13613,23548
30630,13582,23462
30380,13568,23447
30544,13616,23532
30532,13609,23552
30352,13592,23388
30160,13603,23524
30304,13613,23577
30576,13630,23367
31012,13624,23505
31500,13600,23396
31444,13590,23512
30856,13559,23369
30382,13545,23398
30248,13622,23441
30304,13609,23272
30660,13597,23414
30913,13602,23378
31185,13605,23306
30968,13594,23374
30300,13589,23207
30052,13638,23237
30264,13607,23311
31368,13590,23364
32200,13566,23145
32337,13575,23299
32428,13572,23306
32444,13597,23178
32396,13586,23315
32172,13685,23141
31812,13652,23160
31384,13637,23145
31108,13585,23304
31200,13562,23089
30788,13553,23245
30828,13567,23214
31132,13571,23273
31936,13575,23044
32496,13584,23093
32584,13584,23209
32344,13575,23172
31984,13598,23243
31828,13558,23039
31716,13537,23080
31372,13534,23192
31085,13584,23087
31036,13575,23013
31352,13596,23166
31828,13606,23156
32200,13610,23049
32160,13589,23111
31944,13579,23180
31684,13548,22996
31917,13539,23145
31936,13540,23015
31846,13557,23034
31424,13572,23101
30736,13574,23079
30548,13569,23047
31085,13575,22914
31620,13564,23050
31860,13664,22945
31904,13610,22940
31646,13569,22885
31432,13572,22964
31484,13563,23018
31513,13580,22785
31256,13600,22930
31388,13588,22830
31789,13581,22871
32132,13577,22745
32196,13558,22844
32372,13529,22869
32268,13513,22663
32332,13520,22812
32208,13611,22769
32240,13588,22732
32084,13598,22661
32168,13590,22594
32996,13564,22637
33600,13553,22732
34008,13612,22748
34020,13590,22576
33086,13535,22584
31768,13537,22701
31676,13543,22729
32252,13548,22529
32647,13545,22594
32996,13551,22669
33036,13557,22724
32928,13542,22585
32464,13532,22551
32276,13510,22691
32661,13609,22493
32670,13624,22638
33417,13585,22535
33972,13545,22657
33844,13556,22505
33328,13550,22450
33192,13553,22580
33420,13603,22559
33312,13574,22577
32614,13542,22356
31764,13527,22539
31308,13523,22440
31560,13507,22503
32084,13516,22343
32784,13530,22479
33340,13540,22343
33620,13666,22397
33688,13529,22428
33496,13519,22440
33588,13503,22289
33316,13544,22336
32728,13506,22401
31704,13507,22167
30916,13511,22324
31284,13526,22351
32460,13606,22108
33364,13561,22289
33652,13548,22313
33288,13539,22112
33020,13521,22247
32772,13491,22139
32032,13498,22064
30956,13506,22225
30880,13509,22264
31724,13521,22040
32650,13596,22204
33881,13573,22228
34316,13540,22049
34080,13521,22150
33776,13515,22131
33104,13503,22185
31972,13496,22183
31108,13504,22100
30932,13517,22173
31268,13528,22033
31760,13550,22162
32525,13548,22007
32532,13536,22181
32176,13615,22176
31884,13513,22072
31668,13485,22117
31536,13491,22172
31880,13505,22202
32260,13520,22167
32538,13572,22164
32752,13580,22068
33036,13605,22092
33328,13590,21992
33300,13488,22159
33060,13508,22109
32220,13481,21977
31578,13484,22091
31440,13513,22088
31976,13527,22058
32556,13574,22088
32756,13592,21949
32524,13585,21910
32292,13574,21804
31916,13565,21978
31933,13543,21966
32396,13519,21770
32497,13525,21912
32332,13546,21809
32016,13479,21856
31764,13516,21709
31892,13534,21816
32884,13528,21668
33472,13565,21660
33248,13557,21548
32708,13537,21705
32400,13531,21683
32372,13540,21492
32597,13468,21614
32868,13476,21621
33180,13576,21436
33376,13551,21551
33420,13531,21553
33280,13519,21340
33294,13492,21452
33196,13473,21316
32772,13469,21312
32248,13453,21360
32396,13474,21361
32692,13471,21116
32964,13489,21269
33180,13495,21184
33222,13572,21247
32964,13556,21052
32776,13541,21089
32716,13483,21114
32764,13476,20944
32472,13477,21042
32301,13482,20955
32136,13490,20794
32148,13513,20954
32308,13551,20870
32596,13585,20911
32720,13591,20919
32424,13564,20725
32236,13454,20730
32040,13475,20657
31592,13466,20725
31456,13473,20648
31786,13500,20757
32332,13507,20686
32780,13541,20596
32524,13552,20666
31664,13534,20683
31120,13528,20593
31513,13539,20644
32320,13440,20508
33220,13455,20577
33932,13474,20484
33860,13477,20489
32880,13509,20400
31712,13532,20534
31392,13547,20468
31692,13479,20383
32116,13461,20469
32968,13440,20439
33076,13432,20276
32556,13528,20348
32400,13449,20349
32960,13458,20321
33744,13483,20399
34044,13499,20335
34048,13509,20356
33784,13492,20354
33180,13468,20139
32828,13445,20301
32504,13439,20316
32116,13456,20164
32432,13453,20199
32832,13480,20169
33000,13496,20188
33216,13502,20142
33708,13508,20008
33976,13490,20093
33724,13483,20114
33168,13473,19933
32720,13449,19964
32173,13460,20038
31892,13469,19832
32388,13479,19945
33020,13502,19912
33808,13511,19760
33916,13498,19778
33672,13484,19663
33292,13483,19795
33132,13458,19705
32777,13448,19749
32124,13448,19741
31456,13457,19594
31684,13482,19652
32188,13509,19532
32512,13526,19561
32744,13536,19545
32680,13503,19464
32444,13485,19501
32640,13457,19461
32885,13456,19497
32808,13446,19412
32812,13460,19418
33357,13477,19420
33576,13491,19319
33609,13509,19413
33413,13519,19348
33040,13514,19427
32812,13492,19355
32796,13453,19414
33160,13440,19204
33164,13459,19378
32884,13465,19333
32935,13480,19184
33169,13488,19349
33428,13505,19367
33940,13493,19247
33741,13484,19309
32700,13465,19284
31425,13454,19276
30750,13436,19308
31120,13446,19228
31876,13453,19365
32844,13475,19396
33397,13492,19291
33556,13487,19283
33604,13477,19269
33548,13466,19377
33120,13456,19369
32316,13440,19295
31905,13424,19324
31498,13497,19385
31708,13477,19344
32286,13497,19370
32848,13515,19335
33565,13521,19375
33940,13552,19244
33868,13569,19439
33504,13545,19474
33244,13513,19352
33000,13532,19381
32536,13497,19346
31872,13483,19409
31532,13477,19441
30928,13492,19509
31176,13489,19400
32232,13489,19420
33544,13475,19482
34404,13458,19383
34520,13434,19514
34184,13425,19546
33540,13425,19427
33400,13430,19452
33272,13452,19373
33004,13467,19513
32985,13545,19549
33140,13521,19381
33172,13489,19489
32920,13471,19496
32792,13440,19400
32792,13425,19482
33016,13515,19564
32833,13537,19401
32836,13473,19492
33312,13490,19586
33764,13476,19623
33800,13473,19508
33088,13461,19567
32384,13456,19623
32172,13493,19492
32320,13484,19621
32712,13500,19648
33136,13485,19558
33248,13469,19611
32901,13482,19582
32316,13493,19626
32192,13486,19718
32380,13493,19527
32745,13450,19636
33365,13428,19669
33628,13425,19580
33249,13429,19770
32700,13446,19813
32437,13476,19802
32544,13496,19816
33012,13493,19727
33392,13477,19757
33376,13466,19776
32772,13544,19745
32508,13502,19898
32072,13444,19830
31124,13453,19779
30592,13469,19868
30872,13465,19959
31636,13474,19933
32392,13480,19821
33768,13478,19936
34920,13469,20040
34828,13535,20104
34157,13501,19954
33216,13485,20096
32548,13470,20134
32316,13480,20087
32546,13488,20148
32920,13503,20235
33452,13498,20052
33968,13485,20253
33688,13493,20296
32760,13483,20148
32054,13453,20316
31636,13442,20358
31441,13441,20164
31692,13462,20357
32468,13476,20356
33176,13519,20420
33856,13541,20463
34208,13531,20338
33984,13548,20452
33688,13585,20374
33300,13580,20495
32580,13444,20476
32116,13563,20558
32300,13525,20484
32568,13506,20502
32888,13533,20612
32908,13545,20666
32992,13519,20466
33112,13501,20668
33360,13489,20673
33372,13469,20506
32936,13457,20696
32416,13459,20748
32064,13478,20644
32400,13476,20718
33138,13489,20778
33772,13502,20622
34048,13502,20672
33952,13577,20596
33616,13520,20697
33084,13490,20722
32604,13477,20685
32416,13487,20697
32616,13492,20725
32800,13491,20648
32032,13502,20837
31152,13513,20716
30428,13512,20850
30821,13501,20848
31796,13478,20794
32312,13562,20804
32662,13527,20752
32532,13529,20892
32448,13545,20866
32600,13538,20813
32892,13559,20939
33279,13565,20934
33756,13572,20930
33864,13563,20941
34012,13551,20808
33797,13528,20946
33516,13518,20809
33141,13530,20892
32780,13525,20851
32604,13527,20945
32764,13539,20885
33204,13557,20944
33388,13549,20877
32604,13557,21004
31732,13567,21017
31068,13558,21041
31128,13568,21112
31824,13554,20965
32772,13564,21156
33440,13544,21186
33188,13553,21068
32848,13557,21112
32904,13551,21076
33303,13553,21174
33564,13537,21122
33409,13520,21281
33056,13502,21217
32680,13493,21337
32466,13498,21323
32864,13600,21192
33210,13609,21382
33172,13575,21458
32932,13572,21380
32544,13563,21444
32328,13550,21348
32284,13518,21570
32089,13525,21565
32404,13512,21477
32388,13534,21639
32388,13530,21666
32564,13536,21736
33256,13551,21678
33241,13549,21643
32824,13540,21824
32736,13526,21700
32832,13509,21925
33017,13502,21884
32888,13508,22008
32856,13645,22052
32976,13632,21956
33300,13591,22132
33696,13581,22182
34068,13590,22075
34080,13578,22150
33600,13589,22140
33210,13552,22271
33008,13574,22168
32697,13577,22388
32436,13582,22469
32485,13587,22264
32496,13579,22334
33028,13582,22516
33396,13591,22498
33448,13563,22605
32848,13540,22466
32077,13525,22629
31646,13522,22516
31548,13524,22724
31688,13534,22804
31638,13552,22620
31636,13570,22824
32048,13657,22757
32508,13626,22810
32908,13580,22756
33128,13575,22960
33284,13540,22937
33036,13532,23083
32600,13540,22912
32448,13646,23099
32692,13631,23141
32928,13636,22980
33153,13641,23205
33324,13643,23125
33236,13644,23108
32829,13648,23289
32398,13551,23373
31664,13543,23215
31264,13664,23377
31416,13637,23441
31992,13599,23357
32652,13608,23310
33064,13604,23492
32452,13596,23399
31400,13703,23588
30804,13631,23417
30784,13583,23578
31496,13576,23568
32424,13560,23526
33342,13568,23529
33508,13652,23705
33280,13657,23694
33445,13633,23668
33260,13607,23807
32996,13606,23860
32765,13661,23734
32756,13652,23868
32292,13638,23772
31612,13636,23921
31704,13606,23988
32132,13595,23844
32928,13606,23988
33732,13623,23932
34108,13617,23906
34136,13608,24052
33840,13596,23967
33432,13675,24113
33009,13573,24124
32688,13577,24032
32716,13593,24140
33044,13605,24047
33272,13620,24196
33564,13628,24149
33464,13628,24148
32868,13622,24174
31948,13610,24133
31504,13590,24324
31748,13584,24292
32452,13710,24230
32804,13698,24263
33088,13664,24400
33380,13648,24382
33880,13659,24389
34558,13638,24388
34548,13628,24311
33824,13744,24485
32828,13672,24389
32048,13643,24532
31904,13627,24433
32372,13636,24402
33144,13626,24556
33872,13710,24552
34228,13668,24468
34320,13656,24618
33980,13641,24645
33652,13682,24487
33816,13638,24465
33912,13616,24624
33506,13638,24617
32648,13636,24579
32249,13641,24516
32780,13751,24524
33352,13722,24657
33728,13682,24599
33576,13662,24764
33080,13636,24551
32496,13732,24652
31904,13694,24718
31476,13692,24822
31596,13676,24611
32224,13674,24650
32916,13681,24802
33348,13676,24776
32924,13758,24814
32093,13728,24725
31360,13702,24721
30724,13678,24795
30176,13653,24740
29660,13654,24936
29117,13656,24724
28928,13678,24887
29498,13687,24804
31040,13691,24945
32664,13756,24760
33676,13730,24909
33692,13711,24956
33632,13673,24900
33576,13657,24778
34064,13650,24768
35276,13783,24929
36720,13716,24841
37980,13717,24964
38902,13732,24796
39776,13694,24836
40452,13788,24957
40524,13725,24933
40776,13690,24844
40924,13652,25026
40669,13661,24816
40260,13770,24964
39840,13765,24873
39408,13759,25005
38988,13735,25021
38876,13704,24812
38820,13695,24808
38964,13771,24982
39100,13696,24989
39136,13745,24995
38676,13693,24996
38180,13677,25001
37684,13788,25008
36852,13732,24964
36456,13728,25010
35924,13799,25127
34652,13735,24983
32688,13730,24975
31172,13699,25133
30755,13683,25166
30764,13736,25172
31214,13751,25283
31644,13730,25084
31780,13752,25114
31901,13749,25276
31664,13740,25191
31580,13823,25255
31568,13767,25359
31048,13718,25223
30148,13701,25220
29501,13703,25391
29529,13800,25440
30064,13776,25409
30573,13764,25316
31152,13780,25476
31188,13758,25487
31156,13746,25528
30936,13801,25484
31004,13746,25436
30880,13732,25594
30716,13713,25509
30688,13731,25704
30601,13743,25504
30732,13758,25536
31196,13764,25588
31916,13764,25728
32424,13833,25572
32336,13814,25734
31684,13789,25820
31104,13772,25688
30504,13741,25675
30292,13762,25849
30020,13758,25815
29752,13768,25953
30208,13776,25772
31192,13768,25945
32076,13762,25840
32270,13749,26053
32104,13736,25864
31757,13772,25897
31044,13749,25896
30460,13754,26088
30272,13765,26108
30456,13824,26130
31225,13803,26114
31936,13796,26191
32104,13892,26172
31608,13802,26105
31372,13772,26260
31372,13743,26279
31304,13748,26232
31393,13811,26297
31560,13797,26368
31768,13817,26207
32364,13804,26375
32564,13813,26276
32292,13806,26432
31628,13782,26266
31260,13775,26420
31312,13768,26436
31568,13785,26274
31684,13796,26453
31912,13807,26377
31852,13821,26422
31760,13827,26455
31964,13841,26528
32060,13844,26297
31717,13807,26476
31700,13801,26528
31360,13783,26348
30604,13790,26494
29952,13812,26551
29980,13841,26352
30528,13860,26514
31856,13895,26552
32713,13814,26533
32556,13806,26489
31680,13793,26640
31124,13776,26422
31152,13772,26581
31420,13779,26612
31860,13791,26424
32538,13932,26618
32669,13908,26562
32700,13917,26580
32920,13860,26520
32984,13845,26683
32972,13829,26716
32808,13805,26609
32582,13815,26732
32388,13815,26745
32388,13828,26877
32521,13844,26678
32580,13863,26842
32876,13867,26820
33192,13841,26964
33296,13829,26821
32948,13819,26801
32472,13805,26972
31448,13870,26885
30700,13871,26980
31360,13881,26876
32868,13868,27085
33844,13865,27016
33544,13877,27223
33092,13853,27052
32908,13841,27200
32496,13863,27108
32040,13881,27326
31716,13872,27140
31832,13876,27321
32240,13885,27249
32732,13880,27425
32856,13878,27244
33001,13884,27388
33496,13879,27492
33625,13878,27293
33256,13863,27402
32548,13833,27572
31864,13845,27371
31709,13844,27550
31988,13832,27559
32488,13855,27493
32684,13874,27646
32788,13874,27705
32998,13871,27576
33084,13878,27780
33036,13863,27594
33008,13831,27617
32556,13826,27724
32108,13892,27689
32124,13869,27752
32380,13889,27784
32584,13924,27840
32956,13925,27637
33292,13900,27821
33384,13893,27844
33032,13878,27815
32578,13848,27690
32073,13841,27872
31744,13841,27949
31852,13852,27764
32132,13868,27910
32377,13883,27940
33096,13980,27765
33568,13967,27885
33320,13943,28006
32492,13929,28031
32008,13890,27956
31646,13876,27941
31337,13864,28098
31428,13869,28015
32044,13896,28021
32484,13915,28180
32900,13920,28236
33157,13899,28141
33524,13883,28281
33724,13864,28247
33714,13858,28386
32924,13975,28232
32484,13924,28437
32954,13925,28335
33306,13932,28492
32878,13932,28343
32208,13940,28524
31190,13916,28689
31040,13908,28532
31488,13897,28688
31732,13878,28624
32044,13860,28852
31400,13862,28612
30948,13879,28850
31190,13967,28906
31236,13975,28841
32112,13958,29013
32492,13938,28989
33648,13940,29128
35582,13942,29245
34868,13940,29228
33144,13914,29521
31981,13896,29434
31808,13904,29671
32588,13925,29701
33112,13925,30028
33504,13924,29956
33568,13921,30236
33408,13946,30513
33136,13893,30581
32662,13886,30878
31672,13903,30791
31824,13897,31164
31816,13896,31536
32568,13924,31525
33328,13944,31872
33472,13946,32228
32816,13955,32489
32648,13938,32769
32456,13920,33131
32892,13886,33222
34356,13984,33712
34688,13965,34040
34312,13956,34284
33556,13953,34413
32024,13959,35030
31976,13954,35246
32296,13951,35676
32544,13921,35781
32780,14030,36359
32584,14009,36728
32192,13943,37103
31884,13928,37365
32105,13922,37908
32488,13932,38172
32616,13941,38240
32840,13943,38767
32964,13947,39132
33200,13990,39096
33188,13950,39736
32857,13924,40020
32944,13897,40476
33088,13906,40654
33428,13992,41004
33072,13968,41245
32270,13960,41751
31816,13972,41772
32396,13953,42141
33160,13933,42560
33444,13921,42277
33692,13909,42845
33284,13967,43259
33141,13937,43301
32932,13936,43724
32708,13960,43905
32888,13977,43820
33584,13976,44261
34046,13962,44441
33524,13944,44359
31660,13992,44900
30328,13942,45028
30164,13924,45001
30944,13932,45357
32172,13938,45530
33388,13968,45457
33641,13975,45831
33221,13969,45983
32690,13967,45900
32828,13949,46272
33222,13932,46372
33564,13924,46146
33032,13995,46612
32236,13963,46777
32164,13973,46564
32744,14000,46935
32884,14028,47088
33709,14028,47260
33924,14016,47261
33472,13994,47418
33012,13956,47156
32453,13935,47696
31524,13920,47711
31348,14040,47878
31912,14047,47864
32509,14019,47632
32872,14008,48166
33216,14013,48228
33092,14001,48132
33025,14011,48288
33572,13990,48400
34393,13983,48068
34144,13978,48502
33620,13962,48625
32656,13962,48216
32564,13980,48743
32772,13976,48708
32768,13980,48800
32628,13981,48647
32576,13965,48879
32660,14033,48772
33072,14016,48900
33132,14019,48624
32904,14001,48902
32852,14030,48894
33308,14076,48927
33844,13978,48898
34000,14087,48804
34048,14086,48897
33992,13969,48860
33524,13959,48860
33140,13951,48856
32772,13948,48368
32748,13946,48743
33448,13968,48736
34216,13997,48796
34720,14000,48744
34888,14019,48525
34141,13995,48734
32956,14005,48713
32136,14034,48672
31676,14020,48644
31464,14011,48720
31324,14009,48700
32097,14004,48612
32856,14000,48701
33440,14007,48665
33820,14010,48546
33500,14015,48671
32820,13988,48536
32200,13972,48512
32505,13946,48628
32572,14012,48556
32524,14017,48380
32692,14018,48512
33720,14007,48524
34368,14018,48184
34852,14003,48500
34980,13993,48500
34224,13982,48428
32508,13972,48417
31860,13964,48080
31424,13958,48381
31124,13977,48296
31753,13981,48416
33420,13984,48389
34400,14004,48407
34668,14009,48388
35052,14028,48417
35768,14007,48480
35884,13999,48509
34844,13990,48516
33764,13987,48505
33120,13986,48563
33336,13990,48587
33772,14041,48560
32980,14075,48613
32509,14097,48552
31664,14012,48631
32516,13997,48631
32837,13992,48631
32489,13978,48621
31100,13981,48687
31112,13997,48677
32156,13999,48241
32208,14016,48590
31832,14022,48672
32224,14023,48636
33032,14012,48679
32912,14005,48735
32646,13993,48285
32556,14003,48657
32386,14004,48604
32376,14010,48775
32672,14021,48781
32816,14037,48839
33040,14052,48858
33316,14053,48500
33304,14025,48957
33328,14020,48997
33088,14011,49044
32836,13986,49071
32728,13985,48691
32664,13996,49117
32756,14008,49180
33036,14064,49143
33284,14126,49360
33772,14115,49396
33892,14109,49345
33444,14095,49543
32476,14052,49620
31792,14017,49576
31664,14012,49775
31596,14017,49829
31671,14028,49565
32112,14029,49957
32616,14046,50073
33360,14048,50052
33813,14046,50232
33932,14108,50269
33824,14023,50391
33828,14007,50433
33384,14070,50508
33017,14061,50663
32568,14045,50644
32485,14084,50840
32816,14100,50949
32864,14079,50951
32536,14073,51118
32324,14078,51192
32164,14052,51297
32288,14025,51269
32737,14017,51486
32916,14014,51549
33272,14028,51516
33528,14130,51719
33436,14134,51687
33088,14125,51876
32852,14085,51812
32424,14071,51972
32216,14054,51967
32329,14044,52103
33216,14020,51798
34500,14023,52228
33724,14113,52300
33488,14125,52016
32924,14126,52308
32372,14125,52420
32420,14132,52366
31968,14124,52471
31788,14120,52536
31992,14082,52460
31470,14060,52494
30864,14055,52509
30500,14063,52576
31072,14072,52605
32452,14099,52573
33396,14091,52630
34220,14082,52564
34776,14061,52614
34588,14046,52676
33968,14030,52380
33364,14030,52648
33309,14158,52653
33236,14121,52500
33460,14138,52590
33956,14164,52572
34828,14160,52036
35880,14145,52487
35684,14092,52388
33824,14066,52380
31968,14064,51815
31188,14037,52316
31133,14047,52222
31580,14052,52041
32184,14073,52077
32372,14174,52052
33037,14172,51891
33416,14181,51776
32848,14066,51295
31940,14060,51646
31437,14045,51356
31233,14042,51462
31880,14047,51346
32708,14060,51324
32956,14076,51223
33194,14094,51053
33432,14103,50983
33326,14092,50356
33152,14082,50616
32708,14057,50580
32428,14049,50456
32804,14041,50332
33158,14052,50087
32960,14064,50093
33364,14204,49900
33904,14178,49696
33272,14171,49668
32885,14161,49509
32244,14169,49104
31886,14100,49141
31696,14121,49092
31668,14080,48839
31800,14069,48767
31704,14095,48586
31516,14100,48452
31276,14116,48317
32096,14121,48084
33608,14111,47929
34104,14100,47895
33129,14093,47687
31720,14083,47456
30860,14072,47417
31086,14069,47222
31984,14086,46852
33249,14112,46836
34032,14117,46606
34256,14136,46588
34180,14113,46436
33908,14090,46044
33668,14071,46087
33320,14070,45884
32840,14080,45810
32664,14081,45573
32348,14104,45081
32304,14109,45157
32568,14126,44807
33480,14125,44781
34021,14110,44608
34036,14091,44572
33596,14152,44348
33452,14128,43904
33172,14113,43964
33028,14114,43756
32852,14116,43648
33104,14127,43462
33468,14145,42840
33608,14133,42887
33492,14140,42488
33232,14131,42486
33244,14139,42534
33020,14130,41796
32468,14136,42056
32437,14151,41772
32832,14184,41671
33537,14191,41312
33892,14190,41212
33836,14182,41048
33380,14155,40894
32972,14157,40636
32192,14154,40590
31568,14078,40248
31136,14072,40188
31068,14082,39606
31612,14094,39601
31725,14109,39633
31448,14125,39223
30944,14129,39128
30784,14117,39046
30982,14113,38693
31504,14092,38576
31772,14084,38301
31828,14148,38312
32136,14132,37974
32648,14155,37881
33416,14164,37576
33352,14181,37524
32600,14177,37365
32208,14155,37062
32249,14141,37044
32544,14120,36871
32781,14114,36591
32928,14102,36484
33384,14119,36383
33412,14132,36327
33140,14147,36104
32520,14140,35935
32300,14143,35944
32064,14136,35612
31325,14124,35557
30864,14189,35287
30776,14173,35325
30613,14164,35148
31040,14169,34983
32133,14184,34801
32976,14180,34780
33424,14176,34513
34052,14175,34625
34452,14171,34303
34444,14146,34285
34132,14137,34236
33836,14106,33772
33376,14104,33840
33088,14107,33725
33153,14126,33711
33302,14136,33606
33356,14270,33396
33432,14158,33339
33597,14209,33327
33600,14170,33095
33492,14136,32785
33432,14120,32948
33180,14112,32841
32777,14201,32815
32992,14152,32540
33184,14159,32279
33316,14156,32436
34004,14255,32271
34476,14226,32190
34048,14164,31972
33132,14157,32036
32000,14121,31948
31560,14118,31724
32060,14196,31793
32728,14241,31444
33696,14220,31561
34452,14184,31456
34484,14192,31513
33468,14169,31244
32776,14156,31268
32308,14222,31078
31932,14172,31104
32156,14149,31092
32048,14156,30959
32072,14150,30808
32140,14167,30848
31880,14247,30716
31605,14199,30741
32064,14193,30729
32380,14160,30493
32884,14268,30553
33200,14189,30357
32948,14207,30452
32828,14163,30286
32636,14189,30341
32712,14199,30295
32536,14199,30120
32068,14196,30172
31621,14190,30124
31356,14180,29964
31172,14236,30035
30936,14219,29853
30756,14218,29965
30656,14223,29892
30892,14252,29792
31544,14277,29884
32392,14266,29678
33364,14276,29742
34116,14270,29788
34392,14258,29564
34797,14207,29652
35440,14200,29688
35392,14180,29485
35412,14196,29545
35372,14202,29432
36116,14210,29387
37649,14205,29467
39372,14204,29550
41032,14193,29302
41816,14187,29380
41760,14288,29457
41338,14260,29180
40716,14228,29319
40248,14240,29300
39892,14253,29290
39292,14285,29371
38788,14300,29247
38336,14279,29303
37856,14292,29182
37620,14250,29097
37812,14242,28965
37877,14250,29142
37772,14295,29015
36584,14182,29124
35348,14198,28858
34468,14213,28992
33836,14228,28940
33712,14237,29012
33492,14321,28996
33082,14213,28976
32424,14194,28864
31840,14193,28954
31520,14186,28888
31469,14196,28868
31448,14208,28833
31708,14229,28862
32092,14237,28903
31896,14242,28615
31696,14236,28679
31485,14217,28638
31086,14227,28607
30728,14210,28558
30532,14212,28642
30440,14219,28580
30704,14229,28617
31272,14243,28496
31872,14244,28648
32708,14249,28340
32609,14247,28572
32248,14255,28311
31884,14214,28364
31952,14198,28516
31616,14205,28218
30176,14216,28250
29156,14215,28216
28712,14245,28278
28996,14265,28162
29782,14266,28279
30477,14257,28152
30448,14245,28098
30109,14232,28165
29832,14229,28193
29748,14216,27945
29944,14220,28073
30312,14234,28176
30760,14252,27878
31320,14263,27994
31766,14263,28094
31560,14258,27864
30966,14247,27970
30218,14234,27965
29760,14221,27952
29404,14220,27980
29428,14233,27921
29926,14245,27921
30936,14259,27724
32088,14285,27844
33206,14294,27800
33348,14293,27856
32796,14281,27788
31984,14254,27694
31532,14249,27720
31300,14236,27783
31570,14240,27807
32041,14245,27817
32592,14267,27589
32684,14289,27693
32856,14295,27629
32480,14309,27740
31885,14292,27756
31668,14294,27758
31916,14301,27799
32320,14303,27546
31976,14319,27615
31556,14254,27601
31576,14269,27596
31796,14283,27596
32444,14294,27684
32812,14287,27679
32688,14278,27682
32028,14270,27712
31456,14270,27471
31085,14268,27559
31184,14258,27502
31840,14311,27528
32296,14383,27425
32224,14295,27678
32196,14308,27591
32216,14295,27582
32056,14292,27393
31957,14290,27448
31936,14295,27396
31920,14348,27420
31648,14257,27393
31584,14279,27454
31904,14300,27333
32248,14337,27388
32708,14379,27285
32640,14378,27399
32300,14281,27279
32004,14275,27325
31960,14272,27203
31760,14278,27276
31832,14287,27157
32383,14293,27269
33172,14324,27284
33409,14330,27047
33545,14345,27184
33180,14354,26988
32456,14294,27108
31677,14273,26943
31124,14264,27004
30984,14269,26928
31388,14269,27040
31988,14279,27076
32844,14301,26842
33548,14311,26861
33752,14316,26860
33896,14308,26936
33600,14303,26993
32868,14295,26896
32008,14297,26954
31432,14301,26704
31800,14308,26753
32516,14330,26695
33252,14353,26746
33644,14392,26668
33976,14321,26723
34140,14311,26596
34248,14302,26680
33940,14293,26572
33321,14284,26692
32848,14292,26597
32445,14282,26732
32452,14369,26668
32640,14352,26776
32836,14347,26533
33246,14356,26709
33324,14322,26568
32924,14382,26744
32500,14318,26565
32320,14301,26645
32036,14301,26689
31885,14286,26482
32544,14300,26580
33552,14400,26652
33633,14373,26417
33016,14367,26556
32485,14346,26624
31900,14336,26384
31240,14324,26508
30712,14308,26512
30436,14292,26348
30704,14298,26432
31172,14310,26385
31888,14327,26326
32964,14408,26467
33621,14384,26487
33668,14342,26407
33304,14315,26315
32732,14298,26476
32432,14372,26404
32104,14336,26519
32120,14318,26320
32340,14325,26471
32396,14340,26500
31772,14340,26332
31074,14340,26480
30932,14329,26385
31092,14319,26424
31312,14389,26337
31672,14356,26473
31588,14371,26509
31337,14372,26335
31784,14379,26492
32564,14396,26522
33260,14405,26405
33741,14384,26400
34024,14390,26357
33628,14362,26508
32970,14336,26570
32352,14322,26396
31614,14308,26486
31824,14309,26382
32352,14321,26344
33092,14342,26469
33784,14367,26479
34236,14347,26292
33852,14338,26456
32710,14325,26519
31792,14305,26252
31304,14299,26399
31356,14369,26404
31720,14383,26237
32225,14396,26300
32901,14360,26455
33505,14362,26232
33917,14372,26367
34004,14336,26282
33880,14324,26372
33492,14388,26157
33244,14346,26209
32820,14338,26219
32561,14334,26283
32588,14348,26181
32728,14353,26100
32792,14352,26214
32952,14353,26264
32724,14339,26024
32436,14327,26150
32228,14318,26214
32036,14364,25992
31776,14336,25968
31464,14332,26066
31621,14351,25993
31818,14369,25902
32293,14365,26020
33040,14352,25917
33381,14414,25985
33585,14417,25956
33736,14388,25868
33332,14339,25770
32892,14313,25740
32844,14317,25778
32956,14436,25798
32916,14410,25728
33200,14408,25732
33408,14390,25760
33648,14383,25792
33344,14372,25796
32700,14331,25628
32213,14315,25580
31924,14314,25708
31856,14322,25643
31792,14404,25580
31480,14401,25642
31248,14396,25550
31604,14385,25529
31940,14360,25428
32500,14347,25581
33216,14388,25450
33364,14359,25565
33152,14329,25373
33164,14336,25512
33372,14336,25389
33390,14354,25421
33476,14457,25303
33364,14412,25455
32880,14376,25321
32532,14347,25408
32384,14402,25444
32632,14357,25248
32992,14332,25409
32997,14334,25368
32852,14344,25272
32428,14417,25426
32360,14388,25249
32664,14381,25201
32836,14362,25326
32900,14444,25268
32692,14397,25166
32460,14335,25318
32288,14343,25281
32292,14334,25368
32480,14348,25141
32900,14480,25280
33012,14442,25252
33310,14390,25305
33972,14389,25082
34092,14378,25141
33572,14348,25228
32776,14327,25048
31740,14324,25188
31084,14336,25251
31220,14349,25014
32020,14360,25052
32892,14383,25009
33660,14388,25130
33880,14368,25009
33676,14351,25124
33080,14415,24938
32109,14378,24929
31592,14363,25085
31732,14357,24988
31992,14367,25109
32313,14372,24890
32072,14379,25053
31959,14487,24986
32400,14439,24945
33160,14377,24888
33728,14362,24951
33790,14370,24884
33632,14354,25034
33368,14354,24933
33572,14368,24982
33856,14387,25054
34024,14396,24944
33992,14409,25124
33905,14396,24915
33796,14377,25072
33708,14357,25003
33624,14354,24941
33377,14337,25103
33284,14344,25064
33376,14356,24965
33364,14473,24988
33484,14450,25146
33752,14423,25142
33741,14387,25069
33238,14377,25028
32721,14358,25199
32204,14359,25221
31889,14361,25060
31552,14361,25224
31444,14375,25218
31816,14389,25127
32480,14384,25250
33130,14493,25282
33732,14447,25196
33677,14407,25296
33000,14372,25160
32316,14389,25220
32196,14393,25243
32588,14412,25353
33117,14428,25358
33732,14439,25232
34008,14444,25397
33800,14457,25452
33416,14485,25408
33008,14365,25458
32530,14346,25439
32392,14338,25337
32316,14425,25316
32244,14346,25476
32584,14364,25545
32812,14376,25364
32668,14385,25384
32352,14467,25495
32260,14432,25518
32357,14423,25533
32320,14414,25391
32217,14416,25491
32189,14338,25452
32100,14342,25597
32367,14381,25458
32748,14403,25592
33136,14402,25486
33637,14398,25634
33880,14394,25621
33626,14383,25680
33356,14362,25693
33236,14357,25542
33210,14372,25758
33076,14412,25727
33056,14434,25760
33097,14488,25575
33340,14386,25650
33796,14472,25636
33432,14446,25754
32800,14423,25620
32384,14410,25719
32152,14406,25607
32001,14452,25683
32024,14350,25608
32182,14364,25713
32696,14386,25616
32904,14395,25772
33168,14395,25645
32984,14396,25731
32656,14373,25616
32356,14372,25742
32428,14362,25621
32744,14343,25780
33248,14351,25766
33364,14356,25633
33732,14375,25757
33892,14457,25833
34060,14452,25637
33824,14419,25672
33228,14404,25644
32706,14401,25681
32740,14380,25636
32805,14370,25783
33104,14375,25728
33452,14369,25794
33500,14397,25729
33364,14406,25646
33028,14391,25793
32584,14392,25749
32096,14373,25809
31824,14349,25861
31856,14329,25679
31892,14334,25800
31988,14340,25721
32053,14357,25836
32428,14369,25920
33152,14381,25714
33642,14379,25869
33944,14369,25797
33852,14353,25900
33652,14338,25956
33640,14327,25926
33206,14324,25980
32764,14336,25918
32548,14354,25987
32264,14393,25956
32160,14385,26036
32904,14375,25829
33380,14370,25953
33420,14358,25872
32676,14404,25996
32221,14373,26060
32088,14348,25868
32536,14362,26024
32649,14373,25969
33008,14388,25888
33116,14396,26017
33112,14382,26044
33060,14357,25913
32992,14349,25952
32672,14442,25938
32608,14322,26053
32668,14321,25912
32936,14339,26012
33528,14366,25912
33737,14406,26095
33700,14372,26066
33660,14377,26094
33585,14360,25922
33072,14349,25990
32756,14331,25915
32604,14321,26060
32409,14321,26136
32430,14334,25909
32376,14344,25945
32436,14371,25923
32468,14373,25984
32636,14385,25880
32742,14385,25941
32728,14358,25903
32556,14338,26030
32484,14324,26053
32364,14339,26052
31946,14342,26041
31744,14368,26043
31990,14383,26071
32656,14401,25901
33360,14396,26061
33684,14376,26100
33616,14365,25892
33584,14346,25978
33516,14331,26085
33157,14348,26008
32728,14356,26148
32404,14358,26098
32541,14377,26182
33056,14380,25974
33264,14402,26183
33400,14381,25991
33704,14392,26065
33804,14383,25993
33360,14362,26169
32556,14348,26140
32312,14338,26076
32756,14357,26196
32976,14390,26256
33297,14421,26214
33364,14439,26141
33017,14351,26177
32628,14410,26292
32576,14373,26062
32496,14367,26176
32430,14327,26176
32664,14332,26076
33160,14334,26252
33460,14348,26277
33724,14439,26257
33920,14359,26272
33820,14415,26100
33380,14358,26248
32757,14326,26159
32252,14308,26309
31992,14364,26119
31740,14340,26272
31706,14363,26333
31788,14376,26126
32048,14373,26152
32464,14375,26189
32737,14350,26274
32956,14333,26212
32632,14316,26144
32336,14388,26108
32196,14342,26244
32480,14334,26289
33207,14356,26202
33472,14363,26180
33492,14366,26301
33644,14351,26248
33584,14443,26330
33373,14367,26188
33036,14332,26250
32717,14326,26333
32516,14308,26379
32408,14317,26320
32556,14329,26325
32800,14461,26439
32876,14424,26451
32776,14415,26300
32328,14382,26460
30992,14355,26532
30524,14330,26353
31172,14326,26519
32520,14329,26519
33240,14330,26585
32718,14340,26599
31860,14369,26623
31896,14372,26611
32396,14381,26692
32832,14396,26713
33036,14395,26735
32832,14306,26599
32340,14301,26752
31668,14304,26797
31472,14308,26917
31596,14320,26860
31916,14343,26809
32268,14343,26905
32564,14348,26969
32564,14334,26942
32609,14319,27014
32772,14421,26807
32910,14297,26924
32024,14390,26852
31412,14311,26980
31673,14318,26968
32169,14337,27023
32704,14342,26962
33328,14342,27044
33572,14332,27113
33814,14319,26873
33544,14368,27053
33396,14357,27109
33292,14347,27060
33590,14352,27108
33944,14355,26934
33916,14355,27016
33920,14358,26881
33884,14369,27012
33772,14352,27054
33536,14343,27069
33140,14330,27005
32920,14320,26910
32784,14308,26948
32908,14323,26908
33112,14332,27032
33304,14388,26892
33393,14413,26943
33306,14408,27033
33213,14366,26821
33165,14334,26975
33136,14313,27041
32984,14309,26801
32712,14314,26976
32672,14311,27045
32692,14327,26861
32805,14342,26872
33108,14343,26838
33276,14342,26814
33108,14407,26932
32452,14397,26996
31664,14356,26792
31396,14330,26932
31650,14307,26976
32396,14323,26769
33164,14326,26845
33068,14336,26913
32320,14342,26821
32076,14358,26930
32468,14331,26901
32685,14318,26914
32832,14303,26848
32732,14295,26954
32656,14301,27005
32456,14332,26945
32004,14331,26922
31416,14364,26938
32080,14373,26966
32788,14371,26937
32840,14344,26912
32028,14333,26737
31440,14330,26925
31000,14361,26900
30600,14351,26956
30738,14356,26697
31404,14386,26809
32072,14397,26709
32940,14417,26716
33756,14455,26673
34304,14328,26772
34768,14323,26633
35328,14304,26693
35589,14294,26622
35512,14297,26721
35992,14317,26688
36816,14348,26684
38032,14370,26730
39401,14353,26472
40160,14350,26524
40336,14319,26569
40700,14309,26596
41064,14293,26478
40912,14292,26464
40364,14288,26419
39857,14303,26484
39816,14312,26532
40028,14334,26383
39920,14444,26493
39480,14371,26434
38505,14366,26488
37668,14339,26381
37044,14301,26534
36616,14295,26450
35876,14303,26428
34436,14319,26376
33280,14331,26564
33076,14338,26540
33408,14347,26631
33596,14349,26460
33184,14335,26593
32612,14390,26680
32184,14373,26494
31708,14353,26660
31216,14331,26565
31121,14330,26714
31196,14340,26524
31516,14372,26709
32040,14369,26656
32152,14367,26568
31740,14348,26722
31146,14336,26620
30768,14320,26644
30744,14309,26724
30808,14307,26607
31133,14320,26591
31628,14338,26730
31932,14356,26663
32248,14357,26588
32364,14367,26717
32064,14356,26740
31400,14330,26595
30916,14311,26745
30496,14311,26745
30208,14309,26605
30329,14391,26733
30496,14330,26754
31024,14428,26612
31928,14434,26696
32356,14428,26740
32428,14420,26780
32140,14400,26696
31532,14387,26818
30788,14377,26824
30252,14372,26733
30533,14381,26746
31438,14399,26851
31816,14420,26949
31512,14414,26729
30696,14395,26895
30288,14397,26796
30470,14391,26929
30896,14362,26974
31572,14357,26822
31668,14374,26948
30960,14401,26965
30444,14431,27012
29996,14359,27106
29992,14362,26869
30560,14357,26969
31480,14347,27115
32368,14333,26916
32604,14319,27028
32560,14312,26993
32408,14315,27127
31004,14409,27208
29900,14399,26985
30112,14401,27136
31132,14393,27214
32192,14380,26978
32524,14372,27055
32200,14357,27078
32012,14336,27183
31940,14317,27242
31753,14322,27036
31789,14334,27172
31968,14343,26996
32088,14369,27263
32180,14372,27031
32312,14366,27181
32216,14361,27254
32007,14345,27184
31748,14424,27268
31588,14384,27191
31464,14375,27223
31616,14399,27182
31820,14417,27245
32320,14417,27033
32732,14399,27067
32820,14403,27037
32877,14416,27099
32728,14388,27044
32496,14355,27196
32157,14340,27165
31704,14344,27109
31452,14354,27198
31560,14381,27118
31916,14385,27097
32260,14405,27223
32484,14396,27170
32376,14391,27158
32012,14356,27077
31800,14335,27230
31656,14329,27310
31620,14404,27255
31784,14405,27132
32089,14392,27297
32516,14388,27292
32972,14403,27252
33472,14405,27365
33588,14374,27332
33304,14356,27282
32736,14343,27408
32628,14340,27498
32632,14343,27303
32680,14375,27372
33148,14386,27321
33380,14402,27480
33260,14420,27596
32768,14403,27356
32116,14402,27546
31617,14367,27629
31508,14350,27508
31492,14415,27645
31920,14418,27673
32416,14415,27572
32804,14402,27718
33072,14406,27684
33472,14426,27806
33440,14405,27655
32900,14385,27862
32304,14377,27949
32592,14383,27751
33189,14373,27848
33376,14365,27966
33216,14366,27852
33752,14381,28071
34340,14472,28016
34300,14463,28129
33774,14487,28176
33432,14389,28148
33312,14373,28238
33120,14389,28164
32104,14376,28288
31316,14391,28276
31340,14419,28372
31736,14436,28481
31856,14468,28225
31952,14492,28353
31908,14469,28387
31752,14446,28320
31877,14414,28481
32133,14399,28548
32248,14375,28440
32172,14369,28591
32266,14377,28488
32480,14412,28496
32532,14433,28637
32464,14434,28733
32860,14447,28470
33020,14428,28658
32656,14412,28796
32112,14396,28712
31716,14409,28801
31704,14436,28756
31713,14422,28861
31552,14455,28613
31464,14469,28712
31808,14471,28738
32188,14451,28831
32316,14473,28924
31864,14465,28862
31480,14452,28986
31224,14437,28708
31454,14436,28858
31708,14435,28908
32056,14450,28969
32046,14468,29011
32116,14465,28964
32440,14437,28828
32686,14430,28983
33000,14424,28935
33272,14399,29069
33258,14389,29157
33021,14398,28921
33000,14391,29125
32981,14476,29084
32776,14486,29236
32680,14490,28989
33056,14465,29189
32636,14438,29212
32060,14419,29253
31680,14395,29160
31304,14388,29296
31518,14392,29417
32412,14403,29148
33132,14489,29396
33712,14473,29361
33752,14454,29537
33564,14458,29373
33088,14428,29527
32537,14413,29460
31868,14400,29648
31148,14476,29398
31044,14455,29636
31413,14421,29637
32244,14446,29598
32716,14439,29736
33317,14453,29735
33496,14513,29777
33600,14445,29684
33324,14426,29820
32972,14405,29792
32534,14476,29926
32356,14476,29764
32320,14489,29889
32574,14481,29909
32732,14484,29812
33116,14476,29725
33277,14461,29946
33044,14469,30032
32712,14441,29856
32508,14414,29757
32317,14405,29872
32380,14413,29924
32564,14427,29959
32580,14439,30057
32040,14457,29781
31792,14466,29849
32056,14462,29884
32600,14445,29994
32776,14446,30092
32776,14423,29885
32472,14425,30002
32092,14428,29988
31860,14431,29894
32004,14444,30004
32368,14464,29877
32776,14466,29935
33220,14468,30027
33592,14452,30024
33665,14439,29912
33436,14422,29996
33088,14425,30040
32724,14515,30053
32624,14517,30154
32848,14524,30056
33110,14548,30128
33240,14541,29879
33081,14527,29980
32758,14516,29988
32576,14511,30002
32336,14497,30017
31840,14512,30029
31444,14509,30031
31424,14532,30124
31835,14520,30164
32532,14516,30156
33528,14493,30116
33685,14501,30181
33532,14477,29996
33224,14452,30103
32816,14443,30300
32440,14497,30108
32492,14469,30223
32680,14472,30234
33156,14478,30115
33272,14485,30241
33156,14491,30273
32926,14485,30252
32661,14474,30254
32460,14518,30297
32288,14465,30073
32596,14468,30228
32802,14449,30260
32885,14462,30168
32968,14478,30260
33016,14564,30148
33100,14569,30159
33222,14563,30272
32816,14542,30374
32048,14520,30103
31994,14471,30286
32256,14465,30367
32284,14455,30200
32028,14535,30322
32032,14537,30209
32221,14575,30276
33136,14573,30364
33888,14536,30244
33876,14519,30468
33416,14487,30244
32864,14479,30416
32748,14461,30313
33056,14465,30373
33792,14473,30250
34156,14598,30457
34064,14583,30590
34148,14575,30340
34012,14546,30548
33560,14524,30688
33156,14532,30425
32684,14529,30596
32148,14515,30744
32140,14498,30496
32128,14505,30663
32345,14522,30800
32672,14514,30612
33080,14522,30725
33064,14516,30611
33624,14614,30757
33884,14560,30533
34116,14527,30709
33960,14484,30727
33436,14500,30681
33024,14516,30742
32797,14504,30693
32812,14526,30752
32879,14529,30708
33164,14524,30660
33068,14517,30719
32974,14498,30476
32505,14485,30660
31932,14481,30535
31540,14488,30629
31540,14501,30705
31942,14577,30480
32509,14583,30567
32998,14562,30420
32970,14559,30564
32858,14546,30268
32494,14508,30426
32520,14492,30439
32500,14489,30277
32436,14582,30373
32742,14583,30428
32864,14562,30215
32668,14557,30308
32505,14567,30164
32664,14541,30281
32916,14526,30068
33032,14517,30189
33177,14505,30040
33256,14492,30164
33276,14501,30084
33489,14609,29992
33806,14632,30088
33752,14625,30036
33244,14579,29914
32892,14609,30037
32843,14605,30089
33009,14565,29893
32989,14564,29946
32708,14569,30040
32628,14556,29759
33004,14561,29897
33456,14550,29996
33520,14565,29794
33472,14562,29908
33216,14550,29959
32953,14540,29775
32736,14596,29774
32776,14571,29876
32548,14537,29828
31882,14527,29964
31445,14548,29769
31964,14545,29864
32964,14553,29857
33848,14633,29882
34368,14575,29753
34100,14575,29884
33624,14527,29809
33350,14608,29941
33061,14564,29694
32768,14544,29892
32724,14532,30004
32993,14538,29816
33064,14563,29920
33420,14629,30036
33480,14575,29868
33221,14556,29966
32724,14542,29981
32408,14525,29948
32156,14522,30021
32042,14522,30063
32276,14540,30033
32788,14556,30148
32817,14644,29860
32764,14635,29928
32544,14603,29972
32127,14591,30078
31508,14567,29951
30996,14532,30100
31084,14520,29861
31840,14600,30070
33268,14569,30023
34656,14576,30044
34908,14569,29836
34600,14580,29967
34235,14653,30109
33792,14596,29818
33228,14566,29903
32812,14548,29959
32240,14551,29999
31644,14554,30052
31816,14557,29976
32968,14564,29940
33684,14577,29847
34213,14583,29924
33984,14667,30024
33224,14620,29746
32288,14588,29860
31648,14560,29908
31640,14569,29884
31536,14612,29793
31712,14560,29856
32164,14574,29837
32664,14620,29863
32876,14590,29864
33240,14584,29861
33444,14580,29933
33440,14569,29620
33308,14549,29817
33236,14651,29768
33124,14551,29829
33056,14560,29858
33048,14581,29841
33316,14595,29927
33385,14602,29670
32912,14597,29932
32500,14585,29670
32388,14645,29772
32624,14617,29744
32637,14578,29855
32408,14583,29918
32252,14584,29661
32488,14589,29820
32616,14619,29748
32812,14611,29885
33052,14604,29849
32972,14688,29762
32752,14632,29848
32324,14580,29786
31552,14577,29839
30924,14572,29653
30988,14583,29800
31392,14593,29807
31880,14612,29836
32460,14701,29712
33457,14680,29840
34080,14648,29713
34230,14634,29828
34228,14600,29764
33728,14585,29593
33392,14585,29776
33236,14598,29830
33504,14611,29772
33248,14636,29705
33036,14628,29646
32853,14615,29757
32957,14607,29849
32943,14588,29527
32952,14575,29620
32696,14574,29623
32428,14586,29724
32344,14593,29762
32448,14611,29584
32860,14624,29685
33349,14631,29650
33348,14621,29724
32640,14612,29741
32176,14596,29729
32521,14577,29808
33273,14573,29728
33508,14583,29776
33364,14599,29517
33304,14615,29655
33232,14626,29637
33046,14635,29743
32624,14705,29860
31988,14637,29644
31748,14617,29752
32108,14602,29812
32480,14599,29772
33012,14601,29748
33401,14612,29664
33384,14616,29797
33192,14639,29828
32996,14631,29718
32956,14627,29829
32956,14617,29645
32728,14602,29760
31960,14672,29797
31336,14639,29598
31576,14642,29746
32324,14642,29700
33012,14640,29799
33484,14647,29692
33464,14652,29708
33116,14656,29733
32928,14632,29810
32960,14615,29892
33192,14606,29781
33100,14613,29696
33184,14615,29764
33148,14629,29724
32628,14633,29777
32189,14653,29853
32348,14666,29799
32608,14657,29886
32972,14637,29664
33288,14624,29767
33076,14598,29852
32624,14585,29653
31944,14602,29722
31612,14612,29669
31652,14629,29752
31900,14638,29808
32358,14645,29780
32812,14639,29752
32864,14622,29782
32561,14613,29877
32368,14668,29632
31908,14666,29738
31816,14658,29585
32156,14634,29693
32492,14645,29657
32624,14668,29799
32584,14662,29895
32566,14661,29806
32360,14636,29877
32288,14628,29822
32532,14621,29857
32456,14612,29665
32288,14623,29752
32428,14633,29657
32586,14645,29792
32896,14659,29769
33242,14637,29893
33556,14722,29879
33388,14707,29749
32984,14605,29952
32901,14594,29720
32692,14597,30020
32496,14610,29720
32576,14614,29845
32508,14626,29935
32474,14636,29967
32780,14644,30068
32926,14632,29974
33120,14629,30056
33252,14617,29978
33284,14613,30032
33248,14606,29816
33096,14605,29914
33148,14611,29893
33369,14628,29956
33552,14639,29916
33804,14644,30009
33980,14628,30129
33952,14617,29831
33772,14692,29921
33388,14683,29940
32904,14594,29953
32496,14593,29937
32337,14615,30137
32440,14641,30092
32668,14657,30185
33056,14668,30097
33140,14686,30118
33076,14679,30108
32900,14657,30191
33012,14648,30128
33036,14589,30138
33292,14676,30143
33708,14605,30109
33712,14624,30164
33296,14638,30256
33364,14642,30150
33564,14629,30241
33580,14627,30189
33540,14609,30184
33112,14589,30100
32716,14585,30215
31921,14652,30277
30702,14659,30008
30156,14677,30228
30732,14696,30049
31628,14687,30111
32264,14679,30132
31804,14692,30158
30952,14605,30004
30538,14587,30328
30288,14592,30237
30144,14608,30177
29942,14611,30209
30240,14622,30156
31140,14636,30052
32684,14713,30057
34208,14693,30064
35532,14652,30143
35688,14619,30124
35764,14615,30174
35996,14602,30048
36484,14613,30118
37556,14622,30037
38620,14648,30164
38980,14656,30248
39172,14627,29937
39308,14620,30232
39500,14610,30134
39824,14594,30172
39976,14572,30126
39812,14572,30164
39670,14581,30114
39564,14597,30060
39344,14640,30020
39112,14640,30001
39160,14628,30084
39248,14621,30037
38968,14604,30094
38200,14597,30193
37345,14583,30094
36480,14680,30101
35872,14688,29900
35384,14694,30060
35044,14613,29993
34696,14629,30215
34428,14635,29913
34004,14628,30153
33350,14615,30119
32276,14593,30268
31496,14594,30160
30980,14601,30164
30872,14611,30158
31272,14624,30077
31889,14656,30092
31916,14661,30172
32036,14648,30223
31760,14651,30300
30968,14641,30234
30220,14639,30266
30172,14633,30228
30432,14668,30308
30480,14598,30158
30556,14617,30123
30548,14637,30096
30788,14647,30120
31292,14644,30193
31520,14651,30120
31480,14638,30180
31812,14661,30014
32280,14582,30260
31628,14577,30240
31236,14587,30281
31344,14599,30245
31712,14614,30317
31912,14626,30244
31900,14629,30309
31916,14644,30249
31840,14612,30358
31589,14591,30118
31556,14582,30189
31076,14583,30167
30832,14584,30265
30884,14608,30237
30892,14639,30183
31004,14649,30096
31337,14650,30387
31328,14638,30325
31100,14620,30436
31032,14621,30231
31180,14622,30424
31172,14636,30365
31116,14652,30480
31200,14661,30221
31389,14658,30345
31396,14685,30304
31504,14689,30356
31676,14722,30320
31716,14671,30424
31760,14695,30396
31648,14572,30444
31304,14646,30436
31068,14636,30465
31176,14643,30428
31500,14638,30485
31844,14635,30584
31960,14649,30484
32025,14646,30465
31888,14652,30468
31682,14584,30320
31364,14576,30548
31196,14592,30489
31068,14585,30416
31400,14607,30367
31804,14671,30464
32140,14616,30343
32560,14617,30444
32452,14614,30437
31944,14604,30464
31208,14604,30368
30620,14588,30284
30308,14597,30244
30712,14621,30240
31648,14647,30214
32460,14659,30215
32217,14677,30262
31684,14689,30188
31756,14693,30260
31968,14596,30265
31860,14589,30245
31822,14596,30119
31680,14589,30140
31672,14621,29993
32280,14644,30072
33076,14707,29967
33616,14608,30276
34260,14623,30181
34420,14632,30094
33637,14621,30092
32566,14623,30036
31668,14620,30063
31296,14631,30012
31388,14572,30137
31856,14581,29920
32448,14596,30189
33064,14607,29912
33440,14615,30004
32896,14608,30022
32468,14589,30012
32196,14575,29912
32069,14575,30161
31708,14591,29928
31404,14595,30256
31308,14594,30149
31836,14620,30085
32740,14638,30148
33700,14676,30072
34048,14711,30117
33624,14590,29997
33028,14572,30297
32585,14564,30013
32192,14557,30200
32184,14565,30026
32776,14575,30120
33440,14599,30014
33720,14615,30274
33852,14629,30034
33708,14613,30333
33392,14648,30207
33212,14660,30145
33136,14560,30200
32996,14634,30244
32836,14636,30228
33004,14641,30320
33260,14634,30068
33056,14636,30128
32872,14652,30087
32584,14647,30093
32168,14648,30065
31880,14635,30082
32128,14619,30055
31960,14616,30053
31369,14667,29968
30728,14575,30212
30830,14599,30148
31191,14624,30136
32196,14624,30140
33176,14615,30189
33552,14599,30132
33392,14585,30215
32873,14606,30112
32048,14614,30127
31528,14640,29872
31528,14569,30161
31772,14590,29959
31952,14598,30072
32220,14601,29848
32276,14609,30125
32325,14595,30056
32400,14587,30148
32316,14591,30046
32076,14621,30068
32116,14559,30031
32209,14572,30086
32202,14589,29813
32100,14599,29889
32684,14600,30036
33088,14661,29797
33052,14654,29900
32645,14668,29863
32488,14545,29972
32582,14625,30065
32224,14641,29816
32204,14568,30101
32184,14590,29880
32228,14596,29950
32460,14592,29992
32180,14591,30036
31656,14578,30108
31760,14565,30001
32668,14549,29940
33020,14552,30008
32808,14577,29933
32745,14592,30041
33086,14586,30133
33509,14605,29863
33708,14611,30181
33320,14626,30108
32568,14601,30100
32053,14572,30021
31804,14573,30070
31248,14612,30146
31108,14581,30145
31544,14589,30249
32309,14600,30185
32916,14621,30268
33780,14639,30222
34044,14633,30268
33217,14624,30033
31824,14620,30214
30969,14612,30116
30964,14565,30273
31700,14576,30236
32504,14589,30189
33222,14601,30296
33348,14607,30335
33440,14590,30085
33256,14583,30185
32868,14577,30103
32560,14568,30213
32412,14543,30192
32388,14546,30275
32216,14550,30214
32244,14578,30196
32432,14605,30199
32544,14588,30309
32752,14586,30274
32808,14573,30170
32592,14569,30282
32580,14556,30082
32864,14537,30180
33112,14560,30077
33376,14562,30305
33440,14570,30264
33284,14599,30294
32820,14613,30268
32600,14600,30316
32292,14585,30236
32221,14599,30140
32368,14606,30298
32416,14595,30000
32176,14598,30253
32096,14598,30020
32596,14598,30075
33086,14625,29968
33149,14636,30158
33301,14646,29956
33116,14629,30040
33076,14592,30047
33326,14567,30143
32892,14546,30243
32581,14548,30044
32540,14553,30095
32260,14564,30012
31968,14610,30208
32376,14660,30094
33032,14568,30004
33248,14562,29988
32437,14552,29981
31585,14595,30100
31856,14578,30155
32616,14589,30088
33192,14584,30154
33472,14603,30056
33494,14632,29946
33388,14659,29997
33336,14568,29837
33224,14562,30136
33024,14543,30018
32736,14526,29942
32614,14528,29903
32352,14535,29861
32348,14540,30042
32344,14575,29965
32136,14583,30050
32096,14606,29937
32580,14602,29860
33108,14604,29848
33316,14600,29767
33372,14589,29824
32704,14583,29737
31940,14563,29838
31840,14591,29750
32328,14534,29746
33020,14551,29648
33448,14576,29819
33864,14575,29809
33872,14571,29896
33776,14582,29807
33844,14575,29749
33825,14594,29742
33372,14528,29661
32440,14521,29684
31620,14542,29568
31428,14552,29703
31764,14583,29625
32484,14558,29732
33124,14548,29724
33133,14533,29598
32652,14521,29676
32268,14524,29581
32004,14520,29579
32168,14567,29472
32760,14637,29740
33712,14540,29469
34228,14628,29548
33824,14643,29542
32560,14542,29612
31992,14532,29621
32214,14598,29459
32636,14575,29620
32652,14551,29655
32609,14539,29438
32852,14546,29650
33526,14564,29588
33352,14570,29653
32584,14557,29447
32112,14564,29524
32342,14537,29420
32950,14520,29572
33416,14525,29592
33280,14531,29621
32928,14511,29503
33012,14519,29599
33224,14537,29614
33304,14544,29605
33125,14543,29484
32556,14535,29510
32152,14529,29499
32060,14501,29620
32264,14493,29703
32526,14503,29620
32561,14519,29687
33120,14526,29425
33464,14553,29649
33508,14548,29447
33932,14552,29577
33981,14538,29453
33544,14514,29623
33048,14567,29744
32400,14539,29500
31400,14518,29564
31144,14517,29605
31441,14527,29690
32376,14554,29722
33584,14559,29501
34480,14559,29597
34700,14534,29607
34116,14515,29696
33360,14519,29628
32328,14495,29672
31828,14514,29636
31460,14514,29764
31820,14517,29804
32764,14536,29630
33656,14551,29762
34244,14534,29676
34256,14533,29769
33405,14533,29724
32660,14503,29844
32496,14493,29866
32352,14492,29862
32440,14500,29936
33285,14527,29893
33240,14544,30008
32864,14536,29892
32948,14536,29881
33500,14538,29826
33712,14513,29874
33512,14500,29807
32932,14498,29906
32696,14490,29783
32801,14500,29948
33040,14512,29948
32996,14525,29953
32609,14546,29902
32792,14568,29893
32905,14563,29849
32944,14553,30013
32924,14539,29836
32536,14534,30127
32040,14549,30049
31564,14475,30044
31616,14487,30052
32092,14513,29949
32764,14528,29969
33316,14516,29888
33274,14500,30031
32984,14487,29854
32672,14468,30189
32414,14461,30088
32296,14457,30196
32389,14465,30116
32761,14481,30172
33052,14522,30132
33240,14509,30188
33696,14507,30160
33720,14493,30199
33020,14549,30169
32200,14485,30068
31588,14471,30156
31220,14461,30218
30748,14462,30329
30640,14476,30248
31088,14488,30364
31857,14499,30284
33428,14502,30396
34510,14485,30320
34480,14487,30425
34212,14471,30372
33772,14459,30476
33232,14466,30436
33196,14465,30555
33416,14471,30490
33680,14487,30572
33904,14493,30332
33868,14489,30599
33468,14484,30468
32480,14538,30604
31680,14488,30680
31560,14476,30727
31844,14458,30768
32340,14463,30817
32760,14477,30965
32856,14504,30693
32828,14501,31052
32988,14520,30980
32780,14548,31076
32564,14465,31069
32676,14441,31056
33076,14435,31140
33384,14436,31228
33133,14535,31022
32968,14459,31376
33528,14475,31294
34116,14492,31430
34344,14509,31376
33888,14480,31511
33461,14469,31430
32984,14479,31536
32492,14492,31518
32141,14428,31528
32152,14436,31516
32532,14481,31377
32913,14496,31538
33220,14489,31429
33389,14500,31780
33216,14514,31708
32672,14520,31623
32088,14430,31640
31880,14432,31578
31953,14432,31898
32256,14468,31759
32804,14526,31615
33280,14459,31925
33224,14487,31828
32988,14487,31765
32492,14509,31840
32192,14515,31846
31788,14500,31995
31252,14479,31684
31096,14473,31797
31376,14483,31804
32080,14508,31841
33540,14540,31836
34300,14522,31919
34230,14525,31927
33904,14517,31745
33516,14520,31820
33152,14501,31919
32840,14471,31699
32500,14447,31919
32677,14437,32032
33256,14443,31817
33380,14470,31912
33432,14476,32036
33288,14480,31690
32900,14468,31837
32526,14438,31853
32276,14457,31868
32444,14468,31812
32632,14407,31776
32508,14413,31888
32437,14426,31917
32304,14444,31981
32672,14453,31927
33432,14452,31861
33478,14435,31897
32604,14421,31932
31292,14404,31929
30748,14392,31813
31293,14396,31893
32338,14401,31996
33049,14481,31878
33620,14493,31937
33848,14505,32031
34016,14523,31692
34086,14493,31905
33741,14464,32001
33253,14437,31837
32680,14409,31954
32436,14420,32045
32548,14430,31948
32376,14421,31900
31868,14436,32060
31568,14431,31732
31716,14423,31854
31956,14418,31951
32048,14409,32001
32124,14405,32032
32088,14403,32017
32252,14380,31964
32304,14393,32088
32369,14409,32031
32472,14431,32088
32276,14440,32036
32604,14444,32145
32985,14439,32053
32796,14430,32116
32236,14429,31948
31666,14433,32029
31716,14433,32112
31868,14484,32093
32644,14394,32192
32956,14412,32095
32814,14416,32100
32724,14436,31920
32868,14421,32037
32924,14401,32013
33037,14405,31981
32996,14443,32017
33048,14361,32020
33054,14374,32034
33176,14381,32119
33296,14402,32253
33188,14427,32142
33640,14424,32208
33994,14406,31920
33736,14413,32029
33904,14431,31960
33652,14350,32260
33224,14369,31943
32716,14381,32164
32420,14398,31960
32508,14460,32305
32768,14396,32202
33036,14393,32301
33032,14383,31959
32740,14372,32128
32416,14454,32297
32172,14404,32110
31840,14403,32212
32140,14392,32220
32732,14424,31970
33164,14424,32090
33576,14453,32168
34069,14456,32206
34240,14446,32124
34000,14439,32148
33412,14436,32236
32760,14423,32348
31924,14336,32293
31984,14343,32412
32528,14360,32092
33120,14373,32233
33740,14387,32256
33560,14381,32376
32640,14367,32285
31616,14359,32320
31224,14341,32430
31512,14335,32457
31777,14327,32410
31996,14335,32500
32576,14361,32564
32816,14400,32553
32992,14401,32647
33160,14391,32497
32640,14372,32621
31924,14364,32580
31560,14365,32567
31360,14419,32732
30688,14351,32748
29845,14361,32654
29284,14368,32768
29696,14377,32903
30941,14380,32738
32724,14368,32869
34352,14366,32956
34728,14348,32702
34868,14318,32827
35120,14318,33015
35684,14317,33028
36196,14406,33156
37184,14403,32925
37816,14369,33136
38044,14372,33066
38396,14355,33181
38732,14342,33229
38956,14349,33221
39646,14339,33162
39996,14316,33172
40012,14333,33224
39580,14319,33361
39376,14352,33414
39384,14373,33401
39864,14377,33504
39948,14374,33470
39600,14366,33605
38856,14348,33521
38141,14332,33652
37520,14312,33565
36744,14290,33531
36192,14304,33567
35440,14319,33673
34752,14335,33814
34752,14468,33517
34872,14409,33735
34528,14389,33872
33796,14359,33900
32904,14314,33832
32025,14302,33927
31276,14311,34070
31068,14302,34028
30932,14405,34196
30744,14409,34212
31025,14412,34373
31588,14327,34309
31892,14318,34425
31652,14315,34392
31388,14285,34358
31212,14274,34385
31084,14291,34436
30616,14308,34469
30112,14314,34508
29972,14327,34533
30296,14338,34607
30964,14325,34620
31304,14316,34700
31413,14314,34694
31348,14300,34720
30920,14313,34720
30140,14321,34757
29381,14322,34776
29288,14325,34793
29616,14322,34850
30324,14343,34735
30792,14336,34812
31200,14321,34944
31584,14303,34548
31692,14301,34823
31740,14278,34837
31480,14281,34885
30992,14306,34982
30832,14314,34618
31068,14332,34902
31616,14349,34631
32301,14360,34822
32645,14378,34866
32316,14375,34965
31860,14347,35024
31456,14336,34679
31032,14328,34998
31056,14262,34734
31520,14276,35084
32052,14292,34980
32452,14299,34967
32648,14295,34866
32588,14284,35024
32282,14270,35140
32072,14248,35133
31764,14258,34904
31224,14284,35278
30612,14295,35044
30534,14300,35140
30764,14324,35101
31260,14326,35176
31908,14348,35220
32148,14278,35301
31616,14261,35180
31172,14244,35404
30860,14314,35397
30740,14300,35420
30992,14310,35534
31216,14330,35471
31488,14332,35417
32224,14352,35380
32496,14345,35444
32376,14343,35494
31948,14310,35541
31892,14278,35523
32108,14276,35464
32214,14265,35560
32332,14284,35666
32320,14310,35582
32268,14321,35698
32544,14336,35455
32660,14308,35580
32484,14277,35749
31728,14259,35497
31296,14240,35585
31276,14233,35668
31456,14237,35668
32060,14251,35772
32346,14261,35377
32320,14283,35586
32912,14278,35745
33108,14276,35712
32708,14271,35755
31964,14257,35712
31328,14240,35815
30877,14244,35444
31076,14244,35812
31844,14250,35517
32528,14269,35759
33008,14272,35916
33320,14287,35809
33304,14272,35686
32916,14266,35656
32416,14253,35820
32216,14242,35733
32380,14229,35781
32476,14229,35785
32169,14242,35733
32364,14269,35796
32964,14319,36009
33564,14369,35904
34480,14334,35989
34404,14308,35884
33848,14295,35909
32828,14270,35732
31878,14253,35836
31252,14246,35859
31460,14225,35927
32049,14236,36008
32696,14262,35969
33668,14274,36061
34405,14265,35977
34453,14244,36076
34184,14230,35991
33860,14215,36092
33480,14208,35908
33356,14197,35992
33252,14206,36005
33324,14295,35937
33352,14279,36028
33272,14252,36040
33356,14244,35949
32976,14222,36044
32388,14208,36089
31984,14271,35908
32392,14242,36033
32388,14223,36177
32292,14228,36060
32428,14249,36182
32244,14248,35964
31989,14245,36022
31924,14238,36092
32356,14240,36068
32520,14199,35991
32685,14173,35980
32946,14173,36048
32936,14178,36124
32780,14273,35748
32644,14199,36120
32585,14214,35935
32724,14287,36004
32892,14275,36036
32748,14279,35729
32540,14303,35869
32297,14246,36023
32196,14215,35633
31956,14180,35908
31688,14196,35956
31297,14215,35887
31109,14229,35914
31092,14247,35840
31296,14232,35909
31584,14210,35540
32020,14206,35648
32520,14189,35575
32520,14167,35613
32560,14185,35613
32632,14184,35640
33024,14186,35756
33228,14201,35608
33500,14221,35716
33732,14229,35580
33516,14204,35636
32752,14187,35521
32284,14180,35445
32004,14168,35481
31902,14180,35468
32104,14189,35549
32696,14189,35453
33000,14223,35420
33136,14216,35369
33044,14196,35444
32550,14197,35428
32148,14180,35429
31968,14167,35533
31829,14148,35172
32108,14181,35412
32628,14226,35385
32694,14278,35493
32516,14301,35389
32385,14184,35477
32356,14202,35380
32278,14187,35463
31856,14208,35372
31721,14210,35412
31812,14208,35356
32036,14139,35461
33215,14148,35345
34420,14169,35400
34580,14176,35297
34568,14179,35292
34400,14180,34969
33644,14174,35100
32388,14150,35140
31660,14139,35202
31384,14127,35053
31804,14132,35126
32508,14136,35093
32701,14155,35164
32544,14164,35063
32284,14172,35132
32348,14166,34732
32652,14156,35062
32788,14140,34652
32988,14122,34836
33208,14181,34888
33100,14184,34727
33056,14175,34764
33312,14169,34822
33420,14185,34685
33368,14185,34544
33113,14188,34505
32728,14175,34495
32332,14160,34463
32148,14129,34528
32140,14127,34615
32260,14133,34173
32788,14141,34509
33157,14158,34396
33204,14176,34397
33065,14182,34225
32934,14180,34202
32600,14166,34246
32287,14145,34291
32340,14140,34172
32456,14135,34162
32384,14141,33878
32580,14155,33950
33212,14152,34148
33644,14161,33789
33616,14171,33900
33304,14161,33868
32981,14157,33863
32776,14156,33613
32756,14153,33858
32648,14101,33821
32306,14101,33836
31944,14119,33721
31596,14153,33622
31904,14164,33559
32620,14194,33436
33024,14215,33690
33657,14121,33604
33604,14111,33656
33278,14094,33505
32736,14095,33360
32412,14179,33486
32404,14196,33428
32796,14193,33402
33224,14208,33271
33824,14136,33241
33988,14132,33220
33848,14244,33292
33593,14103,33351
33220,14088,33234
32728,14084,33327
32172,14089,32959
31816,14101,33100
31912,14110,33223
31816,14211,32932
31908,14187,33040
32524,14182,32996
33070,14189,32989
33200,14193,32925
32992,14148,32986
32760,14114,32980
32836,14089,32984
32892,14108,32931
32784,14132,32801
32468,14133,32780
32545,14149,32785
32688,14144,32781
32960,14130,32837
33348,14113,32913
34340,14087,32535
35045,14108,32736
34984,14145,32481
34264,14082,32807
33848,14122,32664
33168,14129,32629
32989,14144,32621
33137,14156,32548
33248,14148,32573
33052,14132,32513
32852,14124,32511
32397,14097,32353
31780,14163,32356
31632,14078,32356
31844,14092,32292
32196,14109,32314
33440,14108,32381
33934,14108,32412
33872,14198,32156
33654,14078,32147
33184,14064,32144
32504,14063,32230
32084,14084,32244
32012,14103,32172
32308,14143,32148
32804,14140,32049
33296,14137,32052
33736,14125,31921
34380,14140,31964
34468,14128,31992
33708,14095,32052
32464,14073,31756
31876,14105,31792
32244,14135,31660
33000,14143,31821
33760,14148,31913
34072,14133,31586
33824,14106,31797
33340,14100,31804
32846,14086,31671
32604,14057,31759
32432,14063,31839
32485,14055,31480
32856,14087,31586
33220,14129,31591
33384,14161,31648
33661,14088,31696
33780,14083,31420
33640,14073,31577
33452,14053,31585
33198,14049,31611
32916,14050,31693
32652,14061,31348
32692,14100,31495
32917,14105,31640
32928,14119,31429
32908,14113,31488
33036,14101,31419
33120,14092,31513
32965,14102,31204
32668,14082,31348
32288,14068,31442
31932,14076,31376
31305,14100,31444
30856,14119,31215
30894,14140,31280
31808,14186,31250
33389,14061,31284
34100,14055,31314
33860,14039,31127
33612,14023,31156
33268,14040,31101
32893,14038,31062
32751,14059,31073
32916,14079,31148
33464,14080,31209
33792,14086,30969
33173,14079,31071
32004,14065,31183
31072,14058,31101
31192,14050,31114
31777,14085,30854
32588,14100,30983
33412,14107,30945
34196,14125,31053
34412,14141,31028
34208,14157,30936
34000,14135,31036
33640,14100,30965
33328,14048,31089
33056,14034,30902
32940,14032,31016
32820,14035,30880
32948,14033,31053
33220,14048,30768
33260,14053,30854
33418,14064,30964
33448,14068,30983
33309,14060,30981
32869,14029,30966
32572,14033,30951
32544,14004,30924
32508,14023,30948
32725,14041,31052
33036,14057,30730
33364,14068,30894
33856,14061,30951
34040,14041,30908
33108,14030,30845
31892,14028,30756
31168,14017,30791
30912,14007,30792
31248,14049,30818
31914,14068,30832
32560,14100,30885
33248,14028,30809
33652,14034,30845
33480,14028,30968
33324,14024,30692
32808,14017,30868
32252,14002,31001
32176,14008,30905
32108,14016,31013
32020,14023,30916
32420,14041,30966
33360,14061,30914
34624,14080,30972
35264,14065,30695
34780,14030,30840
33748,14029,30847
33125,13997,30868
32560,13993,30799
32342,14001,30930
32804,14016,30687
33256,14021,30876
33628,14022,30773
33924,14028,30880
33732,14019,30863
33392,14007,30789
32924,14075,30897
32572,13978,30855
32304,14095,30823
32353,13980,30958
32596,13998,30855
32957,14020,30855
33192,14033,30863
33365,14043,30880
33217,14037,30708
32628,14030,30840
32176,13999,30828
32100,13974,30743
32404,14085,30598
32750,14047,30778
32940,14026,30916
33157,14021,30677
33476,14026,30808
33678,14029,30828
33476,14036,30667
32822,14015,30785
32088,14001,30837
31700,13977,30639
31557,13966,30740
31960,13978,30816
32524,14002,30727
32798,14015,30804
32828,14024,30604
32800,14052,30609
32592,14062,30593
32544,14065,30681
32704,13973,30620
32613,13961,30691
32032,13957,30727
31174,13966,30461
30788,13971,30778
31540,14015,30692
32708,14016,30561
34012,14031,30628
34624,14017,30717
34008,14006,30660
32997,13984,30564
32736,13991,30561
32308,13992,30636
32324,13996,30727
32980,14024,30691
33836,14031,30661
34600,14070,30457
34724,14117,30709
34660,13988,30476
34484,13979,30680
33892,14047,30616
33308,14065,30713
32836,14069,30738
32700,14007,30744
32936,14039,30791
33145,14103,30748
33204,14085,30870
33497,14117,30761
33676,14060,30656
33320,14042,30740
32560,14028,30801
32136,14012,30838
32336,14009,30720
32485,14043,30796
32820,13957,30852
32712,13975,30854
32780,13988,30951
33049,13985,30656
33145,13982,30799
33000,13964,30860
32720,13958,30888
32500,13934,30966
32268,13935,30772
31998,13940,30816
31640,13954,30871
31512,14039,30957
31620,14048,30983
32168,14051,30852
32366,14030,30956
32088,14032,30919
31742,14017,31020
31620,13999,31023
31524,14002,31040
31140,14021,31067
31208,13944,31018
32096,13962,30996
32936,13972,31048
33136,13976,30951
32316,13972,31015
31196,13953,31081
30976,14011,31136
31712,14032,30983
32460,14005,31058
33112,14008,31121
33752,14008,31090
34204,13980,30996
34424,13988,31001
34280,13988,31028
34012,13988,30997
33664,13970,31126
33120,13951,31121
32628,13948,31012
32320,13941,31087
32192,13941,31033
32484,13949,30909
32906,13972,31025
33536,13982,31084
33916,13963,30907
33550,13958,31052
32557,13940,31068
32229,13922,31101
32333,13911,31194
32064,13913,30876
31912,13921,31101
32046,13951,30854
32404,13946,31079
32864,13955,31116
33164,14052,30988
33524,14039,31092
33496,14041,31174
33176,13921,31092
33024,14027,30981
32804,14007,31004
32678,14017,31101
32869,14008,31178
33244,14032,31134
33880,13949,31239
34180,13952,30989
33892,13947,31023
33416,13940,31111
33158,13928,31169
33156,13926,31263
33136,13914,31204
33072,13929,31297
33312,13970,31220
33440,13932,31136
33504,13941,31129
33734,13953,31164
33544,13961,31172
33074,13943,31308
32957,13909,31101
32764,13896,31268
32348,13894,31247
31608,13914,31344
31292,13924,31432
31664,13940,31181
32560,13960,31303
33212,13964,31381
32888,13960,31480
32268,13943,31604
31916,13924,31296
31741,13912,31500
31657,13909,31620
31885,13903,31388
32316,13922,31548
32320,13945,31488
32468,13947,31685
32400,13979,31632
31980,14001,31632
31308,13912,31668
30540,13969,31578
30244,13947,31638
30256,13915,31704
30440,13908,31580
31289,13930,31612
32484,13964,31684
34228,13950,31836
35480,13981,31727
36280,13982,31773
36468,13946,31556
36608,13907,31694
37016,13907,31840
37084,13905,31540
37696,13889,31741
38496,13882,31848
39056,13898,31512
39756,13918,31640
40444,13913,31791
40744,13906,31517
40508,13893,31716
40204,13875,31679
39808,13860,31766
39272,13857,31829
38325,13864,31748
37664,13884,31808
37840,13908,31743
38164,13915,31745
38480,13921,31620
38420,13904,31751
37464,13884,31864
36108,13871,31532
35032,13862,31741
34536,13943,31903
34644,13935,31708
34544,13945,31831
33388,13949,31710
31884,13963,31845
31016,13961,31879
30956,13940,31765
31400,13953,31790
31824,13946,31920
31680,13939,32044
31196,13906,31868
31121,13890,31985
31320,13897,31892
31265,13924,31905
31128,13949,31976
31100,13953,32077
31296,13927,31796
31160,13931,32004
30792,13903,31977
30588,13879,32073
30752,13868,32140
30972,13876,31996
31036,13882,32109
31324,13893,32064
31376,13901,32026
31196,13901,32144
30748,13892,32180
30460,13875,32061
30480,13860,32188
30860,13844,32293
31292,13845,32084
31380,13857,32210
31568,13861,32300
31640,13887,31997
31588,13980,32148
31688,13946,32316
31804,13898,32095
31676,13882,32262
31688,13852,32220
31508,13899,32149
31204,13876,32335
30980,13872,32044
31028,13878,32206
31392,13894,32391
32085,13901,32220
32676,13898,32342
32652,13896,32324
31808,13882,32244
31297,13855,32372
31160,13833,32365
30700,13836,32296
30653,13843,32402
31156,13861,32343
31552,13865,32445
31488,13884,32437
31184,13956,32381
31096,13870,32355
31324,13919,32463
31668,13900,32501
32080,13892,32391
31958,13885,32492
31934,13864,32444
32184,13871,32568
32429,13878,32409
32300,13892,32519
32372,13897,32390
32497,13887,32579
32268,13859,32332
31862,13837,32549
31396,13886,32500
31244,13847,32474
31288,13843,32684
31332,13869,32456
30944,13881,32584
30296,13894,32628
30332,13893,32489
30944,13876,32587
31568,13855,32605
32118,13833,32591
32184,13892,32530
31852,13887,32601
31440,13892,32616
31441,13900,32524
31776,13912,32637
32250,13920,32402
32936,13945,32701
33104,13924,32420
32940,13921,32569
32588,13885,32697
32364,13873,32397
32160,13888,32548
32298,13818,32608
32584,13830,32592
32844,13840,32604
32944,13860,32479
32820,13877,32461
32236,13864,32549
31672,13863,32568
31252,13831,32700
31272,13814,32408
31700,13826,32511
32346,13822,32701
32772,13841,32581
32888,13855,32481
33136,13869,32576
33404,13868,32607
33616,13863,32548
33652,13845,32587
33334,13835,32623
32916,13826,32723
32320,13822,32381
32297,13823,32540
32864,13835,32425
33500,13861,32634
33988,13870,32774
34184,13871,32596
34204,13873,32708
33780,13868,32673
33156,13868,32629
32700,13883,32735
32292,13794,32839
32301,13804,32774
32824,13828,32891
33697,13857,32566
34286,13856,32689
34304,13867,32807
33468,13863,32573
32292,13865,32770
31602,13856,32968
31620,13845,32765
31884,13858,32884
32440,13856,32769
33004,13879,32900
33348,13907,32908
33344,13935,32864
33016,13925,32858
32453,13902,32920
32196,13872,32949
32048,13870,32989
31948,13855,32992
31748,13851,32749
31796,13815,32997
32288,13808,33017
32856,13822,32997
33150,13831,32896
33352,13829,33124
33148,13823,32797
32633,13814,33057
32056,13884,32944
31532,13789,33034
31048,13781,33117
30952,13793,33072
31594,13805,33248
32232,13901,33091
32624,13905,33159
32268,13891,33125
32244,13856,33181
32305,13832,33284
32192,13814,33191
31904,13779,33166
31257,13781,33292
31076,13786,33321
31756,13796,33301
32100,13815,33136
32036,13895,33381
31792,13887,33338
31746,13839,33373
32048,13817,33460
32032,13806,33236
31733,13801,33511
31413,13799,33660
31424,13801,33550
32012,13836,33612
32356,13871,33488
32668,13877,33648
32952,13877,33799
32841,13901,33702
32684,13801,33828
32500,13787,33781
32184,13777,33882
31932,13773,33573
32092,13783,33783
32700,13788,33689
32924,13843,34018
32728,13838,33676
32975,13841,33952
33416,13824,33909
33557,13812,33949
33104,13812,33996
32168,13790,34085
31740,13781,34132
32004,13801,34049
32544,13812,34121
33272,13828,34100
33624,13849,34104
33508,13858,34145
33164,13897,34254
32840,13802,34201
32585,13785,34324
32388,13789,34416
32176,13784,34378
31984,13794,34516
31996,13822,34447
32332,13864,34536
32716,13881,34508
33308,13880,34548
34116,13889,34268
34128,13882,34474
33344,13778,34548
32508,13847,34668
32128,13761,34755
32048,13770,34709
32201,13802,34861
32313,13812,34767
32528,13819,34809
32944,13822,34705
33198,13841,34716
33096,13853,34783
32896,13829,34862
32628,13769,34962
32149,13770,34695
31836,13791,34932
32088,13796,35041
32404,13797,34916
32596,13873,35005
32972,13836,35012
33345,13829,35117
33596,13792,35044
33300,13777,34812
32284,13754,35056
31345,13754,35216
31300,13764,34884
31480,13836,35145
32048,13839,35136
32664,13849,35065
32908,13832,35164
32888,13837,35164
32692,13796,35141
32500,13770,34880
32328,13770,35079
32137,13771,35079
32160,13769,35159
32328,13792,35183
32804,13849,35161
33184,13881,35183
32900,13895,35146
32116,13876,35150
32036,13846,35040
32404,13794,35124
32904,13788,35224
33276,13795,35078
33344,13788,34975
33468,13791,35089
33496,13799,35071
33528,13807,34964
33740,13809,34965
33660,13799,34992
33268,13792,35049
32788,13812,35029
32480,13830,35101
32220,13826,34703
32240,13820,34944
32670,13837,34973
32804,13781,34973
32680,13786,35073
32693,13781,34940
32764,13770,34896
32700,13764,34832
32612,13748,34869
32788,13739,34895
32609,13739,34860
32816,13745,34870
32992,13758,34812
32804,13800,34712
32804,13806,34748
33276,13794,34812
33469,13796,34751
33524,13788,34809
33448,13761,34721
33232,13764,34822
32760,13756,34479
32240,13760,34628
31724,13766,34688
31688,13792,34638
32064,13792,34485
32908,13804,34676
33501,13789,34320
33521,13773,34532
33288,13737,34655
32744,13729,34387
32448,13822,34472
32820,13818,34468
33325,13824,34508
33556,13839,34439
33012,13857,34356
32845,13844,34428
32628,13781,34340
33029,13760,34474
33812,13741,34163
34180,13723,34372
33364,13725,34503
32638,13853,34260
32712,13816,34356
32988,13799,34222
33180,13789,34276
33388,13790,34311
33305,13774,34277
32896,13768,34330
32557,13731,34189
32558,13726,34235
33132,13722,34304
33388,13740,34262
33352,13759,34332
33088,13775,34166
32842,13773,34256
32804,13762,34183
32768,13753,34252
32960,13852,33989
33396,13798,34132
33565,13804,34215
33717,13710,34257
33868,13731,34359
33780,13823,34052
33540,13799,34244
33336,13780,34188
33188,13780,34320
33028,13763,34207
32760,13755,34102
32570,13731,34156
32404,13735,34240
32036,13723,34332
31296,13721,33984
31172,13735,34201
32192,13750,34326
33560,13755,34052
34589,13757,34161
34661,13830,34301
34192,13805,34061
33436,13753,34140
32604,13724,34284
31916,13716,34073
31604,13716,34129
31680,13801,33988
32278,13796,34129
32800,13788,34073
33312,13780,33941
33708,13759,34164
33518,13737,33972
33088,13704,34037
32796,13822,34130
32772,13779,33925
33120,13764,33984
33348,13746,33835
33452,13761,33929
33364,13741,33957
33724,13749,34044
33796,13734,33701
33544,13720,33860
33116,13726,33660
32488,13716,33831
31808,13701,33866
31874,13719,33868
32084,13743,33961
32042,13755,33836
32178,13770,33927
32624,13765,33540
32828,13735,33748
32900,13719,33861
32752,13708,33780
32808,13684,33629
32568,13768,33728
32688,13739,33476
33152,13739,33612
33572,13747,33685
33888,13769,33700
33952,13761,33711
33448,13764,33372
32836,13741,33609
33008,13719,33710
33172,13692,33435
33088,13687,33553
32712,13700,33590
32700,13725,33604
33048,13751,33647
33565,13751,33376
33909,13759,33452
33168,13769,33292
31712,13772,33532
31215,13755,33444
31896,13742,33501
32864,13724,33599
33480,13717,33247
33560,13725,33444
33632,13746,33585
33463,13754,33257
33296,13751,33333
33208,13737,33364
32813,13727,33430
32326,13692,33436
32008,13678,33332
31868,13736,33166
31712,13708,33418
32001,13716,33394
32420,13741,33369
32844,13719,33136
33596,13841,33353
33584,13783,33377
32970,13782,33245
32336,13748,33336
32096,13733,33444
32040,13727,33083
32372,13725,33165
32640,13737,33193
32988,13733,33255
33269,13758,33340
33264,13732,33111
32872,13729,33189
32420,13697,33056
32112,13682,33072
32084,13668,33129
32212,13669,33191
32340,13747,33023
32432,13724,33043
32960,13734,33045
33308,13720,32917
33456,13713,33092
33288,13775,32896
32752,13765,32908
32452,13764,32926
32408,13716,32666
32412,13685,32906
32488,13693,32805
32440,13690,32869
32620,13704,32848
33324,13720,32715
33812,13712,32732
33892,13703,32828
33504,13755,32736
33244,13692,32880
33586,13683,32567
34056,13685,32712
34404,13687,32725
34620,13701,32748
34344,13732,32620
33584,13727,32838
32856,13709,32565
32308,13695,32687
32060,13687,32791
31992,13745,32581
32020,13730,32668
32008,13661,32759
32448,13669,32638
32964,13678,32588
33164,13701,32534
33480,13706,32609
33548,13704,32547
33376,13697,32511
33124,13800,32316
32560,13668,32420
31860,13656,32393
31486,13664,32501
31456,13669,32596
31920,13686,32546
32676,13700,32511
33116,13701,32443
32932,13702,32516
32780,13769,32509
32869,13732,32418
33408,13682,32508
33628,13681,32440
33028,13676,32464
32672,13673,32516
33024,13676,32391
33568,13774,32597
33436,13752,32382
32824,13720,32498
32448,13703,32610
32093,13700,32252
31800,13680,32421
32289,13671,32436
32600,13657,32513
32492,13675,32620
32400,13672,32415
32309,13688,32447
32508,13697,32519
32729,13695,32516
32948,13684,32543
32868,13671,32412
33128,13737,32513
33296,13706,32513
33368,13683,32393
32996,13687,32373
32852,13685,32472
32836,13708,32508
33240,13723,32592
33648,13703,32308
33448,13685,32369
33009,13669,32409
32472,13651,32519
32140,13725,32538
32080,13703,32452
32316,13668,32540
32580,13669,32500
32492,13681,32640
32236,13772,32296
32252,13746,32460
32068,13700,32592
31624,13685,32588
31209,13662,32656
31160,13662,32357
31364,13658,32535
31696,13661,32660
31960,13671,32608
31840,13694,32692
31668,13686,32548
32044,13684,32647
32096,13674,32676
31980,13662,32561
32396,13637,32671
33120,13632,32680
33374,13637,32591
33472,13738,32663
33456,13735,32560
33558,13735,32749
33564,13751,32428
33484,13728,32568
33393,13718,32577
32856,13750,32544
32056,13639,32597
32076,13628,32640
32509,13757,32694
32836,13642,32673
33156,13651,32773
33625,13669,32505
34244,13734,32676
34528,13706,32565
34360,13685,32577
33732,13671,32653
33412,13647,32669
33216,13629,32685
33024,13624,32541
32678,13685,32598
32408,13664,32568
32466,13691,32709
33000,13679,32444
33400,13673,32548
33508,13662,32657
33268,13644,32308
32960,13631,32476
32984,13632,32452
33074,13629,32548
33096,13633,32543
32976,13653,32360
32628,13668,32424
32892,13670,32533
33133,13669,32276
33036,13740,32485
32856,13716,32595
32684,13688,32277
32480,13669,32417
32308,13684,32436
32328,13713,32432
32608,13722,32452
32848,13745,32552
32862,13713,32548
33036,13717,32556
32973,13721,32314
33056,13677,32543
33053,13641,32687
32580,13636,32445
32200,13632,32588
32096,13647,32667
32205,13658,32396
32028,13654,32640
32198,13738,32584
32772,13720,32720
33228,13681,32404
33208,13656,32668
33064,13618,32601
32096,13675,32673
31588,13635,32439
31712,13641,32692
31744,13639,32712
31617,13770,32621
31384,13708,32460
30737,13682,32700
30260,13676,32824
30520,13661,32568
31380,13642,32700
32044,13617,32812
32168,13613,32788
32402,13728,32647
33500,13712,32744
34856,13730,32869
36152,13731,32601
37188,13703,32725
37573,13668,32797
37944,13644,32709
38000,13613,32590
38176,13602,32759
38408,13716,32629
38872,13726,32743
39752,13757,32760
40368,13745,32708
40532,13702,32792
40184,13666,32508
39852,13667,32764
39252,13655,32873
38720,13615,32581
38364,13603,32770
38020,13603,32769
37820,13732,32836
37856,13721,32548
37748,13729,32697
37600,13726,32783
37360,13701,32548
36893,13666,32786
36140,13659,32940
35328,13636,32672
34372,13603,32820
33540,13607,32935
33052,13616,32609
32940,13631,32773
32780,13644,32940
32652,13769,32653
32336,13714,32842
31773,13674,32985
31288,13662,32956
30980,13661,33077
30652,13644,32706
30420,13658,33053
30640,13684,32824
31089,13631,32879
31232,13644,33006
31504,13656,33007
31824,13647,33127
31404,13639,32749
30576,13620,32951
29920,13604,32992
29524,13599,33031
29440,13605,33039
29489,13613,32815
30120,13624,32901
30412,13641,33000
30788,13644,33009
31356,13647,32916
31716,13630,32927
31488,13620,32943
31268,13621,32903
31425,13620,32953
31392,13615,32889
30904,13627,32969
30512,13641,33065
30672,13657,32863
31152,13668,32951
31726,13668,33056
32040,13644,32678
31900,13640,32889
31484,13614,32964
31204,13609,32929
31304,13625,32788
31888,13623,32952
32088,13623,32833
31873,13639,32912
31340,13715,32901
31028,13716,32980
30976,13684,32864
31060,13647,32970
31232,13611,32884
31244,13598,33076
31424,13597,32888
31584,13606,32964
32060,13618,33084
32558,13636,32775
32944,13639,33028
33101,13633,33117
32624,13627,32965
32172,13731,33080
31832,13596,33196
31629,13589,32863
31360,13594,32988
31372,13604,33089
31636,13620,33097
31852,13634,33222
32120,13705,33034
32485,13664,33141
32812,13650,33054
32764,13629,33114
32264,13605,33156
31640,13604,33132
31128,13608,33007
31076,13615,33137
31402,13619,33248
31896,13631,32899
32696,13639,33012
32708,13637,33044
32100,13620,33141
30632,13612,33071
29656,13653,33082
30180,13617,33100
31484,13609,33088
32229,13615,33140
32632,13613,33121
33036,13630,33052
33433,13637,32913
33812,13738,33046
33920,13679,32868
33517,13622,33013
32548,13607,32973
32152,13617,32976
32192,13617,32960
32612,13600,32857
32781,13617,32903
32690,13632,32887
32832,13715,32809
32976,13690,32928
33000,13650,32712
33012,13620,32695
32896,13621,32772
32356,13597,32799
31900,13599,32821
31916,13629,32543
32286,13639,32639
32608,13641,32660
32896,13659,32696
33072,13626,32708
33172,13622,32624
32960,13678,32786
32733,13626,32640
32096,13612,32636
31728,13611,32576
32048,13620,32720
32493,13607,32708
33120,13706,32505
33384,13694,32422
33060,13677,32469
32748,13649,32522
32592,13617,32311
32644,13612,32500
32728,13605,32566
32788,13597,32405
32525,13617,32500
32620,13623,32356
32976,13652,32505
33644,13637,32377
34312,13629,32468
34044,13616,32316
33135,13677,32549
31968,13617,32341
31332,13604,32405
31424,13594,32415
32156,13593,32301
32884,13604,32483
33137,13621,32159
33173,13634,32359
33044,13738,32466
33045,13649,32309
32816,13640,32402
32684,13627,32300
32380,13609,32370
31892,13622,32388
31702,13628,32244
31760,13628,32460
31626,13641,32118
31656,13645,32249
31884,13654,32416
31976,13673,32357
32028,13711,32468
32420,13670,32272
32594,13652,32352
32297,13621,32292
32132,13607,32458
32476,13609,32328
32760,13623,32161
32745,13663,32098
32686,13622,32090
32536,13612,32325
32322,13692,32324
32164,13660,32212
32080,13662,32260
32120,13645,32413
32276,13669,32067
32468,13713,32172
32296,13694,32377
31908,13648,32196
31460,13647,32310
31480,13605,32242
32000,13599,32381
32672,13575,32085
32804,13647,32172
32328,13601,32412
31764,13590,32294
31509,13600,32310
31592,13617,32182
32388,13705,32272
33248,13655,32068
33400,13618,32306
33012,13613,32423
32140,13581,32225
31816,13570,32325
32372,13572,32438
32645,13584,32287
32224,13716,32398
31452,13692,32356
31328,13712,32310
31401,13730,32433
31708,13708,32448
31773,13594,32352
31844,13653,32452
32012,13641,32365
32538,13572,32376
33456,13581,32492
33854,13599,32524
33820,13612,32413
33989,13614,32512
33968,13612,32602
33221,13606,32452
32377,13667,32264
31908,13635,32470
31656,13580,32472
31790,13587,32436
32249,13575,32487
32877,13596,32505
33358,13707,32512
33644,13614,32391
33720,13686,32632
33501,13636,32559
33020,13604,32341
32772,13586,32524
32448,13588,32528
32300,13568,32622
32344,13582,32420
32680,13597,32536
32840,13679,32398
33106,13626,32405
33412,13625,32532
33256,13618,32420
32778,13592,32540
32474,13564,32497
32626,13561,32620
32608,13568,32436
32433,13609,32311
32088,13626,32431
31572,13629,32596
31404,13613,32516
31548,13609,32555
31932,13649,32472
32061,13624,32679
31912,13587,32485
31856,13572,32575
33104,13576,32478
34000,13584,32623
33362,13593,32500
32032,13605,32356
31364,13687,32588
31712,13634,32514
32324,13609,32596
32880,13609,32391
33244,13563,32664
33135,13556,32589
33440,13563,32612
33584,13607,32684
33428,13647,32625
33156,13637,32785
33096,13630,32487
33072,13617,32669
32864,13592,32684
32536,13678,32764
32404,13624,32516
32752,13580,32737
33220,13589,32649
32985,13570,32784
32652,13662,32668
32764,13623,32764
33232,13636,32655
33640,13612,32857
33636,13587,32689
33052,13645,32792
32292,13611,32749
31964,13580,32914
32020,13588,32729
32308,13569,32812
32746,13585,32788
33024,13673,32944
33420,13637,32740
33757,13618,32849
33742,13609,32809
33268,13576,32769
32869,13559,32862
32612,13629,32832
32292,13609,32836
31952,13619,32860
31688,13612,32773
31796,13617,32872
31992,13617,32676
32224,13623,32812
32492,13642,32636
32528,13597,32743
33276,13572,32789
33432,13560,32847
33264,13585,32972
33216,13588,32754
33380,13610,32841
33444,13613,32768
33404,13624,32829
33088,13609,32932
32952,13610,32698
32712,13591,32796
32780,13553,32924
32586,13543,32848
32548,13556,32916
32444,13582,32833
32444,13586,32884
32833,13609,32582
33780,13600,32772
34186,13596,32876
33912,13676,32820
33120,13653,32823
32577,13599,32743
32524,13590,32815
32429,13591,32850
32632,13583,32836
32740,13589,32897
32672,13621,32864
33212,13611,32973
33964,13610,32608
33324,13601,32788
32285,13582,32932
31813,13553,32876
31704,13543,32957
32140,13543,32681
32512,13553,32772
33026,13570,32828
33536,13597,32805
34117,13614,32689
34228,13643,32805
33904,13632,32870
33100,13632,32937
32760,13611,33086
32397,13542,32978
32200,13541,33036
31870,13563,32744
31684,13577,32972
31758,13586,33096
32188,13590,32791
32664,13585,32934
33192,13574,32841
33496,13583,33012
33620,13553,32762
33412,13564,32932
33020,13550,33132
32968,13572,32797
33452,13580,33028
33740,13601,32876
33608,13608,33001
33220,13605,33017
32748,13585,33103
32364,13572,33159
32348,13560,33148
32308,13550,33244
32329,13560,33183
32300,13572,33287
32368,13590,33063
32424,13600,33197
32816,13612,33341
33364,13576,33167
33344,13573,33258
33064,13677,33260
32944,13535,33004
32820,13533,33157
32525,13537,33229
32489,13549,33327
32692,13604,33269
32584,13602,33437
32724,13608,33189
33180,13582,33380
33356,13599,33369
33368,13612,33422
33304,13569,33324
33240,13542,33420
33372,13558,33379
33472,13563,33404
33136,13560,33486
32952,13583,33436
33136,13672,33618
33284,13645,33424
33144,13582,33540
32954,13570,33494
32852,13555,33542
32254,13548,33595
31236,13560,33624
31193,13559,33416
32165,13567,33616
32720,13574,33773
32920,13580,33572
32686,13665,33655
32548,13627,33711
32400,13603,33709
32612,13565,33821
32901,13543,33504
33384,13551,33741
33364,13574,33751
33440,13601,33888
33540,13585,33701
33704,13603,33799
33572,13585,33780
33440,13560,33732
33084,13554,33812
32064,13552,33876
30896,13525,33670
30848,13530,33887
31692,13545,33957
32424,13556,33645
32820,13668,33900
32924,13574,33998
33096,13570,33964
33184,13556,34084
33252,13537,33728
33333,13527,33945
32968,13597,34044
32725,13578,33929
32918,13559,34048
33244,13566,34104
33232,13580,33940
33248,13583,33957
33450,13589,34103
33482,13561,34092
33260,13540,34047
33080,13605,34117
33108,13605,34140
33108,13525,34180
32860,13533,34124
32614,13561,34220
32485,13570,33922
32693,13564,34128
33224,13564,34272
33468,13625,34046
33338,13623,34125
32952,13599,34272
32976,13596,33951
33196,13579,34148
32981,13562,34279
32912,13570,34124
33077,13578,34221
33480,13588,34156
33668,13559,34268
33484,13549,34148
33024,13531,34245
32776,13522,34215
32156,13582,34225
31317,13566,34245
30900,13582,34207
31066,13558,34360
31510,13575,34004
32192,13570,34150
32724,13583,34340
32532,13559,34175
32096,13556,34288
32072,13524,34441
32160,13531,34191
32348,13545,34281
32848,13538,34452
33356,13561,34340
33924,13572,34269
34124,13591,34377
33988,13608,34413
33716,13619,34496
33416,13605,34135
33184,13561,34400
32884,13529,34477
32628,13532,34362
32681,13531,34444
32841,13540,34341
32908,13556,34524
32820,13556,34493
32512,13646,34375
32040,13610,34452
31894,13569,34502
31732,13532,34510
31706,13535,34415
31824,13537,34504
32040,13535,34633
32281,13538,34299
32444,13673,34503
32748,13602,34449
33092,13577,34622
33228,13563,34524
33053,13551,34649
32716,13526,34356
32572,13513,34496
32476,13510,34665
32784,13518,34457
33504,13540,34510
33932,13549,34656
34380,13625,34562
34384,13613,34303
34104,13577,34536
33708,13543,34525
33324,13519,34464
32888,13530,34548
32752,13522,34484
32848,13523,34543
33056,13615,34566
33150,13544,34567
33308,13550,34617
33480,13541,34284
33472,13529,34540
33181,13517,34665
33228,13501,34357
33096,13543,34439
32200,13585,34632
31408,13577,34468
31156,13583,34560
31504,13574,34679
32320,13567,34352
32888,13556,34535
32868,13543,34669
32452,13531,34415
32236,13505,34541
31976,13496,34703
31860,13504,34520
31956,13518,34614
32225,13528,34567
32248,13667,34634
32516,13615,34330
32576,13588,34608
32580,13552,34492
32280,13540,34618
31944,13523,34373
31364,13518,34576
30953,13504,34686
31286,13510,34521
32014,13525,34650
33136,13538,34510
33932,13534,34721
33580,13629,34564
33056,13613,34652
32553,13569,34605
32108,13530,34559
31893,13525,34638
31880,13540,34773
32286,13548,34535
32824,13569,34596
32924,13567,34780
33084,13584,34370
33092,13588,34654
33280,13575,34594
33588,13559,34384
33364,13529,34632
32488,13572,34716
31756,13524,34452
31436,13505,34671
31485,13520,34781
32256,13532,34456
33380,13534,34610
34216,13527,34732
34138,13509,34660
33356,13498,34788
32289,13489,34388
31988,13496,34797
32440,13503,34426
33484,13523,34740
34140,13570,34684
34400,13592,34817
34260,13581,34630
33696,13556,34716
33340,13534,34822
33264,13516,34630
33528,13496,34735
33640,13508,34864
33704,13493,34663
33824,13501,34716
33732,13532,34823
33548,13539,34676
33440,13540,34721
33248,13534,34839
33016,13528,34797
32941,13507,34656
32992,13493,34831
33068,13477,34513
32848,13482,34768
32684,13496,34789
32485,13516,34772
32572,13537,34892
33096,13541,34508
33389,13526,34742
33208,13547,34774
32608,13544,34624
32000,13528,34689
31692,13524,34762
31584,13526,34612
31112,13517,34758
30448,13527,34420
30189,13533,34663
30348,13569,34636
30424,13566,34641
30352,13548,34567
30277,13548,34486
30548,13542,34487
31102,13584,34463
31748,13541,34338
32596,13519,34358
33460,13524,34479
34488,13541,34408
35568,13557,34412
36344,13555,34271
36836,13576,34293
36896,13550,34392
37004,13520,34189
37048,13545,34183
37240,13576,34268
37541,13494,34198
38048,13501,34076
38924,13507,34183
39468,13514,34151
39248,13506,34208
38932,13489,34016
38785,13477,34060
38788,13460,34180
38980,13563,34004
39120,13551,34032
39264,13517,33935
39197,13524,34083
38872,13569,33997
38168,13556,33844
37320,13526,34004
36425,13515,33756
35468,13486,33909
34480,13471,34048
33672,13463,33719
33352,13480,33829
33260,13485,33969
33168,13503,33713
33188,13506,33870
33144,13505,33860
32365,13508,33748
31100,13505,33824
30140,13495,33916
29888,13485,33820
30452,13475,33813
31388,13477,33679
32232,13484,33765
32776,13524,33687
32964,13514,33804
33092,13509,33610
33088,13498,33700
32732,13485,33774
31886,13476,33491
31114,13538,33600
30408,13508,33700
30084,13496,33352
30525,13515,33441
31681,13540,33565
32428,13552,33513
32372,13545,33432
31732,13526,33609
31364,13493,33476
31096,13472,33221
30944,13541,33437
30752,13515,33388
30576,13495,33312
30592,13495,33385
30764,13520,33223
31084,13511,33439
31728,13505,33072
32224,13499,33232
32164,13605,33369
31432,13473,33252
30864,13456,33108
30456,13527,33333
30364,13496,33243
30654,13497,32997
30876,13513,33145
30816,13514,33151
30756,13529,33175
30876,13526,32873
30724,13500,33137
30664,13476,33097
30728,13457,33117
30472,13455,33120
30428,13469,33084
30828,13478,33006
31496,13484,33093
31940,13503,33041
32220,13577,33100
32380,13563,33105
32088,13519,33034
31685,13476,33111
31332,13465,33096
31382,13464,33090
32148,13476,32996
32876,13505,33068
33512,13515,33204
33332,13538,32827
32932,13535,33077
32800,13535,32960
32708,13523,32970
32384,13524,33062
32096,13518,33076
31812,13512,32864
31676,13499,32996
32016,13533,32956
32212,13476,32844
32348,13497,32876
32372,13517,32792
32494,13512,32767
32492,13496,32816
32592,13469,32957
32560,13447,32722
32292,13443,32800
32328,13452,32864
32164,13463,32575
32204,13477,32581
32160,13492,32676
32216,13576,32375
32000,13555,32572
31688,13531,32655
31409,13487,32440
31292,13470,32511
31297,13453,32324
32030,13447,32549
32940,13459,32208
32940,13479,32292
32340,13490,32424
31712,13492,32154
31606,13489,32279
31844,13548,32239
32240,13522,32144
32916,13519,32228
33305,13520,32258
32928,13519,32101
32180,13515,32164
31808,13542,32237
32380,13536,31940
33336,13520,32052
34080,13521,32124
34964,13529,32056
34852,13523,32140
34068,13519,31816
33252,13519,31892
32812,13490,32073
32824,13476,31749
33156,13492,31844
33476,13499,31922
33840,13501,31751
33796,13478,31892
33644,13551,31805
33528,13500,31945
33516,13479,31601
33308,13477,31688
33092,13506,31703
33072,13530,31772
33084,13539,31866
33141,13537,31548
33365,13565,31785
33238,13561,31558
32688,13465,31614
32358,13448,31751
32276,13433,31717
32636,13436,31709
32524,13446,31561
32096,13453,31568
32396,13474,31600
33132,13583,31679
33493,13563,31739
33086,13603,31649
32252,13466,31623
31580,13457,31423
31756,13460,31769
32064,13508,31653
32509,13523,31744
32576,13530,31653
32012,13471,31764
31320,13480,31658
31528,13485,31763
32124,13476,31660
32186,13468,31680
32212,13455,31637
31833,13445,31657
31086,13459,31632
30956,13451,31582
31628,13481,31549
32549,13505,31532
32964,13518,31597
33072,13502,31632
33032,13497,31618
32748,13478,31656
32367,13472,31605
32077,13430,31549
31648,13430,31664
31274,13441,31572
31088,13457,31672
31040,13554,31348
31096,13477,31490
31464,13478,31282
31792,13469,31389
32008,13531,31431
32172,13508,31483
32364,13496,31520
32332,13504,31490
32208,13455,31413
32304,13477,31410
33052,13494,31379
33780,13505,31404
33856,13493,31493
33564,13501,31612
32796,13480,31532
31944,13473,31539
31325,13476,31363
31017,13486,31487
31110,13490,31508
31904,13485,31556
32812,13504,31655
33116,13499,31457
33389,13498,31488
33508,13492,31547
33476,13464,31355
33552,13442,31503
33224,13426,31644
32852,13525,31372
32444,13566,31484
31880,13563,31512
31204,13528,31629
31204,13498,31615
31712,13492,31545
32148,13498,31647
32680,13468,31653
32848,13448,31463
32732,13422,31630
32405,13427,31767
32208,13515,31506
32308,13513,31609
32668,13505,31751
33150,13501,31406
33492,13489,31583
33204,13494,31540
32320,13455,31628
31760,13515,31652
31705,13481,31544
31964,13452,31582
32492,13448,31628
32764,13460,31495
32544,13488,31601
32364,13473,31366
32565,13472,31564
33134,13557,31705
33448,13525,31505
33214,13463,31355
32688,13447,31441
31800,13452,31527
30872,13461,31578
30620,13455,31557
31214,13461,31464
32108,13475,31565
33000,13475,31494
33460,13549,31490
33264,13528,31556
32948,13520,31654
32756,13490,31511
32632,13442,31448
32480,13445,31560
32724,13455,31520
33164,13460,31544
33264,13473,31564
33304,13472,31600
33517,13460,31301
33452,13448,31512
33412,13436,31649
33364,13423,31357
33112,13523,31536
32558,13506,31656
32414,13501,31445
32686,13498,31551
33096,13501,31578
33456,13491,31489
33356,13493,31529
32754,13476,31604
32389,13455,31300
32580,13438,31366
32624,13437,31521
32804,13450,31263
32992,13455,31446
33048,13485,31586
33184,13497,31277
33540,13476,31364
33496,13475,31348
32676,13477,31457
31904,13462,31511
31216,13432,31189
31440,13445,31337
32316,13452,31306
33108,13463,31406
33632,13478,31416
33804,13469,31276
33724,13467,31377
33078,13461,31276
32292,13569,31250
31360,13493,31335
30880,13454,31348
31056,13443,31230
31748,13439,31332
32492,13449,31324
33112,13478,31204
33446,13464,31050
33788,13468,31277
33804,13522,31158
33488,13473,31257
33176,13446,31252
32973,13440,31165
32384,13438,31140
31984,13444,31216
32265,13452,31304
33076,13454,31013
33920,13463,31161
34173,13538,31273
33640,13484,30959
32988,13459,31008
32560,13449,31024
32272,13431,31093
32240,13410,31015
32204,13496,31034
32200,13465,31052
32224,13469,30936
32328,13467,30921
32572,13462,30961
33276,13453,31066
33784,13535,30765
33728,13523,30904
33588,13481,30871
33252,13446,30932
33016,13434,30792
32797,13441,30996
32769,13453,30780
32808,13454,30871
32992,13455,30766
32644,13452,30827
31916,13441,30598
31596,13492,30768
31892,13465,30884
32382,13473,30584
33172,13446,30748
33744,13445,30617
33476,13476,30702
32772,13475,30477
32492,13461,30567
32464,13446,30576
32390,13437,30680
32288,13421,30700
32592,13484,30597
33348,13446,30420
33912,13431,30652
33748,13425,30602
33068,13491,30581
32925,13484,30517
33092,13463,30590
33284,13444,30441
33285,13521,30601
32958,13477,30473
32852,13440,30546
32992,13437,30382
33088,13415,30567
33196,13427,30668
33044,13446,30468
33408,13449,30525
33992,13564,30660
34176,13543,30324
33540,13489,30496
32836,13466,30583
32456,13428,30520
32446,13420,30396
32232,13439,30588
31480,13437,30293
30884,13449,30377
31064,13455,30468
32228,13560,30484
33076,13511,30468
33248,13457,30533
33188,13442,30495
32908,13429,30263
32736,13415,30492
33028,13410,30370
33748,13496,30557
33878,13493,30380
33284,13469,30500
32716,13481,30359
32706,13442,30593
32900,13429,30382
32926,13413,30372
32856,13405,30461
32377,13515,30506
32356,13486,30592
32524,13473,30471
32788,13509,30527
33032,13522,30639
33268,13492,30414
33476,13457,30556
33316,13423,30436
32720,13405,30549
32112,13480,30345
32012,13436,30570
32321,13431,30713
32852,13444,30508
33480,13448,30632
33788,13463,30700
34008,13458,30569
33960,13450,30669
33702,13421,30686
33672,13411,30584
33268,13485,30704
32536,13425,30631
31688,13437,30733
31701,13442,30759
32472,13442,30687
33436,13444,30782
34124,13445,30800
34028,13444,30876
33396,13449,30845
32768,13426,30909
32248,13411,30753
31852,13399,30866
31808,13408,30882
31957,13414,30790
32108,13433,30855
32504,13440,30817
33049,13441,30910
33304,13436,31033
33332,13420,30684
33180,13404,30804
33088,13391,30937
33116,13511,30911
33256,13407,30964
33548,13455,30780
33892,13509,30918
33384,13509,30932
32654,13481,30780
32496,13453,30876
32580,13474,30948
32648,13456,30757
32132,13425,30865
31440,13421,30764
31024,13415,30952
31436,13418,30716
32072,13554,30844
32928,13522,30927
33360,13518,30822
33532,13475,30689
33684,13433,30784
33728,13405,30793
33982,13386,30778
33652,13489,30684
33252,13415,30784
33304,13414,30791
33824,13484,30727
33728,13472,30647
33626,13444,30871
33408,13476,30558
33056,13431,30717
32956,13490,30861
32841,13410,30640
32533,13396,30744
32232,13523,30624
32536,13454,30830
33052,13445,30600
33312,13454,30662
33300,13455,30646
32804,13461,30711
32280,13437,30756
32092,13405,30532
32100,13391,30727
32017,13392,30489
32121,13402,30724
32296,13416,30487
32188,13519,30636
32173,13509,30629
32460,13490,30700
32805,13453,30737
32844,13443,30584
32660,13417,30692
32113,13398,30792
31788,13388,30600
31840,13518,30701
32276,13487,30784
32869,13468,30505
33524,13458,30588
34032,13468,30764
34029,13438,30490
33461,13423,30764
32716,13420,30703
32416,13401,30721
32432,13393,30676
32332,13488,30548
32180,13482,30580
32156,13500,30621
32508,13511,30481
33172,13505,30568
33916,13490,30572
33792,13437,30696
33060,13426,30791
32456,13385,30576
32172,13395,30696
32000,13477,30560
31984,13460,30629
32076,13473,30702
32940,13465,30751
34240,13474,30478
34662,13468,30598
34044,13442,30596
33484,13422,30644
33432,13412,30687
33284,13426,30718
33116,13459,30749
33300,13453,30489
33429,13462,30605
33456,13455,30678
33352,13470,30697
33132,13456,30630
33036,13424,30639
33144,13398,30745
33328,13394,30854
33160,13391,30519
33052,13401,30727
32872,13489,30805
32580,13475,30682
32124,13457,30771
32120,13456,30692
32488,13425,30784
32896,13413,30812
33228,13394,30932
33198,13383,30606
32640,13389,30773
32248,13398,30828
32568,13413,30884
32833,13428,30992
32878,13441,30684
33181,13431,30798
33240,13547,31012
32820,13509,30945
31916,13476,30896
31180,13461,30962
30920,13455,31008
31180,13394,31060
31720,13414,30814
32024,13449,31140
32188,13462,30825
32320,13449,31041
32316,13431,30968
32189,13405,31077
31904,13391,31170
31856,13380,31108
31976,13385,31225
31848,13440,30927
31772,13476,31033
31885,13451,31248
32612,13452,30983
33480,13444,31138
33632,13439,31212
33120,13406,31188
32504,13394,31273
32440,13383,31205
32652,13379,31335
33328,13386,31001
33768,13403,31308
33832,13428,31259
33712,13442,31322
33624,13451,31261
33520,13418,31397
33420,13421,31303
33092,13415,31276
32864,13404,31277
32752,13407,31244
32728,13399,31304
33044,13418,31269
33428,13447,31380
33884,13495,31282
34148,13498,31404
33624,13415,31397
32721,13404,31319
32373,13469,31413
32552,13380,31356
32792,13481,31447
33080,13447,31570
33184,13428,31508
33264,13446,31639
33384,13453,31558
33645,13448,31679
33540,13446,31588
33048,13439,31678
32792,13426,31614
32532,13417,31576
32336,13428,31550
32320,13381,31684
32416,13402,31698
32640,13429,31738
32928,13425,31484
33124,13437,31724
33296,13430,31588
33628,13416,31749
33628,13404,31729
33180,13381,31809
32508,13401,31868
32532,13403,31884
32872,13418,31917
32728,13441,31911
32212,13443,31980
31801,13444,31980
31852,13422,32088
32135,13420,32000
32388,13404,32085
32608,13388,32063
32076,13380,32184
31692,13377,31911
32212,13399,32071
32649,13413,31960
32604,13413,32120
32188,13417,32284
31580,13404,32164
30840,13389,32238
30600,13377,32124
30416,13476,32096
30524,13370,32154
30897,13476,32249
31356,13470,32294
31668,13484,32300
32256,13495,32415
33068,13498,32108
33972,13480,32300
34632,13472,32098
35352,13374,32225
35805,13366,32355
36228,13389,32258
37044,13398,32471
37552,13463,32368
37952,13409,32335
38376,13417,32388
38476,13573,32508
38497,13403,32252
38748,13385,32378
38832,13373,32382
38988,13359,32432
39024,13391,32505
39248,13387,32440
39600,13401,32426
39896,13431,32309
39920,13428,32452
39756,13423,32519
39192,13418,32509
38304,13442,32556
37496,13362,32485
36760,13372,32447
36128,13377,32519
35748,13385,32509
35434,13401,32588
35108,13431,32722
34764,13426,32405
34360,13420,32597
33790,13413,32637
32977,13412,32706
32308,13386,32764
31704,13378,32738
31200,13377,32697
31157,13393,32718
31284,13444,32744
31252,13523,32702
30852,13415,32753
30548,13411,32741
30892,13406,32832
31272,13401,32956
31112,13381,32756
30560,13375,32845
30280,13380,32895
30396,13393,32876
30916,13404,32952
31428,13428,32895
31680,13439,32978
31577,13433,32652
31264,13412,32756
30988,13407,32817
30425,13392,32843
29788,13384,32812
29480,13391,32886
30004,13400,32955
30701,13432,32858
31476,13443,32924
32286,13444,32886
32968,13444,32868
33112,13465,32581
32616,13451,32762
31912,13418,32844
31341,13396,32580
31460,13412,32730
31156,13446,32813
31012,13387,32806
30640,13403,32841
30532,13407,32775
31040,13405,32753
31520,13393,32636
31560,13383,32736
31714,13367,32836
31736,13359,32708
31620,13364,32815
31652,13378,32689
31844,13399,32647
31860,13418,32644
31832,13450,32560
31860,13415,32526
31952,13433,32519
32020,13437,32313
31980,13441,32624
31372,13476,32276
30868,13362,32404
31012,13375,32280
31588,13391,32492
32400,13421,32492
32764,13419,32564
32805,13429,32467
32540,13420,32446
31988,13409,32181
31516,13422,32396
31309,13434,32164
31204,13439,32440
31288,13367,32189
31688,13382,32485
31900,13418,32396
31820,13432,32415
31368,13417,32373
30820,13414,32396
30617,13408,32384
30889,13403,32432
31488,13392,32134
32212,13413,32365
32548,13372,32388
31588,13389,32344
30650,13420,32321
30922,13417,32278
31996,13412,32367
33381,13399,32481
34092,13394,32103
33948,13393,32220
33481,13397,32173
33224,13453,32343
32948,13364,32036
32900,13499,32190
32744,13395,32220
32762,13480,32260
32689,13471,32201
32485,13465,32077
32284,13474,32148
32332,13444,32116
32165,13347,32193
31712,13349,32246
31656,13362,32172
31980,13380,32090
32336,13406,32047
32828,13420,31993
33260,13465,32020
33336,13388,31973
33184,13373,32007
33012,13376,31983
32908,13364,31812
32776,13408,32072
32906,13359,32036
33244,13399,32064
33624,13413,32005
33972,13413,32054
33888,13417,31991
33696,13408,32101
33204,13412,31972
32980,13431,31996
32792,13350,31909
32671,13356,31829
32844,13376,31876
33004,13405,31678
32656,13446,31916
32464,13507,31910
32652,13393,32008
32624,13482,31668
32816,13366,32016
32624,13372,31844
32004,13414,31659
31404,13421,31984
31792,13362,31906
33008,13369,32028
33528,13415,31896
33156,13407,31888
33393,13439,31877
33332,13378,31684
33148,13380,32021
33104,13365,31946
32512,13375,32044
31936,13403,31964
31854,13436,32007
32480,13369,31959
33057,13382,31998
33220,13389,31993
33044,13391,32040
32500,13377,31743
32000,13365,32084
31624,13364,32017
31756,13446,31999
32160,13343,32054
32633,13352,32024
32960,13366,32090
32804,13381,31797
32429,13512,31981
32520,13383,31988
32864,13372,31985
33152,13370,31965
33210,13364,32004
32697,13345,31967
32153,13358,32020
31932,13376,31996
31893,13412,31998
31956,13430,32084
32200,13415,32109
32352,13393,31996
32223,13383,32046
32064,13369,32135
31884,13367,32274
31436,13351,32020
31012,13362,32088
31054,13373,32166
31582,13377,32184
32052,13410,32212
32400,13447,32233
32596,13452,32329
32484,13369,32278
32416,13348,32273
32664,13332,32199
32872,13328,32328
32676,13456,32228
32644,13344,32285
32676,13455,32362
32828,13480,32280
33000,13508,32431
33124,13374,32444
32953,13376,32450
32372,13376,32428
32279,13341,32430
32784,13335,32447
32845,13362,32438
31816,13360,32493
31148,13392,32552
31460,13434,32548
32364,13477,32520
33153,13372,32509
33229,13365,32604
33128,13344,32713
33216,13330,32735
33288,13326,32814
33236,13337,32506
33124,13340,32853
33152,13370,32836
33002,13400,32820
33020,13399,32816
33172,13412,32797
33229,13416,32821
33156,13417,32852
32912,13328,32829
32657,13333,32741
32585,13354,33040
32332,13364,32829
32156,13372,32972
32188,13381,33040
32308,13402,33092
32572,13388,33078
32580,13397,33142
32532,13384,33118
32508,13381,33161
32556,13401,33152
32492,13458,33137
32188,13334,33070
32393,13358,33432
33008,13381,33318
33064,13399,33274
32240,13396,33396
31640,13380,33532
31416,13354,33412
31904,13346,33423
32528,13342,33389
32584,13353,33404
32436,13362,33429
32580,13393,33413
32704,13447,33261
33164,13369,33668
33288,13375,33519
33200,13370,33548
32792,13404,33559
32160,13330,33538
31452,13324,33511
31256,13326,33495
31852,13348,33335
32845,13378,33653
33508,13381,33604
34125,13415,33623
34684,13398,33583
34888,13381,33701
34236,13400,33573
33116,13328,33478
32536,13323,33517
32244,13348,33516
31936,13369,33445
32198,13418,33380
32536,13441,33415
32902,13375,33438
33116,13364,33188
33096,13373,33565
32912,13353,33447
33024,13323,33388
33136,13319,33302
32764,13325,33240
32368,13332,33276
32532,13348,33303
32752,13467,33284
32752,13456,33303
32457,13416,33378
32285,13378,33302
32360,13362,33222
32437,13348,33261
32380,13341,33157
32245,13327,33029
32526,13346,32864
32276,13361,33088
32014,13386,32816
32160,13444,33125
32576,13364,33045
33308,13348,32901
33860,13353,33028
33652,13348,32775
33104,13350,32868
32637,13357,32741
32256,13389,32740
32270,13414,32750
32736,13448,32722
33324,13361,32541
33836,13378,32838
34088,13371,32768
33996,13386,32770
33648,13392,32724
33120,13384,32780
32804,13396,32404
32812,13406,32672
32820,13348,32637
32332,13360,32713
31621,13365,32586
31236,13372,32656
31336,13378,32543
31832,13345,32444
32424,13344,32484
32724,13321,32631
32756,13332,32468
32809,13352,32480
33712,13367,32365
34396,13369,32397
34572,13389,32462
34456,13357,32341
34220,13358,32287
33744,13361,32309
33276,13354,32393
33004,13355,32497
32732,13395,32372
32624,13405,32472
32572,13468,32332
32736,13353,32446
33168,13360,32087
33377,13368,32397
33116,13408,32324
32532,13451,32252
32069,13410,32278
31372,13312,32263
31220,13317,32289
32192,13324,32368
32900,13341,32023
33250,13420,32239
33212,13408,32373
33356,13396,32156
33668,13375,32245
33645,13388,32297
33104,13443,32235
32397,13380,32208
32216,13349,32364
32440,13365,31997
32832,13394,32201
33308,13433,32165
33664,13357,32224
33680,13355,32332
33396,13341,31973
32965,13327,32168
32757,13311,31972
32736,13329,32124
32889,13334,32120
33004,13333,32204
33164,13339,32288
33292,13348,32068
33552,13357,32164
33588,13349,32285
33236,13340,32164
32336,13321,32176
31728,13311,32161
31716,13321,32252
31961,13333,32156
32484,13338,32105
33265,13376,31926
33301,13404,32020
32820,13422,32044
32040,13413,32141
31456,13431,32109
31432,13319,32072
32056,13308,32089
32772,13324,32073
33056,13330,32016
32940,13395,32120
32856,13336,31868
32812,13357,32127
33092,13379,32093
33454,13358,32057
33420,13351,32079
33404,13336,32129
33272,13337,31849
32876,13377,32173
32772,13308,32064
32880,13312,32166
33320,13338,31836
33622,13369,31984
33616,13370,32013
33492,13378,32020
33216,13357,32113
32884,13341,31772
32872,13316,31973
32860,13324,31983
33188,13330,32009
33272,13331,32100
32692,13356,31746
31744,13383,31881
31800,13396,31879
32652,13398,31959
33672,13402,32006
34057,13384,31868
33700,13388,31928
32973,13296,32044
32928,13300,31971
32856,13314,31830
32712,13333,31889
32612,13348,31909
32956,13348,31847
33104,13362,31824
32616,13359,31878
31976,13340,31964
31792,13325,32050
31972,13318,31794
32388,13322,31958
33052,13329,31980
33488,13325,32008
33404,13349,31878
33398,13425,31981
33257,13405,31900
32960,13397,32070
32768,13386,31756
32676,13328,32003
32744,13323,32128
32808,13314,31944
32908,13329,31844
33140,13341,32004
32820,13351,32191
32644,13358,32024
32492,13365,32112
32352,13340,31983
32076,13339,32172
31921,13316,31952
32212,13298,32180
32712,13306,32284
33124,13316,32104
33108,13335,32148
32796,13358,32214
32740,13384,32183
32648,13407,32175
32149,13392,32292
31748,13369,32406
31656,13361,32078
32136,13369,32404
32908,13430,32223
33472,13307,32254
33192,13327,32292
32804,13341,32412
32984,13341,32533
33460,13345,32185
33740,13338,32360
33664,13340,32372
33340,13306,32429
32888,13301,32391
32184,13325,32376
31809,13370,32334
32105,13388,32472
32720,13340,32512
33372,13344,32647
33692,13356,32529
33580,13349,32510
33292,13373,32519
33096,13395,32442
32816,13288,32708
32284,13314,32664
31992,13318,32685
32312,13317,32807
32864,13353,32701
33452,13361,32647
33785,13380,32663
33696,13415,32495
33304,13313,32838
32820,13316,32796
32336,13302,32910
31716,13315,32560
31760,13353,32725
32576,13320,32745
33752,13422,32836
34240,13336,32893
33768,13332,32885
32429,13324,32984
31476,13323,32644
31292,13302,33012
31485,13347,32905
32102,13292,32828
32744,13308,32830
32956,13345,32660
33098,13367,32935
33416,13403,32676
33124,13443,32929
32480,13318,32853
31853,13301,32905
31632,13311,32878
31824,13304,32840
32108,13342,32876
32592,13300,32928
33128,13325,32961
33468,13341,32896
34012,13346,32903
34212,13342,32954
33738,13348,32924
33232,13324,32960
33008,13301,33009
32612,13303,33040
32458,13343,33007
32524,13385,33020
32656,13311,33031
32656,13328,33008
32740,13357,32964
33152,13353,32948
33316,13377,32968
32972,13303,33174
32356,13295,33081
31748,13300,33040
31468,13310,33071
31745,13354,33104
32356,13398,33061
32848,13332,33031
33164,13341,33036
33440,13359,32977
33266,13334,32948
32620,13341,32919
31933,13371,33180
31660,13285,33075
31696,13297,33077
31856,13332,33008
31972,13353,32796
32341,13398,33063
33008,13322,33051
33600,13347,33092
33928,13332,33024
33788,13341,33002
33352,13360,32989
32372,13361,32953
31305,13347,32964
30864,13355,33088
31124,13365,33052
31604,13383,33026
32524,13397,32948
33309,13397,32997
33492,13431,32956
33157,13303,33001
32744,13292,32956
32500,13285,32988
32462,13301,32934
32788,13331,32929
33080,13337,32938
33040,13351,33024
33180,13392,32980
33371,13420,33004
33124,13441,33144
32868,13386,32783
32813,13284,33007
32636,13285,32958
32264,13286,33014
31932,13296,33096
31464,13316,33014
31209,13327,32958
32012,13332,32901
32708,13330,32917
33088,13317,32984
33568,13303,33012
34093,13297,33108
33712,13301,33025
33004,13351,33064
32688,13298,33048
32684,13332,33081
32817,13354,33038
33444,13355,33065
34196,13405,32996
34566,13317,33036
34824,13288,33007
34585,13290,33017
33812,13298,32976
33168,13312,33047
32680,13349,33004
32544,13316,32909
32854,13327,32950
33470,13332,33004
33800,13332,32948
33480,13333,32956
32700,13328,32936
31968,13311,32990
31620,13308,32924
31840,13318,32821
32624,13352,32852
33492,13430,32891
33944,13328,32892
34284,13358,32836
34272,13352,32772
33782,13409,32887
33248,13297,32848
32910,13305,32812
32608,13301,32724
32428,13337,32551
32472,13304,32800
32416,13317,32679
32121,13359,32602
31568,13348,32624
31188,13352,32476
30752,13338,32612
30488,13366,32481
30828,13287,32619
30924,13284,32572
30712,13294,32525
30640,13316,32358
31216,13330,32608
32101,13378,32570
33144,13327,32580
33872,13322,32506
34196,13332,32423
34412,13311,32407
34888,13319,32383
35260,13346,32324
35832,13378,32244
36732,13303,32292
37512,13319,32289
38073,13329,32236
38648,13335,32319
39044,13323,32313
39376,13303,32197
39720,13331,32372
39492,13295,32224
38472,13302,32341
37396,13341,32196
37408,13365,32255
38400,13445,32036
39460,13336,31895
40000,13342,32208
39964,13364,32084
39484,13457,32100
38816,13320,31974
37888,13294,31976
36652,13335,31972
35336,13364,31915
34696,13390,31950
34868,13308,31865
35492,13337,31832
35660,13348,31933
34796,13321,31920
33636,13309,31999
32684,13297,31639
31984,13284,31876
31409,13279,31665
31269,13290,31711
31016,13305,31757
30625,13324,31829
30492,13341,31773
30848,13357,31720
31304,13361,31695
31616,13359,31740
31796,13349,31838
31708,13332,31703
31436,13313,31585
31400,13351,31444
31420,13352,31564
31308,13318,31652
31632,13329,31739
31900,13329,31383
31884,13326,31503
31180,13317,31495
30600,13366,31580
30324,13355,31641
30456,13348,31546
31311,13379,31636
31784,13377,31332
31489,13417,31373
30324,13418,31372
29766,13401,31421
30161,13372,31556
30800,13398,31417
31352,13293,31461
31344,13284,31412
31345,13284,31506
31704,13303,31364
31653,13321,31239
31449,13335,31380
31808,13364,31184
32416,13385,31197
32688,13407,31212
32704,13382,31290
32192,13358,31396
31680,13367,31260
31408,13285,31381
31148,13291,31018
30869,13308,31351
31040,13339,31220
31532,13383,31296
32140,13332,30976
32592,13324,31148
32676,13309,31042
32440,13315,31176
31944,13333,31169
31172,13362,31192
30612,13287,31172
30620,13301,31270
31148,13317,31018
31736,13331,31160
32368,13357,31064
32760,13344,31030
32584,13358,31032
31789,13385,31095
