ECG,EDA,RR
27664,14124,23168
25024,14132,23366
25452,14112,23380
28480,14121,23288
32568,14084,23328
37161,14152,23294
39532,14092,23343
38912,14142,23277
35952,14092,23492
31788,14128,23429
27136,14189,23368
24560,14134,23580
25066,14146,23633
28160,14104,23474
32108,14102,23662
36600,14154,23665
39256,14111,23629
38872,14158,23663
35964,14104,23692
31926,14122,23709
27408,14129,23852
24824,14133,23908
25088,14154,23772
27828,14108,23884
31772,14159,23822
36680,14109,23908
39710,14069,23910
39448,14127,24076
36544,14116,24102
32204,14180,24132
27240,14132,24164
24576,14162,24116
25000,14127,24208
27984,14098,24076
32056,14141,24267
36832,14080,24287
39708,14152,24328
39384,14122,24284
36649,14102,24383
32652,14123,24399
27876,14124,24420
25028,14134,24415
25172,14175,24281
28056,14119,24444
32484,14088,24304
37544,14099,24432
40300,14090,24329
39560,14165,24482
36324,14099,24540
31924,14140,24350
27072,14122,24439
24672,14137,24373
25584,14145,24491
28784,14103,24445
32908,14160,24516
37648,14108,24528
40128,14169,24568
39548,14123,24492
36544,14102,24534
32241,14134,24572
27165,14175,24612
24356,14132,24648
24996,14124,24468
28264,14173,24637
32532,14086,24712
37332,14106,24510
39824,14083,24573
39144,14112,24543
36044,14175,24718
31864,14116,24757
27420,14140,24592
25004,14161,24751
25529,14126,24669
28176,14146,24806
31748,14093,24777
36336,14121,24828
39184,14222,24750
39092,14097,24722
36580,14141,24876
32388,14115,24924
27748,14145,24749
25284,14120,24912
25892,14124,24999
29194,14128,24793
33460,14084,24967
38252,14091,25048
40732,14169,24852
39992,14097,24952
36772,14114,25093
32268,14114,25041
27140,14128,25066
24332,14143,25007
24948,14113,24969
28348,14117,24978
32924,14142,25076
37928,14076,25095
40630,14100,24993
40060,14168,25168
37016,14187,25197
32704,14130,25276
28064,14128,25057
25645,14149,25256
26264,14117,25251
29096,14173,25256
32848,14112,25276
37280,14078,25345
39824,14095,25166
39280,14088,25196
36368,14112,25209
32196,14194,25196
27381,14141,25229
24620,14164,25260
24738,14129,25370
27785,14153,25340
32196,14148,25412
37316,14098,25394
40173,14171,25294
39728,14114,25359
36612,14180,25269
32348,14124,25408
27596,14160,25502
25125,14122,25295
25912,14131,25449
29024,14101,25528
33065,14142,25321
37468,14073,25466
39916,14135,25556
39492,14087,25354
36476,14130,25514
31984,14174,25536
27120,14126,25378
24610,14149,25524
25448,14116,25509
28880,14151,25552
33312,14087,25604
38068,14125,25410
40460,14071,25562
39788,14104,25516
36576,14098,25412
32224,14125,25402
27389,14156,25562
24996,14124,25486
26120,14121,25612
29620,14113,25428
33908,14152,25564
38412,14071,25568
40545,14116,25452
39584,14156,25636
36344,14103,25399
32084,14142,25383
27464,14164,25548
25056,14124,25429
25828,14126,25572
29036,14113,25559
33328,14146,25412
37948,14081,25364
40288,14092,25504
39528,14116,25402
36380,14105,25381
32048,14140,25476
27216,14174,25536
24841,14127,25296
25648,14148,25382
28716,14114,25282
32949,14092,25384
37728,14148,25308
40016,14117,25471
39172,14085,25392
36016,14141,25288
31840,14140,25277
27312,14120,25205
25012,14136,25255
25636,14111,25188
28632,14113,25338
32945,14084,25346
37900,14108,25325
40736,14153,25337
40280,14103,25152
37040,14165,25320
32404,14116,25134
27288,14140,25164
24704,14120,25125
25508,14123,25277
28876,14153,25255
33436,14088,25304
38484,14129,25112
41120,14073,25253
40416,14128,25223
37128,14105,25252
32708,14177,25173
28008,14128,25085
25872,14148,25253
26578,14112,25269
29332,14126,25106
32964,14088,25206
37336,14121,25217
39684,14079,25108
39080,14119,25231
36180,14101,25281
32020,14130,25268
27455,14176,25254
25184,14138,25134
26108,14164,25247
29324,14111,25212
33428,14141,25172
38176,14071,25202
40696,14097,25346
39764,14079,25348
36384,14128,25362
31816,14113,25236
27094,14133,25265
24712,14123,25223
25548,14120,25401
28784,14156,25476
33092,14088,25293
37888,14133,25344
40444,14080,25316
39560,14149,25367
36260,14126,25332
31852,14198,25429
27196,14137,25377
25128,14119,25454
26076,14134,25422
29088,14097,25564
33072,14091,25465
37612,14176,25452
40100,14111,25551
39540,14183,25607
36588,14127,25654
32376,14214,25645
27312,14130,25637
24768,14136,25557
25716,14150,25710
29140,14096,25802
33752,14113,25588
38712,14140,25738
40880,14109,25631
39840,14173,25694
36792,14102,25672
32542,14170,25789
27828,14128,25756
25381,14154,25864
26016,14111,25762
29216,14134,25885
33520,14078,25804
38144,14094,25962
40388,14172,25894
39404,14101,25954
36072,14122,25878
31640,14196,25918
27128,14131,25996
25104,14143,26071
25972,14108,26153
28852,14124,25928
32704,14113,25979
37252,14073,26064
39720,14117,26007
39128,14082,26161
36088,14119,26108
31632,14118,26040
26849,14160,26214
24684,14133,26113
25985,14116,26237
29589,14150,26245
34041,14092,26202
38740,14111,26272
40976,14068,26212
39828,14102,26132
36428,14194,26240
32096,14119,26346
27464,14136,26190
25130,14117,26308
25864,14126,26268
29052,14147,26348
33548,14093,26325
38476,14209,26201
40856,14113,26375
39960,14164,26449
36529,14113,26228
31832,14160,26336
27016,14124,26432
24772,14160,26448
25808,14114,26505
29216,14137,26316
33670,14084,26463
38392,14205,26375
40768,14111,26484
39668,14102,26385
36152,14102,26524
31472,14129,26404
26636,14124,26392
24420,14157,26537
25456,14124,26596
28748,14158,26406
33340,14103,26544
38284,14154,26660
40464,14078,26468
39484,14149,26597
36336,14097,26680
32013,14162,26484
27404,14123,26624
25260,14149,26684
26242,14102,26510
29509,14120,26652
33892,14078,26533
38393,14140,26672
40344,14111,26737
39176,14180,26502
35832,14114,26580
31240,14116,26690
26524,14129,26526
24292,14149,26607
25340,14111,26602
28912,14137,26742
33464,14084,26818
38096,14159,26755
39864,14097,26661
38448,14090,26592
35232,14118,26684
30992,14116,26656
26620,14148,26796
24789,14117,26724
26045,14116,26877
29509,14185,26814
33837,14112,26735
38000,14200,26864
39856,14114,26676
38864,14195,26796
35756,14128,26782
31448,14169,26740
26932,14119,26879
25004,14138,26981
26016,14156,26725
29348,14098,26904
33745,14132,26984
38192,14077,26765
40016,14149,26887
38752,14089,26812
35436,14118,26792
31044,14184,26868
26492,14138,26909
24408,14120,26991
25568,14121,27052
29048,14097,26868
33625,14165,27012
38504,14094,27109
40824,14068,26858
39766,14105,27009
36516,14101,27064
32008,14134,27037
27420,14119,26979
25357,14143,27016
26554,14116,27042
29828,14089,26973
34200,14116,27084
38816,14085,27079
40612,14076,27068
39456,14102,27057
36004,14093,27117
31392,14148,27193
26853,14116,26932
24940,14141,27036
26160,14107,26996
29604,14172,27116
34304,14102,27009
39020,14065,27156
40812,14117,27246
39224,14089,26980
35698,14113,27156
31352,14188,27232
27044,14127,26996
25244,14114,27076
26572,14142,27041
30080,14094,27169
34596,14099,27225
39168,14213,27101
41144,14101,27205
39796,14228,27197
36208,14117,27044
31476,14124,27070
26902,14112,27210
25013,14144,27276
26412,14102,27021
29969,14148,27133
34432,14096,27048
38676,14085,27310
40296,14216,27039
39065,14103,27111
35960,14151,27233
31704,14116,27104
27759,14153,27236
26092,14107,27120
27532,14109,27182
30684,14086,27249
34904,14092,27226
38912,14061,27108
40304,14095,27256
38440,14073,27206
34692,14116,27128
29988,14109,27247
25296,14148,27200
23196,14119,27240
24304,14098,27142
27676,14102,27262
32012,14065,27296
36560,14073,27115
38504,14063,27236
37740,14128,27288
34732,14100,27232
30812,14168,27304
27088,14129,27222
25892,14109,27316
27753,14108,27054
31816,14076,27133
37344,14125,27092
42612,14064,27212
45253,14134,27302
44840,14081,27025
41944,14165,27104
38121,14114,27092
33788,14108,27164
32224,14125,27164
34256,14087,27208
38160,14118,27222
42604,14063,27017
46680,14100,27101
48128,14048,27061
46356,14127,27194
42652,14076,27148
37996,14173,27150
33396,14120,27060
31620,14185,27205
32888,14103,27296
35828,14069,27197
39352,14089,27158
42764,14224,27116
43868,14095,27244
42028,14171,27304
38200,14087,27064
33320,14130,27220
28388,14106,27156
25872,14120,27231
26352,14087,27254
29024,14082,27329
32920,14144,27289
37140,14082,27196
38940,14196,27260
37596,14092,27244
34176,14091,27310
29668,14157,27197
25116,14106,27285
23281,14122,27333
24616,14094,27404
28160,14113,27488
32652,14053,27280
37076,14070,27415
38688,14061,27328
37236,14098,27279
33728,14081,27373
29017,14114,27468
24532,14100,27232
22948,14102,27351
24624,14127,27298
28388,14084,27436
33108,14140,27526
37612,14061,27297
39096,14053,27431
37388,14081,27450
33200,14080,27486
28452,14140,27584
24184,14103,27365
22908,14113,27526
25084,14080,27585
28932,14096,27408
33469,14052,27532
37680,14071,27598
38912,14052,27565
37220,14098,27509
33676,14146,27581
29052,14092,27407
24720,14117,27573
23284,14095,27668
25070,14105,27617
28848,14070,27573
33620,14093,27521
38153,14051,27622
39764,14105,27630
37904,14068,27684
33908,14142,27729
29246,14096,27689
25125,14121,27592
23756,14094,27622
25393,14088,27692
28944,14068,27610
33264,14068,27726
37544,14041,27665
39252,14077,27733
37904,14062,27804
34544,14100,27596
29924,14135,27724
25269,14098,27660
23576,14120,27738
25309,14079,27610
29160,14149,27680
34000,14112,27661
38368,14045,27801
39780,14080,27564
37866,14076,27663
34068,14145,27746
29354,14088,27536
25270,14102,27693
23848,14129,27620
25496,14083,27692
29172,14116,27615
33674,14059,27676
38000,14064,27756
39492,14130,27468
37952,14063,27637
34368,14076,27683
29668,14118,27428
25072,14093,27576
23476,14104,27558
25172,14076,27421
29092,14082,27461
33976,14117,27456
38540,14054,27548
40136,14134,27465
38368,14071,27596
34989,14108,27348
30452,14085,27480
26332,14097,27556
24813,14138,27262
26342,14089,27416
29754,14126,27444
34192,14062,27417
38452,14143,27380
40092,14077,27248
38476,14061,27360
34968,14138,27292
30560,14084,27374
26413,14120,27265
25014,14086,27330
26664,14112,27364
30252,14052,27320
34844,14060,27345
39156,14032,27188
40704,14065,27248
38792,14052,27287
34820,14078,27341
29908,14082,27328
25544,14124,27193
23980,14097,27437
25705,14105,27228
29480,14055,27356
34188,14055,27420
38828,14029,27353
40676,14064,27353
39380,14144,27243
36100,14063,27342
31617,14078,27156
27180,14100,27237
25528,14121,27346
27008,14068,27168
30420,14072,27318
34704,14121,27340
38796,14034,27196
40280,14066,27328
38652,14053,27382
35100,14095,27127
30500,14146,27285
26157,14086,27397
24580,14095,27138
26240,14116,27310
29900,14058,27308
34548,14112,27140
38860,14024,27296
40420,14053,27168
38972,14125,27252
35176,14060,27192
30184,14093,27245
25264,14139,27196
23548,14083,27245
25285,14091,27212
29264,14045,27104
34212,14048,27232
39068,14133,27124
40840,14044,27096
39148,14085,27208
35336,14053,27228
30656,14099,26987
26428,14080,27086
24864,14082,26996
26376,14058,27235
29968,14062,27149
34200,14116,27076
38512,14058,26999
40224,14119,27109
38656,14076,27097
34805,14057,27109
29892,14092,27108
25414,14074,26906
23744,14079,27069
25384,14082,27109
29080,14046,26884
33992,14052,26940
38740,14166,27016
40512,14068,27052
38732,14116,26948
34752,14053,26970
29976,14087,26884
25658,14129,27036
24256,14085,27124
25900,14101,26912
29364,14057,27044
33760,14100,27124
38212,14031,26941
40228,14069,27093
39124,14036,27108
35825,14117,26980
31176,14081,27116
26640,14104,27052
24854,14070,27036
26286,14068,26992
29824,14041,27133
34376,14052,27238
38904,14084,27029
40716,14021,27229
39264,14055,27313
35740,14132,27081
31172,14138,27149
26712,14082,27303
24980,14097,27244
26408,14054,27276
29925,14080,27332
34604,14022,27344
39328,14048,27257
41168,14072,27467
39876,14034,27270
36448,14078,27404
31632,14120,27394
26552,14073,27484
24274,14089,27293
25484,14048,27479
29292,14049,27471
34004,14076,27554
38764,14015,27436
40628,14059,27371
39244,14035,27454
35816,14112,27540
31453,14057,27374
27220,14077,27586
25777,14059,27644
27284,14064,27468
30524,14031,27584
34776,14038,27721
38941,14007,27441
40388,14052,27572
38784,14024,27750
35136,14070,27612
30536,14107,27510
26272,14063,27688
24558,14081,27669
25728,14047,27674
29000,14047,27721
33616,14092,27722
38480,14038,27812
40580,14119,27753
39384,14052,27676
35860,14127,27816
30960,14060,27596
26384,14106,27712
24744,14062,27739
26368,14070,27628
30140,14027,27812
34912,14024,27861
39474,14116,27861
41156,14045,27967
39456,14189,27708
35820,14052,27848
31172,14055,27911
26736,14071,27890
25032,14052,27841
26552,14052,27973
30160,14111,27812
34736,14025,27920
39092,14004,27914
40766,14065,27774
39228,14057,27893
35616,14152,27845
30996,14068,27973
26677,14098,27868
25044,14051,28071
26288,14052,27977
29560,14060,27873
34046,14010,27916
38668,14028,27899
40540,13999,27882
39272,14056,27992
35992,14032,28033
31540,14079,27826
27264,14053,27970
25641,14095,27846
27149,14055,28000
30552,14032,27857
35080,14092,27958
39452,14018,27879
41100,14002,27996
39468,14017,28011
35736,14062,28036
30844,14046,27860
26412,14057,27988
24712,14085,28044
26284,14031,27841
30093,14034,27788
34896,14036,27952
39400,14028,27968
40864,13999,27860
39024,14036,27906
35416,14030,27940
30960,14084,28037
26682,14053,27756
25268,14073,27918
26936,14037,27974
30668,14085,27932
35392,14016,27996
39932,13999,27775
41672,14021,27911
40072,14001,27956
36288,14068,27900
31072,14044,27790
26344,14055,27925
24609,14040,27712
26256,14050,27815
30080,14010,27876
34940,14057,27908
39452,14025,27796
40964,14113,27889
39416,14042,27724
35776,14119,27778
31072,14043,27948
26808,14077,27777
25336,14040,27744
27129,14037,27884
30820,14012,27985
35409,14019,27784
39788,13989,27905
41444,14072,27801
39796,14004,27956
35840,14052,27780
30596,14040,27888
25938,14044,27860
24542,14053,27916
26516,14021,27884
30360,14068,27785
35304,13996,27712
39964,14028,27888
41692,13999,27996
39900,14048,27777
35921,14011,27904
31153,14053,28001
26720,14036,27698
25156,14041,27868
26976,14017,27949
30964,14035,27894
35908,13988,27848
40484,14028,27910
41845,14010,27896
39772,14100,27876
35644,14044,27765
30320,14089,27888
25816,14050,27950
24613,14024,27872
26613,14033,27792
30466,14064,27736
35028,14013,27852
39444,14089,27952
40878,14012,27671
38924,14081,27843
35052,14004,27837
30180,14069,27880
25956,14048,27840
24740,14056,27836
26762,14012,27753
30676,14046,27833
35416,13993,27769
39668,14066,27729
41104,14000,27815
39385,13998,27897
35824,14023,27632
31072,14021,27724
26772,14044,27884
25296,14023,27671
27044,14050,27785
30708,13996,27825
35392,14007,27852
39700,13994,27772
41288,14083,27665
39420,14012,27748
35495,14005,27608
30320,14081,27664
25784,14042,27724
24444,14018,27761
26521,14038,27824
30592,13993,27577
35672,14019,27753
39988,13996,27864
41112,14073,27607
38816,14013,27782
35056,14091,27881
30512,14041,27608
26356,14025,27672
25025,14041,27849
26804,14008,27660
30428,14038,27796
35020,13981,27804
39352,14048,27677
40828,14013,27799
39148,14061,27711
35500,14001,27857
30544,14055,27813
26081,14025,27732
24637,14077,27706
26684,14022,27825
30756,14052,27791
35628,13988,27770
39996,13970,27841
41428,14008,27873
39448,13989,27697
35620,14062,27745
30772,14032,27772
26376,14080,27862
25037,14033,27901
27064,14006,27660
30992,14062,27780
35920,14013,27686
40168,13970,27748
41296,13977,27716
39198,14055,27801
35324,13996,27845
30408,14049,27893
26292,14020,27845
25012,14031,27771
26964,13993,27877
30804,14000,27985
35612,14096,27721
39900,13998,27801
41252,14124,27780
39392,13997,27910
35648,13999,27953
30784,14020,27751
26724,14016,27868
25473,14020,28014
27469,13996,27724
31140,14020,27888
35844,13965,27796
39758,13982,27932
40488,14081,27873
38080,13984,27844
34000,14007,27769
29320,14058,27910
25632,14015,27932
25024,14020,27813
27488,14028,27944
31400,13977,28044
36072,13996,27805
40132,14008,27958
41200,13970,28041
38888,14012,27832
34874,14074,27941
30092,14020,27908
26040,14042,27964
24713,14019,27783
26326,13992,27877
29904,14001,27848
34700,13962,27975
39304,14011,28070
40956,13983,27962
39461,14081,28077
35936,14004,27872
31286,14058,27995
27332,14028,28054
26322,13997,27809
28144,14002,27945
31630,13976,27855
35936,13989,27990
39592,13956,28005
40508,13987,28033
38404,13984,28073
34752,14060,28028
30364,14006,27934
26652,14037,27929
25581,14007,28053
27637,13985,28144
31085,14012,28073
35724,13956,28044
39942,14045,27950
41220,13976,28012
39312,13969,27980
35461,14050,28072
30532,14012,28008
26304,14024,27976
25028,14003,28124
27076,14009,28217
30856,13972,27985
35624,13992,28076
39544,13953,28201
40613,13975,28216
38660,14116,28238
34852,14002,28079
30052,13998,28252
26156,14012,28333
25128,13994,28301
27220,13993,28380
31040,13965,28140
35888,13957,28328
39972,14022,28324
40824,13957,28368
38476,13988,28453
34564,13979,28208
29688,14036,28532
25708,13998,28241
24744,14017,28476
26724,13985,28277
30472,14006,28376
35262,13953,28366
39304,14034,28496
40468,14128,28570
38360,14020,28552
34585,13974,28551
29780,14030,28566
25988,13993,28697
25061,14013,28627
27060,13976,28737
30272,14007,28661
34569,13952,28748
38664,13972,28540
40060,14054,28676
38292,13968,28630
34788,14003,28632
30053,14048,28728
25988,13997,28800
24856,13987,28756
26940,13984,28856
30932,13965,28772
35824,13976,28846
39960,14036,28674
41076,13977,28745
38964,14044,28780
35036,13992,28820
30212,14078,28912
26429,14025,28824
25764,13993,28863
28008,14021,28841
31808,13972,28804
36472,14020,28732
40408,13977,28786
41472,14077,28754
39540,13973,28760
35960,13967,28753
31184,14008,28812
26904,13985,28957
25504,14017,28886
27400,13972,29001
31192,14016,28736
35876,13969,28962
39664,13951,28889
40868,14061,28758
39048,13989,28951
35364,13964,28708
30624,13993,28879
26570,14040,28976
25567,13988,28946
27756,13964,28964
31596,14020,28860
36068,13954,28831
39656,13940,28876
40520,14015,28761
38516,13978,28872
35088,14044,28870
30664,13988,28861
26852,13980,28886
25820,13995,28992
27802,13960,29076
31492,13986,29028
35996,13961,29084
39604,14040,29040
40328,13959,29153
38232,13951,29069
34808,13964,29057
30412,14004,29084
26740,13985,28981
25729,13997,29109
27788,13960,29232
31484,14020,28972
36172,13964,29055
39948,13926,28988
40760,14000,29084
38396,13964,29113
34424,14036,29205
29156,13996,29175
24820,13977,29204
23586,13995,29141
25536,13960,29255
29272,13967,29316
33912,13998,29156
37684,13932,29272
38508,13981,29390
36660,13953,29284
33456,14004,29198
29409,13984,29090
26372,14030,29327
26144,13988,29093
29068,13953,29168
33816,13965,29249
39420,14082,29298
43728,13937,29200
45164,14004,29248
43697,13956,29288
40320,14023,29260
36140,13978,29166
32712,14019,29287
32220,13963,29333
35068,14017,29071
39328,13939,29214
43996,13955,29298
47480,13903,29264
48125,13962,29314
45676,13930,29037
41637,14031,29208
36572,13984,29136
32544,13966,29253
31456,13978,29317
33220,13944,29251
36328,14013,29340
40160,13930,29044
43444,14007,29348
43944,13948,29068
41492,13994,29198
37200,13946,29341
31744,13976,29088
27200,14038,29220
25808,13974,29276
27432,13992,29327
30856,13933,29264
35512,13968,29249
39376,13904,29368
40052,14005,29335
37376,13972,29366
33033,13948,29284
27866,13980,29320
24006,13963,29296
23473,13977,29407
25992,13944,29461
30054,13957,29436
34832,13917,29530
38628,13962,29441
39416,13929,29448
37032,13974,29299
33036,13950,29460
27973,13965,29388
23998,13962,29268
23149,13971,29476
25390,13944,29264
29392,13985,29368
34460,13940,29378
38596,14069,29396
39536,13920,29428
37164,13952,29377
33152,13949,29480
28016,13968,29434
23969,13996,29516
23020,13956,29614
25360,13980,29296
29537,13947,29452
34649,13930,29404
38752,13996,29420
39520,13947,29518
37288,14029,29624
33332,13959,29332
28272,13951,29509
24212,14010,29501
23288,13969,29585
25644,13943,29351
29728,13965,29428
34832,13923,29405
39060,14006,29494
40165,13933,29556
37840,13925,29356
33505,13984,29498
28084,13965,29285
24224,13953,29365
23648,13956,29424
26336,13933,29380
30636,13970,29376
35760,13901,29496
39544,13950,29456
39888,13942,29300
37245,13988,29457
33416,14017,29456
28672,13963,29404
25008,13951,29464
24160,13975,29460
26168,13941,29504
30074,13978,29476
35272,13917,29385
39376,13988,29453
40116,13933,29517
37672,13973,29272
33476,13936,29365
28430,13990,29356
24640,13956,29412
23968,13983,29460
26405,13950,29452
30336,13945,29217
35220,13906,29296
38957,13976,29372
39720,13904,29173
37508,13936,29323
33640,13934,29252
28768,13954,29262
25133,13988,29216
24441,13948,29311
26692,13977,29300
30572,13916,29100
35544,13950,29225
39368,13895,29135
40052,13942,29238
37768,13916,29256
33980,13956,29226
29242,13946,29207
25494,13956,29068
24624,13989,29164
26749,13930,29261
30618,13951,29040
35572,13898,29140
39708,13927,29237
40984,14005,28935
39176,13935,28998
35452,13976,29105
30528,13941,28908
26416,13956,29079
25212,13957,29191
27100,13922,29004
30976,13924,29116
36072,13972,28989
40091,13892,29200
40868,13926,28940
38664,13983,29115
34936,13921,29081
30056,13946,29090
26120,13952,28960
25012,13975,29114
26937,13964,28924
30860,13908,29048
35996,13972,28924
40180,13922,29085
41344,14034,29136
39220,13925,29129
35284,14050,29121
30208,13962,29008
26149,13991,29100
25116,13945,29220
27260,13977,28914
31120,13925,29136
35916,13884,29004
39676,13932,29060
40304,13903,29025
37892,13997,29136
33984,13950,29222
29034,13936,28922
25228,13983,29021
24480,13942,29032
26892,13919,29064
30880,13936,28958
35824,13888,29098
39664,13952,29038
40428,13890,29137
38180,13924,29025
34272,14006,29012
29202,13942,29104
25324,13935,29125
24512,13935,29148
26788,13954,29236
30752,13902,29164
35632,13932,29104
39300,13883,29041
39872,13948,29170
37568,13925,29264
33612,13973,29048
28586,13949,29060
24760,13931,29092
24044,13921,29040
26532,13922,29178
30709,13945,29132
35880,13874,29058
39980,13890,29055
40984,13970,29076
38816,13890,29049
34676,13928,29157
29236,13924,29273
25132,13935,28988
24224,13920,29064
26756,13913,29212
31048,13906,29064
35949,13948,29209
39656,13871,29285
40164,13912,29093
37816,13919,29004
34164,13912,29132
29565,13964,29268
25989,13924,29055
25349,13932,29225
27452,13902,29364
31077,13908,29064
35866,13880,29230
39709,13892,29302
40416,13878,29329
38084,13957,29428
34096,13930,29352
29156,13918,29421
25290,13953,29180
24561,13927,29367
26905,13900,29337
30940,13907,29424
35912,13869,29444
39832,13942,29493
40636,13908,29586
38420,13962,29324
34584,13927,29649
29632,13918,29365
25824,13919,29612
25061,13927,29663
27374,13894,29534
31360,13906,29631
36076,13935,29632
39852,13862,29703
40508,13893,29788
38120,14044,29541
34168,13916,29866
29284,13992,29590
25704,13931,29764
25128,13932,29836
27286,13890,29865
31016,13887,29796
35828,13912,29782
39692,13859,29888
40392,13877,29912
38036,13953,29762
33892,13922,29929
28896,13969,29876
25300,13924,29892
24828,13935,29989
27288,13900,30032
31380,13944,30062
36284,13874,30100
40116,13937,30070
40880,13902,30013
38720,14004,30060
34936,13912,30078
30004,13905,30141
25968,13940,30152
24957,13909,30215
27152,13940,30168
31288,13876,30248
36304,13917,30324
40296,13865,30092
40950,13918,30152
38484,13876,30185
34440,13917,30308
29458,13965,30359
25809,13916,30204
25141,13929,30313
27520,13904,30272
31520,13870,30265
36256,13891,30196
39904,13859,30274
40588,13908,30293
38241,13880,30256
34236,13933,30200
29310,13922,30268
25492,13952,30360
24752,13900,30055
27012,13902,30242
30906,13868,30325
35796,13881,30007
39740,13927,30114
40484,13857,30091
38296,13906,30185
34519,13953,30268
29746,13898,30041
26017,13920,30000
25390,13892,30055
27636,13892,30114
31492,13974,30024
36036,13887,30016
39684,13945,29869
40472,13893,29940
38432,13916,30111
34908,13964,29921
30248,13896,29761
26360,13934,29860
25145,13896,29831
26928,13910,29938
30708,13865,29916
35656,13871,29809
39816,13928,29672
41180,13868,29764
39228,13929,29760
35196,13886,29736
30116,13935,29832
26108,13895,29852
25068,13917,29860
27188,13889,29696
31112,13860,29788
36100,13860,29869
40097,13832,29816
40972,13854,29818
38568,13905,29848
34489,13871,29729
29477,13908,29816
25738,13926,29792
25060,13876,29929
27594,13888,29622
31628,13855,29727
36360,13864,29836
40284,13839,29876
41332,13892,29973
39256,13850,29709
35464,13930,29904
30428,13893,29793
26533,13925,29938
25688,13881,30077
27713,13882,29878
31364,13853,29908
35976,13872,30056
39616,13924,30068
40288,13860,30128
38012,13912,29900
34208,13884,30124
29441,13974,30048
25581,13905,30188
24724,13922,30252
26896,13871,30061
30832,13894,30259
35732,13845,30296
39724,13892,30398
40704,13841,30392
38680,13934,30242
34756,13887,30518
29752,13913,30420
25842,13879,30553
25044,13887,30685
27412,13917,30533
31344,13858,30664
36004,13865,30812
39636,13823,30517
40296,13881,30648
38133,13844,30864
34596,13869,30656
30100,13933,30772
26349,13878,30884
25341,13900,31000
27300,13854,31012
31100,13900,31040
35978,13844,31205
40156,13816,31170
41316,13901,31173
39376,13875,31225
35625,13976,31396
30592,13884,31168
26204,13876,31453
24836,13866,31280
27020,13863,31200
31221,13924,31599
36160,13833,31422
40168,13889,31513
41016,13852,31431
38692,13919,31617
34880,13879,31704
30148,13866,31773
26173,13884,31751
24948,13865,31738
26944,13869,31764
30717,13838,31828
35456,13836,31852
39620,13812,31841
40892,13857,32034
38992,13833,32000
35204,13877,32044
30280,13858,32116
26128,13881,32130
24912,13859,32109
26840,13856,32312
30588,13908,32380
35368,13848,32456
39417,13912,32538
40544,13849,32580
38600,13909,32640
34964,13846,32680
30360,13873,32756
26396,13929,32901
25176,13872,32585
27060,13877,32840
30772,13826,32990
35504,13833,32749
39738,13868,33018
40992,13812,33232
38888,13830,33086
34796,13886,33173
29840,13856,33326
25748,13876,33336
24729,13897,33485
26928,13858,33260
30868,13822,33351
35720,13822,33484
40084,13804,33588
41336,13837,33747
39280,13948,33460
35422,13865,33620
30576,13909,33684
26504,13864,33718
25582,13890,33761
27572,13833,33868
31028,13848,33960
35180,13805,33957
38872,13826,34092
40044,13985,33794
38356,13837,33964
34872,13829,33935
30388,13868,34037
26248,13848,34132
25064,13857,34256
27014,13835,34346
30740,13846,34300
35432,13804,34280
39528,13841,34316
40792,13801,34353
38896,13859,34416
35124,13828,34545
30385,13860,34528
26341,13846,34591
25209,13856,34629
27276,13831,34733
30999,13824,34695
35572,13884,34636
39824,13813,34441
41084,13803,34878
39141,13813,34823
35448,13855,34726
30608,13932,34812
26237,13853,34880
24730,13838,34716
26592,13845,34894
30400,13811,34967
35020,13813,35040
39032,13794,35024
40394,13817,35093
38636,13801,35108
34984,13840,35140
30264,13838,35162
26220,13846,35255
25032,13834,35324
26664,13839,35335
30018,13802,35356
34404,13817,35404
38657,13788,35498
40368,13831,35128
38960,13885,35404
35512,13849,35497
30912,13921,35632
26796,13852,35525
25610,13828,35536
27636,13833,35566
31412,13872,35604
35900,13817,35621
39968,13868,35722
41184,13785,35372
39148,13835,35718
35112,13812,35623
30409,13849,35656
26604,13831,35732
25552,13853,35777
27248,13820,35876
30852,13857,35812
35208,13788,35948
39208,13828,35548
40444,13786,35823
38648,13833,35972
35068,13805,35728
30404,13838,35870
26296,13868,35912
25000,13826,35881
26828,13834,35952
30588,13860,35648
35204,13782,35880
39396,13796,36052
40853,13909,36018
39068,13812,36057
35400,13819,36056
30812,13888,36032
26676,13818,36010
25408,13833,36172
27189,13804,35756
30660,13799,36041
34972,13790,36022
38764,13872,36184
39948,13811,36132
38368,13871,36057
34840,13814,36197
30212,13848,36136
25964,13822,36276
24522,13848,35862
26224,13802,36068
30000,13799,36292
34828,13872,35924
39028,13796,36188
40013,13887,36024
38033,13808,36380
34584,13796,36265
30140,13833,36303
26264,13809,35969
25252,13823,36170
27200,13842,36097
30736,13782,36297
34870,13800,36028
38600,13760,36464
39812,13811,36388
38172,13857,36356
34764,13786,36114
30340,13824,36281
26428,13809,36119
25184,13841,36580
26919,13807,36461
30536,13780,36400
35152,13782,36464
39400,13760,36439
40848,13793,36476
39076,13773,36504
35428,13804,36537
30830,13801,36592
26900,13822,36593
25740,13854,36688
27368,13805,36621
30916,13846,36660
35400,13758,36648
39436,13766,36516
40736,13916,36589
39012,13796,36656
35436,13840,36798
30964,13820,36716
26964,13860,36736
25686,13809,36599
27354,13847,36679
30992,13799,36748
35604,13820,36888
39676,13748,36605
40900,13784,36928
38837,13907,36808
34952,13804,36876
30128,13793,36799
26122,13820,36884
25224,13796,36886
27452,13801,36997
31320,13766,36886
35992,13823,36848
39820,13764,36871
40724,13831,36957
38736,13761,36951
35084,13800,37080
30625,13876,36970
26516,13802,36996
25237,13812,36924
27184,13781,36964
30908,13781,37062
35540,13753,37009
39704,13815,36861
40928,13772,36933
38908,13838,37037
35164,13772,37108
30524,13812,37240
26496,13792,36780
25336,13823,37271
27348,13805,37152
30944,13786,37180
35136,13772,37189
39008,13832,37319
40200,13761,36889
38356,13784,37223
34484,13764,37342
29680,13802,36900
25296,13810,36916
23748,13830,37178
25338,13777,37244
28888,13772,37332
33272,13800,37308
37404,13733,37271
38904,13779,37344
37612,13840,37448
34668,13772,37100
30650,13819,37423
26921,13790,37084
26036,13792,37279
28220,13830,37492
32284,13760,37447
37180,13775,37544
41864,13731,37438
43936,13761,37469
43136,13859,37408
40168,13777,37468
36328,13816,37580
32576,13861,37228
31420,13780,37404
33244,13787,37520
36920,13748,37496
41201,13770,37396
45204,13817,37412
46524,13728,37456
44956,13764,37604
41528,13841,37154
37172,13768,37437
32788,13802,37612
31296,13770,37345
32972,13805,37425
36192,13747,37449
40128,13791,37560
43588,13716,37492
44438,13764,37481
42208,13746,37512
38056,13788,37300
33008,13851,37472
28148,13788,37617
26176,13800,37456
27404,13762,37556
30497,13781,37425
34392,13734,37601
38037,13759,37301
38984,13850,37468
36756,13761,37628
32744,13782,37244
28032,13772,37496
24156,13806,37553
23216,13782,37583
25306,13821,37636
29152,13760,37640
33708,13733,37744
37748,13756,37689
39100,13722,37830
37468,13764,37332
33780,13760,37657
29256,13786,37792
25088,13780,37718
23686,13769,37826
25448,13777,37729
29232,13746,37605
33764,13754,37768
37796,13720,37767
38936,13767,37895
37284,13736,37772
33888,13818,37892
29406,13788,37796
25176,13784,37780
23600,13785,37670
25190,13809,37889
28701,13750,37757
33140,13782,37772
37296,13725,37800
38752,13760,37855
37370,13736,37807
33982,13772,37984
29416,13830,37728
25096,13785,37844
23512,13795,37972
25280,13752,37749
28989,13770,37852
33580,13726,37973
37888,13733,37930
39452,13855,38032
37956,13768,37964
34612,13814,37960
30280,13764,37864
26052,13781,37848
24232,13761,37950
25585,13763,37992
29004,13800,38061
33477,13740,38020
37721,13770,38080
39188,13714,38056
37552,13746,38165
33820,13746,38094
29070,13768,38216
24928,13765,38100
23512,13768,38228
25432,13745,38104
29308,13742,38100
33756,13832,38089
37725,13749,38180
38964,13767,38188
37464,13724,38300
34456,13754,38196
30320,13852,38322
26596,13761,37900
25156,13785,38180
26632,13742,38151
30192,13749,38181
34796,13762,38360
39140,13705,38260
40768,13746,38390
39076,13721,38255
35296,13758,38189
30436,13773,38372
25877,13812,38296
24232,13753,38185
25770,13750,38425
29376,13789,38052
33904,13708,38328
38080,13703,38340
39436,13740,38449
37496,13726,38297
34033,13750,38372
29992,13747,38476
26284,13762,38176
25177,13748,38440
26952,13743,38324
30505,13721,38380
34892,13731,38541
38984,13700,38489
40468,13764,38546
38956,13741,38496
35588,13784,38680
31216,13749,38176
27144,13781,38513
25736,13743,38630
27312,13781,38597
30736,13737,38753
34952,13787,38308
38924,13733,38540
40364,13700,38629
38816,13774,38710
35404,13865,38864
31172,13746,38757
27216,13748,38660
25820,13756,38716
27360,13731,38821
30564,13766,38680
34780,13704,38848
38728,13737,39020
40200,13703,38900
38760,13752,38884
35668,13744,38948
31520,13737,38973
27200,13797,38860
25428,13749,38972
26488,13728,38917
29696,13738,39007
34092,13696,39052
38520,13729,39180
40476,13710,39092
39200,13853,39116
35680,13736,39120
31374,13730,39284
27488,13757,39151
26338,13738,39303
27732,13776,39200
30980,13715,39141
34940,13756,39148
38352,13717,39188
39321,13785,39201
37588,13734,39157
34084,13796,39168
29776,13754,39168
25936,13786,39228
24516,13746,39165
25904,13721,39172
28870,13728,39100
32932,13688,39138
37080,13729,39104
38780,13695,39173
37516,13761,39164
34292,13740,39140
29976,13728,39081
25916,13744,39160
24412,13767,39191
25901,13721,39284
29236,13718,39258
33538,13746,39196
37716,13678,39199
39252,13722,39120
37808,13702,39175
34376,13742,39228
30036,13772,39197
25892,13732,39173
24400,13732,39037
25897,13773,39191
29416,13701,39268
33916,13704,39185
38120,13770,39174
39876,13721,39161
38604,13690,39212
35236,13766,39352
30832,13726,38824
26300,13774,39168
24516,13737,39349
25788,13768,38825
28932,13712,39328
32920,13678,39149
36928,13715,39184
38472,13685,39372
37238,13724,39212
34216,13781,39252
30252,13744,39256
26420,13718,39215
25104,13748,39210
26709,13707,39380
30092,13743,38868
34372,13692,39172
38488,13806,39278
40048,13712,39248
38692,13770,39308
35412,13703,39264
30912,13726,38852
26738,13745,39172
25284,13765,39308
26936,13714,39136
30308,13720,39180
34308,13677,39040
37900,13695,39256
39096,13736,39070
37560,13693,39092
34400,13751,39124
30244,13718,38996
26338,13764,39037
25024,13711,38858
26536,13698,38954
29965,13712,39072
34452,13669,38932
38448,13714,38868
39744,13668,38756
38016,13756,38764
34692,13694,38800
30458,13720,38884
26500,13713,38718
25028,13717,38744
26324,13743,38652
29560,13693,38636
33796,13728,38568
37936,13693,38572
39400,13668,38508
37856,13731,38388
34468,13700,38408
30180,13766,38365
26252,13730,38525
25096,13701,38484
26712,13737,38553
29876,13694,38392
33813,13664,38394
37772,13723,38308
39424,13666,38477
38124,13723,38324
34716,13688,38388
30300,13730,38010
26240,13704,38151
24900,13725,38311
26640,13692,38226
30129,13732,38324
34464,13689,38149
38492,13683,38154
39996,13782,38008
38417,13709,38072
34933,13686,38114
30524,13727,38140
26428,13726,37988
25050,13746,37970
26788,13704,37942
30476,13678,37984
34968,13695,38001
39056,13667,38085
40332,13767,38053
38448,13693,38160
34696,13682,38012
30228,13724,37892
26356,13700,38005
25080,13725,38039
26580,13690,38088
29856,13726,37929
34140,13679,38009
38140,13746,38168
39344,13680,37968
37496,13671,37953
34016,13714,38148
30068,13733,38125
26436,13704,37663
25649,13736,37935
27408,13695,38129
30688,13710,37902
34740,13654,38072
38452,13729,38201
39708,13666,38013
38120,13736,38068
34628,13681,38222
30200,13729,37720
26173,13701,38068
25006,13711,38096
26808,13737,38070
30341,13685,38012
34760,13701,38230
38660,13650,38040
39844,13694,38113
38188,13662,38189
34936,13719,38108
30892,13700,38160
27236,13758,38101
25834,13698,38188
27324,13728,38001
30760,13673,38080
35229,13692,38222
39088,13656,37740
40100,13737,38040
38180,13666,38236
34288,13709,38028
29904,13684,38097
26128,13714,38088
25112,13692,38100
26952,13703,38094
30400,13663,38060
34453,13668,38045
38044,13648,38096
39048,13693,37951
37404,13658,38224
34144,13705,37933
29980,13690,37920
26369,13732,37990
25410,13697,37951
27312,13757,38041
30944,13676,38037
35648,13722,37880
39484,13662,38057
40468,13751,37988
38456,13692,38114
34736,13688,37948
30096,13699,38080
25993,13689,37548
24740,13705,37844
26456,13733,37964
30102,13666,37884
34756,13757,37864
38748,13658,37886
39748,13668,37639
37604,13716,37828
33936,13665,37652
29597,13703,37900
26117,13732,37436
25188,13684,37700
27077,13713,37776
30581,13665,37704
34836,13706,37840
38580,13649,37329
39888,13673,37668
38270,13804,37799
35080,13671,37600
31072,13700,37660
27457,13736,37588
26261,13679,37543
27776,13689,37697
31132,13710,37542
35333,13636,37600
38916,13666,37580
39716,13652,37604
37636,13684,37559
33952,13743,37417
29524,13682,37617
25850,13726,37548
25084,13681,37645
27184,13709,37367
30722,13649,37516
34796,13656,37372
38176,13737,37452
39128,13665,37443
37512,13671,37208
34152,13661,37616
29852,13714,37476
26048,13683,37550
24897,13694,37157
26888,13666,37580
30684,13680,37488
35296,13641,37468
39168,13714,37464
40284,13640,37412
38609,13688,37378
35086,13662,37388
30597,13699,37516
26768,13677,37420
25768,13682,37456
27556,13692,37197
30856,13650,37276
34952,13666,37380
38644,13721,37384
39468,13653,37511
37473,13678,37313
33892,13657,37340
29766,13680,37504
26232,13699,37304
25324,13737,37383
27324,13663,37279
30588,13670,37469
34588,13677,37288
38220,13648,37372
39420,13671,37316
37924,13767,37352
34864,13660,37354
30688,13688,37348
26929,13673,37017
25664,13672,37341
27168,13696,37477
30484,13650,37262
34818,13658,37341
38496,13625,37255
39556,13650,37260
37744,13636,37193
34304,13694,37004
30112,13672,37189
26404,13705,37326
25505,13669,37344
27444,13673,37300
31000,13642,37439
35144,13648,37114
38784,13616,37360
39876,13686,37296
38140,13641,37359
34696,13733,37476
30473,13689,37080
26768,13731,37344
25597,13683,37485
27040,13648,37024
30176,13680,37316
34240,13641,37484
38230,13718,37373
39668,13647,37480
38112,13648,37116
34784,13643,37516
30380,13720,37396
26624,13681,37279
25616,13657,37156
27624,13695,37556
31072,13655,37440
35220,13618,37496
39160,13657,37390
40408,13637,37441
38429,13694,37624
34744,13668,37504
30133,13661,37592
26168,13673,37476
24920,13659,37390
26685,13663,37544
30204,13636,37502
34548,13692,37605
38372,13637,37528
39510,13621,37652
37745,13687,37540
34216,13651,37639
29912,13736,37349
26312,13669,37415
25368,13687,37516
27172,13646,37532
30576,13676,37652
34900,13620,37394
38604,13706,37429
39528,13656,37473
37600,13636,37476
34160,13679,37639
30024,13660,37548
26604,13711,37670
25497,13666,37534
26789,13637,37668
29724,13665,37204
33792,13633,37520
37640,13604,37213
38936,13648,37436
37312,13624,37540
33996,13676,37510
29644,13666,37446
25903,13656,37440
24948,13668,37511
26944,13646,37437
30552,13639,37495
34936,13701,37597
38732,13601,37433
39664,13632,37460
38016,13618,37444
34664,13664,37497
30360,13700,37357
26716,13652,37548
25765,13668,37276
27564,13703,37332
30424,13637,37376
34348,13608,37332
38268,13635,37460
39504,13612,37440
37920,13661,37525
34632,13626,37452
30272,13660,37545
26724,13696,37095
25906,13646,37290
27712,13649,37436
31252,13732,37412
35572,13621,37334
39156,13688,37316
39924,13606,37383
37800,13629,37484
34224,13628,37141
29988,13669,37271
26616,13648,37326
25876,13649,37320
27805,13628,37383
31236,13636,37332
35444,13600,37388
39044,13665,37278
39984,13626,37236
38496,13674,37270
35280,13623,37404
30752,13664,36968
26588,13697,37236
25196,13654,36949
26952,13680,37416
30492,13636,37316
34828,13598,37376
38752,13638,37240
39848,13598,37232
38021,13641,37176
34676,13620,37231
30368,13696,37229
26956,13648,37191
26084,13681,37255
27896,13644,37372
31112,13669,36946
35032,13620,37228
38525,13684,37348
39552,13615,37263
37950,13609,37336
34704,13640,37308
30556,13633,37364
27068,13658,37289
26049,13637,37380
27465,13648,37076
30280,13609,37249
33956,13604,37324
37032,13674,37319
37465,13625,37420
35402,13684,36964
32108,13628,37162
28168,13698,36992
25032,13644,37236
24576,13676,37308
26832,13633,37247
30724,13607,37200
35424,13616,37183
39512,13588,37262
40788,13617,37296
39364,13600,37348
36576,13676,37293
32812,13636,37383
29660,13692,37252
28912,13647,37316
30948,13684,36921
34644,13632,37356
38948,13592,37232
42964,13622,37366
44464,13602,37237
43412,13750,37353
40820,13646,37197
36928,13688,37076
32888,13653,37112
31256,13626,37183
32580,13630,37036
35784,13596,37045
39672,13653,36986
43292,13578,37025
44564,13619,37089
42912,13599,37168
39644,13623,37269
35460,13616,37152
31572,13644,37255
29969,13631,37117
30732,13696,37208
33364,13630,37108
36988,13700,37121
40128,13599,36824
40684,13582,37156
38192,13673,37124
33976,13636,37254
29288,13621,37116
25476,13642,37197
24488,13681,37137
26454,13631,37175
30120,13597,37004
34541,13596,37113
38096,13653,37312
38676,13584,37127
36768,13620,37192
33128,13737,37340
29084,13646,37212
25654,13656,37153
24880,13620,37238
26676,13624,37248
29936,13591,37258
33740,13611,37284
37296,13577,37417
38328,13630,37324
36541,13674,37335
33008,13616,37478
28716,13620,37344
24988,13670,37304
23864,13628,37332
25544,13606,37336
28788,13650,37300
32952,13602,37204
36892,13574,37385
38496,13602,37408
37256,13725,37500
34112,13632,37541
29556,13617,37501
25696,13668,37492
24356,13634,37519
26133,13608,37232
29680,13631,37653
34016,13581,37620
37648,13628,37644
38692,13577,37461
37022,13607,37612
33540,13602,37624
29177,13636,37656
25397,13686,37676
24289,13627,37724
25977,13605,37792
29256,13605,37788
33396,13572,37908
37304,13589,37517
38560,13661,37792
36852,13582,37888
33701,13674,37800
29764,13621,37972
26380,13653,37564
25392,13609,37800
27280,13636,37828
30320,13599,37792
34020,13654,37810
37372,13584,37728
38320,13610,37785
36996,13649,37880
34240,13590,37868
30536,13616,37957
27109,13656,37807
25868,13608,37818
26920,13620,37966
29716,13617,37501
33564,13645,37863
37156,13566,37993
38548,13597,37600
36980,13686,37788
33788,13618,37836
29676,13669,37804
26036,13615,37944
25210,13624,37519
27140,13653,37769
30721,13591,37956
35168,13584,37751
38974,13568,37796
40108,13588,37767
38356,13681,37852
34888,13619,37423
30612,13668,37712
26828,13610,37919
25892,13634,37436
27720,13592,37774
31200,13606,37924
35342,13644,37494
39008,13575,37756
40036,13586,37920
38392,13661,37724
35104,13594,37808
30820,13621,37660
27070,13654,37888
26048,13604,37652
27760,13596,37776
31224,13594,37788
35516,13567,37808
39300,13554,37816
40376,13600,37812
38616,13649,37764
35432,13596,37504
31352,13624,37656
27828,13676,37767
26666,13612,37773
28389,13609,37916
31828,13579,37440
35992,13660,37764
39528,13557,37770
40604,13600,37823
39040,13630,37744
35604,13588,37712
31356,13607,37800
27654,13624,37740
26540,13669,37744
28224,13586,37653
31420,13603,37844
35400,13592,37727
39292,13552,37716
40740,13574,37590
39296,13605,37780
35884,13652,37676
31248,13597,37622
27108,13626,37730
25693,13634,37647
27302,13589,37671
30984,13588,37590
35324,13563,37716
39224,13597,37669
40540,13559,37604
38804,13597,37750
35396,13592,37645
31004,13616,37627
26952,13632,37592
25464,13601,37613
26808,13590,37665
30088,13599,37688
34256,13560,37580
38232,13584,37685
39636,13627,37516
37972,13573,37624
34476,13608,37781
30084,13598,37316
26212,13618,37496
25177,13632,37757
27004,13592,37624
30444,13618,37600
34404,13556,37616
37868,13567,37636
38704,13653,37604
36937,13568,37716
33765,13610,37343
29888,13592,37532
26465,13621,37606
25396,13644,37236
26944,13588,37494
30156,13604,37610
34236,13551,37576
38220,13577,37616
39300,13563,37543
37920,13584,37592
34848,13583,37509
30816,13619,37636
26840,13660,37144
25248,13607,37388
26704,13630,37578
30182,13569,37421
34910,13589,37378
38944,13546,37359
40032,13582,37397
38212,13565,37332
34592,13597,37279
30000,13678,37316
26157,13604,37440
25052,13654,37292
26800,13605,37324
30449,13575,37220
34728,13630,37220
38312,13577,37201
38984,13652,37044
37080,13577,37192
33900,13627,37132
30180,13589,37061
26768,13608,37225
25908,13644,37020
27624,13593,37065
31056,13636,37166
35212,13563,37032
38400,13553,37101
39168,13571,36640
37409,13649,36833
34312,13576,37018
30240,13614,36911
26908,13595,36961
25964,13617,36775
27724,13582,36824
31076,13616,36848
35300,13553,36836
39028,13614,36940
40032,13586,36454
38248,13647,36708
34916,13590,36590
30660,13697,36660
26960,13604,36804
25978,13637,36704
27780,13592,36780
31184,13638,36478
35473,13556,36660
39236,13584,36609
40224,13563,36545
38453,13647,36580
35096,13593,36301
30640,13588,36493
27052,13612,36359
26200,13591,36444
28184,13603,36493
31623,13562,36456
35714,13585,36533
38992,13550,36382
39732,13633,36428
37864,13599,36031
34204,13677,36216
29888,13614,36188
26494,13638,36143
25832,13598,36153
28028,13636,36149
31576,13573,36180
35848,13678,36133
39303,13583,36062
39924,13696,35964
37812,13582,36013
34128,13676,36017
29724,13612,35940
26256,13597,35892
25552,13641,35902
27680,13590,35837
31160,13562,35856
35396,13572,35876
38976,13548,35820
40004,13612,35780
38320,13560,35877
35060,13592,35585
30620,13612,35705
26584,13660,35754
25300,13604,35704
27020,13617,35772
30612,13562,35640
35296,13575,35700
39392,13546,35436
40500,13572,35560
38760,13609,35208
35252,13576,35505
30712,13604,35396
26972,13656,35324
26176,13602,35407
28160,13577,35508
31841,13580,35364
36252,13692,35416
39936,13574,34980
40960,13591,35136
39116,13564,35172
35724,13592,35181
31336,13615,35140
27416,13648,35184
26348,13597,35071
28025,13572,34983
31324,13594,34864
35604,13550,34712
39240,13588,34815
40240,13545,34665
38432,13588,34725
35168,13589,34804
30852,13643,34872
27072,13592,34428
25925,13608,34804
27681,13581,34657
31192,13564,34601
35616,13577,34576
39384,13628,34652
40372,13553,34185
38528,13615,34518
34992,13584,34413
30544,13655,34452
26852,13615,34311
25897,13585,34197
27804,13597,34173
31308,13636,34276
35632,13560,34159
39340,13588,34085
40324,13543,33988
38440,13601,33888
35116,13570,33914
30836,13601,33904
27148,13596,33828
26034,13599,33836
27680,13654,33844
31084,13564,33796
35272,13597,33882
39044,13542,33456
40416,13567,33591
39300,13653,33596
36208,13636,33748
31560,13588,33585
27074,13636,33593
25508,13596,33278
27598,13638,33544
31520,13580,33456
35960,13549,33421
39688,13670,33257
40496,13652,33332
38632,13588,33228
35300,13636,33164
30996,13602,32988
27380,13645,33348
26457,13607,33206
27917,13636,33222
31356,13560,32864
35552,13571,33084
39388,13590,33165
40636,13551,32945
39022,13586,32996
35640,13695,33085
31321,13601,32696
27476,13654,32888
26357,13597,32796
28108,13635,32852
31596,13566,32952
35928,13588,32609
39736,13578,32636
40872,13668,32657
39020,13596,32671
35488,13649,32736
31020,13602,32655
27204,13653,32769
26136,13601,32356
27940,13635,32472
31420,13575,32484
35536,13648,32493
39264,13580,32581
40208,13662,32303
38312,13594,32352
34972,13677,32353
30744,13609,32377
27118,13636,32436
26084,13590,32372
27888,13594,32476
31488,13562,32342
35836,13573,32324
39568,13544,32064
40532,13594,32157
38668,13553,32140
35376,13600,32231
30910,13664,32348
27032,13616,31937
26112,13588,32084
27984,13596,32177
31544,13572,32148
35936,13564,32184
39776,13625,32029
40980,13545,32100
39356,13600,31984
35829,13678,32124
31344,13603,31821
27464,13635,31940
26408,13590,32004
28024,13610,31969
30948,13561,32014
34664,13577,31946
37860,13550,32048
38880,13564,31796
37468,13658,31839
34624,13592,31881
30936,13693,31740
27532,13616,31772
26604,13642,31805
28448,13596,31887
31796,13638,31520
36089,13570,31689
39916,13633,31452
40916,13575,31527
39140,13648,31561
35724,13587,31612
31280,13646,31681
27520,13609,31309
26552,13629,31454
28484,13597,31428
32044,13643,31462
36224,13577,31392
39772,13547,31401
40548,13597,31392
38284,13564,31381
34384,13596,31457
29797,13593,31325
26168,13609,31344
25488,13590,31021
27856,13589,31128
31732,13562,31124
36092,13573,31156
39752,13542,31174
40632,13614,31121
38560,13599,31013
34988,13584,30956
30212,13618,30980
26469,13599,30953
25537,13631,30825
27396,13581,30944
30928,13603,30964
35544,13552,30953
39496,13593,30976
40512,13552,30908
38820,13590,30988
35256,13666,30854
30784,13613,30946
27068,13629,30586
25976,13652,30708
27973,13584,30734
31580,13578,30644
35868,13636,30721
39488,13556,30533
40468,13597,30579
38592,13571,30536
34972,13607,30614
30420,13617,30660
26752,13600,30353
26040,13607,30463
28052,13625,30526
31400,13582,30476
35504,13639,30409
39156,13565,30401
40464,13556,30388
38904,13582,30375
35560,13714,30381
30936,13611,30404
27080,13596,30328
26048,13610,30375
28016,13582,30518
31530,13599,30169
35716,13569,30466
39220,13543,30377
40112,13604,30413
38168,13580,30342
34612,13662,30308
30436,13616,30340
27036,13652,30417
26433,13604,30307
28620,13644,30293
32358,13597,30188
36624,13637,30172
40108,13586,30075
40956,13556,30160
38952,13609,30164
35552,13586,30260
31272,13613,30148
27712,13598,30208
26720,13644,30215
28472,13586,30277
31876,13614,30016
36168,13556,30113
39796,13589,30264
40720,13559,29966
38725,13588,30201
35224,13586,30309
30820,13620,29962
27168,13600,30132
26472,13630,30022
28484,13582,30158
31964,13622,30245
36168,13574,30134
39712,13671,30236
40536,13588,30116
38684,13574,30215
35568,13612,30064
31312,13596,30017
27565,13642,29970
26720,13599,30028
28884,13636,30088
32676,13600,30023
37168,13556,30002
40576,13630,30004
41124,13603,30082
39012,13577,29952
34922,13602,29892
29896,13602,30020
25778,13626,29797
24468,13656,29900
26141,13600,29896
29528,13629,29911
33784,13592,29912
37553,13657,29860
38504,13583,29788
36664,13578,29835
33516,13632,29865
29712,13605,29872
26692,13657,29936
26588,13616,29679
29216,13652,29808
33456,13588,29892
38548,13651,29720
42864,13595,29767
44196,13565,29724
42696,13670,29736
39556,13622,29864
35524,13756,29808
32016,13637,29916
31546,13600,29572
33996,13618,29660
38016,13572,29728
42912,13654,29733
46804,13592,29700
47748,13702,29802
45600,13613,29844
41800,13690,29646
37364,13632,29758
33692,13706,29844
32504,13621,29772
34100,13582,29896
37508,13610,29605
41824,13568,29788
45148,13698,29578
45308,13592,29682
42496,13572,29664
38252,13639,29664
33116,13609,29660
28900,13654,29638
27652,13604,29740
29324,13632,29736
32264,13581,29680
36156,13619,29648
39236,13564,29752
39572,13652,29618
37216,13616,29633
33412,13599,29704
28696,13623,29785
24992,13668,29520
24280,13614,29637
26412,13593,29588
30260,13599,29676
34548,13565,29789
38148,13583,29676
39038,13576,29542
37064,13610,29548
33468,13596,29641
28548,13622,29644
24468,13661,29548
23256,13617,29628
25166,13628,29572
28984,13584,29616
34258,13594,29666
38340,13643,29368
39288,13581,29565
37276,13655,29693
33488,13597,29472
28772,13625,29556
25200,13617,29440
24604,13615,29488
26816,13595,29564
30436,13599,29432
34736,13632,29604
38084,13566,29342
38584,13627,29545
36500,13584,29653
32869,13612,29414
28332,13668,29576
24917,13616,29447
24325,13633,29660
26569,13589,29479
30400,13596,29385
35044,13638,29476
38640,13562,29720
39240,13608,29478
36956,13666,29632
33261,13594,29510
28652,13624,29728
25133,13652,29548
24321,13605,29440
26416,13607,29661
30254,13649,29773
35004,13597,29470
38552,13650,29664
39080,13600,29724
36933,13702,29692
33336,13624,29796
28768,13666,29551
25292,13621,29636
24776,13642,29644
27140,13600,29702
30996,13634,29720
35472,13587,29480
38865,13644,29566
39188,13580,29632
37200,13643,29664
33760,13601,29580
29200,13652,29685
25876,13616,29632
25457,13625,29572
27616,13597,29543
31196,13609,29624
35416,13569,29716
38680,13602,29396
39236,13584,29661
37160,13679,29563
33612,13609,29469
28988,13661,29501
25568,13621,29508
24972,13654,29607
27508,13605,29296
31608,13629,29452
36472,13594,29504
39804,13635,29220
39888,13574,29391
37357,13618,29491
33820,13597,29288
29204,13638,29352
25729,13621,29350
25152,13642,29374
27317,13612,29460
30992,13636,29121
35720,13577,29281
39376,13593,29420
40000,13577,29228
37724,13623,29328
33976,13717,29372
29316,13632,29332
25984,13620,29388
25714,13632,29144
28260,13603,29252
32157,13640,29226
36852,13589,29344
40308,13648,29408
40684,13648,29331
38277,13650,29248
34541,13696,29462
29936,13618,29164
26384,13641,29262
25892,13664,29352
28100,13602,29393
31800,13616,29428
36456,13576,29199
40020,13593,29374
40576,13617,29516
38240,13594,29420
34392,13638,29378
29668,13676,29334
26160,13635,29332
25629,13641,29473
27804,13599,29478
31540,13609,29362
36252,13608,29532
39964,13724,29473
40644,13610,29436
38308,13628,29377
34452,13605,29476
29760,13633,29388
26212,13622,29489
25524,13617,29540
27616,13609,29376
31112,13645,29468
35480,13575,29537
38840,13602,29264
39248,13659,29434
36904,13597,29392
33260,13628,29451
28790,13616,29438
25394,13635,29333
24800,13657,29459
27032,13620,29541
30860,13645,29204
35709,13576,29422
39084,13596,29285
39333,13623,29456
36436,13708,29280
32352,13626,29332
27728,13672,29358
24576,13624,29365
24376,13635,29365
26938,13601,29188
31024,13609,29200
35648,13573,29196
39456,13593,29282
40324,13573,29228
38140,13618,29260
34388,13608,29224
29445,13629,29276
25610,13620,29348
24794,13626,29253
27164,13666,29196
31089,13602,29128
35764,13654,29233
39372,13585,29326
40036,13664,28999
37876,13590,29164
34152,13636,29238
29476,13619,28996
25976,13634,29112
25338,13648,29254
27384,13604,29021
31028,13615,29090
35656,13575,29126
39148,13592,29206
39656,13586,29287
37400,13607,29236
33644,13602,29280
29016,13636,29072
25693,13620,29215
25309,13624,29259
27596,13586,29264
31324,13603,29380
35812,13654,29068
39068,13579,29161
39388,13599,29377
37192,13596,29302
33564,13618,29380
28972,13692,29185
25648,13636,29337
25273,13653,29452
27580,13616,29144
31409,13649,29246
36060,13603,29268
39548,13652,29378
39772,13596,29332
36980,13664,29300
32948,13604,29384
28154,13641,29448
24992,13642,29476
25085,13612,29404
27960,13648,29384
32064,13584,29397
36720,13616,29465
40020,13560,29241
40332,13621,29365
38028,13591,29411
34180,13670,29372
29440,13632,29373
26048,13663,29280
25624,13624,29348
28124,13671,29436
32052,13604,29320
36772,13677,29279
40376,13593,29226
40844,13631,29124
38368,13592,29186
34125,13620,29396
28912,13682,29192
25316,13637,29280
24961,13643,29400
27420,13610,29256
31304,13609,29260
36001,13652,29153
39321,13591,29281
39460,13655,29237
36712,13602,29128
32687,13666,29161
27897,13624,29224
24857,13648,29297
25036,13613,29092
27980,13616,29176
31966,13647,29264
36608,13573,28968
39916,13599,29113
40165,13580,29224
37752,13607,29128
34040,13607,29197
29280,13636,29090
25924,13620,29169
25646,13625,28864
28077,13599,28984
31832,13604,28912
36340,13571,28908
39652,13616,28848
39988,13607,28980
37644,13684,28953
34012,13609,28944
29400,13637,28773
26132,13623,28845
25840,13613,28977
28272,13619,28720
32110,13702,28831
36704,13602,28836
40044,13705,28796
40324,13607,28734
37968,13677,28740
34236,13633,28736
29328,13618,28722
25410,13637,28597
24561,13656,28687
27124,13608,28640
31536,13684,28434
36972,13588,28516
41049,13700,28626
41396,13590,28474
38808,13675,28568
34720,13615,28542
29732,13658,28413
26304,13616,28522
25928,13631,28386
28220,13598,28404
31892,13615,28476
36496,13634,28340
39788,13564,28479
39948,13605,28420
37452,13595,28466
33512,13620,28274
28688,13702,28378
25390,13630,28448
25120,13669,28151
27664,13619,28265
31628,13647,28389
36380,13598,28124
39732,13654,28268
40056,13581,28364
37632,13623,28295
33880,13602,28386
29272,13635,28112
26140,13621,28165
25988,13629,28217
28445,13681,28244
32384,13610,28344
36836,13645,28224
40132,13607,28336
40416,13692,28036
37724,13628,28093
33676,13652,28232
28768,13622,27990
25603,13636,28079
25732,13655,28063
28596,13605,28069
32640,13585,28044
37176,13589,28141
40196,13570,28116
40349,13678,28132
37808,13616,28037
33908,13607,28077
28952,13666,28023
25692,13637,28013
25656,13662,27969
28392,13616,28068
32444,13655,28133
37200,13593,28047
40448,13660,28028
40612,13611,27914
38016,13733,27924
34120,13624,27914
29324,13616,28000
26080,13636,28089
25868,13650,27980
28408,13605,28061
32252,13649,27799
36696,13587,28061
39816,13655,27938
40000,13591,27866
37388,13665,27748
33148,13608,27796
28200,13654,27784
25096,13616,27890
24997,13636,27928
27512,13593,27854
31564,13632,27956
36428,13580,27831
39832,13668,27904
40268,13611,27638
37956,13592,27688
34148,13676,27597
29332,13628,27760
26165,13615,27661
26104,13621,27756
28716,13594,27841
32684,13621,27716
37336,13567,27764
40321,13584,27596
40308,13578,27716
37620,13621,27620
33712,13653,27725
28924,13614,27688
25716,13638,27648
25592,13605,27548
28072,13604,27655
32068,13660,27766
36956,13582,27464
40356,13656,27537
40644,13588,27500
37884,13609,27624
33672,13674,27593
28828,13635,27563
25760,13615,27537
25752,13616,27541
28540,13595,27456
32588,13604,27645
37216,13577,27628
40280,13747,27724
40122,13629,27637
37316,13607,27556
33400,13678,27573
28609,13636,27528
25760,13624,27524
25884,13608,27501
28741,13616,27449
32768,13577,27544
37340,13654,27602
40164,13584,27609
39936,13580,27592
37153,13597,27596
33212,13625,27425
28463,13615,27466
25545,13652,27349
25508,13614,27484
28381,13652,27373
32484,13602,27445
37032,13710,27365
39764,13588,27356
39344,13575,27336
36552,13629,27340
32824,13620,27440
28432,13612,27488
25716,13630,27404
25784,13605,27373
28224,13612,27242
32116,13578,27452
36892,13602,27158
40124,13562,27288
40300,13631,27122
37784,13598,27361
33884,13600,27294
29002,13641,27252
25812,13629,27257
25776,13649,27317
28585,13605,27065
32681,13661,27148
37518,13585,27008
40576,13563,27092
40400,13653,26988
37612,13609,27172
33936,13613,27126
29096,13690,27048
26044,13630,27104
26072,13606,27143
28676,13618,26892
32405,13644,27005
36896,13565,27118
39732,13588,26871
39604,13669,26897
36952,13601,27005
33004,13716,27010
28092,13632,27066
25016,13676,26973
25036,13626,27066
27736,13593,26982
31728,13644,27036
36540,13592,26966
39872,13569,27033
40128,13602,26954
37752,13588,27021
33852,13676,26940
29000,13629,26836
25872,13621,26816
26005,13652,26788
28684,13623,26831
32624,13604,26724
37141,13602,26762
39940,13700,26870
39660,13601,26791
36896,13596,26900
32864,13631,26924
28004,13652,26752
25152,13616,26888
25333,13628,26864
28224,13610,26944
32361,13577,26756
37200,13592,26896
40340,13562,26969
40316,13638,26708
37464,13590,26877
33208,13643,26961
27976,13620,26903
24684,13641,26879
24842,13611,26762
27696,13660,26822
31840,13617,26757
36908,13596,26976
40272,13559,26908
40352,13655,26913
37676,13591,26732
33472,13644,26910
28465,13615,26716
25396,13632,26809
25512,13608,26913
28273,13607,26909
32232,13582,26991
36884,13600,26725
39672,13659,26788
39489,13597,26812
36709,13651,26904
32766,13604,26786
28044,13635,26780
25168,13661,26911
25368,13612,26966
28172,13636,26898
32081,13582,26972
36676,13590,26709
39752,13567,26807
39736,13595,26760
37028,13684,26872
33078,13612,26748
28224,13615,26764
25254,13624,26784
25336,13669,26860
27980,13617,26916
31940,13622,26700
36540,13569,26818
39524,13602,26708
39480,13659,26692
36884,13588,26804
33317,13621,26772
28816,13684,26720
25952,13632,26750
26100,13605,26688
28856,13609,26578
32888,13576,26617
37732,13633,26572
40736,13582,26620
40540,13694,26696
37924,13606,26660
34112,13643,26548
29318,13622,26500
26048,13614,26598
25840,13622,26687
28606,13591,26434
32596,13608,26502
37293,13569,26433
40376,13620,26545
40292,13577,26519
37384,13629,26514
33200,13598,26576
28229,13658,26324
25328,13632,26552
25584,13604,26473
28340,13588,26456
32180,13595,26503
36848,13569,26388
39928,13596,26291
40032,13636,26268
37152,13592,26382
33024,13630,26434
28196,13656,26212
25350,13661,26188
25637,13619,26229
28756,13680,26130
32988,13592,26254
37772,13560,26127
40732,13604,26213
40604,13572,26106
37460,13636,26156
32789,13620,26062
27260,13612,26144
23825,13624,26079
23694,13648,26215
26276,13599,26098
30196,13642,26036
34900,13597,26144
37824,13567,25993
37756,13597,26127
35372,13668,26073
32001,13609,25928
28033,13651,25996
25842,13620,25925
26640,13620,26032
30044,13648,25960
34924,13580,25872
40560,13598,26016
44340,13660,26040
45040,13600,25996
42888,13628,26056
39060,13702,25804
34569,13608,25960
31777,13636,25980
32448,13597,25836
36108,13616,26002
40656,13658,25756
45384,13574,25866
48148,13641,25733
47840,13574,25792
44780,13633,25737
40592,13591,25874
35613,13635,25847
32384,13604,25888
32328,13615,25888
34908,13660,25712
38406,13574,25805
42344,13634,25740
44622,13576,25872
43632,13645,25824
40052,13580,25902
35322,13635,25870
29776,13617,25792
26052,13627,25936
25500,13607,25960
27893,13605,25956
31541,13578,26053
35804,13588,25841
38544,13667,25864
38356,13577,25914
35504,13609,25988
31488,13657,25980
26512,13634,25876
23333,13616,26005
23080,13622,25924
25612,13593,26012
29540,13629,26032
34461,13577,25876
37852,13613,25892
38144,13581,25854
35584,13610,25851
31712,13680,25981
26965,13617,25887
24196,13626,25916
24608,13666,25972
27392,13610,25896
31196,13653,25808
35816,13594,25952
38700,13657,26014
38280,13605,25782
35260,13596,25816
31136,13623,25853
26180,13676,25797
23260,13624,25864
23458,13641,25782
26320,13600,25904
30508,13642,25840
35316,13592,25748
38152,13647,25905
37896,13581,25772
35069,13607,25965
31080,13654,25812
26304,13615,25796
23642,13626,25784
24097,13646,25822
27152,13601,25714
31152,13618,25854
35640,13566,25962
38232,13603,25724
37836,13658,25880
35001,13599,25904
31164,13644,25717
26434,13628,25765
23448,13615,25740
23876,13625,25862
26877,13596,25732
31136,13639,25856
36141,13570,25928
39204,13662,25892
38928,13604,25919
35972,13696,25716
31812,13615,25870
26940,13654,25957
24100,13614,25716
24293,13617,25812
27084,13593,25832
31164,13596,25900
36040,13678,25841
38975,13594,25980
38736,13606,25777
35896,13691,25761
31736,13609,25904
26824,13641,25980
24068,13613,25773
24664,13617,25910
27696,13591,25804
32092,13595,25853
36904,13636,25766
39600,13562,25909
38840,13612,25989
35432,13589,25762
31092,13624,25909
26456,13662,25800
24008,13629,25772
24652,13605,25924
27836,13636,25808
32036,13580,25776
36772,13628,25908
39428,13597,25977
39044,13662,25765
36060,13585,25889
31904,13624,25889
27208,13604,25961
24708,13623,25742
25312,13600,25867
28164,13603,25967
31908,13644,25737
36308,13567,25884
39100,13594,25929
39176,13698,25720
36660,13617,25809
32894,13667,25824
28300,13614,25884
25616,13653,25842
26025,13642,25837
29008,13666,25886
32988,13596,25742
37496,13630,25896
40188,13556,25894
39740,13568,25958
36676,13604,25914
32424,13599,25936
27468,13626,25932
24496,13606,25908
24916,13607,25788
28186,13636,25944
32570,13572,26008
37404,13615,25776
40160,13579,25952
39628,13684,25794
36680,13615,25856
32764,13676,25869
28180,13631,25984
25602,13604,26060
25872,13613,25834
28648,13586,25892
32721,13597,25880
37308,13575,25974
40000,13652,25872
39568,13604,25928
36492,13584,25915
32184,13638,26044
27080,13616,25998
24258,13652,26078
24756,13610,26148
27792,13580,26093
31936,13580,26076
36564,13553,25972
39197,13591,26068
38720,13564,26170
35856,13613,26142
31668,13594,26221
26752,13634,26175
23990,13607,26248
24453,13603,26020
27584,13582,26260
31952,13592,26032
36844,13561,26293
39576,13680,26215
38806,13595,26224
35452,13684,26230
31060,13614,26156
26432,13605,26129
24062,13642,26076
24888,13606,26312
28398,13588,26264
32668,13620,26348
37228,13582,26128
39664,13554,26364
39128,13598,26295
36273,13572,26384
32352,13618,26136
27744,13603,26306
25312,13641,26317
25692,13602,26414
28716,13674,26187
32776,13590,26350
37468,13543,26444
40028,13590,26252
39310,13565,26399
36132,13628,26350
31936,13589,26353
27080,13622,26276
24480,13600,26459
25124,13607,26480
28224,13577,26438
32464,13582,26492
37196,13543,26392
39832,13565,26594
39436,13685,26591
36688,13597,26657
32804,13660,26540
28090,13620,26729
25410,13598,26824
25872,13612,26685
28876,13581,26660
32808,13672,26852
37196,13570,26927
39536,13559,26847
38728,13588,26996
35716,13573,26974
31556,13640,27041
26776,13602,26917
24252,13634,27114
24868,13593,27217
28000,13628,27148
32356,13566,27119
37164,13572,27164
39892,13547,27192
39336,13564,27198
36196,13597,27400
31968,13586,27412
27212,13616,27358
24656,13628,27584
25326,13582,27548
28636,13588,27392
32900,13556,27625
37388,13574,27548
39628,13553,27584
38784,13626,27709
35716,13572,27754
31712,13605,27684
27216,13594,27766
24916,13624,27702
25612,13599,27857
28688,13660,27988
32900,13576,27792
37668,13635,27742
40268,13576,27978
39604,13625,27956
36600,13562,27924
32476,13608,28089
27736,13594,27953
25116,13613,28102
25588,13585,28068
28284,13623,28112
32164,13550,28053
36936,13556,28196
39960,13536,28126
39662,13581,28333
36712,13569,28112
32652,13628,28300
27817,13589,28212
25277,13601,28357
25812,13643,28384
28604,13577,28212
32724,13551,28394
37344,13568,28394
39937,13544,28506
39312,13577,28324
36368,13652,28455
32084,13595,28457
27152,13620,28463
24704,13590,28552
25404,13608,28320
28588,13569,28533
32648,13624,28644
37117,13570,28444
39624,13638,28378
38892,13572,28553
35892,13565,28540
31832,13591,28696
27244,13641,28592
24988,13600,28476
25844,13616,28616
29040,13560,28509
33297,13576,28637
37968,13531,28665
40402,13559,28517
39504,13559,28632
36232,13593,28550
31912,13569,28613
27268,13618,28648
25000,13585,28599
25848,13601,28745
28788,13562,28636
32962,13559,28536
37744,13624,28509
40288,13550,28477
39525,13621,28665
36452,13585,28710
32092,13577,28562
27012,13604,28668
24426,13632,28663
25256,13582,28608
28636,13626,28758
33180,13561,28605
38020,13592,28718
40640,13529,28717
39804,13583,28721
36481,13570,28782
31876,13645,28630
26540,13592,28752
23988,13610,28720
25072,13572,28743
28664,13566,28860
33294,13624,28674
38096,13569,28593
40460,13629,28807
39520,13553,28785
36284,13611,28813
32012,13577,28848
27280,13604,28752
24948,13632,28735
25744,13575,28744
28976,13590,28692
33376,13660,28709
38048,13540,28667
40276,13559,28674
39072,13640,28700
35661,13561,28683
31348,13601,28897
26812,13585,28772
24774,13596,29011
25930,13565,28828
29216,13570,28792
33512,13607,28809
38081,13539,28710
40492,13613,28932
39776,13552,28893
36572,13596,28812
32260,13565,28978
27440,13607,28936
24984,13576,28833
25496,13580,28740
28600,13551,28952
32816,13550,28916
37404,13600,28877
39728,13527,28832
38868,13565,28832
35744,13553,28864
31544,13584,29036
27044,13580,28872
24768,13608,28796
25365,13568,28965
28474,13572,28972
32860,13539,28960
37796,13600,29022
40148,13615,28972
39592,13564,28844
36424,13636,28981
32048,13592,28868
27286,13572,28967
24942,13612,28920
25728,13579,28997
28912,13548,28929
33272,13566,28960
37904,13524,28972
40320,13550,28951
39628,13540,28837
36448,13577,28972
31712,13563,28801
26540,13618,28952
24052,13584,28828
25100,13608,29044
28662,13567,28816
33320,13605,28730
38188,13542,28926
40416,13616,28878
39348,13545,28823
36124,13599,28878
31860,13565,28892
27177,13598,28773
24990,13568,28893
25968,13573,28852
29372,13545,28983
33856,13596,28748
38540,13553,28848
40828,13522,28728
39728,13561,28836
36164,13548,28919
31602,13581,28757
26876,13627,28665
24728,13584,28815
25708,13592,28769
28820,13545,28685
32816,13540,28888
37332,13620,28707
39636,13548,28569
38844,13630,28759
35960,13575,28669
31764,13632,28761
27096,13579,28525
24924,13568,28716
26040,13570,28670
29416,13540,28768
33728,13544,28617
38208,13521,28518
40340,13557,28716
39288,13532,28668
35960,13542,28716
31580,13562,28509
26974,13602,28704
24904,13570,28608
26040,13577,28772
29324,13538,28708
33665,13590,28480
38240,13555,28656
40436,13518,28761
39276,13577,28604
35712,13623,28784
30904,13556,28718
26164,13580,28596
24308,13596,28559
25904,13551,28552
29580,13548,28464
34065,13618,28680
38588,13522,28652
40920,13543,28660
40028,13603,28672
36468,13544,28610
31748,13572,28768
26758,13616,28684
24548,13568,28710
25870,13584,28693
29468,13548,28484
33908,13612,28656
38560,13533,28532
40680,13523,28754
39544,13568,28576
36028,13632,28440
31504,13564,28645
26828,13613,28628
24672,13573,28671
25664,13602,28491
29004,13554,28623
33480,13632,28521
38148,13545,28612
40316,13552,28604
39224,13537,28700
35812,13636,28488
31352,13580,28487
26780,13630,28408
24792,13567,28591
25956,13542,28458
29172,13547,28565
33340,13604,28676
37756,13530,28449
39868,13665,28396
38868,13558,28580
35784,13624,28530
31472,13579,28580
26964,13621,28391
25000,13570,28520
26144,13549,28672
29612,13557,28444
34082,13518,28568
38560,13538,28500
40448,13509,28578
39220,13586,28452
35936,13552,28564
31648,13549,28615
27212,13585,28412
25384,13558,28550
26488,13593,28513
29460,13545,28462
33500,13513,28559
37920,13593,28453
40020,13514,28626
39044,13582,28447
35724,13564,28577
31312,13548,28588
26564,13570,28444
24569,13554,28540
25808,13561,28532
29316,13528,28612
33868,13556,28472
38536,13505,28554
40712,13557,28536
39716,13515,28476
36412,13573,28668
31844,13542,28436
27144,13578,28367
25048,13551,28551
26474,13552,28443
29868,13589,28561
33877,13536,28556
37972,13505,28522
39828,13511,28348
38670,13552,28516
35444,13519,28436
31316,13586,28500
26944,13552,28513
24952,13569,28486
26068,13537,28600
29512,13562,28293
33924,13504,28496
38448,13527,28545
40552,13506,28430
39544,13533,28508
36160,13620,28473
31694,13536,28440
27101,13562,28592
24989,13604,28489
26096,13539,28384
29376,13535,28376
33600,13558,28288
38112,13489,28480
40156,13532,28503
39092,13580,28374
35860,13518,28570
31653,13556,28389
26892,13547,28305
24856,13549,28516
26096,13580,28482
29600,13516,28383
33920,13537,28609
38388,13494,28564
40416,13531,28400
39408,13564,28396
36172,13524,28402
31628,13553,28388
26496,13545,28511
24048,13551,28517
25162,13533,28583
29120,13570,28400
34120,13528,28518
38948,13562,28504
40728,13513,28532
39156,13566,28436
35544,13518,28300
31028,13569,28501
26232,13547,28420
24168,13555,28438
25420,13578,28364
28893,13526,28501
33372,13536,28472
38056,13500,28526
40096,13557,28495
39016,13518,28279
35689,13577,28483
31172,13533,28390
26249,13565,28508
23860,13540,28561
24960,13536,28452
28604,13514,28266
33160,13524,28457
37988,13621,28432
40260,13511,28496
39272,13505,28316
35948,13583,28440
31524,13548,28384
26806,13581,28537
24640,13531,28543
25797,13536,28393
29364,13511,28256
33980,13513,28444
38768,13518,28452
40924,13485,28447
39784,13519,28350
36332,13519,28540
31556,13552,28324
26788,13589,28448
24764,13535,28417
26208,13541,28332
30148,13501,28528
34996,13540,28340
39724,13492,28452
41792,13575,28460
40320,13525,28367
36620,13588,28268
32068,13529,28462
27400,13584,28509
25277,13540,28348
26164,13557,28453
29256,13504,28450
33388,13525,28524
38128,13486,28361
40464,13547,28471
39312,13500,28460
35860,13546,28408
31496,13517,28493
27041,13575,28338
25056,13533,28500
26088,13516,28404
29492,13537,28512
33928,13488,28440
38568,13537,28604
40736,13501,28335
39676,13574,28549
36238,13537,28550
31716,13519,28450
27052,13577,28564
24805,13541,28676
25936,13516,28458
29400,13556,28600
33984,13504,28632
38712,13481,28424
40984,13516,28640
39912,13589,28583
36356,13524,28708
31376,13569,28534
26272,13528,28704
24180,13561,28759
25460,13520,28589
28952,13500,28682
33280,13520,28754
37628,13484,28575
39284,13570,28676
37776,13508,28846
34108,13592,28668
29476,13536,28776
24796,13533,28744
22752,13554,28581
24072,13520,28748
27973,13557,28789
33082,13500,28870
38408,13567,28686
41224,13509,28804
40760,13493,28670
38036,13517,28838
34309,13519,28661
30532,13562,28773
29476,13523,28647
31432,13548,28823
35100,13495,28720
39552,13551,28532
44532,13505,28736
47172,13476,28831
46816,13524,28618
43900,13624,28704
39528,13534,28692
34640,13591,28770
32480,13533,28576
33732,13557,28504
37117,13502,28653
41328,13573,28784
45452,13485,28656
47240,13466,28618
45824,13594,28548
42092,13538,28647
36896,13542,28648
31430,13517,28684
28592,13512,28773
29025,13561,28484
31696,13540,28786
35580,13496,28687
39464,13492,28777
40844,13477,28604
38944,13554,28625
35124,13524,28814
30292,13512,28537
25552,13537,28772
23616,13514,28753
24765,13544,28892
28072,13512,28688
32552,13572,28812
37136,13488,28791
38992,13565,28800
37600,13500,28924
34072,13560,28748
29336,13509,28696
24596,13531,28620
22685,13518,28797
24208,13521,28806
27952,13557,28784
32352,13478,28674
36600,13500,28777
38076,13476,28709
36540,13513,28821
33220,13500,28812
29100,13521,28638
25026,13512,28563
23412,13535,28761
24714,13501,28735
28124,13505,28713
32456,13521,28680
36848,13466,28666
38645,13504,28638
37260,13484,28784
33790,13531,28740
29248,13511,28636
24849,13524,28588
23137,13514,28508
24796,13508,28712
28668,13484,28685
33280,13502,28768
37476,13465,28624
38764,13540,28490
37021,13498,28700
33640,13551,28669
29157,13527,28571
24892,13541,28649
23440,13516,28620
24912,13540,28765
28460,13509,28552
32936,13472,28660
37460,13489,28632
39312,13475,28768
37920,13490,28521
34430,13505,28572
29748,13605,28664
25237,13524,28520
23503,13539,28430
25032,13501,28626
28728,13494,28608
33241,13549,28484
37532,13471,28485
39212,13549,28708
37840,13489,28550
34376,13570,28385
29846,13531,28559
25392,13517,28654
23633,13524,28545
25064,13541,28410
28746,13500,28527
33389,13600,28400
38064,13478,28436
40084,13467,28396
38812,13516,28462
35284,13508,28336
30900,13505,28366
26446,13519,28226
24356,13508,28409
25277,13534,28341
28384,13507,28315
32808,13585,28173
37516,13508,28357
39616,13471,28308
38480,13525,28359
35116,13492,28212
30544,13556,28160
25772,13511,28313
24092,13537,28226
25796,13501,28409
29568,13534,28226
34104,13480,28288
38496,13468,28252
40328,13504,28196
38904,13477,28349
35524,13524,28159
30992,13503,28132
26409,13538,28268
24461,13523,28377
25584,13496,28160
28972,13497,28114
33756,13467,28292
38340,13488,28295
40360,13462,28210
39328,13522,28324
35888,13486,28300
31136,13528,28400
26588,13510,28182
25016,13518,28375
26494,13497,28305
30052,13493,28492
34692,13462,28258
39080,13484,28431
40764,13458,28399
39264,13532,28468
35756,13496,28250
31208,13555,28480
26860,13512,28609
25124,13547,28400
26496,13500,28517
30024,13557,28464
34508,13462,28584
38852,13520,28442
40608,13497,28575
39120,13572,28527
35640,13508,28484
30896,13496,28604
26360,13528,28500
24584,13503,28632
26112,13529,28417
29605,13499,28588
34148,13544,28708
38580,13477,28520
40416,13495,28605
38928,13561,28580
35032,13508,28513
30000,13498,28625
25513,13531,28592
24112,13506,28648
25776,13532,28688
29348,13482,28482
33504,13539,28415
37728,13472,28604
39544,13568,28616
38376,13496,28589
35304,13564,28448
30711,13513,28564
26284,13545,28529
24625,13496,28472
25996,13513,28505
29408,13466,28360
33637,13482,28534
37653,13447,28480
38984,13494,28626
37448,13462,28384
34200,13515,28308
29996,13490,28508
26062,13530,28385
24768,13494,28572
26372,13501,28420
30044,13462,28316
34652,13464,28301
38848,13440,28380
40372,13479,28545
38780,13463,28352
35112,13483,28309
30336,13553,28468
26049,13506,28393
24570,13521,28497
26260,13480,28254
29764,13525,28428
34356,13460,28540
38780,13440,28332
40276,13495,28472
38632,13474,28392
35044,13609,28485
30372,13501,28308
26144,13488,28488
24656,13491,28461
26540,13470,28582
30524,13487,28304
35136,13440,28484
38892,13486,28621
40064,13456,28400
38297,13506,28333
34672,13477,28492
30049,13548,28616
25781,13497,28338
24241,13532,28568
25832,13485,28461
29636,13512,28608
34304,13450,28480
38760,13503,28396
40500,13439,28607
38892,13492,28527
35396,13463,28637
30688,13511,28424
25981,13493,28600
23824,13519,28692
25184,13472,28564
28837,13503,28685
33672,13433,28560
38444,13487,28719
40524,13440,28520
38936,13479,28752
34984,13464,28647
29740,13491,28836
25116,13526,28689
23756,13480,28801
25868,13481,28815
30064,13450,28784
35176,13448,28821
39573,13432,28878
40956,13469,28857
39160,13519,29001
35512,13454,28900
30972,13483,28844
26860,13534,28972
25669,13482,29066
27676,13518,28929
31172,13466,29007
35240,13517,28903
39176,13435,29124
40456,13474,28994
38688,13440,28860
35060,13470,29049
30372,13576,29128
25812,13493,29036
24052,13507,29053
25718,13476,28959
29408,13510,29134
34152,13426,29120
38632,13445,29073
40360,13532,29252
38716,13476,29056
35072,13538,29199
30388,13496,29301
26033,13476,29085
24676,13490,29185
26444,13457,29260
30012,13504,29052
34496,13452,29230
38781,13584,29325
40440,13453,29137
38948,13439,29047
35456,13476,29280
31008,13468,29172
26677,13500,29344
25064,13469,29188
26520,13480,29308
30030,13438,29181
34348,13442,29406
38616,13533,29206
40012,13451,29333
38324,13594,29196
34956,13480,29408
30596,13532,29234
26272,13478,29361
24688,13508,29240
26288,13455,29456
29980,13460,29289
34592,13426,29385
38780,13442,29351
40493,13427,29349
39016,13436,29438
35586,13449,29385
31320,13524,29381
27164,13487,29364
25576,13461,29410
27156,13499,29411
30636,13449,29301
34700,13433,29290
38976,13519,29380
40644,13459,29428
39140,13440,29286
35552,13480,29424
30988,13456,29218
26624,13476,29432
24896,13462,29395
26316,13460,29341
29912,13476,29348
34556,13417,29539
39120,13448,29488
41021,13494,29350
39584,13429,29243
36008,13452,29468
31404,13469,29464
26752,13520,29464
24800,13474,29448
26360,13448,29460
29956,13461,29280
34592,13416,29476
39008,13443,29438
40661,13414,29486
39245,13458,29356
35944,13440,29492
31520,13496,29540
26960,13468,29396
25184,13486,29324
26498,13444,29340
29920,13452,29508
34420,13457,29540
38876,13413,29532
40552,13449,29408
38848,13496,29552
35244,13439,29628
30620,13468,29478
26360,13461,29335
24904,13462,29542
26680,13492,29549
30232,13426,29556
34422,13446,29492
38252,13476,29653
39661,13412,29453
38413,13464,29567
35240,13463,29652
30992,13520,29462
26832,13472,29564
25316,13452,29429
27048,13453,29637
30800,13492,29460
35336,13429,29564
39544,13466,29463
41196,13407,29648
39532,13460,29456
35824,13432,29548
31048,13495,29445
26645,13460,29498
24972,13460,29359
26556,13494,29516
30176,13439,29460
34880,13488,29589
39344,13397,29580
40964,13444,29358
39324,13575,29465
35672,13445,29440
31042,13491,29304
26732,13446,29536
24916,13461,29266
26404,13436,29416
29852,13443,29272
34425,13481,29455
38828,13420,29168
40440,13442,29161
38956,13421,29364
35488,13464,29278
30924,13489,29440
26540,13442,29263
24946,13461,29109
26660,13484,29325
30356,13423,29200
34920,13444,29404
39112,13396,29264
40480,13441,29172
38532,13413,29288
34848,13457,29179
30464,13440,29309
26284,13464,29359
24860,13440,29127
26536,13448,29036
30252,13456,29249
35120,13394,29204
39612,13418,29340
40964,13406,29057
38884,13444,29140
35108,13424,29304
30656,13464,29044
26592,13457,29111
25228,13489,29182
26996,13436,28991
30604,13419,29217
34996,13428,29132
39200,13394,29270
40485,13433,29084
38704,13576,29188
35176,13444,29132
30640,13506,29220
26616,13460,29204
25313,13434,29174
26980,13434,29308
30594,13485,29098
35180,13416,29222
39360,13397,29108
40804,13437,29232
39060,13400,29084
35216,13463,29228
30328,13456,29201
25928,13487,29166
24504,13442,29373
26348,13448,29329
30084,13409,29168
34728,13421,29126
39049,13422,29185
40564,13397,29304
38940,13460,29293
35448,13433,29444
30772,13505,29152
26512,13448,29336
25164,13431,29367
26940,13428,29392
30718,13405,29144
35364,13450,29233
39656,13412,29297
41024,13548,29257
39172,13420,29300
35420,13412,29441
30760,13452,29189
26601,13435,29408
25356,13440,29413
27072,13417,29312
30144,13446,29441
33964,13406,29360
37640,13391,29334
39104,13436,29444
37984,13400,29480
35012,13441,29341
30932,13429,29471
26864,13456,29469
25408,13431,29376
26928,13468,29465
30556,13414,29488
35129,13385,29511
39476,13422,29396
41070,13392,29565
39436,13493,29540
35804,13431,29447
31104,13520,29580
26725,13448,29580
25125,13444,29697
26496,13436,29552
29872,13402,29644
34388,13446,29606
38624,13398,29492
40264,13472,29646
38832,13422,29633
35220,13538,29717
30557,13438,29440
26368,13430,29584
25132,13454,29559
26908,13410,29700
30656,13429,29820
35296,13384,29518
39584,13466,29600
41120,13420,29624
39272,13394,29721
35540,13453,29860
30921,13444,29656
26648,13431,29744
25172,13456,29780
26752,13414,29568
30292,13424,29804
34776,13381,29752
39032,13480,29756
40580,13419,29647
38956,13422,29796
35460,13536,29960
30944,13424,29980
26728,13474,29774
25361,13440,29887
27072,13412,29916
30530,13421,29944
34724,13490,29684
38680,13408,29900
40120,13487,29900
38732,13417,29935
35200,13478,29716
30480,13424,29952
25952,13444,29916
24340,13426,29912
26133,13430,29985
29983,13397,29953
34928,13399,30112
39504,13375,29856
41040,13443,30023
39240,13428,30108
35460,13496,30027
30796,13419,30072
26492,13455,29895
24992,13426,30100
26596,13474,30244
30152,13417,29904
34684,13389,30140
38908,13524,30292
40444,13433,29964
38868,13409,30168
34996,13484,30326
30016,13434,30004
25544,13488,30020
24052,13432,30253
25856,13411,30324
29632,13442,30204
34500,13382,30104
39016,13474,30220
40577,13400,30405
38904,13393,30148
35264,13452,30348
30784,13438,30352
26688,13419,30309
25374,13433,30181
27169,13405,30407
30752,13448,30526
35173,13390,30332
39280,13365,30446
40724,13442,30343
38988,13420,30437
35492,13396,30465
31028,13507,30529
27005,13422,30356
25710,13425,30559
27412,13398,30284
30948,13415,30388
35508,13378,30640
39832,13391,30396
41112,13375,30527
38972,13463,30598
34896,13414,30588
30118,13412,30639
26100,13458,30383
25028,13415,30598
27204,13436,30692
30988,13385,30553
35316,13458,30654
39188,13376,30740
40508,13410,30664
38914,13486,30596
35496,13424,30736
30992,13497,30816
26864,13422,30689
25413,13453,30802
27066,13404,30708
30612,13448,30740
35169,13406,30832
39456,13492,30984
41008,13404,30820
39376,13469,30725
35808,13392,30948
31300,13420,30968
27148,13413,30952
25712,13422,31030
27366,13466,30940
30861,13384,30836
35044,13406,31089
38905,13356,31026
40148,13386,31224
38232,13384,31112
34340,13412,30940
29436,13408,31197
24988,13431,31072
23280,13439,31170
24540,13397,31343
27728,13415,31357
32056,13372,31132
36556,13500,31284
38648,13385,31412
37952,13376,31116
35352,13422,31349
31396,13409,31469
27480,13450,31288
26450,13407,31290
28624,13412,31201
32884,13407,31428
37996,13356,31415
42924,13385,31375
45244,13366,31557
44158,13450,31372
41316,13386,31468
37348,13423,31493
33644,13411,31493
32884,13424,31404
35108,13437,31374
38808,13363,31494
42960,13395,31580
46696,13348,31460
47592,13400,31384
45512,13501,31574
41772,13415,31559
37352,13399,31456
32924,13413,31704
31236,13399,31534
32372,13437,31630
35060,13387,31610
38572,13353,31744
42134,13452,31596
43244,13381,31688
41280,13367,31725
37468,13417,31636
32464,13400,31788
27416,13414,31909
25200,13398,31813
26236,13433,31756
29468,13396,31892
33768,13362,31928
37908,13407,31845
39224,13399,31960
37432,13373,31964
33780,13420,32004
28922,13422,31998
24256,13470,32000
22672,13413,32196
24478,13388,32052
28393,13428,31861
33216,13384,32094
37541,13356,32276
38885,13441,32078
37072,13392,32192
33556,13389,32260
29064,13460,32156
24952,13413,31999
23616,13400,32258
25317,13399,32287
28876,13379,32196
33260,13433,32325
37220,13368,32237
38500,13356,32287
36908,13423,32380
33432,13393,32394
28912,13456,32344
24876,13410,32432
23648,13445,32388
25500,13400,32536
29180,13373,32416
33438,13377,32332
37508,13360,32476
39080,13450,32608
37548,13366,32576
34148,13448,32588
29633,13412,32588
25276,13455,32724
23748,13406,32564
25348,13380,32656
28908,13406,32808
33416,13360,32628
37588,13381,32473
39100,13356,32756
37412,13399,32877
34016,13401,32628
29408,13461,32836
25056,13412,32844
23300,13447,32958
24860,13395,32806
28644,13369,32937
33696,13377,32828
38412,13436,32817
40092,13388,33044
38285,13482,32926
34556,13405,33034
29684,13452,32960
25313,13409,33167
23912,13422,33137
25808,13380,33004
29598,13377,32858
34304,13453,33144
38732,13375,33132
40304,13452,33192
38656,13397,33196
34950,13454,33117
30020,13402,33228
25400,13455,33192
23778,13401,33157
25425,13425,33276
29112,13372,33284
33828,13384,33299
38208,13352,33138
39904,13428,33336
38326,13392,33249
34765,13477,33476
30183,13411,33268
25906,13404,33309
24430,13406,33393
26092,13449,33428
29740,13385,33320
34296,13355,33556
38604,13402,33401
40228,13373,33501
38752,13363,33585
35280,13409,33560
30820,13396,33476
26908,13423,33596
25828,13396,33543
27636,13380,33508
30832,13393,33412
34364,13420,33704
38128,13353,33568
39880,13400,33856
38552,13360,33695
35093,13422,33821
30476,13392,33808
26104,13414,33745
24656,13394,33964
26344,13417,33745
30156,13394,33948
34841,13489,34110
39324,13412,33932
41064,13376,34080
39512,13454,33992
35704,13381,34226
30844,13458,34144
26544,13416,33935
25096,13449,34243
26844,13396,34425
30660,13372,34072
35172,13432,34324
39252,13362,34524
40500,13351,34349
38732,13412,34473
35162,13381,34496
30634,13450,34532
26332,13407,34577
24856,13393,34588
26444,13430,34593
30112,13389,34356
34628,13446,34636
39076,13364,34840
40668,13351,34660
38928,13402,34776
35261,13377,34792
30788,13446,34864
26760,13400,34543
25492,13388,34879
27202,13394,34860
30632,13364,34961
34737,13433,34932
38568,13370,34876
39688,13353,35076
37712,13394,34734
34212,13372,34999
29684,13433,35028
25640,13390,35172
24364,13399,34980
26084,13376,34800
29384,13381,35109
33696,13429,34980
37808,13377,35124
39456,13442,35124
38072,13395,35016
34732,13446,35309
30076,13404,35120
25778,13440,35225
24381,13391,35125
26152,13372,35344
29800,13392,35041
34440,13364,35236
38700,13428,35441
40020,13353,35279
38260,13415,35353
34652,13397,35236
30100,13380,35429
26244,13399,35105
25152,13381,35404
26992,13397,35476
30272,13365,35397
34410,13426,35497
38360,13351,35492
39712,13420,35468
38080,13378,35641
34624,13432,35449
30040,13392,35580
25932,13422,35609
24636,13390,35613
26514,13420,35684
30332,13377,35580
35048,13424,35830
39180,13350,35680
40340,13336,35776
38365,13400,35845
34501,13364,35790
29693,13398,35557
25586,13384,35852
24320,13389,35890
26224,13367,35824
29852,13378,35801
34506,13341,35934
38740,13385,35944
40108,13345,35841
38389,13436,35982
34880,13378,36112
30245,13434,36093
26160,13400,35814
25088,13379,36028
27120,13372,36004
30693,13351,35901
35072,13350,36172
39128,13324,35988
40388,13408,36045
38500,13377,35977
34652,13463,36181
29648,13414,35788
25556,13401,36052
24502,13377,35932
26665,13373,36174
30560,13349,36080
35180,13376,35972
39188,13335,36068
40285,13473,35973
38376,13374,36045
34760,13364,35711
30128,13422,36036
26170,13381,35980
24948,13421,36116
26852,13380,35929
30636,13348,35696
35264,13398,35976
39425,13352,35841
40760,13446,36068
38728,13359,36060
34856,13380,35980
30216,13369,35776
26304,13388,35616
25152,13415,35636
26860,13360,35594
30040,13383,35880
34464,13337,35864
38556,13389,35748
39904,13339,35940
38264,13396,35916
34624,13387,35748
29924,13373,35808
26044,13394,35798
25180,13372,35681
27352,13392,35628
31116,13346,35837
35580,13384,35684
39476,13332,35580
40598,13409,35720
38676,13373,35576
34948,13356,35770
30240,13408,35352
26322,13373,35652
25202,13389,35591
27056,13357,35516
30672,13376,35657
35008,13340,35552
38820,13315,35503
40076,13384,35578
38364,13342,35465
35100,13405,35608
30536,13380,35429
26424,13374,35500
25180,13416,35324
27052,13373,35471
30693,13345,35486
35364,13344,35340
39389,13414,35260
40452,13366,35357
38336,13444,35344
34300,13378,35313
29284,13370,35200
25338,13388,35364
24656,13364,35182
27008,13377,35207
30900,13357,35086
35668,13352,35156
39712,13469,35108
40832,13370,35243
38908,13340,35025
35258,13380,34780
30528,13454,35044
26636,13388,35021
25664,13365,35017
27584,13368,34892
31388,13449,34823
35944,13365,34988
39644,13324,34592
40616,13469,34823
38504,13356,34887
34609,13352,34797
29520,13412,34788
25224,13376,34700
24188,13403,34856
26484,13364,34628
30608,13345,34686
35509,13324,34776
39456,13359,34545
40420,13350,34623
38452,13361,34508
34673,13348,34556
30144,13390,34380
26484,13368,34591
25808,13397,34400
28021,13348,34168
31908,13404,34438
36460,13329,34293
40221,13358,34506
41060,13320,34356
38944,13356,34288
35132,13344,34356
30297,13374,34295
26140,13367,34346
24988,13385,34346
26976,13346,34181
30702,13379,34244
34982,13319,34090
38828,13361,34324
40120,13430,34311
38348,13345,34240
34708,13368,34156
30121,13432,34081
26152,13367,33856
24960,13407,34053
26833,13348,34016
30568,13381,34148
35244,13320,33976
39180,13394,33772
40012,13339,33972
37876,13332,34100
34400,13396,33692
30076,13371,33861
26472,13412,34016
25480,13365,33823
27392,13422,33893
31032,13345,33720
35572,13450,33868
39468,13341,33618
40653,13320,33783
38936,13360,33868
35348,13441,33665
30752,13370,33714
26754,13357,33540
25508,13398,33735
27412,13360,33432
31080,13432,33608
35576,13340,33599
39404,13312,33530
40564,13378,33253
38676,13332,33508
34920,13428,33536
30180,13379,33344
26164,13354,33433
25176,13393,33416
27064,13342,33256
30536,13391,33285
34652,13334,33268
38492,13305,33284
39838,13371,33281
38360,13333,33148
35109,13413,33188
30756,13360,33069
26756,13386,33127
25540,13353,33061
27416,13388,33072
31044,13345,32980
35592,13403,32997
39632,13342,32709
40796,13440,32903
38904,13343,32969
35208,13340,32882
30336,13412,32726
26116,13368,32804
24968,13351,32788
26992,13418,32797
30745,13340,32661
35048,13312,32676
38948,13399,32552
40232,13329,32701
38496,13317,32312
35048,13380,32484
30552,13351,32633
26388,13386,32446
24988,13347,32361
26548,13349,32420
30196,13325,32237
34908,13324,32416
39208,13299,32061
40632,13358,32263
38924,13321,32108
35236,13389,32324
30692,13345,32124
26540,13373,31884
25197,13348,32062
26872,13382,32164
30524,13325,31932
35168,13378,32012
39384,13334,31996
40724,13307,31985
38768,13336,31688
35168,13475,31880
30536,13369,31712
26516,13404,31887
25284,13351,31695
27156,13354,31504
30881,13320,31733
35460,13320,31640
39328,13366,31644
40517,13322,31733
38584,13381,31596
35016,13330,31480
30416,13356,31309
26552,13401,31535
25496,13350,31397
27320,13380,31465
30800,13319,31340
35088,13340,31292
38932,13298,31388
40340,13362,31399
38660,13328,31248
35148,13400,31312
30397,13346,31237
26246,13379,31388
25216,13345,31129
27344,13363,31207
31186,13317,31096
35808,13345,31220
39616,13300,31060
40540,13349,31132
38517,13332,31141
34848,13416,30996
30224,13353,31068
26317,13348,31009
25202,13353,31140
27164,13332,30896
30845,13334,30988
35400,13302,30868
39468,13386,30980
40680,13338,30826
38628,13397,30893
34636,13329,30880
29648,13376,30748
25736,13345,30900
25020,13365,30909
27357,13330,30789
31365,13356,30541
35936,13297,30760
39704,13346,30597
40664,13303,30821
38652,13378,30577
34941,13328,30454
30304,13360,30428
26472,13345,30628
25432,13357,30582
27416,13322,30542
30796,13326,30425
35236,13290,30660
38860,13309,30519
39681,13310,30395
37576,13349,30301
33920,13420,30468
29396,13349,30444
25546,13382,30406
24716,13337,30277
26872,13353,30493
30688,13308,30345
35408,13356,30350
39284,13324,30296
40428,13372,30428
38308,13333,30208
34332,13320,30287
29292,13374,30148
25212,13352,30365
24152,13392,30125
26400,13340,30212
30416,13308,30200
35264,13350,30064
39400,13321,30247
40532,13399,30214
38444,13346,30058
34488,13438,30141
29424,13361,30125
25464,13385,29989
24549,13343,30096
26796,13364,30140
30940,13308,30148
35936,13317,30148
40072,13358,30164
41176,13303,29983
39072,13391,29860
35326,13321,30088
30364,13348,30066
26308,13394,29981
25204,13345,30172
27244,13380,30053
30984,13337,29881
35604,13384,30068
39484,13303,30076
40456,13339,30071
38408,13312,30053
34716,13348,30021
29936,13438,30135
26100,13352,29967
25445,13327,29815
27868,13338,30044
31892,13301,29997
36537,13357,29998
40092,13324,30140
40576,13287,29942
38324,13345,29830
34764,13327,29988
30148,13392,29980
26461,13353,29860
25622,13335,30072
27722,13332,29992
31412,13390,30022
35936,13313,29988
39668,13370,29861
40484,13325,29781
38185,13393,29744
34336,13344,29968
29557,13427,29924
25774,13360,29826
24934,13383,29929
27004,13336,30008
30912,13403,29994
35756,13323,29948
39552,13377,29852
40508,13332,29834
38472,13410,29720
34760,13326,29703
29988,13386,29929
26004,13344,29927
24874,13352,29933
26488,13321,29902
29736,13325,29877
33724,13294,29864
37220,13305,29774
37892,13415,29766
35796,13338,29936
32084,13396,29892
27612,13346,29740
24229,13382,29623
24138,13329,29825
27128,13348,29832
31560,13324,29884
36832,13378,29787
41160,13314,29689
42532,13398,29575
40976,13341,29781
37904,13321,29756
34012,13353,29692
30916,13333,29757
30400,13353,29831
32732,13324,29624
36872,13385,29706
41972,13303,29572
46416,13284,29812
47988,13322,29769
45956,13294,29653
41780,13348,29512
36460,13333,29650
32184,13353,29654
31164,13327,29612
33292,13338,29543
37088,13387,29740
41720,13320,29537
45588,13274,29635
46044,13316,29631
43344,13303,29552
39008,13360,29700
33412,13332,29593
28732,13348,29551
27252,13407,29671
28976,13330,29597
32156,13301,29819
36080,13308,29604
39160,13374,29581
39524,13300,29630
36973,13336,29603
33165,13426,29544
28320,13353,29740
24540,13374,29754
23678,13333,29628
25792,13372,29877
29652,13327,29695
34360,13358,29596
38048,13314,29776
38724,13339,29777
36392,13307,29677
32516,13380,29760
27620,13358,29740
23816,13397,29768
23104,13344,29684
25348,13317,29804
29280,13351,29636
34068,13297,29504
37936,13353,29732
38636,13297,29632
36280,13320,29572
32545,13414,29633
27704,13353,29749
23944,13365,29776
23081,13334,29732
25336,13338,29610
29080,13309,29504
33788,13313,29656
37708,13285,29656
38640,13316,29612
36664,13306,29575
32812,13344,29687
28072,13422,29777
24444,13346,29800
23520,13345,29796
25623,13322,29764
29348,13314,29672
34204,13292,29524
38104,13303,29768
38924,13296,29749
36636,13367,29863
32992,13335,29583
28164,13399,29810
24404,13336,29748
23884,13350,29948
26222,13320,29764
29960,13344,29684
34800,13302,29927
38609,13376,29910
39260,13302,29932
36804,13380,30000
33016,13322,29990
28208,13351,29894
24621,13338,30136
24009,13342,30044
26428,13378,30004
30372,13324,30124
35172,13292,30144
38858,13311,30138
39520,13365,30068
37180,13338,30272
33240,13328,30312
28336,13375,30185
24708,13341,30172
24125,13344,30212
26608,13325,30221
30608,13324,30261
35364,13340,30277
39016,13292,30292
39792,13340,30196
37580,13316,30460
33760,13350,30456
28921,13343,30384
25244,13357,30496
24724,13378,30530
27080,13332,30556
30920,13382,30533
35792,13317,30636
39496,13303,30709
40064,13343,30716
37484,13402,30594
33537,13346,30566
28460,13381,30584
24904,13363,30700
24454,13385,30709
27044,13337,30716
31200,13366,30568
36192,13324,30764
39840,13400,30712
40168,13313,30708
37488,13365,30852
33620,13334,30716
28872,13366,30573
25476,13404,30831
24756,13355,30808
26936,13412,30796
30664,13329,30913
35537,13302,30612
39460,13337,30856
40444,13311,30996
38456,13382,30786
34808,13350,30913
30093,13447,30937
26614,13364,30876
26016,13345,30920
28084,13353,30884
31656,13319,31042
36476,13327,31016
40232,13310,30836
41012,13310,30966
38604,13392,30900
34720,13362,31056
29928,13351,30746
26180,13377,30940
25280,13348,31076
27362,13380,30880
31018,13338,30836
35824,13301,30928
39512,13375,30966
39992,13321,30973
37592,13346,30956
33548,13416,30941
28508,13352,30952
24940,13360,30876
24440,13405,31065
26948,13348,30919
30792,13353,30873
35612,13304,30744
39320,13319,30980
39520,13316,31044
36924,13339,31071
32980,13393,30885
28048,13353,30993
24321,13373,30933
23880,13343,30973
26348,13348,31060
30208,13381,30924
35200,13303,30900
38820,13329,30745
39512,13315,31001
37272,13352,30900
33400,13333,31048
28484,13371,30896
24868,13402,30890
24239,13354,30818
26692,13386,30977
30668,13314,31016
35526,13344,30937
39104,13301,31045
39660,13349,31111
37420,13364,31029
33656,13343,30912
28712,13362,30997
24868,13401,31010
23840,13345,30999
25792,13345,30904
29632,13393,30925
34952,13303,30882
39120,13328,30876
40000,13353,30996
37848,13324,31035
34092,13375,30769
29246,13349,31004
25772,13370,30980
25344,13347,31136
27808,13345,31111
31716,13364,30968
36696,13300,30944
40304,13343,31025
40640,13309,30964
37872,13373,31140
33504,13348,30916
28048,13420,31064
24468,13373,31036
24228,13345,31101
27068,13361,30960
31340,13320,30836
36548,13376,31028
40048,13330,31191
40408,13395,31068
37828,13338,30989
33785,13399,30828
28746,13352,31075
25224,13398,31097
24712,13353,31016
27172,13340,31064
31056,13394,30978
35824,13323,31100
39320,13296,30836
39820,13378,31032
37412,13327,30924
33496,13407,31172
28564,13365,31016
25240,13404,30822
25057,13361,31062
27728,13399,30980
31816,13331,31141
36548,13306,31092
39828,13332,30906
40032,13417,30808
37472,13365,31004
33464,13346,31068
28600,13412,30861
25304,13365,30980
25040,13350,31117
27742,13334,30881
31860,13338,30796
36560,13316,31008
39856,13331,30912
39992,13317,31114
37412,13350,30980
33128,13473,30852
28240,13420,31106
24940,13360,30973
24692,13367,30909
27530,13338,30884
31680,13349,31005
36260,13360,30992
39256,13452,31000
38904,13343,31020
36424,13374,30816
33008,13349,31026
28660,13378,30936
25880,13367,31020
26057,13369,31085
28705,13418,30965
32512,13343,30932
37224,13350,30900
40384,13316,31036
40496,13358,31029
37902,13347,30973
34052,13386,31166
29169,13442,30950
25753,13383,31058
25434,13364,30941
27980,13364,30936
32048,13361,30936
36980,13323,31168
40489,13344,31172
40800,13391,31189
38168,13345,31119
33924,13394,31022
28916,13446,31070
25540,13383,31093
25132,13381,31085
27512,13410,31071
31453,13342,31072
36212,13348,31034
39616,13404,31084
39948,13326,31133
37412,13375,31092
33420,13431,31077
28440,13380,31073
25153,13390,31067
25048,13432,31065
27860,13374,31032
31984,13368,31033
36820,13341,30948
40048,13374,31191
40104,13449,31072
37428,13360,31296
33404,13392,31307
28576,13445,31264
25364,13393,31156
25241,13388,31152
27940,13433,31121
31868,13372,31246
36584,13399,31232
39792,13336,31221
40192,13387,31145
37848,13351,31327
33920,13406,31198
28792,13382,31137
25380,13404,31135
25133,13376,31208
27856,13386,31224
31908,13352,31198
36624,13366,31140
39916,13335,31132
40044,13366,31284
37404,13361,31204
33352,13388,31176
28364,13456,31085
24966,13400,30970
24648,13405,30900
27454,13384,31136
31760,13353,30992
36876,13366,31124
40272,13452,31029
40644,13388,30980
38240,13491,30848
34232,13396,31073
29376,13425,30828
26381,13390,30848
26233,13388,30797
28724,13412,31024
32568,13354,30974
37276,13372,30936
40532,13341,30964
40640,13391,31087
38012,13370,30855
34024,13381,30915
29032,13418,31005
25706,13396,30984
25500,13399,30800
28030,13371,30808
32004,13376,30798
36796,13349,30744
40048,13376,30644
40244,13401,30636
37628,13376,30848
33556,13452,30784
28656,13409,30785
25546,13396,30623
25432,13409,30845
28088,13460,30792
32064,13385,30681
37108,13441,30928
40668,13377,30831
40800,13421,30772
37964,13372,30568
33668,13420,30790
28385,13402,30758
25128,13414,30725
25064,13394,30653
27900,13384,30752
32033,13388,30762
36948,13359,30852
40288,13391,30781
40352,13453,30617
37528,13380,30622
33409,13413,30528
28432,13465,30456
25453,13407,30701
25760,13405,30680
28648,13457,30672
32468,13379,30653
36844,13439,30517
39448,13372,30652
39196,13391,30727
36660,13474,30656
33132,13405,30732
28789,13470,30493
26164,13420,30373
26508,13450,30599
29148,13412,30532
33012,13472,30680
37800,13379,30660
40876,13413,30573
40768,13371,30448
37864,13404,30404
33784,13401,30312
28756,13424,30304
25869,13473,30527
26004,13431,30460
28704,13465,30421
32576,13381,30373
37356,13444,30594
40408,13378,30488
40400,13461,30309
37680,13423,30477
33584,13401,30492
28736,13431,30584
25732,13474,30400
25950,13433,30301
28714,13397,30484
32456,13412,30448
37112,13378,30452
40182,13399,30343
40185,13380,30580
37412,13421,30365
33344,13410,30240
28512,13443,30471
25280,13469,30471
25284,13430,30372
28172,13455,30382
32168,13389,30436
36772,13424,30576
39764,13381,30520
39672,13456,30349
36944,13403,30368
33136,13440,30352
28492,13501,30364
25540,13439,30305
25620,13446,30282
28352,13409,30460
32272,13443,30436
37208,13383,30372
40476,13402,30400
40497,13394,30446
37613,13440,30575
33536,13502,30500
28556,13434,30432
25597,13480,30244
25825,13425,30466
28864,13447,30449
33056,13412,30572
37624,13512,30425
40440,13407,30244
40004,13491,30484
37100,13440,30352
33084,13423,30462
28088,13452,30276
25132,13435,30493
25656,13440,30460
28640,13475,30516
32932,13414,30492
37936,13480,30472
40928,13412,30364
40748,13577,30593
37792,13431,30377
33556,13425,30485
28481,13495,30392
25601,13446,30564
25884,13429,30376
28858,13429,30496
32958,13406,30364
37484,13412,30567
40132,13524,30268
39708,13424,30446
36888,13426,30604
32940,13449,30392
28220,13442,30460
25488,13481,30485
25748,13441,30504
28740,13416,30452
32948,13442,30400
37792,13424,30424
40664,13398,30508
40332,13432,30283
37232,13426,30364
32900,13522,30476
28034,13460,30316
25248,13495,30496
25756,13442,30489
28798,13471,30376
32840,13408,30370
37440,13422,30489
40200,13403,30321
39860,13482,30493
36936,13445,30426
32830,13508,30566
28108,13456,30365
25340,13477,30446
25720,13445,30464
28760,13484,30358
33044,13439,30574
37892,13493,30372
40776,13433,30327
40512,13478,30198
37536,13435,30428
33365,13519,30280
28420,13464,30384
25576,13449,30372
26020,13461,30388
28936,13436,30415
33204,13480,30409
37960,13421,30261
40341,13533,30348
39536,13436,30314
36528,13429,30416
32424,13498,30097
27720,13485,30342
25132,13455,30176
25688,13481,30308
28760,13435,30180
32996,13446,30380
37752,13423,30256
40350,13501,30268
39736,13449,30269
36686,13529,30245
32636,13456,30204
27896,13486,30204
25408,13462,30230
25986,13484,30025
29044,13437,30254
33020,13446,30202
37832,13415,30232
40549,13451,30368
39952,13421,30116
36732,13473,30265
32344,13454,30220
27364,13504,30377
24532,13465,30274
24990,13476,30108
28124,13442,30286
32324,13485,30137
37172,13436,30344
39904,13476,30177
39204,13433,30132
36160,13497,30044
31988,13461,30270
27372,13501,30272
25085,13472,30209
25736,13477,30140
28676,13508,30228
32796,13454,30284
37548,13515,30036
40285,13426,30284
39604,13486,30238
36428,13456,30302
32196,13505,30269
27470,13474,30094
24864,13511,30241
25376,13468,30316
28511,13484,30250
32980,13457,30048
37896,13513,30280
40656,13452,30212
40116,13442,30395
37120,13477,30197
32932,13462,30056
28064,13507,30255
25505,13482,30332
26173,13514,30165
29127,13468,30273
33236,13440,30224
38048,13450,30376
40829,13436,30309
40336,13484,30075
37128,13458,30280
32388,13532,30252
27332,13490,30247
24760,13519,30100
25392,13474,30276
28661,13512,30245
33229,13450,30373
38065,13516,30244
40480,13438,30128
39692,13484,30260
36508,13457,30244
32513,13487,30206
28100,13540,30365
26013,13486,30268
26636,13502,30130
29548,13466,30028
33661,13466,30252
38216,13444,30161
40724,13502,30260
40172,13476,30028
37188,13573,30248
32848,13493,30180
27800,13576,30300
25104,13501,30185
25700,13540,30086
28840,13482,30016
33056,13493,30008
37916,13441,30025
40596,13464,30247
40028,13573,30226
36828,13489,30188
32568,13560,30105
27756,13506,30333
24990,13528,30288
25174,13487,30135
27817,13496,30017
31724,13456,30236
36308,13474,30212
38712,13450,30196
37812,13510,30237
34356,13476,30116
29820,13537,30212
25176,13516,30080
23084,13503,30316
24600,13517,30144
28556,13484,30024
33536,13538,30175
38808,13470,30181
41844,13512,30132
41888,13471,30196
39560,13556,30181
35976,13568,30078
31745,13515,30269
29852,13553,30096
30921,13491,30044
34712,13508,30012
39476,13450,30133
44704,13498,30116
47956,13487,30109
47824,13504,30108
44756,13570,29980
39976,13483,30204
34632,13512,30196
31696,13556,30184
32492,13481,30109
35788,13496,29956
40008,13459,30060
44432,13484,30000
46700,13569,29935
45476,13506,30133
41768,13591,29908
36960,13529,30012
31604,13558,30016
28153,13503,29957
27736,13512,29940
29724,13486,30020
32944,13541,29766
37220,13476,29964
39588,13458,30013
38752,13519,29892
35668,13487,29940
31500,13576,29876
26636,13517,30068
23780,13512,29778
24116,13523,29894
27044,13492,30024
31308,13587,29768
36212,13489,29901
38788,13468,29793
38216,13516,29981
35128,13485,29828
30794,13532,29732
26061,13576,29652
23549,13528,29812
24070,13557,29808
27144,13506,29768
31452,13474,29764
36104,13506,29592
38612,13480,29758
37950,13588,29872
34856,13522,29636
30484,13570,29524
25636,13528,29748
23136,13548,29657
23776,13513,29844
26866,13548,29701
31001,13496,29617
35620,13548,29516
38244,13481,29740
37711,13532,29700
34756,13501,29830
30817,13575,29618
26216,13539,29719
23685,13557,29700
24432,13517,29788
27736,13534,29756
32064,13485,29500
36920,13514,29740
39324,13474,29614
38352,13535,29740
35124,13504,29735
31152,13586,29708
26688,13533,29804
24446,13566,29644
25256,13528,29760
28184,13502,29632
32240,13508,29877
36776,13564,29746
39252,13513,29560
38432,13581,29778
35296,13532,29898
30900,13516,29620
26272,13556,29745
23933,13526,29789
24668,13565,29830
27521,13518,29748
31826,13484,29895
36936,13508,29612
39800,13476,29823
39224,13533,29760
35980,13513,29808
31356,13572,29635
26444,13530,29838
23976,13553,29964
24713,13525,29640
27774,13505,29965
32248,13523,29718
37116,13481,29822
39656,13561,29837
38872,13512,29848
35776,13544,29797
31585,13529,29852
26884,13561,29861
24296,13528,29772
25153,13532,29880
28424,13508,29864
32632,13517,29932
37264,13480,29756
39716,13513,29877
38812,13502,29877
35604,13528,29742
31476,13558,29677
26872,13600,29876
24504,13543,29805
25368,13538,29976
28616,13560,29903
32848,13495,29800
37348,13522,29908
39700,13578,30006
38768,13523,29815
35680,13596,29932
31592,13547,29868
27037,13537,29824
24913,13548,29928
25924,13537,30028
29264,13529,29864
33720,13593,29977
38536,13525,30068
41120,13590,29908
40357,13509,30025
36900,13575,29884
32116,13530,30015
26716,13597,30057
24104,13559,30088
25185,13532,29860
28764,13541,29948
33592,13494,30120
38604,13516,29880
41172,13500,30114
40420,13532,30180
37238,13605,29964
32768,13560,30157
27740,13595,30040
25109,13550,30132
25648,13535,30184
28812,13580,30316
32960,13524,29980
37640,13508,30173
40317,13610,30308
39756,13532,30004
36816,13568,30190
32368,13552,30208
27096,13583,30124
24168,13545,30117
24520,13565,30325
27608,13520,30165
32076,13528,30113
37132,13496,30240
39924,13529,30364
39304,13666,30160
36196,13555,30272
31956,13594,30225
27090,13543,30134
24349,13553,30373
24893,13533,30168
28080,13537,30269
32308,13607,30164
37044,13500,30266
39728,13530,30259
39212,13605,30215
36092,13520,30172
31724,13550,30292
26864,13599,30256
24453,13560,30373
25280,13582,30093
28545,13526,30265
32632,13544,30348
37224,13632,30329
39860,13508,30228
39364,13527,30093
36080,13577,30332
31621,13632,30348
26617,13568,30236
24056,13544,30349
24776,13563,30215
28008,13520,30308
32101,13552,30388
36824,13512,30375
39616,13577,30380
39272,13545,30532
36185,13531,30256
31808,13566,30444
26852,13545,30447
24264,13580,30294
25044,13546,30420
28346,13523,30566
32780,13546,30320
37613,13500,30496
40320,13575,30637
39788,13537,30436
36668,13532,30575
32404,13580,30686
27644,13559,30431
25152,13608,30576
25956,13545,30745
29130,13524,30536
33256,13537,30680
37848,13506,30730
40196,13506,30502
39300,13574,30717
36080,13545,30872
31800,13553,30589
27020,13597,30784
24544,13564,30764
25204,13536,30911
28358,13568,30613
32640,13537,30821
37588,13598,30912
40408,13540,30895
39740,13597,30784
36288,13534,30834
31664,13605,30932
26804,13570,31108
24413,13551,30788
25344,13583,30980
28757,13540,31140
33136,13634,30844
37776,13526,30972
40388,13506,31048
39836,13519,31121
36644,13571,31221
32276,13562,31169
27396,13552,31108
24832,13574,31111
25536,13544,31248
28720,13589,31372
33076,13532,31024
37840,13507,31176
40416,13567,31357
39764,13554,31317
36688,13536,31412
32473,13626,31336
27616,13569,31356
25128,13596,31350
25786,13546,31260
28932,13591,31350
33096,13532,31444
37908,13609,31408
40448,13541,31290
39736,13601,31436
36565,13530,31231
32066,13558,31456
26876,13552,31576
24020,13564,31428
24656,13543,31258
28064,13545,31470
32646,13516,31646
37792,13560,31292
40596,13508,31532
39920,13608,31606
36752,13558,31348
32256,13605,31599
27172,13564,31586
24520,13608,31512
25152,13557,31623
28480,13533,31725
33032,13543,31504
38184,13502,31671
40926,13591,31757
40372,13524,31463
37524,13625,31618
33341,13577,31826
28352,13556,31725
25496,13600,31618
25841,13564,31719
28820,13532,31796
33036,13594,31855
37696,13528,31576
40180,13530,31777
39472,13521,31812
36196,13605,31889
31928,13572,32006
27226,13560,31726
24788,13604,31833
25588,13560,31897
28828,13548,31952
33157,13519,32074
38096,13533,31908
40836,13516,32016
40236,13669,32135
36960,13585,32066
32388,13564,31949
27488,13620,32140
25068,13584,31900
25940,13625,32074
29286,13552,32244
33632,13530,31990
38292,13579,32180
40840,13548,32312
40204,13531,32124
37128,13590,32220
32892,13568,32292
28013,13568,32289
25474,13582,32233
26076,13560,32209
29124,13607,32320
33316,13542,32456
37932,13512,32129
40461,13546,32340
39916,13703,32508
37084,13568,32153
33176,13556,32344
28712,13604,32404
26088,13565,32204
26328,13591,32464
28772,13542,32434
32364,13572,32488
36880,13524,32519
39556,13607,32652
39324,13562,32328
36576,13639,32544
32704,13577,32685
28174,13621,32485
25630,13584,32605
26116,13558,32729
28984,13605,32542
33145,13543,32628
37944,13628,32644
40836,13556,32660
40376,13524,32702
37296,13568,32688
33012,13553,32644
28064,13577,32743
25198,13567,32856
25500,13567,32528
28408,13632,32732
32560,13559,32876
37308,13644,32592
40136,13561,32839
39832,13538,32970
36856,13579,32876
32496,13566,32848
27588,13613,32892
24924,13574,32972
25484,13585,32859
28605,13544,33008
32836,13579,33050
37856,13525,33048
40656,13565,32996
40184,13530,33109
37160,13569,33109
32924,13568,33084
28084,13624,33204
25312,13583,33354
25792,13608,33132
28888,13582,33181
33056,13550,33316
37816,13673,33353
40564,13559,33382
40148,13570,33412
37272,13540,33461
33384,13594,33492
28720,13570,33433
25688,13593,33679
25296,13565,33437
27836,13552,33569
31945,13560,33780
37020,13525,33605
40240,13575,33732
40216,13540,33619
37448,13613,33892
33344,13565,33844
28432,13589,33768
25630,13576,33585
25936,13580,33908
28926,13612,33878
33028,13552,34061
37996,13608,33956
41120,13542,33916
40988,13637,34044
38212,13568,33924
34033,13561,34008
28768,13594,34128
25513,13574,33997
25441,13612,34216
28209,13570,34096
32252,13596,34182
37184,13544,34223
40364,13613,34360
40228,13563,34205
37253,13599,34288
32940,13565,34300
27813,13592,34204
24957,13570,34384
25492,13572,34507
28672,13593,34370
32880,13535,34471
37712,13574,34464
40560,13525,34520
40128,13553,34303
37184,13569,34540
33080,13564,34334
28196,13587,34629
25268,13605,34608
25476,13567,34752
28308,13572,34612
32288,13620,34733
37240,13544,34887
40296,13524,34605
40148,13557,34834
37284,13539,34809
33148,13583,34832
28248,13573,34609
25384,13589,34948
25720,13615,35108
28752,13566,34927
33008,13535,34992
37848,13560,35024
40672,13529,35108
40300,13584,35016
37412,13548,35290
33296,13575,35188
28464,13648,35230
25600,13582,35124
25788,13563,35324
28520,13567,35348
32504,13537,35289
37184,13548,35545
39872,13528,35380
39300,13554,35204
36468,13546,35469
32752,13651,35316
28280,13590,35600
25706,13635,35780
26268,13578,35612
29144,13552,35712
33128,13561,35846
37764,13528,35828
40572,13620,35957
40228,13560,35846
37300,13557,35952
33104,13576,35868
28248,13667,36104
25500,13584,36076
25888,13562,36060
28864,13576,36149
32980,13533,36204
37708,13564,36260
40544,13529,36325
40178,13566,35994
37244,13548,36332
33212,13589,36541
28624,13581,36436
25980,13631,36396
26362,13578,36495
29184,13557,36564
33016,13568,36708
37524,13524,36537
40504,13594,36640
40132,13554,36750
37196,13565,36701
33172,13670,36829
28356,13577,36782
25532,13590,36824
25677,13620,36773
28424,13578,36857
32564,13609,36869
37492,13537,36852
40456,13620,37005
40056,13554,36898
37208,13602,36957
33184,13566,36980
28460,13598,36933
25644,13629,37121
25817,13576,37005
28557,13608,37023
32581,13542,37064
37328,13554,37024
40192,13636,37120
39872,13575,37078
37016,13604,37009
32860,13565,37090
28165,13592,37136
25784,13624,37097
26272,13570,37089
29008,13594,37223
32900,13542,37069
37384,13609,37136
40080,13548,37149
39760,13615,37093
36980,13557,37184
32876,13601,37180
28048,13576,36996
25376,13591,37165
25654,13572,37156
28516,13572,37322
32580,13540,37140
37512,13547,36865
40525,13629,37206
40276,13576,37208
37308,13630,37148
33064,13574,37338
28180,13649,36996
25468,13593,37241
25804,13568,37240
28724,13572,37108
32696,13548,37241
37208,13640,37258
39908,13569,37157
39552,13583,37255
36656,13562,37137
32536,13636,37385
27968,13602,37116
25366,13581,37200
25608,13620,37198
28384,13580,37231
32284,13560,37376
37072,13535,36976
40096,13567,37247
39964,13639,37169
37272,13586,37257
33404,13680,37255
28900,13592,37177
26224,13579,37328
26381,13582,37085
28832,13558,37232
32528,13568,37120
37160,13605,37128
40128,13538,37256
39988,13632,36999
37584,13574,37168
33600,13564,36998
28860,13623,37124
26032,13579,36981
26220,13587,37095
29056,13552,36930
32932,13553,37164
37453,13692,36814
40136,13570,37007
39804,13548,36951
36996,13580,36988
33044,13570,36813
28240,13604,36922
25276,13620,36832
25432,13572,36788
28228,13568,36804
32124,13620,36908
36864,13535,36812
39788,13528,36743
39540,13583,36825
36684,13550,36657
32496,13585,36368
27642,13662,36672
24864,13587,36541
25200,13600,36749
28112,13555,36639
32228,13569,36524
36957,13660,36556
39880,13551,36496
39572,13716,36388
36600,13572,36612
32408,13655,36437
27804,13589,36460
25068,13580,36352
25420,13570,36420
28288,13580,36436
32408,13546,36388
37176,13610,36308
40212,13535,36308
40172,13643,36238
37432,13568,36299
33620,13570,36396
28970,13592,36188
26024,13586,36212
26064,13582,36188
28781,13582,36068
32865,13666,36162
37680,13562,36253
40728,13538,35870
40460,13569,36060
37616,13558,36104
33544,13636,35805
28652,13580,36063
25648,13591,35992
25821,13608,35884
28736,13554,36113
32716,13617,35912
37520,13563,35962
40764,13600,35950
40812,13541,35785
38316,13620,35960
34484,13568,35822
29672,13604,35900
26384,13587,35816
25968,13582,35829
28092,13626,35936
31900,13553,35830
36904,13552,35732
40424,13608,35652
40744,13540,35791
38292,13580,35778
34344,13562,35756
29300,13598,35776
25976,13576,35477
25705,13576,35703
28220,13620,35529
32232,13549,35716
37152,13562,35644
40536,13601,35618
40936,13542,35701
38488,13585,35768
34688,13656,35644
29952,13597,35524
27036,13635,35447
26884,13577,35620
29080,13629,35572
32300,13577,35600
36216,13537,35542
38748,13613,35220
38384,13559,35496
35496,13628,35396
31242,13572,35441
26412,13626,35481
23508,13585,35277
23766,13601,35422
26768,13557,35376
31080,13570,35356
36416,13530,35425
40124,13575,35268
40812,13543,35308
38664,13620,35124
35156,13588,35318
30864,13668,35132
28244,13593,35189
28816,13583,35080
32004,13556,35129
36424,13646,35109
41364,13568,35154
44868,13692,34884
45392,13583,34973
42920,13547,35092
39416,13629,34960
35144,13577,34916
32264,13641,35021
32056,13580,34799
34456,13661,34852
38172,13570,34805
42724,13532,34920
45660,13565,34480
45392,13548,34636
42688,13700,34685
38616,13602,34664
33696,13583,34796
30372,13643,34543
30348,13604,34577
32844,13569,34685
36212,13630,34340
40032,13563,34506
42376,13663,34416
41660,13579,34554
38358,13623,34382
33752,13566,34438
28084,13597,34284
24380,13584,34392
24096,13581,34068
26844,13609,34339
31032,13552,34396
35973,13535,34204
39012,13556,34260
38644,13545,34196
35496,13559,34152
31012,13605,34253
26128,13576,34236
23272,13604,33920
23501,13572,34100
26492,13578,34009
30636,13544,34112
35500,13578,33817
38652,13520,33964
38704,13564,33817
35984,13556,33972
31980,13583,33756
27196,13653,33807
24176,13594,33612
24402,13604,33828
27200,13553,33756
31111,13565,33572
35608,13531,33349
38589,13553,33564
38520,13626,33380
35760,13553,33588
31708,13612,33352
26850,13576,33415
23768,13605,33268
23884,13574,33376
26656,13607,33280
30492,13550,33256
34908,13604,33180
37948,13564,33204
38089,13625,33196
35813,13565,33004
32220,13630,33068
27908,13573,32985
24920,13592,32844
24749,13567,32984
27268,13583,32637
30984,13542,32889
35480,13540,32792
38576,13523,32828
38656,13631,32784
36064,13575,32625
32152,13566,32713
27400,13626,32671
24340,13593,32570
24260,13609,32720
26888,13564,32486
30772,13541,32345
35456,13550,32510
38736,13522,32451
38988,13605,32556
36616,13565,32333
32948,13575,32310
28252,13574,32368
24936,13603,32284
24780,13577,32350
27352,13552,32012
31284,13553,32228
36100,13520,32300
39388,13573,32092
39556,13545,32156
36936,13576,32093
32876,13560,32176
28100,13594,31973
24944,13572,31756
24740,13580,31989
27425,13550,31793
31420,13581,31998
36225,13549,31812
39792,13617,31566
40088,13559,31751
37400,13615,31855
33132,13572,31592
28076,13614,31676
24788,13573,31488
24788,13588,31601
27772,13556,31552
32028,13576,31495
36864,13520,31584
40044,13588,31316
40360,13535,31442
38092,13568,31402
34220,13557,31344
29128,13585,31110
25776,13618,31326
25544,13568,31327
28044,13612,31168
31988,13564,31268
36744,13527,31329
39928,13548,31094
40228,13528,31193
37784,13562,31137
33872,13556,31229
28960,13592,31048
25704,13572,31140
25496,13582,31232
28109,13551,31024
32153,13568,31076
36984,13533,30964
40368,13629,31014
40680,13565,31029
38240,13548,30968
34712,13565,31100
29792,13660,30900
26176,13584,30966
25312,13610,30944
27500,13558,30856
31292,13569,31020
36264,13522,30804
39954,13601,30886
40541,13557,30733
38204,13538,30752
34348,13593,30836
29420,13581,30694
25977,13569,30781
25652,13574,30587
28189,13544,30716
32080,13552,30788
36808,13519,30607
39960,13537,30692
39940,13534,30657
37073,13577,30614
32828,13634,30670
28014,13590,30421
24952,13568,30576
25092,13567,30556
27668,13548,30444
31269,13577,30508
35748,13548,30527
39084,13509,30472
39476,13613,30357
36968,13564,30392
33086,13619,30489
28288,13578,30172
24814,13609,30334
24565,13573,30373
26920,13603,30190
30913,13542,30274
35624,13514,30309
38932,13540,30253
39221,13530,30184
36776,13600,30032
32920,13552,30238
28116,13629,29930
24704,13586,30080
24328,13556,30128
26672,13569,29816
30192,13536,29969
34616,13607,29900
38080,13541,29944
38860,13528,30059
36768,13574,29700
33284,13549,29764
28721,13629,29777
25282,13575,29846
24996,13597,29887
27568,13545,29730
31304,13584,29813
36124,13518,29716
39636,13576,29720
39964,13537,29774
37364,13632,29784
33512,13573,29714
28688,13560,29716
25136,13584,29721
24828,13549,29597
27316,13559,29565
31373,13530,29664
36172,13567,29712
39744,13510,29445
40176,13606,29566
37868,13556,29534
33960,13652,29580
28900,13583,29597
24876,13616,29604
24022,13563,29573
26492,13601,29637
30685,13541,29588
35800,13506,29497
39328,13538,29627
39848,13521,29581
37642,13571,29448
33908,13541,29622
29048,13572,29340
25381,13556,29548
24796,13564,29660
27100,13617,29332
30880,13538,29464
35644,13609,29536
39368,13534,29542
40060,13513,29473
37938,13563,29553
34312,13672,29318
29577,13568,29376
26004,13558,29548
25333,13560,29280
27473,13535,29428
31244,13555,29452
35884,13508,29364
39460,13529,29474
39927,13517,29498
37564,13584,29229
33712,13550,29377
29052,13612,29440
25376,13572,29440
24676,13542,29369
27006,13578,29249
30844,13536,29384
35608,13624,29444
39396,13519,29391
40116,13508,29485
37952,13598,29386
34252,13561,29324
29408,13552,29269
25774,13601,29328
25285,13551,29318
27632,13583,29356
31385,13541,29408
35872,13501,29117
39417,13541,29192
40148,13530,29199
38012,13622,29316
34236,13557,29407
29532,13550,29191
25837,13570,29276
25160,13544,29372
27300,13558,29149
31128,13517,29234
35896,13577,29344
39612,13526,29097
40316,13513,29184
38248,13545,29294
34528,13528,29015
29833,13560,29216
26132,13601,29141
25414,13549,29288
27608,13556,29137
31288,13518,28961
36236,13527,29128
40308,13492,29266
40984,13548,29036
38216,13539,29129
33772,13537,29122
28624,13572,29104
24942,13552,28992
24472,13574,29156
27020,13536,28882
31212,13516,28990
36052,13525,28956
39760,13506,29032
40372,13586,29076
37857,13520,29084
33856,13597,29024
29164,13564,29056
25558,13550,28784
25056,13581,28964
27392,13543,28839
31276,13564,28933
36120,13594,28929
40016,13532,28880
40872,13661,28992
38664,13537,28789
34670,13524,28884
29996,13562,28770
26149,13550,28885
25348,13559,28668
27566,13530,28820
31432,13550,28730
36064,13509,28905
39680,13578,28697
40380,13546,28569
38144,13511,28751
34272,13552,28756
29402,13540,28637
25596,13574,28750
24944,13538,28676
27360,13573,28772
31352,13512,28606
35944,13540,28708
39356,13514,28591
39853,13584,28796
37728,13547,28578
34334,13528,28682
29816,13560,28674
26132,13546,28562
25260,13554,28676
27345,13603,28537
31053,13520,28756
35844,13527,28719
39936,13499,28527
40838,13527,28487
38596,13513,28628
34764,13541,28712
29992,13600,28554
26145,13544,28461
25332,13549,28624
27520,13580,28600
31272,13528,28564
35872,13560,28452
39644,13490,28622
40508,13519,28627
38424,13632,28508
34637,13553,28677
29776,13588,28500
25844,13546,28601
24896,13576,28720
26976,13532,28496
30741,13573,28456
35556,13507,28620
39564,13482,28651
40520,13540,28460
38392,13532,28590
34642,13641,28700
29772,13557,28524
25832,13543,28590
25024,13584,28613
27324,13535,28464
31252,13524,28660
36044,13493,28425
39773,13554,28568
40632,13516,28492
38424,13506,28452
34708,13574,28567
30228,13560,28653
26356,13540,28560
25373,13556,28428
27324,13522,28524
31004,13572,28564
35652,13545,28516
39524,13525,28561
40460,13496,28588
38357,13572,28344
34628,13546,28432
29804,13534,28588
25660,13556,28380
24496,13535,28535
26596,13573,28604
30656,13518,28340
35624,13492,28417
39724,13546,28437
40824,13522,28559
38872,13623,28629
35208,13545,28345
30360,13548,28624
26432,13534,28546
25408,13560,28647
27333,13525,28413
31008,13560,28520
35660,13518,28552
39580,13490,28537
40592,13513,28424
38748,13505,28340
35052,13644,28484
30300,13570,28489
26544,13540,28500
25452,13532,28308
27180,13533,28455
30678,13528,28444
35244,13484,28488
39372,13556,28501
40716,13516,28324
38804,13507,28361
34989,13580,28418
30236,13541,28452
26276,13584,28393
25404,13545,28309
27472,13508,28424
31184,13554,28486
35921,13520,28240
39992,13573,28448
41148,13497,28412
