ECG,EDA,RR
32748,27405,30231
32725,27407,30245
32745,27399,30368
32773,27381,30365
32896,27364,30339
32997,27349,30350
33252,27344,30433
33548,27354,30528
33832,27364,30414
34124,27380,30566
34420,27387,30631
34644,27381,30500
35001,27375,30696
35476,27357,30673
35872,27336,30652
35996,27325,30644
36089,27327,30762
36124,27328,30844
36116,27346,30761
35944,27352,30873
35481,27364,30799
34872,27369,30964
34356,27358,30967
33368,27351,30884
32204,27343,31056
31061,27334,30966
30044,27332,31084
28929,27341,30973
27356,27365,31124
25536,27391,31087
24669,27406,31207
24540,27399,31120
24756,27391,31270
25220,27367,31179
25656,27355,31285
26125,27346,31244
26788,27338,31381
27436,27335,31446
27961,27347,31364
28452,27351,31470
29032,27362,31372
29636,27362,31526
30144,27343,31448
30644,27333,31593
31192,27310,31639
31680,27293,31607
32172,27286,31670
32664,27293,31616
33112,27301,31735
33444,27318,31760
33660,27316,31687
33829,27320,31862
33964,27317,31751
34080,27294,31853
34132,27285,31852
34181,27271,31975
34264,27271,31892
34316,27270,31997
34321,27276,31941
34300,27303,32068
34328,27309,32120
34372,27306,32032
34436,27295,32177
34478,27281,32076
34480,27266,32281
34516,27253,32263
34564,27249,32172
34588,27252,32261
34620,27269,32406
34588,27282,32373
34516,27293,32284
34504,27287,32401
34548,27285,32472
34568,27269,32532
34604,27249,32532
34652,27235,32565
34681,27234,32601
34712,27244,32642
34680,27255,32529
34708,27266,32553
34669,27276,32706
34628,27271,32690
34652,27271,32638
34656,27251,32844
34640,27239,32804
34588,27225,32860
34616,27221,32765
34645,27222,32839
34660,27238,32922
34664,27249,32977
34624,27261,32858
34616,27261,32993
34656,27250,33036
34708,27237,33088
34741,27221,32969
34833,27215,33133
34874,27206,33108
34928,27207,33197
34973,27219,33067
34956,27243,33257
34944,27247,33174
34952,27241,33222
34944,27237,33182
34920,27220,33201
34904,27207,33396
34964,27189,33353
35016,27188,33281
35080,27190,33308
35092,27205,33497
35100,27229,33466
35108,27224,33352
35140,27225,33509
35140,27223,33465
35188,27205,33565
35232,27188,33422
35280,27175,33628
35316,27176,33564
35350,27175,33487
35346,27185,33639
35352,27210,33708
35300,27215,33676
35292,27216,33743
35212,27207,33603
35096,27193,33799
35068,27180,33752
34976,27165,33670
34949,27156,33743
34896,27161,33761
34768,27181,33845
34608,27192,33717
34440,27200,33905
34360,27205,33828
34224,27193,33932
34140,27188,33796
34085,27165,33860
33984,27154,33978
33956,27151,33841
33856,27159,34044
33684,27166,34007
33512,27188,33885
33364,27190,33989
33268,27189,34055
33154,27181,34013
33036,27172,33996
32916,27152,33937
32800,27143,34160
32761,27143,33966
32728,27138,34183
32664,27162,34140
32616,27174,33991
32496,27177,34215
32384,27182,34169
32333,27173,34081
32280,27161,34274
32292,27143,34257
32192,27130,34132
32156,27127,34309
32176,27139,34302
32164,27143,34262
32116,27164,34249
32100,27173,34200
32041,27173,34296
32040,27165,34217
32060,27155,34380
32080,27133,34422
32076,27119,34442
32080,27106,34373
32017,27125,34488
31984,27133,34365
31968,27151,34558
31956,27158,34439
31980,27159,34543
32064,27157,34388
32105,27138,34621
32116,27117,34591
32160,27102,34493
32172,27109,34576
32077,27113,34663
32058,27124,34500
32094,27136,34599
32054,27143,34732
32056,27143,34724
32112,27143,34647
32140,27127,34765
32192,27110,34766
32180,27097,34816
32164,27095,34701
32176,27102,34912
32236,27113,34823
32228,27128,34900
32256,27133,34755
32268,27139,34928
32304,27127,35021
32312,27111,34895
32313,27097,35004
32332,27084,34886
32373,27077,34889
32428,27087,35036
32448,27097,34996
32469,27111,35088
32496,27119,34925
32450,27123,35012
32412,27113,35026
32360,27103,35180
32352,27081,35129
32364,27077,35266
32400,27068,35150
32368,27075,35244
32388,27086,35094
32388,27093,35205
32416,27108,35356
32500,27113,35300
32508,27092,35335
32468,27080,35220
32480,27069,35274
32520,27060,35256
32524,27055,35335
32576,27063,35428
32560,27079,35484
32532,27084,35449
32524,27092,35345
32556,27098,35461
32553,27091,35517
32472,27078,35382
32485,27061,35564
32564,27045,35452
32612,27042,35632
32570,27039,35581
32496,27056,35495
32398,27071,35527
32396,27089,35433
32452,27085,35684
32492,27079,35573
32512,27055,35695
32576,27045,35577
32609,27031,35766
32656,27029,35729
32684,27028,35637
32660,27045,35665
32602,27060,35579
32612,27070,35864
32653,27070,35825
32676,27065,35777
32652,27050,35765
32649,27039,35703
32636,27016,35912
32656,27022,35868
32664,27015,35776
32637,27034,35984
32608,27045,35896
32564,27058,35787
32536,27061,36036
32532,27053,35992
32533,27037,35804
32548,27020,36084
32592,27009,36007
32645,27001,35842
32621,27004,35999
32592,27023,35977
32600,27038,36076
32576,27044,36163
32548,27050,36116
32592,27041,36148
32628,27021,36140
32640,27013,36170
32620,26996,36167
32596,26984,36089
32620,26992,36103
32660,27015,36000
32628,27024,36276
32596,27031,36229
32581,27031,36130
32608,27025,36280
32632,27008,36278
32636,26996,36357
32677,26989,36296
32742,26978,36292
32777,26980,36295
32840,26994,36140
32841,27005,36342
32808,27021,36332
32836,27020,36380
32848,27009,36240
32808,26999,36487
32796,26980,36417
32789,26964,36356
32760,26967,36333
32778,26973,36231
32781,26982,36428
32696,26992,36527
32668,27008,36447
32600,27012,36290
32537,26998,36596
32496,26986,36447
32469,26972,36543
32433,26964,36421
32417,26953,36636
32432,26960,36556
32420,26978,36372
32428,26988,36517
32417,26997,36574
32481,26999,36625
32536,26994,36518
32584,26972,36652
32540,26958,36647
32528,26953,36551
32534,26942,36757
32576,26949,36668
32608,26962,36701
32605,26966,36592
32620,26980,36780
32592,26996,36728
32541,26983,36625
32487,26965,36801
32492,26944,36771
32608,26930,36652
32588,26927,36871
32604,26934,36800
32632,26948,36679
32616,26964,36893
32576,26975,36838
32528,26977,36684
32540,26967,36732
32564,26949,36910
32608,26935,36900
32640,26921,36852
32700,26911,36711
32750,26928,36871
32790,26937,36833
32844,26950,36921
32864,26953,36705
32865,26959,36882
32848,26944,36944
32868,26940,36937
32877,26918,36792
33010,26905,37008
33127,26903,36944
33317,26912,36841
33504,26925,37018
33732,26934,36984
34004,26948,36767
34332,26944,36878
34592,26929,37063
34948,26923,36968
35404,26895,36766
35900,26884,36958
36192,26887,36913
36340,26895,36990
36424,26900,37060
36412,26917,36953
36416,26922,37016
36240,26935,36800
35736,26920,36820
35232,26909,37122
34416,26888,36959
33192,26886,37000
31912,26887,37039
30744,26887,36917
29616,26912,37053
28185,26932,37086
26152,26960,36948
24728,26960,37038
24292,26952,36934
24448,26935,37061
24862,26925,37049
25377,26901,36940
25925,26907,36965
26520,26905,37056
27116,26910,36965
27680,26916,37055
28112,26927,36923
28748,26925,37060
29412,26911,37038
30001,26900,37022
30548,26884,37057
31060,26859,36820
31508,26857,36988
31992,26858,37119
32524,26873,37066
33028,26886,37027
33436,26894,36936
33692,26888,37060
33856,26885,36964
33988,26865,37049
34072,26853,36823
34200,26838,37008
34260,26839,37127
34292,26847,36956
34360,26854,36967
34424,26869,37055
34452,26871,36868
34400,26879,37063
34384,26871,37053
34440,26854,36927
34480,26845,37016
34516,26831,36825
34528,26822,37076
34489,26825,36959
34492,26841,37059
34496,26849,37065
34524,26868,36993
34424,26876,36895
34404,26856,37008
34400,26845,37030
34400,26828,37032
34472,26815,36999
34536,26817,36828
34532,26820,36932
34520,26827,37110
34496,26844,37014
34492,26856,36817
34508,26855,36995
34428,26852,36985
34400,26833,37036
34448,26822,37008
34480,26804,36987
34485,26802,37032
34524,26807,36983
34524,26821,36989
34480,26836,37027
34480,26844,36909
34461,26851,37109
34444,26839,37020
34433,26823,36903
34500,26806,37023
34556,26797,36999
34592,26793,36780
34648,26799,37013
34788,26806,36933
34856,26823,36989
34880,26831,36825
34872,26836,37063
34836,26820,36977
34808,26815,36860
34821,26796,37058
34845,26789,36861
34824,26778,36967
34796,26791,36793
34830,26793,36967
34848,26813,36940
34888,26821,36847
34892,26820,36911
34880,26817,36681
34912,26807,36839
34992,26786,36853
35056,26769,36885
35024,26766,36664
34992,26773,36932
35013,26789,36867
35008,26806,36751
35032,26812,36740
34996,26816,36808
34888,26807,36749
34822,26797,36696
34804,26783,36780
34797,26759,36661
34784,26765,36801
34736,26766,36743
34600,26785,36540
34504,26796,36770
34408,26805,36622
34300,26804,36434
34140,26797,36609
33984,26785,36626
33816,26768,36452
33604,26759,36630
33516,26752,36464
33474,26760,36541
33376,26778,36399
33244,26788,36532
33120,26799,36457
32988,26799,36278
32824,26791,36432
32745,26776,36466
32704,26764,36332
32625,26759,36140
32576,26748,36385
32479,26757,36284
32384,26768,36096
32292,26781,36280
32200,26796,36132
32173,26791,36202
32124,26789,36151
32117,26766,36060
32077,26755,35964
32024,26745,36045
31952,26743,36084
31904,26745,36024
31856,26759,36041
31824,26768,35879
31824,26786,35886
31820,26781,35991
31760,26778,36020
31784,26760,35996
31820,26753,35804
31868,26741,35877
31888,26730,35793
31908,26738,35796
31900,26756,35817
31909,26764,35618
31896,26781,35733
31852,26779,35780
31876,26772,35736
31852,26759,35585
31868,26742,35734
31868,26726,35672
31896,26717,35527
31884,26731,35682
31948,26733,35556
31980,26759,35380
32064,26769,35567
32060,26767,35436
32000,26759,35509
32060,26753,35516
32032,26735,35446
32010,26719,35269
32016,26719,35335
32017,26716,35356
32004,26739,35192
32070,26753,35353
32036,26749,35325
31994,26757,35330
31982,26755,35141
32016,26737,35248
32068,26727,35164
32128,26716,35257
32184,26705,35086
32192,26716,35130
32181,26729,35236
32192,26740,35160
32192,26748,34951
32240,26751,35073
32220,26745,35127
32270,26732,35047
32236,26719,34892
32308,26705,35043
32324,26693,35045
32358,26705,34959
32336,26717,34980
32300,26732,34780
32260,26742,34948
32312,26743,34857
32404,26743,34903
32404,26725,34784
32392,26708,34870
32424,26696,34801
32476,26695,34809
32480,26693,34686
32494,26708,34822
32540,26721,34725
32568,26728,34566
32577,26735,34732
32588,26729,34620
32596,26715,34514
32568,26692,34620
32576,26691,34620
32552,26681,34515
32492,26685,34512
32464,26705,34552
32440,26715,34481
32460,26727,34439
32464,26727,34493
32436,26724,34385
32476,26704,34405
32468,26684,34433
32492,26677,34254
32464,26670,34393
32448,26674,34353
32484,26695,34148
32504,26704,34274
32492,26725,34252
32406,26722,34270
32364,26706,34071
32385,26697,34237
32396,26678,34121
32440,26666,34172
32509,26661,33990
32448,26667,34113
32420,26679,34073
32440,26695,33924
32368,26703,34029
32365,26708,34015
32412,26700,33860
32432,26691,33874
32424,26673,33785
32440,26663,33913
32540,26660,33895
32600,26657,33716
32628,26675,33744
32608,26687,33804
32608,26700,33798
32596,26708,33701
32536,26695,33732
32516,26684,33565
32500,26665,33729
32502,26649,33668
32536,26645,33673
32632,26653,33614
32600,26663,33627
32521,26679,33557
32464,26688,33373
32445,26688,33453
32492,26685,33540
32520,26673,33468
32536,26662,33297
32532,26641,33412
32536,26631,33415
32606,26644,33239
32702,26659,33402
32735,26662,33239
32708,26686,33316
32712,26688,33287
32798,26679,33271
32764,26665,33076
32768,26650,33244
32775,26631,33092
32788,26628,33171
32788,26629,32996
32744,26651,33102
32702,26661,33053
32652,26671,33064
32564,26679,32885
32528,26669,33031
32471,26653,32992
32462,26637,32821
32456,26627,32982
32452,26622,32934
32460,26625,32839
32476,26639,32804
32432,26644,32725
32420,26658,32782
32429,26675,32677
32404,26663,32834
32352,26651,32760
32324,26625,32604
32364,26617,32676
32425,26607,32564
32428,26617,32641
32412,26630,32632
32412,26641,32645
32421,26655,32479
32448,26658,32533
32414,26652,32584
32332,26639,32506
32380,26622,32519
32360,26605,32365
32332,26607,32489
32380,26602,32396
32404,26615,32455
32398,26631,32332
32380,26650,32313
32356,26649,32263
32376,26647,32249
32392,26631,32278
32420,26615,32217
32392,26594,32263
32420,26598,32105
32444,26601,32280
32540,26612,32217
32548,26628,32073
32584,26639,32092
32640,26646,31996
32628,26631,32164
32653,26623,32095
32668,26601,31955
32620,26598,31909
32620,26591,32064
32696,26591,32000
32764,26599,31829
32853,26613,31968
33064,26626,31788
33341,26631,31916
33600,26625,31893
33924,26608,31883
34164,26591,31836
34432,26578,31664
34768,26564,31697
35288,26572,31765
35716,26582,31682
35854,26594,31684
36036,26611,31548
36124,26612,31583
36164,26609,31488
36176,26599,31642
35864,26589,31462
35352,26571,31558
34830,26564,31517
33972,26575,31362
32736,26585,31516
31452,26602,31465
30346,26621,31396
29204,26631,31396
27672,26631,31248
25704,26631,31317
24420,26621,31208
24080,26605,31343
24217,26596,31293
24716,26587,31223
25264,26613,31185
25852,26618,31209
26501,26631,31045
27172,26622,31121
27787,26622,31081
28352,26601,31119
28992,26589,30933
29616,26565,31071
30180,26564,31008
30689,26561,31012
31160,26575,30852
31628,26581,30807
32068,26588,30951
32584,26597,30895
33113,26587,30844
33485,26575,30735
33712,26556,30839
33888,26550,30721
34028,26537,30724
34077,26543,30764
34084,26556,30599
34152,26572,30596
34200,26581,30655
34164,26588,30628
34180,26582,30484
34240,26560,30620
34264,26549,30558
34312,26537,30412
34352,26539,30512
34420,26532,30471
34500,26549,30453
34553,26564,30462
34560,26573,30268
34501,26575,30253
34477,26573,30395
34471,26561,30300
34444,26542,30341
34477,26529,30188
34412,26521,30136
34372,26529,30140
34352,26545,30257
34364,26557,30129
34385,26567,30191
34400,26572,30049
34388,26567,29972
34408,26552,30132
34490,26543,30052
34512,26524,30065
34496,26519,29948
34532,26517,29889
34640,26533,29997
34685,26543,29935
34760,26548,29953
34692,26564,29801
34608,26561,29748
34660,26544,29820
34692,26531,29873
34740,26516,29808
34784,26518,29709
34866,26515,29769
34896,26525,29744
34880,26539,29630
34884,26556,29703
34924,26557,29676
34880,26549,29548
34911,26543,29668
35004,26521,29567
35052,26503,29509
35108,26500,29495
35116,26513,29487
35236,26515,29459
35264,26533,29432
35196,26543,29477
35148,26541,29335
35182,26543,29426
35173,26533,29432
35200,26514,29273
35224,26503,29317
35340,26494,29222
35396,26501,29276
35396,26508,29238
35348,26527,29287
35360,26536,29279
35288,26541,29119
35252,26529,29252
35236,26524,29189
35200,26511,29060
35196,26500,29164
35176,26487,29151
35060,26493,28961
34961,26503,29070
34944,26516,29061
34880,26530,29069
34768,26532,28988
34656,26533,29012
34584,26517,28891
34572,26498,28914
34496,26486,28821
34444,26483,28916
34436,26481,28852
34288,26498,28758
34153,26523,28716
33897,26528,28732
33748,26533,28627
33516,26524,28703
33388,26517,28708
33321,26500,28581
33152,26493,28580
33064,26468,28596
32936,26481,28511
32721,26497,28551
32604,26509,28527
32528,26521,28465
32472,26532,28508
32394,26521,28483
32348,26511,28353
32276,26495,28476
32176,26487,28407
32144,26478,28349
32076,26484,28305
32100,26492,28360
32118,26509,28373
32040,26522,28256
31984,26526,28317
31961,26517,28224
31940,26511,28244
31896,26487,28272
31888,26476,28180
31864,26469,28226
31860,26478,28188
31916,26486,28242
31912,26496,28206
31928,26517,28100
31948,26512,28064
32026,26514,28154
32048,26496,28148
32096,26485,28080
32120,26471,28006
32068,26469,28063
32102,26471,28038
32113,26482,27988
32112,26499,28072
32108,26504,28029
32046,26519,28045
32012,26513,27963
31996,26499,27909
32072,26477,27993
32132,26469,27992
32004,26461,27908
32028,26466,27880
32076,26479,27916
32116,26489,27956
32125,26500,27791
32160,26508,27911
32180,26502,27877
32180,26491,27820
32180,26474,27725
32240,26466,27839
32316,26454,27809
32388,26454,27742
32432,26465,27751
32396,26487,27752
32372,26494,27791
32414,26501,27643
32396,26495,27719
32372,26478,27748
32380,26465,27648
32400,26459,27686
32456,26450,27564
32516,26452,27628
32500,26462,27584
32432,26482,27641
32448,26486,27605
32488,26496,27508
32524,26494,27584
32504,26482,27556
32513,26466,27412
32556,26452,27520
32568,26443,27538
32552,26442,27396
32596,26463,27511
32590,26478,27473
32548,26484,27348
32540,26489,27356
32564,26489,27449
32580,26476,27406
32588,26458,27399
32580,26443,27298
32648,26444,27380
32696,26444,27363
32720,26453,27200
32672,26468,27308
32660,26480,27321
32656,26490,27156
32636,26487,27281
32668,26473,27276
32680,26460,27138
32681,26437,27263
32780,26439,27244
32804,26439,27101
32780,26458,27188
32768,26468,27207
32677,26486,27061
32608,26484,27185
32700,26477,27192
32600,26469,27037
32528,26444,27143
32492,26439,27103
32502,26429,27052
32524,26436,27105
32620,26444,27113
32621,26468,27008
32552,26477,27117
32508,26481,27072
32556,26479,27097
32608,26463,26945
32672,26434,27048
32720,26441,27056
32716,26428,27023
32776,26433,26956
32764,26445,27047
32740,26463,27002
32736,26477,26924
32740,26479,27015
32728,26476,27000
32688,26462,26949
32746,26429,26900
32788,26429,26964
32808,26428,26983
32800,26433,26861
32756,26445,26952
32704,26455,26962
32656,26469,26843
32620,26484,26832
32588,26476,26900
32604,26458,26884
32600,26446,26870
32668,26431,26884
32714,26427,26915
32732,26438,26855
32736,26446,26776
32736,26463,26892
32773,26468,26885
32788,26479,26766
32836,26468,26887
32792,26465,26878
32785,26438,26743
32808,26429,26857
32844,26428,26873
32900,26433,26757
32888,26446,26817
32832,26456,26789
32797,26471,26857
32720,26484,26788
32640,26473,26848
32544,26471,26848
32492,26442,26850
32548,26436,26744
32578,26433,26821
32540,26439,26815
32552,26449,26729
32509,26461,26694
32465,26470,26726
32424,26484,26781
32417,26485,26777
32400,26465,26781
32352,26458,26757
32360,26437,26717
32417,26432,26797
32356,26441,26800
32320,26449,26677
32300,26465,26817
32272,26477,26813
32320,26487,26722
32380,26485,26793
32364,26473,26778
32344,26455,26807
32376,26438,26717
32390,26440,26692
32404,26436,26781
32360,26457,26814
32370,26473,26696
32340,26485,26772
32320,26488,26758
32348,26493,26711
32336,26476,26769
32380,26467,26812
32448,26454,26665
32469,26448,26797
32464,26455,26816
32476,26461,26757
32472,26481,26804
32496,26493,26730
32485,26497,26764
32461,26503,26789
32445,26495,26828
32440,26476,26818
32508,26458,26777
32528,26456,26777
32560,26461,26749
32584,26475,26686
32613,26493,26783
32716,26509,26796
32896,26512,26793
33132,26509,26788
33404,26492,26704
33692,26488,26816
34032,26469,26850
34324,26464,26709
34704,26473,26846
35246,26476,26863
35644,26497,26726
35792,26521,26873
35921,26513,26868
35972,26524,26887
36048,26511,26798
35985,26495,26852
35608,26485,26844
35024,26484,26792
34428,26486,26876
33484,26502,26928
32252,26525,26804
30920,26543,26916
29850,26552,26876
28660,26560,26965
27044,26565,26984
25248,26559,26873
24256,26559,26972
24064,26551,26998
24284,26549,26880
24760,26559,27001
25308,26586,27057
25888,26593,27004
26516,26588,27052
27157,26599,27094
27736,26579,26984
28245,26566,27116
28852,26546,27109
29526,26540,27076
30200,26551,27105
30744,26564,27164
31224,26570,27182
31700,26590,27175
32200,26596,27143
32729,26597,27180
33168,26588,27253
33488,26573,27293
33676,26566,27189
33816,26564,27311
33908,26565,27288
33988,26583,27361
34008,26599,27236
34012,26621,27381
34088,26623,27359
34156,26625,27364
34226,26628,27428
34332,26600,27480
34376,26593,27411
34464,26596,27532
34524,26597,27525
34492,26613,27503
34436,26631,27492
34396,26655,27637
34364,26666,27626
34318,26661,27601
34272,26653,27568
34284,26647,27741
34352,26631,27724
34356,26631,27783
34368,26639,27695
34324,26656,27693
34316,26677,27772
34293,26690,27901
34228,26709,27903
34152,26713,27845
34098,26697,27871
34036,26687,28012
34008,26682,28007
33993,26680,27992
34012,26687,28106
34032,26708,28069
34020,26724,28089
33972,26743,28038
33980,26753,28180
33997,26756,28240
34055,26746,28212
34005,26740,28228
34048,26725,28242
34144,26727,28236
34212,26737,28294
34248,26751,28441
34192,26764,28430
34198,26789,28396
34180,26799,28508
34180,26802,28513
34200,26798,28519
34220,26784,28472
34296,26783,28641
34352,26782,28656
34369,26784,28590
34404,26804,28761
34448,26819,28787
34440,26845,28664
34464,26855,28860
34484,26856,28883
34540,26852,28825
34532,26840,28821
34580,26837,28940
34672,26839,29031
34740,26840,29079
34748,26859,29062
34756,26881,29112
34732,26906,29159
34728,26909,29203
34685,26916,29084
34668,26903,29222
34640,26900,29245
34632,26896,29332
34628,26897,29233
34608,26900,29406
34564,26921,29437
34504,26935,29296
34400,26957,29506
34304,26977,29492
34152,26983,29477
33976,26975,29445
33844,26961,29559
33768,26964,29648
33716,26956,29553
33626,26967,29715
33500,26983,29752
33389,27007,29691
33320,27023,29786
33236,27036,29724
33148,27039,29887
33013,27042,29873
32945,27033,29784
32780,27023,29937
32596,27022,30009
32448,27025,29903
32313,27047,30057
32186,27079,30102
32088,27096,30084
31944,27108,30148
31844,27116,30095
31808,27103,30264
31765,27102,30224
31690,27096,30194
31660,27088,30262
31648,27102,30293
31636,27127,30260
31536,27143,30423
31468,27160,30418
31440,27183,30348
31421,27182,30544
31412,27177,30513
31358,27167,30598
31364,27166,30471
31396,27165,30653
31444,27175,30700
31468,27187,30592
31488,27212,30674
31458,27233,30748
31460,27245,30812
31472,27248,30727
31468,27247,30897
31464,27241,30908
31516,27231,30813
31484,27233,30949
31524,27245,30941
31532,27263,30968
31550,27281,30912
31480,27303,31103
31472,27316,31113
31474,27321,31055
31448,27319,31033
31452,27309,31143
31424,27297,31256
31468,27303,31237
31556,27311,31311
31622,27321,31256
31664,27356,31332
31696,27364,31239
31719,27390,31356
31704,27385,31454
31726,27382,31340
31784,27372,31554
31788,27371,31484
31760,27369,31584
31772,27374,31477
31844,27390,31628
31916,27421,31613
31876,27436,31709
31856,27455,31685
31820,27457,31693
31800,27445,31804
31820,27432,31703
31844,27439,31901
31828,27447,31889
31848,27445,31781
31919,27461,31972
31945,27484,32000
31950,27503,31909
31928,27521,31996
31920,27524,32092
31916,27519,31977
31968,27517,32112
32008,27511,32109
31984,27503,32198
31984,27513,32116
31956,27527,32222
31976,27549,32298
31968,27572,32204
31960,27589,32400
32012,27583,32406
32060,27591,32305
32112,27580,32392
32196,27565,32497
32272,27564,32377
32284,27580,32581
32272,27597,32558
32196,27619,32482
32132,27638,32541
32124,27650,32580
32081,27655,32673
32060,27653,32708
32025,27647,32636
32032,27636,32700
32072,27633,32799
32104,27643,32685
32178,27663,32889
32244,27679,32873
32176,27704,32849
32124,27720,32903
32064,27721,32816
32064,27715,32905
32100,27717,33004
32136,27705,32888
32188,27700,33076
32164,27719,33090
32180,27726,33043
32194,27749,33063
32228,27771,33168
32214,27783,33188
32176,27783,33209
32204,27782,33204
32248,27769,33246
32200,27765,33273
32212,27761,33318
32260,27772,33237
32284,27783,33338
32300,27809,33232
32316,27828,33423
32324,27847,33396
32348,27845,33309
32352,27844,33396
32297,27829,33357
32328,27828,33428
32381,27820,33407
32416,27830,33604
32452,27850,33596
32504,27864,33660
32508,27892,33565
32457,27905,33662
32436,27911,33543
32468,27902,33649
32464,27895,33769
32476,27885,33781
32516,27885,33697
32566,27895,33800
32584,27904,33671
32540,27926,33775
32532,27948,33709
32498,27958,33881
32432,27970,33908
32348,27964,33925
32284,27953,33871
32241,27944,33964
32196,27955,33835
32160,27956,34020
32177,27964,34025
32176,27991,33901
32160,28017,34017
32112,28026,34084
32084,28028,34002
32084,28022,34029
32077,28018,34137
32093,28010,34008
32126,28005,34104
32189,28012,34031
32226,28021,34215
32228,28053,34128
32204,28070,34208
32224,28085,34246
32256,28084,34149
32276,28084,34175
32276,28070,34268
32264,28066,34144
32344,28059,34356
32368,28068,34320
32373,28085,34183
32384,28107,34405
32398,28118,34372
32424,28135,34221
32444,28137,34422
32432,28132,34374
32416,28125,34277
32468,28115,34336
32528,28117,34385
32516,28121,34344
32496,28135,34453
32456,28159,34528
32400,28176,34552
32352,28189,34452
32368,28199,34485
32364,28192,34484
32336,28183,34524
32313,28175,34580
32417,28167,34521
32432,28167,34624
32464,28190,34687
32536,28214,34629
32580,28230,34629
32716,28247,34736
33007,28249,34692
33296,28239,34684
33600,28228,34607
33968,28219,34711
34320,28213,34740
34572,28212,34836
34992,28233,34821
35464,28241,34800
35828,28267,34703
35980,28281,34799
36076,28286,34917
36092,28273,34932
36128,28271,34856
35920,28261,34879
35438,28253,34961
34920,28260,34799
34152,28284,34917
32940,28298,34977
31620,28329,35020
30448,28348,35052
29404,28353,35012
28001,28364,34884
25970,28365,35108
24468,28367,35073
23964,28367,34925
24008,28373,35148
24425,28368,35035
24980,28396,34967
25484,28415,35180
26084,28423,35136
26820,28417,34981
27404,28396,35180
27812,28397,35111
28344,28380,35028
29013,28376,35244
29608,28374,35164
30132,28387,35036
30628,28398,35172
31092,28423,35143
31520,28423,35231
32012,28423,35084
32500,28420,35316
32940,28401,35170
33260,28403,35093
33524,28393,35334
33708,28395,35292
33824,28407,35128
33900,28423,35253
33960,28440,35316
34044,28457,35320
34028,28460,35170
33976,28457,35377
34009,28437,35335
34064,28437,35379
34116,28435,35237
34198,28428,35415
34180,28449,35323
34212,28468,35232
34240,28487,35428
34264,28493,35388
34284,28507,35441
34229,28492,35354
34198,28480,35439
34212,28473,35364
34240,28471,35470
34228,28468,35444
34232,28483,35463
34240,28501,35351
34261,28517,35556
34300,28529,35412
34356,28527,35468
34288,28519,35534
34232,28516,35359
34245,28503,35517
34304,28489,35591
34374,28502,35535
34452,28513,35589
34484,28527,35589
34504,28545,35455
34528,28559,35636
34576,28559,35524
34552,28557,35620
34512,28537,35500
34484,28533,35685
34492,28526,35628
34484,28526,35661
34528,28541,35469
34632,28556,35713
34692,28575,35660
34672,28587,35519
34716,28588,35688
34752,28576,35656
34780,28567,35732
34752,28565,35564
34804,28551,35606
34852,28551,35700
34872,28558,35828
34913,28580,35684
34936,28599,35790
34948,28613,35653
34980,28615,35847
35008,28613,35801
35044,28588,35780
35056,28581,35824
35064,28577,35836
35105,28583,35696
35140,28589,35913
35132,28607,35796
35144,28625,35847
35132,28633,35695
35088,28633,35791
35088,28629,35884
35072,28612,35929
35060,28607,35961
35054,28591,35886
34973,28602,35832
34928,28606,35932
34908,28630,35955
34834,28645,35949
34728,28661,35924
34628,28662,35980
34528,28654,35828
34452,28644,35921
34304,28629,35988
34152,28625,35994
33976,28631,36036
33872,28637,35887
33736,28659,35996
33592,28670,35992
33460,28688,35831
33372,28684,35855
33318,28676,35865
33248,28670,35969
33144,28652,35923
33052,28647,35999
33000,28644,35998
32886,28660,35812
32776,28679,35847
32668,28695,35986
32532,28703,35991
32400,28711,35978
32276,28703,36002
32200,28692,35821
32180,28672,36059
32164,28675,35916
32140,28669,35900
32116,28678,35957
32064,28692,35911
32000,28717,36021
31908,28726,35878
31852,28726,36039
31796,28724,36012
31805,28706,35842
31836,28700,35892
31760,28692,36077
31776,28689,35941
31832,28701,35867
31884,28713,35896
31852,28722,36000
31864,28740,36066
31874,28742,36012
31864,28739,35820
31900,28716,35901
31944,28707,36070
31948,28698,35999
31920,28694,36029
31892,28711,35873
31892,28730,36030
31881,28734,36000
31926,28746,35836
31968,28741,36068
32040,28745,36004
32052,28735,35846
32088,28714,35980
32116,28713,36069
32136,28716,35932
32184,28716,36022
32201,28739,35909
32200,28756,36039
32092,28761,36006
32016,28764,36028
32028,28763,35888
32041,28741,36068
32092,28732,35948
32120,28719,36036
32152,28727,35847
32216,28726,35901
32232,28742,36049
32276,28765,35956
32340,28758,36012
32360,28772,35836
32368,28757,35896
32364,28748,36072
32340,28735,35949
32312,28730,36013
32384,28727,36024
32400,28743,35887
32400,28746,36060
32488,28772,35981
32420,28775,36013
32356,28775,35906
32384,28773,36058
32377,28756,36009
32348,28740,35847
32364,28742,36064
32432,28729,36014
32520,28741,35927
32592,28751,35936
32624,28772,35816
32668,28781,36039
32696,28791,35996
32700,28775,35865
32741,28765,35929
32665,28745,36009
32617,28746,35865
32624,28740,35935
32588,28750,36004
32568,28765,35843
32564,28779,35944
32625,28781,36028
32644,28790,35956
32704,28780,35980
32684,28767,35826
32644,28753,35868
32628,28743,36009
32569,28743,36049
32488,28752,35961
32460,28766,36028
32523,28778,35897
32577,28790,36073
32606,28791,35980
32556,28781,36047
32544,28771,35957
32596,28757,36092
32637,28743,36031
32641,28742,36065
32712,28741,35904
32688,28764,35940
32588,28783,36125
32532,28795,36052
32485,28790,35924
32452,28788,35960
32460,28767,36167
32460,28752,36026
32520,28735,36103
32553,28743,36133
32568,28755,36125
32600,28770,36010
32568,28777,36167
32544,28785,36102
32528,28792,36167
32612,28777,36013
32728,28767,36165
32774,28757,36210
32816,28751,36184
32788,28738,36037
32704,28751,36228
32660,28769,36204
32700,28773,36103
32704,28788,36296
32673,28788,36199
32614,28781,36278
32565,28767,36108
32580,28751,36324
32564,28734,36292
32632,28739,36325
32696,28740,36199
32708,28752,36372
32708,28768,36338
32678,28783,36198
32573,28781,36460
32472,28774,36407
32440,28760,36301
32412,28742,36473
32410,28735,36404
32368,28736,36484
32332,28736,36369
32308,28756,36575
32257,28768,36497
32246,28780,36548
32220,28780,36428
32308,28768,36527
32392,28758,36552
32537,28737,36602
32602,28729,36496
32607,28724,36680
32560,28735,36639
32532,28747,36525
32452,28756,36733
32420,28769,36591
32424,28766,36700
32398,28762,36592
32416,28751,36772
32376,28735,36705
32420,28723,36560
32440,28716,36639
32504,28725,36827
32548,28737,36732
32608,28754,36794
32612,28769,36609
32556,28765,36879
32549,28756,36821
32605,28741,36852
32565,28722,36717
32628,28708,36937
32684,28708,36808
32708,28719,36708
32705,28728,36940
32724,28740,36853
32792,28749,36937
32988,28745,36860
33244,28743,37017
33532,28720,36871
33852,28708,36956
34112,28697,36998
34328,28695,36791
34660,28697,36899
35204,28703,37044
35612,28719,36992
35884,28721,37032
36160,28722,36849
36332,28719,37101
36380,28703,37068
36444,28684,36907
36172,28676,36990
35564,28677,37145
34904,28679,37108
33988,28703,36927
32704,28724,37156
31372,28738,37052
30272,28741,37148
29160,28740,37191
27588,28743,37060
25374,28736,37238
24057,28735,37276
23583,28734,37173
23592,28737,37224
24060,28739,37079
24600,28752,37310
25313,28759,37239
26101,28752,37072
26916,28743,37285
27564,28726,37220
28112,28705,37309
28776,28684,37127
29412,28676,37215
30004,28678,37415
30544,28689,37288
31040,28695,37283
31541,28704,37365
31968,28702,37400
32369,28693,37270
32796,28674,37482
33184,28661,37432
33460,28642,37348
33724,28640,37356
33888,28647,37476
34044,28653,37424
34124,28673,37404
34124,28679,37511
34108,28679,37464
34088,28672,37476
34124,28655,37580
34220,28641,37460
34280,28628,37639
34384,28623,37617
34476,28629,37541
34420,28640,37499
34364,28660,37711
34354,28667,37687
34304,28668,37574
34260,28652,37710
34269,28641,37720
34376,28624,37620
34444,28609,37808
34560,28607,37737
34588,28607,37789
34596,28628,37690
34548,28633,37765
34456,28641,37649
34375,28647,37857
34456,28640,37868
34576,28624,37936
34616,28607,37887
34616,28593,37700
34572,28593,37905
34592,28596,38023
34732,28607,37852
34812,28621,37743
34780,28630,37964
34788,28639,37981
34808,28635,37871
34776,28611,38095
34788,28595,37981
34852,28576,37797
34877,28573,38050
34896,28580,38083
34956,28589,38044
34964,28607,37848
34948,28613,38124
34940,28613,38010
34916,28614,38108
34968,28590,37997
34996,28572,38151
35052,28565,38137
35204,28561,38107
35204,28564,38151
35264,28581,38160
35268,28593,38015
35276,28596,38210
35256,28599,38089
35252,28585,38125
35152,28583,38196
35172,28563,37990
35284,28547,38135
35316,28541,38276
35312,28551,38228
35288,28559,38245
35232,28580,38137
35280,28585,38308
35447,28582,38164
35484,28575,38289
35432,28565,38142
35336,28543,38258
35208,28537,38380
35232,28529,38316
35228,28535,38249
35184,28550,38334
35076,28551,38118
34904,28569,38317
34832,28573,38433
34800,28571,38429
34660,28549,38444
34661,28525,38309
34640,28523,38348
34540,28523,38372
34464,28521,38241
34380,28532,38148
34212,28546,38167
33992,28562,38270
33752,28560,38293
33528,28552,38323
33357,28541,38343
33256,28520,38484
33300,28515,38452
33216,28509,38425
33100,28511,38353
32936,28521,38404
32752,28524,38431
32572,28546,38189
32520,28551,38320
32486,28548,38465
32516,28526,38372
32516,28511,38358
32420,28501,38417
32200,28494,38432
32138,28498,38212
32156,28513,38357
32164,28524,38429
32084,28524,38428
32016,28536,38519
32016,28527,38561
32068,28516,38423
32140,28501,38463
32056,28479,38511
32088,28480,38498
32132,28492,38391
32072,28497,38482
31936,28503,38572
31840,28524,38586
31916,28521,38599
32030,28519,38535
32164,28503,38430
32241,28484,38480
32180,28468,38496
32064,28469,38536
31988,28478,38329
31904,28479,38447
32008,28490,38509
32216,28503,38607
32244,28511,38500
32276,28492,38524
32324,28487,38545
32302,28471,38453
32284,28453,38628
32266,28444,38548
32238,28450,38511
32264,28463,38572
32272,28483,38455
32173,28494,38637
32208,28492,38469
32229,28486,38570
32172,28476,38326
32288,28444,38510
32428,28436,38649
32576,28437,38476
32590,28436,38551
32557,28455,38594
32556,28462,38359
32534,28473,38524
32536,28476,38589
32600,28468,38606
32576,28453,38383
32576,28437,38679
32620,28421,38553
32756,28421,38392
32646,28418,38526
32552,28435,38700
32544,28450,38621
32556,28463,38606
32544,28466,38628
32506,28453,38660
32612,28445,38509
32656,28416,38592
32597,28411,38708
32584,28406,38757
32608,28407,38663
32633,28420,38592
32548,28439,38692
32516,28441,38708
32457,28453,38721
32464,28445,38624
32453,28429,38804
32376,28412,38692
32348,28405,38749
32317,28389,38573
32186,28399,38804
32156,28405,38836
32140,28431,38790
32128,28436,38816
32140,28434,38597
32164,28434,38740
32122,28421,38857
32186,28403,38812
32128,28390,38869
32176,28381,38639
32160,28386,38807
32034,28393,38999
32016,28412,38895
31996,28423,38906
31792,28423,38982
31716,28423,38776
31740,28413,38888
31589,28391,38985
31456,28384,39091
31396,28372,39128
31360,28386,38989
31320,28388,39048
31264,28419,39100
31200,28423,39113
31160,28424,38891
31141,28421,38900
31140,28413,39029
31160,28388,39079
31176,28382,39162
31128,28368,39303
31216,28378,39325
31198,28391,39164
31060,28407,39172
30888,28421,39268
30820,28420,39287
30748,28415,39317
30680,28410,39084
30756,28388,39142
30816,28378,39247
30812,28372,39259
30778,28374,39332
30784,28388,39431
30744,28404,39464
30525,28417,39524
30324,28420,39429
30324,28414,39477
30344,28399,39495
30428,28384,39509
30476,28378,39288
30576,28372,39431
30689,28383,39607
30629,28383,39622
30640,28400,39492
30588,28407,39580
30388,28421,39615
30332,28413,39378
30320,28394,39559
30388,28388,39647
30500,28365,39693
30592,28369,39741
30561,28369,39785
30620,28373,39759
30734,28400,39723
30732,28409,39763
30752,28423,39495
30712,28419,39677
30768,28404,39724
30916,28391,39815
30894,28377,39903
30844,28367,39889
30876,28374,39829
30849,28389,39879
30766,28398,39878
30748,28418,39732
30836,28430,39824
31008,28421,39943
31069,28404,40053
30993,28391,39969
30888,28383,40060
30944,28382,39934
31168,28382,40032
31264,28391,39781
31284,28409,39893
31328,28420,39967
31193,28425,39991
31200,28423,40020
31060,28421,40024
31005,28401,40052
31084,28388,40207
31232,28387,40228
31400,28388,40102
31644,28404,40197
31868,28421,39967
32160,28423,40237
32468,28433,40343
32860,28428,40167
33224,28423,40284
33504,28405,40215
34044,28391,40260
34596,28386,40191
35009,28386,40327
35489,28398,40455
35889,28412,40455
35984,28435,40479
36200,28440,40492
36164,28437,40518
35708,28422,40516
35120,28418,40455
34196,28410,40367
32777,28410,40455
31272,28423,40471
29882,28440,40191
28648,28473,40332
27062,28503,40583
24680,28517,40392
22709,28533,40516
21896,28529,40484
21756,28501,40623
22092,28490,40444
22742,28486,40557
23525,28501,40560
24456,28500,40417
25400,28517,40471
25932,28524,40685
26316,28529,40581
27004,28519,40581
27728,28502,40637
28444,28494,40535
29160,28462,40711
29808,28466,40663
30456,28461,40668
30876,28484,40668
31340,28497,40603
31777,28492,40815
32188,28511,40801
32620,28503,40703
33012,28495,40549
33344,28487,40824
33362,28468,40804
33360,28474,40813
33480,28477,40532
33644,28490,40711
33824,28506,40815
33848,28520,40967
33736,28534,40901
33712,28535,40848
33784,28522,40646
33794,28502,41025
33844,28503,40887
33908,28500,40935
33861,28501,40757
33796,28518,40844
33772,28543,40993
33820,28550,41095
33724,28559,40980
33772,28559,40960
33872,28551,41004
33857,28541,41019
33916,28525,40967
33892,28521,41141
34020,28535,41016
34076,28545,41064
34020,28566,40964
33988,28583,41201
34008,28583,40996
33976,28590,41112
33928,28580,40815
33960,28572,40997
34036,28551,41127
34196,28559,41148
34161,28558,41083
34112,28575,41153
34156,28597,41038
34133,28613,41220
34076,28623,41279
34056,28623,41071
34028,28613,41172
34140,28597,41157
34248,28590,41079
34392,28586,41185
34528,28597,40949
34608,28614,41039
34528,28625,41095
34433,28644,41187
34390,28656,41271
34380,28652,41069
34428,28641,41191
34584,28639,41108
34676,28623,41245
34700,28621,41170
34752,28628,41068
34752,28637,41069
34740,28663,41061
34724,28679,41196
34736,28691,41273
34708,28692,41252
34788,28679,41140
34860,28664,41172
35044,28657,41062
35080,28654,41237
35072,28661,41056
35096,28679,41132
35120,28703,41133
35132,28715,40876
35078,28725,41104
35000,28727,41188
34956,28722,41017
34901,28711,40980
34788,28700,41063
34776,28696,41064
34844,28705,41037
34684,28727,40860
34520,28737,41117
34532,28759,41008
34444,28764,40894
34276,28780,40959
34164,28764,40827
34064,28749,41019
33880,28748,40820
33759,28749,40882
33569,28748,40865
33360,28772,40748
33132,28788,40936
32908,28804,40725
32844,28820,40788
32925,28817,40792
33024,28807,40641
32992,28799,40813
32768,28792,40628
32564,28793,40695
32424,28797,40693
32372,28817,40414
32340,28828,40478
32214,28841,40579
32112,28868,40720
31969,28864,40572
31772,28861,40605
31716,28847,40436
31782,28831,40455
31924,28831,40647
32069,28839,40559
32042,28859,40268
31956,28879,40496
31872,28886,40597
31756,28906,40426
31784,28909,40510
31857,28898,40327
31841,28889,40549
31832,28881,40436
31852,28870,40455
31994,28879,40199
32084,28896,40445
31980,28918,40182
31969,28935,40319
31940,28949,40485
32037,28942,40371
32120,28935,40394
32181,28921,40413
32044,28913,40245
31988,28911,40500
31944,28914,40362
31800,28935,40152
31708,28961,40342
31792,28972,40440
31728,28986,40265
31652,28991,40364
31844,28974,40348
32060,28965,40110
32093,28964,40368
32036,28963,40216
32065,28967,40300
32200,28982,40199
32268,28993,40388
32224,29015,40237
32080,29024,40287
32060,29029,40248
32140,29029,40134
32180,29009,40220
32196,28996,40308
32152,28997,40140
32216,29004,40172
32320,29017,40166
32500,29037,40052
32645,29052,40236
32541,29068,40079
32500,29057,40144
32496,29063,40105
32472,29050,40092
32412,29036,40111
32452,29030,39844
32432,29036,40039
32452,29055,40055
32592,29074,40145
32553,29092,39959
32604,29096,40055
32512,29103,39828
32480,29105,39919
32512,29089,39918
32628,29081,39974
32640,29079,40041
32624,29079,40028
32640,29100,39905
32562,29112,39969
32600,29131,39728
32576,29145,39892
32428,29149,39878
32216,29147,39967
32196,29124,39919
32352,29119,40028
32492,29116,39998
32636,29114,39899
32697,29133,39893
32672,29148,39937
32625,29174,39652
32620,29180,39813
32577,29180,39943
32620,29180,40004
32616,29165,39971
32633,29157,39857
32432,29148,39639
32336,29163,39783
32416,29173,39954
32485,29191,39925
32456,29204,39804
32356,29221,39856
32296,29227,39861
32372,29218,39741
32444,29205,39913
32449,29191,39749
32412,29191,39800
32484,29191,39829
32556,29210,39701
32477,29226,39841
32521,29247,39896
32640,29262,39716
32656,29248,39789
32580,29254,39657
32492,29241,39806
32544,29236,39676
32484,29223,39776
32340,29227,39767
32293,29255,39660
32248,29269,39503
32252,29285,39815
32217,29292,39643
32208,29302,39741
32244,29294,39532
32280,29277,39781
32484,29264,39708
32549,29265,39719
32421,29269,39785
32364,29284,39644
32250,29305,39687
32156,29319,39431
32174,29332,39680
32244,29343,39624
32364,29327,39644
32433,29312,39541
32480,29308,39525
32548,29295,39604
32528,29305,39621
32540,29319,39564
32532,29333,39477
32556,29363,39485
32500,29368,39549
32396,29365,39559
32308,29361,39471
32298,29349,39464
32252,29343,39535
32372,29337,39316
32452,29341,39511
32561,29355,39497
32592,29375,39488
32584,29396,39248
32637,29401,39528
32772,29397,39370
32600,29393,39421
32432,29390,39461
32432,29383,39404
32564,29375,39399
32648,29377,39431
32709,29393,39280
32648,29409,39463
32676,29428,39303
32748,29425,39143
32844,29436,39398
32844,29431,39389
32836,29420,39124
32948,29413,39303
33120,29396,39445
33325,29412,39311
33620,29425,39337
33985,29438,39246
34373,29447,39247
34752,29465,39303
35388,29461,39173
36029,29447,39366
36468,29436,39175
36732,29425,39260
37220,29423,39124
37540,29422,39303
37824,29440,39154
37868,29453,39207
37380,29479,39025
36812,29488,39092
36028,29503,39191
34724,29494,39091
33076,29488,39126
31444,29476,39012
30049,29494,39148
28364,29515,39028
25868,29541,39056
23676,29569,39007
22864,29597,39034
22784,29598,39047
23166,29605,38919
23908,29590,38980
24732,29572,38857
25416,29533,38948
26144,29545,38861
26838,29543,38908
27360,29554,38905
27960,29565,38657
28686,29585,38846
29408,29574,38892
30272,29585,38733
30908,29571,38780
31416,29550,38773
31824,29541,38777
32344,29527,38685
33000,29533,38829
33484,29550,38644
33804,29561,38710
34056,29573,38709
34225,29582,38478
34304,29597,38565
34244,29588,38649
34196,29572,38626
34220,29559,38604
34288,29558,38604
34392,29556,38586
34500,29572,38584
34470,29587,38593
34488,29596,38581
34540,29615,38565
34612,29612,38548
34640,29612,38314
34672,29596,38332
34733,29580,38378
34812,29580,38389
34940,29583,38555
34996,29599,38407
34912,29615,38372
34752,29630,38448
34757,29643,38202
34788,29649,38317
34764,29640,38333
34789,29631,38376
34748,29606,38436
34676,29607,38417
34686,29615,38249
34760,29628,38337
34796,29637,38084
34760,29661,38180
34676,29668,38340
34829,29671,38207
34908,29668,38230
34880,29654,38231
34857,29644,37996
34880,29638,37993
34920,29645,38048
34932,29661,38119
34980,29673,38178
35028,29687,38182
34976,29703,38031
34980,29703,38105
34968,29701,38105
35036,29687,37873
35052,29668,37870
35092,29669,37919
35088,29673,37905
35104,29676,37981
35228,29697,38053
35308,29709,38044
35276,29732,38031
35352,29727,37863
35404,29724,37937
35388,29711,37808
35428,29694,37860
35412,29692,37957
35429,29701,37808
35408,29703,37863
35420,29730,37662
35448,29741,37718
35468,29752,37838
35500,29758,37741
35540,29753,37784
35584,29738,37705
35540,29721,37692
35468,29725,37796
35392,29721,37815
35348,29732,37693
35340,29756,37529
35284,29769,37733
35232,29780,37631
35132,29778,37712
35060,29778,37569
35061,29772,37724
35068,29757,37636
35104,29755,37511
35076,29753,37621
34888,29764,37698
34588,29780,37567
34352,29799,37577
34132,29818,37449
34036,29820,37376
33940,29812,37359
33829,29799,37428
33660,29796,37608
33476,29785,37439
33312,29788,37414
33248,29803,37460
33260,29816,37476
33212,29839,37260
33076,29845,37310
32820,29847,37476
32572,29845,37349
32407,29830,37388
32368,29813,37205
32265,29817,37352
32240,29821,37305
32068,29825,37140
31888,29852,37231
31864,29865,37317
31916,29863,37300
31936,29882,37239
31854,29871,37241
31784,29860,37056
31748,29839,37080
31749,29839,37088
31777,29845,37220
31866,29855,37183
31852,29877,37031
31829,29893,37116
31852,29897,37099
31948,29901,36893
32040,29900,36956
31996,29885,37059
31928,29878,37087
31944,29875,37057
31840,29879,36964
31788,29880,37009
31852,29903,36981
31964,29917,36871
32029,29925,36924
32097,29935,36900
32124,29932,36908
32004,29913,36782
31934,29908,36750
31862,29893,36917
31812,29900,36767
31908,29914,36849
32044,29931,36829
32073,29950,36647
32112,29959,36767
32052,29964,36732
32024,29959,36780
32085,29945,36575
32100,29937,36736
32098,29921,36664
32160,29927,36727
32248,29948,36716
32192,29959,36524
32222,29985,36550
32236,29991,36676
32224,29999,36604
32232,29996,36628
32276,29981,36647
32308,29964,36501
32266,29959,36668
32309,29964,36573
32369,29975,36592
32388,29993,36392
32360,30008,36612
32277,30011,36464
32224,30030,36543
32244,30023,36381
32292,30010,36365
32388,30000,36503
32416,29989,36477
32500,29984,36440
32556,30010,36286
32504,30028,36472
32384,30041,36392
32332,30057,36261
32360,30059,36295
32372,30055,36377
32392,30039,36189
32396,30031,36261
32412,30020,36240
32424,30017,36309
32428,30039,36197
32432,30055,36268
32520,30075,36260
32540,30087,36050
32501,30092,36196
32416,30087,36126
32421,30070,36196
32484,30058,36031
32492,30057,36175
32504,30053,36092
32428,30069,35937
32372,30087,35989
32396,30108,36092
32476,30116,36045
32529,30121,35901
32524,30111,36068
32596,30094,35975
32704,30092,35999
32704,30090,35807
32684,30084,35827
32700,30108,35929
32660,30119,35916
32520,30144,35801
32464,30153,35894
32420,30163,35857
32432,30148,35694
32492,30145,35805
32420,30138,35852
32449,30127,35769
32572,30135,35607
32652,30138,35789
32744,30160,35650
32712,30175,35737
32621,30191,35572
32604,30193,35732
32688,30193,35599
32688,30191,35647
32594,30168,35637
32528,30171,35534
32542,30173,35436
32568,30183,35548
32484,30196,35540
32384,30215,35562
32452,30232,35397
32481,30237,35561
32504,30236,35369
32464,30222,35479
32480,30212,35433
32485,30200,35444
32460,30208,35297
32444,30215,35437
32486,30231,35380
32505,30265,35398
32484,30268,35379
32340,30274,35225
32228,30268,35383
32284,30254,35351
32372,30244,35223
32420,30251,35263
32436,30253,35278
32480,30264,35141
32580,30277,35300
32612,30309,35248
32584,30311,35076
32540,30320,35180
32524,30309,35214
32448,30304,35154
32441,30298,35159
32436,30292,34984
32476,30288,35156
32432,30308,35079
32423,30332,34927
32440,30348,35060
32424,30362,34972
32489,30353,34881
32497,30361,35047
32508,30341,34981
32512,30338,34850
32488,30332,34889
32564,30339,34862
32623,30340,34780
32604,30368,34919
32592,30391,34854
32572,30401,34729
32588,30414,34849
32608,30402,34849
32740,30403,34697
32808,30380,34750
32944,30372,34640
33132,30383,34796
33362,30388,34674
33684,30409,34740
34056,30424,34583
34488,30436,34660
34836,30433,34705
35160,30441,34631
35696,30427,34655
36200,30412,34476
36676,30402,34604
37056,30404,34607
37228,30421,34500
37292,30437,34561
37487,30452,34437
37204,30479,34485
36528,30489,34534
35805,30480,34481
34717,30485,34340
33276,30479,34310
31624,30472,34439
30212,30496,34382
28704,30508,34393
26638,30553,34260
24346,30591,34236
23220,30568,34277
22948,30616,34340
23136,30613,34180
23828,30564,34281
24680,30580,34294
25488,30565,34228
26180,30576,34120
26852,30580,34199
27317,30596,34203
27900,30609,34174
28609,30615,34041
29338,30592,34140
30017,30607,34137
30606,30593,34113
31152,30577,34121
31684,30570,33972
32184,30559,34023
32692,30580,34031
33128,30596,34062
33464,30614,33888
33702,30629,33996
33912,30639,34029
34085,30630,33965
34216,30616,33902
34268,30609,33941
34320,30612,33920
34400,30607,33930
34456,30620,33924
34448,30639,33761
34464,30657,33752
34464,30673,33725
34480,30677,33716
34465,30676,33693
34525,30663,33796
34653,30655,33823
34764,30652,33789
34740,30657,33696
34548,30669,33752
34500,30684,33746
34520,30701,33726
34592,30721,33569
34568,30727,33537
34636,30727,33636
34676,30716,33637
34600,30701,33658
34496,30701,33541
34468,30701,33584
34532,30715,33578
34640,30734,33479
34620,30749,33393
34580,30766,33552
34564,30773,33477
34604,30775,33472
34592,30766,33479
34624,30753,33465
34672,30735,33333
34700,30735,33317
34640,30756,33405
34660,30783,33378
34644,30798,33373
34702,30817,33213
34666,30819,33306
34652,30822,33321
34688,30811,33279
34748,30800,33153
34752,30796,33153
34792,30798,33255
34862,30804,33188
34980,30825,33189
35104,30839,33158
35112,30857,33118
35072,30862,33140
35068,30860,33151
35136,30855,33078
35256,30851,33096
35316,30837,32973
35276,30837,32953
35232,30855,32908
35208,30874,32884
35172,30885,33023
35196,30910,32926
35256,30913,32973
35212,30910,32835
35232,30895,32807
35244,30892,32826
35240,30884,32900
35208,30889,32894
35225,30892,32827
35164,30911,32830
35112,30939,32743
35068,30948,32676
34984,30959,32681
34997,30957,32631
34960,30948,32671
34860,30940,32758
34764,30940,32663
34756,30941,32698
34824,30955,32586
34832,30968,32540
34656,30983,32654
34448,31007,32596
34188,31013,32623
34012,31007,32486
33900,31001,32423
33848,30991,32500
33792,30976,32541
33684,30992,32533
33456,31009,32476
33260,31025,32447
33061,31032,32437
32992,31065,32448
32868,31063,32327
32760,31068,32361
32688,31060,32396
32740,31045,32309
32736,31039,32307
32636,31041,32332
32552,31060,32189
32404,31079,32229
32216,31101,32284
32097,31099,32174
32000,31125,32100
31945,31122,32157
31840,31111,32208
31764,31095,32143
31780,31101,32164
31840,31081,32052
31818,31112,32072
31796,31124,32122
31848,31145,32058
31840,31148,32085
31828,31170,32078
31828,31168,32068
31831,31157,31941
31816,31157,31877
31880,31141,31988
31964,31149,31941
31980,31156,31964
31924,31166,31837
31856,31194,31797
31876,31213,31897
31905,31214,31857
32068,31220,31849
32096,31204,31845
32066,31196,31841
32068,31197,31665
32082,31194,31770
32101,31206,31780
32165,31229,31720
32256,31238,31736
32182,31256,31623
32081,31272,31581
32112,31268,31601
32104,31264,31636
32144,31255,31652
32212,31236,31596
32176,31255,31565
32144,31263,31567
32056,31273,31561
31976,31303,31553
32038,31312,31415
32064,31327,31373
32124,31319,31397
32213,31316,31421
32320,31297,31407
32390,31292,31429
32396,31292,31420
32397,31296,31309
32376,31324,31254
32397,31351,31217
32384,31359,31213
32373,31367,31206
32376,31367,31252
32380,31357,31293
32344,31344,31212
32400,31333,31206
32460,31347,31212
32480,31364,31135
32501,31367,31063
32464,31399,31164
32440,31412,31101
32452,31418,31100
32432,31420,31028
32412,31412,30961
32452,31404,30930
32432,31396,31043
32388,31399,30988
32370,31415,30936
32441,31436,30887
32501,31445,30953
32500,31471,30919
32457,31472,30918
32408,31482,30839
32364,31468,30784
32400,31456,30854
32428,31456,30828
32444,31448,30816
32428,31463,30816
32444,31487,30668
32444,31507,30732
32460,31521,30726
32492,31524,30735
32479,31533,30617
32485,31525,30676
32512,31511,30647
32534,31492,30604
32512,31519,30527
32484,31516,30596
32400,31546,30594
32364,31557,30551
32380,31583,30529
32413,31588,30526
32412,31588,30519
32408,31579,30375
32392,31568,30396
32424,31566,30424
32420,31573,30431
32376,31568,30319
32376,31602,30351
32450,31620,30353
32401,31635,30320
32352,31649,30332
32332,31645,30223
32354,31639,30201
32348,31628,30270
32344,31623,30240
32389,31623,30228
32420,31644,30116
32365,31652,30132
32352,31678,30132
32352,31695,30136
32380,31704,30128
32428,31709,30093
32448,31692,30073
32472,31677,30052
32480,31675,30041
32480,31693,30025
32470,31695,30018
32436,31717,30008
32406,31741,29945
32432,31751,29889
32476,31756,29956
32476,31764,29920
32480,31751,29929
32464,31750,29835
32452,31745,29773
32452,31751,29788
32429,31759,29837
32432,31783,29812
32479,31799,29781
32504,31822,29780
32440,31826,29732
32344,31821,29646
32257,31829,29729
32216,31821,29697
32264,31812,29610
32252,31823,29633
32196,31835,29629
32160,31844,29625
32100,31868,29572
32100,31888,29518
32104,31900,29586
32050,31902,29528
32085,31884,29458
32100,31881,29496
32156,31872,29488
32200,31855,29460
32199,31893,29471
32180,31917,29357
32192,31934,29365
32218,31942,29388
32196,31963,29389
32082,31967,29287
32020,31949,29354
32078,31949,29319
32156,31940,29318
32200,31955,29223
32224,31941,29284
32194,31981,29273
32148,31996,29172
32080,32021,29228
32036,32028,29201
32013,32028,29175
32072,32029,29152
32132,32011,29160
32146,32004,29157
32164,32015,29109
32232,32023,29079
32312,32033,29097
32336,32069,29102
32343,32091,29076
32392,32093,29002
32428,32095,28994
32376,32093,29020
32305,32085,29009
32328,32079,28935
32368,32085,28988
32344,32096,28951
32320,32119,28943
32288,32129,28941
32317,32135,28889
32368,32165,28869
32460,32165,28829
32557,32164,28879
32744,32147,28852
32952,32141,28792
33236,32156,28761
33572,32159,28805
33856,32176,28776
34144,32201,28780
34476,32217,28688
35086,32217,28703
35677,32223,28736
36104,32207,28710
36388,32199,28679
36592,32198,28681
36649,32201,28600
36712,32212,28657
36548,32239,28626
35984,32260,28620
35400,32287,28565
34488,32301,28565
33153,32311,28572
31641,32316,28551
30304,32310,28543
28960,32318,28490
27172,32343,28461
24892,32373,28447
23536,32348,28445
23174,32412,28474
23284,32432,28455
23772,32443,28429
24472,32445,28423
25148,32431,28367
25840,32406,28377
26561,32412,28366
27105,32406,28333
27608,32419,28324
28216,32436,28329
28846,32447,28308
29508,32454,28261
30112,32471,28277
30600,32468,28268
31120,32468,28218
31676,32445,28245
32224,32438,28218
32704,32437,28174
33104,32448,28173
33348,32466,28177
33560,32489,28161
33756,32519,28115
33964,32519,28133
34056,32519,28118
34108,32519,28077
34092,32505,28090
34152,32500,28081
34232,32503,28068
34316,32517,28020
34404,32540,28047
34412,32559,28021
34404,32583,28009
34378,32591,27977
34344,32591,27973
34372,32588,27982
34384,32583,27964
34452,32576,27941
34468,32581,27924
34488,32589,27937
34508,32608,27924
34528,32620,27911
34516,32655,27904
34460,32663,27873
34452,32668,27874
34476,32661,27878
34500,32659,27861
34564,32647,27834
34620,32647,27836
34584,32668,27833
34600,32684,27823
34676,32708,27793
34740,32720,27793
34653,32735,27800
34636,32716,27788
34680,32736,27778
34705,32724,27753
34664,32725,27748
34676,32711,27757
34748,32740,27743
34772,32759,27730
34740,32775,27725
34780,32804,27704
34812,32812,27708
34870,32807,27696
34936,32797,27684
34932,32797,27685
34905,32797,27668
35000,32775,27652
35128,32804,27662
35205,32822,27644
35280,32847,27643
35248,32869,27645
35212,32868,27628
35164,32891,27610
35204,32876,27614
35296,32872,27612
35356,32853,27596
35360,32862,27588
35356,32876,27579
35340,32889,27581
35316,32927,27568
35325,32935,27513
35376,32944,27559
35436,32950,27543
35444,32947,27533
35436,32937,27536
35380,32936,27527
35388,32932,27524
35364,32944,27518
35384,32964,27503
35344,32986,27500
35296,33013,27493
35292,33029,27477
35240,33021,27488
35188,33022,27477
35088,33015,27453
34996,33013,27457
34928,33013,27438
34836,33026,27426
34761,33042,27429
34664,33065,27405
34532,33093,27405
34384,33103,27388
34278,33108,27381
34136,33100,27380
33984,33087,27359
33848,33095,27344
33694,33087,27344
33537,33101,27331
33480,33127,27321
33324,33143,27296
33152,33159,27300
33000,33175,27276
32876,33176,27248
32761,33164,27268
32684,33166,27241
32633,33156,27232
32613,33169,27239
32476,33181,27216
32356,33191,27207
32324,33215,27199
32248,33240,27196
32140,33255,27176
32080,33255,27169
32064,33250,27170
32120,33249,27159
32128,33229,27129
32060,33228,27142
32029,33253,27128
32092,33265,27109
32084,33287,27119
32096,33315,27110
32164,33319,27094
32232,33324,27095
32240,33296,27090
32304,33300,27068
32270,33301,27069
32228,33308,27061
32113,33319,27048
32030,33332,27044
32049,33355,27007
32030,33369,27035
32000,33383,27011
32009,33388,26998
32012,33380,26994
32032,33344,26985
32088,33369,26981
32116,33367,26978
32149,33383,26953
32176,33404,26937
32192,33421,26940
32264,33439,26924
32320,33449,26932
32302,33447,26906
32321,33443,26887
32328,33429,26897
32352,33430,26878
32408,33428,26898
32416,33439,26868
32441,33457,26879
32365,33477,26855
32317,33481,26833
32300,33508,26857
32328,33513,26833
32413,33505,26805
32444,33501,26829
32438,33495,26810
32473,33488,26793
32469,33481,26813
32448,33518,26796
32409,33543,26793
32384,33559,26772
32396,33572,26764
32444,33577,26773
32536,33569,26759
32536,33556,26755
32536,33554,26740
32605,33548,26753
32649,33569,26729
32596,33580,26732
32552,33605,26725
32568,33621,26712
32584,33628,26710
32584,33637,26713
32609,33629,26708
32668,33614,26685
32692,33612,26664
32729,33612,26689
32709,33615,26661
32553,33637,26654
32504,33655,26647
32468,33670,26649
32460,33693,26644
32464,33687,26625
32480,33678,26631
32476,33671,26645
32484,33665,26611
32485,33653,26617
32504,33668,26602
32508,33695,26615
32509,33685,26590
32448,33734,26594
32426,33733,26582
32448,33734,26587
32493,33735,26580
32505,33720,26577
32500,33711,26579
32537,33709,26580
32561,33726,26563
32592,33743,26561
32624,33767,26552
32633,33781,26495
32620,33793,26541
32548,33789,26561
32520,33784,26537
32488,33780,26513
32404,33780,26525
32421,33775,26503
32464,33777,26536
32488,33792,26503
32489,33815,26501
32504,33829,26512
32472,33828,26481
32464,33855,26472
32437,33840,26464
32408,33808,26460
32436,33821,26472
32468,33817,26444
32513,33836,26437
32544,33851,26476
32540,33860,26423
32532,33884,26412
32520,33895,26423
32528,33893,26411
32516,33887,26399
32524,33879,26427
32556,33865,26408
32592,33866,26436
32644,33883,26391
32668,33873,26373
32652,33913,26394
32632,33935,26389
32621,33949,26364
32614,33934,26356
32590,33940,26396
32605,33927,26335
32624,33903,26333
32600,33919,26376
32596,33932,26330
32608,33941,26365
32662,33957,26319
32628,33959,26293
32702,33988,26318
32845,33982,26303
32838,33975,26297
32832,33973,26285
32792,33959,26263
32801,33943,26317
32836,33964,26258
32774,33980,26252
32700,33998,26298
32652,34020,26254
32560,34029,26242
32544,34039,26220
32572,34028,26229
32604,34017,26223
32628,34007,26208
32584,34013,26245
32564,34017,26204
32548,34020,26202
32613,34046,26178
32608,34071,26231
32628,34079,26196
32600,34069,26180
32620,34073,26156
32600,34062,26176
32588,34055,26152
32588,34053,26172
32624,34053,26151
32628,34079,26145
32624,34095,26170
32576,34117,26149
32516,34121,26148
32540,34123,26123
32564,34114,26146
32608,34092,26161
32596,34093,26148
32574,34095,26119
32552,34102,26117
32496,34117,26094
32484,34145,26140
32509,34153,26125
32501,34174,26086
32486,34135,26101
32536,34159,26068
32557,34136,26119
32652,34132,26068
32782,34133,26072
32796,34140,26057
32700,34151,26105
32712,34180,26068
32804,34183,26020
32800,34204,26102
32764,34205,26038
32788,34183,26052
32836,34181,26020
32940,34175,26033
33133,34173,26076
33408,34175,26028
33645,34180,26031
33980,34201,26004
34324,34221,26029
34572,34229,26049
34920,34226,25999
35448,34215,25996
35916,34193,25988
36212,34189,25987
36496,34174,25986
36632,34181,26026
36672,34196,25990
36730,34220,25968
36548,34238,25968
36084,34255,25972
35496,34252,25953
34504,34252,25939
33168,34260,25964
31752,34244,26004
30516,34262,25962
29240,34271,25932
27440,34261,25944
25324,34322,25924
24276,34340,25982
23993,34362,25984
24148,34350,25941
24618,34337,25905
25236,34329,25970
25869,34272,25908
26516,34308,25924
27190,34311,25894
27801,34319,25972
28312,34343,25940
28948,34351,25900
29508,34311,25889
29988,34352,25903
30448,34348,25868
30944,34329,25906
31425,34308,25948
31920,34301,25882
32408,34311,25870
32912,34311,25911
33265,34324,25930
33568,34353,25863
33824,34359,25871
33952,34356,25858
34033,34351,25868
34136,34343,25924
34168,34324,25856
34192,34311,25856
34204,34321,25889
34236,34339,25876
34286,34341,25836
34356,34374,25829
34437,34376,25914
34468,34371,25829
34512,34369,25839
34504,34356,25876
34537,34356,25888
34580,34326,25845
34544,34344,25825
34556,34365,25902
34548,34381,25826
34512,34383,25840
34480,34399,25820
34436,34415,25888
34452,34393,25824
34452,34367,25844
34497,34376,25840
34565,34371,25893
34616,34380,25804
34600,34380,25823
34549,34386,25808
34512,34418,25806
34486,34431,25842
34488,34431,25883
34500,34422,25836
34504,34407,25803
34504,34405,25815
34536,34386,25818
34604,34406,25854
34624,34412,25793
34613,34425,25822
34606,34439,25786
34605,34444,25863
34632,34453,25853
34636,34444,25775
34669,34421,25805
34752,34430,25792
34772,34423,25850
34828,34412,25773
34904,34424,25807
34888,34439,25771
34772,34461,25852
34772,34468,25820
34812,34473,25771
34788,34468,25764
34840,34455,25852
34936,34439,25767
35012,34428,25770
35088,34436,25800
35177,34449,25821
35140,34469,25756
35136,34485,25746
35156,34486,25826
35140,34492,25756
35104,34486,25735
35092,34451,25823
35086,34460,25738
35108,34447,25751
35104,34455,25732
35093,34471,25814
35055,34481,25729
35036,34497,25724
35032,34508,25813
35022,34501,25726
34964,34494,25745
34940,34484,25762
34882,34473,25793
34848,34471,25706
34784,34479,25738
34684,34492,25716
34532,34505,25742
34408,34527,25716
34276,34533,25708
34120,34537,25683
33952,34525,25759
33804,34497,25698
33716,34495,25668
33663,34497,25711
33624,34500,25654
33504,34513,25671
33364,34533,25639
33204,34551,25703
33044,34540,25637
32877,34551,25636
32805,34540,25708
32744,34528,25621
32736,34524,25601
32637,34517,25679
32564,34517,25601
32452,34532,25628
32380,34527,25584
32318,34559,25583
32268,34564,25564
32200,34567,25645
32150,34564,25595
32136,34555,25570
32132,34540,25548
32122,34535,25591
32104,34531,25567
32078,34541,25582
32036,34554,25564
31976,34573,25526
31984,34585,25524
31980,34589,25541
31980,34578,25537
32024,34564,25525
32032,34555,25498
32032,34537,25520
32032,34551,25521
32076,34557,25495
32232,34577,25573
32216,34599,25494
32124,34604,25477
32120,34567,25488
32176,34580,25465
32152,34581,25548
32144,34564,25521
32140,34556,25437
32168,34556,25456
32232,34567,25453
32304,34591,25433
32288,34603,25516
32296,34580,25432
32288,34600,25445
32228,34598,25429
32256,34591,25412
32356,34565,25503
32388,34558,25411
32446,34566,25420
32476,34577,25422
32481,34590,25439
32476,34612,25412
32512,34615,25388
32588,34627,25480
32670,34606,25366
32720,34591,25396
32624,34579,25432
32608,34573,25376
32660,34581,25376
32700,34588,25414
32748,34599,25408
32721,34612,25399
32676,34615,25385
32664,34625,25440
32648,34617,25380
32656,34596,25357
32688,34589,25409
32664,34583,25378
32672,34583,25350
32692,34589,25429
32716,34602,25361
32708,34610,25349
32696,34628,25414
32672,34637,25382
32644,34621,25393
32680,34607,25337
32704,34591,25359
32720,34589,25396
32736,34593,25340
32749,34599,25344
32758,34615,25406
32758,34630,25325
32768,34639,25349
32720,34601,25372
32620,34630,25426
32600,34612,25329
32568,34605,25338
32624,34592,25412
32623,34585,25365
32624,34599,25352
32612,34614,25324
32618,34631,25417
32586,34636,25327
32568,34636,25335
32588,34632,25417
32574,34622,25319
32548,34607,25333
32536,34597,25433
32528,34597,25353
32608,34612,25327
32640,34625,25417
32632,34636,25344
32602,34647,25330
32548,34632,25396
32460,34638,25399
32388,34616,25366
32316,34601,25335
32336,34601,25420
32328,34596,25424
32300,34605,25333
32281,34626,25369
32248,34643,25324
32188,34647,25391
32156,34654,25327
32116,34641,25353
32064,34612,25329
32036,34612,25412
32044,34606,25349
32056,34608,25324
32080,34607,25385
32088,34629,25358
32116,34636,25423
32096,34655,25348
32020,34655,25326
32002,34632,25431
31997,34630,25332
32040,34609,25339
32068,34602,25401
32052,34605,25437
32032,34614,25344
31972,34599,25347
31940,34639,25430
31940,34653,25369
32009,34646,25381
32036,34645,25422
32048,34632,25384
32104,34607,25385
32124,34612,25432
32169,34600,25412
32196,34609,25367
32224,34624,25387
32265,34636,25404
32216,34652,25428
32244,34649,25404
32284,34639,25465
32348,34629,25380
32376,34618,25380
32385,34605,25444
32388,34605,25414
32324,34612,25395
32257,34626,25432
32218,34642,25444
32124,34647,25417
32074,34660,25401
32040,34645,25494
32024,34624,25403
32020,34609,25411
32028,34610,25457
32012,34599,25400
32032,34607,25438
32038,34628,25461
32068,34639,25418
32124,34653,25433
32140,34655,25473
32164,34644,25508
32152,34623,25467
32160,34612,25444
32172,34605,25526
32192,34604,25452
32242,34614,25444
32280,34620,25523
32256,34631,25479
32169,34645,25502
32111,34653,25498
32040,34653,25468
32044,34614,25544
32033,34615,25524
32029,34603,25519
32097,34610,25496
32140,34614,25532
32116,34615,25534
32142,34636,25528
32160,34644,25517
32216,34653,25509
32254,34645,25546
32224,34626,25556
32224,34621,25526
32220,34604,25624
32236,34608,25548
32220,34612,25536
32208,34625,25636
32229,34644,25557
32280,34646,25551
32288,34656,25618
32301,34636,25591
32356,34617,25567
32460,34606,25618
32532,34597,25657
32688,34597,25576
32920,34605,25581
33196,34612,25671
33524,34628,25599
33868,34631,25620
34184,34631,25678
34612,34623,25601
35116,34611,25600
35564,34581,25657
35884,34567,25631
36132,34577,25645
36344,34564,25601
36424,34595,25620
36540,34615,25663
36282,34616,25632
35784,34628,25632
35265,34620,25663
34296,34610,25692
32996,34607,25615
31650,34598,25643
30496,34612,25616
29380,34617,25694
27666,34632,25642
25692,34672,25653
24656,34681,25644
24364,34685,25644
24564,34676,25625
25081,34661,25654
25712,34639,25622
26234,34631,25717
26760,34630,25624
27324,34630,25634
27832,34639,25705
28292,34647,25623
28904,34663,25635
29476,34641,25708
29983,34634,25629
30432,34631,25648
30908,34615,25633
31440,34596,25717
31924,34567,25641
32325,34594,25656
32781,34599,25677
33176,34623,25634
33454,34628,25633
33692,34631,25692
33900,34615,25640
34048,34606,25703
34149,34591,25657
34252,34580,25697
34332,34567,25629
34392,34565,25628
34444,34588,25724
34472,34610,25644
34524,34616,25631
34524,34627,25716
34520,34613,25644
34544,34600,25638
34588,34581,25648
34616,34559,25629
34604,34567,25716
34572,34575,25638
34616,34584,25651
34634,34612,25684
34670,34592,25657
34652,34621,25671
34620,34617,25651
34596,34598,25732
34608,34583,25644
34684,34578,25640
34724,34566,25685
34752,34575,25740
34708,34589,25676
34644,34607,25672
34636,34599,25690
34680,34616,25719
34696,34607,25668
34724,34599,25656
34772,34580,25732
34820,34573,25741
34832,34567,25692
34880,34567,25682
34917,34580,25713
35005,34596,25735
35084,34614,25685
35156,34604,25714
35236,34609,25695
35300,34587,25757
35312,34573,25724
35344,34567,25700
35372,34556,25790
35364,34566,25729
35400,34583,25746
35460,34593,25733
35476,34604,25733
35460,34615,25811
35512,34593,25816
35584,34591,25837
35644,34567,25828
35646,34559,25824
35693,34562,25785
35692,34567,25775
35664,34580,25777
35656,34589,25836
35668,34606,25782
35697,34607,25781
35724,34600,25860
35752,34588,25864
35688,34564,25810
35620,34567,25800
35648,34551,25816
35693,34567,25798
35633,34581,25881
35672,34591,25808
35660,34615,25826
35596,34604,25821
35578,34592,25889
35544,34583,25833
35476,34567,25854
35388,34559,25834
35352,34557,25824
35296,34567,25829
35208,34588,25824
35136,34596,25809
35036,34601,25854
34908,34597,25836
34782,34605,25781
34676,34591,25865
34596,34567,25830
34506,34562,25803
34440,34561,25873
34368,34559,25808
34240,34591,25804
34124,34607,25786
33944,34593,25860
33824,34618,25767
33696,34606,25796
33580,34596,25819
33420,34578,25783
33388,34554,25781
33372,34543,25764
33304,34567,25751
33264,34590,25747
33244,34607,25740
33156,34613,25774
33064,34615,25825
33048,34596,25772
33108,34596,25737
33069,34577,25763
33036,34545,25735
32992,34557,25740
32960,34551,25805
32900,34581,25764
32848,34594,25724
32840,34604,25750
32844,34610,25721
32884,34605,25780
32880,34588,25761
32896,34572,25746
32932,34560,25722
32957,34557,25753
32948,34565,25778
32944,34580,25713
32952,34596,25736
32936,34604,25713
32940,34615,25783
32837,34597,25726
32774,34585,25733
32797,34567,25751
32888,34557,25735
32952,34556,25719
32836,34567,25708
32817,34573,25735
32822,34596,25747
32816,34580,25691
32816,34602,25700
32796,34599,25685
32845,34588,25735
32893,34561,25736
32884,34559,25684
32909,34557,25676
32964,34567,25769
32944,34578,25691
32920,34567,25701
32892,34605,25700
32868,34605,25708
32872,34599,25697
32850,34583,25679
32820,34567,25739
32812,34529,25708
32818,34551,25697
32864,34561,25675
32925,34577,25676
32912,34580,25728
32904,34597,25716
32868,34604,25697
32821,34591,25677
32800,34573,25776
32824,34567,25685
32848,34527,25704
32904,34549,25680
32913,34559,25768
32911,34564,25711
32904,34576,25708
32852,34593,25766
32748,34596,25683
32640,34598,25700
32617,34573,25746
32640,34565,25754
32656,34545,25692
32670,34542,25701
32684,34548,25791
32672,34560,25705
32644,34573,25721
32568,34588,25785
32488,34593,25705
32468,34591,25732
32492,34567,25700
32448,34543,25788
32436,34548,25705
32497,34551,25732
32544,34549,25721
32520,34560,25704
32462,34579,25796
32398,34561,25723
32364,34589,25736
32352,34583,25720
32396,34567,25749
32401,34553,25732
32396,34540,25724
32388,34512,25809
32356,34536,25756
32342,34561,25760
32288,34580,25764
32240,34567,25761
32252,34589,25728
32260,34585,25826
32277,34559,25801
32292,34533,25759
32328,34533,25745
32300,34534,25823
32288,34537,25735
32241,34557,25770
32224,34575,25761
32204,34588,25760
32168,34583,25744
32164,34581,25792
32152,34567,25764
32184,34554,25760
32208,34516,25749
32208,34532,25778
32244,34543,25806
32292,34546,25734
32320,34563,25757
32332,34583,25774
32304,34577,25754
32256,34577,25755
32261,34564,25728
32228,34524,25796
32220,34537,25724
32196,34530,25749
32200,34532,25798
32228,34540,25733
32272,34567,25744
32216,34567,25759
32140,34567,25740
32100,34567,25752
32108,34557,25808
32145,34544,25734
32224,34521,25753
32264,34520,25729
32300,34520,25820
32304,34534,25736
32292,34553,25760
32268,34562,25743
32242,34578,25735
32253,34566,25831
32224,34531,25738
32252,34533,25764
32248,34522,25749
32240,34528,25788
32176,34532,25816
32180,34537,25748
32149,34553,25772
32126,34567,25770
32124,34567,25835
32068,34567,25783
32024,34551,25769
32033,34537,25764
32057,34525,25757
32086,34513,25813
32144,34527,25854
32160,34541,25786
32144,34556,25783
32160,34560,25789
32180,34567,25783
32232,34559,25872
32236,34549,25806
32208,34523,25821
32096,34513,25805
32134,34517,25863
32280,34513,25817
32248,34532,25821
32172,34557,25903
32156,34566,25825
32172,34562,25845
32140,34553,25901
32096,34549,25909
32097,34524,25864
32128,34517,25913
32109,34508,25874
32096,34521,25892
32116,34524,25908
32128,34512,25979
32124,34555,25893
32088,34559,25932
32080,34564,25916
32104,34540,25967
32124,34527,25954
32152,34514,25933
32193,34510,25977
32204,34519,25961
32228,34529,25990
32204,34545,26025
32240,34536,25997
32368,34553,25987
32576,34543,26064
32828,34524,26004
33136,34511,26025
33484,34501,26020
33832,34477,26100
34106,34501,26039
34576,34516,26057
35092,34525,26049
35468,34526,26087
35685,34530,26133
35820,34522,26072
35900,34513,26088
36026,34493,26089
35960,34489,26164
35528,34487,26094
35048,34492,26103
34300,34517,26180
33144,34525,26119
31752,34548,26137
30536,34565,26125
29424,34567,26188
28028,34564,26148
26008,34525,26152
24509,34525,26176
23928,34543,26220
23950,34541,26176
24352,34559,26188
24880,34567,26173
25404,34591,26222
25944,34589,26226
26561,34581,26196
27165,34552,26183
27604,34535,26256
28122,34495,26190
28812,34512,26263
29449,34512,26204
29984,34524,26228
30436,34529,26204
30784,34548,26257
31212,34543,26236
31684,34542,26210
32181,34516,26254
32605,34505,26245
32944,34489,26239
33156,34477,26217
33336,34492,26263
33472,34503,26242
33592,34519,26242
33616,34515,26289
33624,34534,26231
33636,34524,26226
33632,34521,26296
33656,34500,26265
33696,34492,26248
33756,34479,26232
33776,34495,26303
33836,34497,26244
33900,34511,26258
33976,34523,26278
33988,34529,26306
33928,34492,26314
33932,34504,26274
33924,34500,26271
33972,34473,26289
33988,34473,26340
33964,34479,26277
33940,34492,26288
33913,34492,26333
33916,34523,26300
33938,34511,26306
33972,34495,26357
34012,34505,26308
34036,34489,26311
34062,34479,26349
34112,34469,26386
34120,34476,26331
34112,34488,26349
34056,34503,26360
34004,34517,26341
34029,34501,26362
34060,34506,26349
34148,34503,26410
34232,34487,26390
34252,34468,26373
34284,34474,26379
34316,34468,26375
34352,34480,26436
34385,34501,26384
34356,34510,26385
34412,34508,26431
34424,34497,26438
34452,34495,26397
34524,34484,26408
34596,34471,26397
34672,34463,26459
34648,34449,26414
34620,34476,26428
34580,34492,26449
34600,34505,26427
34620,34513,26432
34655,34516,26421
34708,34478,26488
34800,34477,26429
34808,34468,26431
34880,34456,26442
34920,34471,26478
34908,34468,26460
34900,34480,26453
34876,34509,26448
34864,34509,26461
34872,34500,26462
34884,34471,26468
34872,34477,26460
34884,34461,26469
34872,34453,26460
34789,34461,26452
34742,34470,26485
34660,34501,26454
34597,34503,26468
34464,34518,26445
34408,34519,26492
34336,34489,26478
34284,34485,26441
34204,34472,26457
34084,34471,26432
33944,34471,26433
33852,34487,26473
33736,34496,26449
33540,34513,26409
33412,34512,26464
33296,34519,26406
33140,34497,26413
33012,34485,26378
32936,34459,26444
32846,34441,26443
32780,34461,26388
32680,34484,26357
32672,34505,26365
32582,34518,26336
32364,34512,26405
32240,34520,26337
32164,34503,26322
32108,34484,26360
32052,34476,26313
32010,34468,26312
31924,34472,26303
31856,34498,26262
31780,34508,26313
31748,34511,26287
31744,34535,26276
31740,34524,26295
31776,34508,26300
31752,34476,26270
31676,34480,26245
31661,34477,26304
31668,34480,26237
31615,34493,26250
31624,34519,26224
31596,34502,26295
31620,34528,26212
31636,34527,26223
31644,34513,26204
31692,34505,26268
31756,34477,26191
31796,34469,26213
31840,34479,26241
31938,34461,26199
31968,34511,26193
31937,34508,26161
31880,34520,26236
31892,34521,26151
31932,34509,26156
31956,34485,26175
31968,34469,26149
31976,34484,26156
31984,34469,26124
32016,34481,26183
31988,34505,26119
31952,34521,26132
31980,34520,26105
31986,34505,26161
32058,34510,26101
32044,34500,26118
32060,34476,26092
32152,34476,26084
32212,34476,26149
32272,34486,26089
32224,34510,26156
32194,34509,26088
32224,34518,26079
32280,34501,26151
32277,34509,26069
32216,34484,26079
32248,34491,26108
32276,34470,26145
32281,34476,26076
32288,34460,26087
32360,34502,26068
32384,34511,26065
32340,34524,26114
32308,34517,26138
32364,34501,26112
32325,34493,26086
32252,34477,26073
32272,34448,26115
32368,34468,26141
32392,34484,26071
32401,34500,26079
32384,34516,26068
32378,34520,26119
32384,34516,26102
32433,34494,26090
32460,34491,26064
32440,34462,26089
32460,34465,26104
32480,34469,26077
32476,34484,26052
32473,34501,26089
32437,34516,26068
32474,34511,26113
32468,34517,26080
32442,34497,26075
32476,34487,26034
32528,34471,26112
32556,34471,26063
32580,34447,26044
32584,34485,26135
32568,34500,26076
32540,34512,26046
32505,34488,26137
32500,34508,26056
32496,34500,26068
32560,34480,26065
32604,34468,26097
32600,34461,26063
32596,34478,26079
32592,34483,26071
32617,34489,26145
32592,34505,26067
32620,34508,26085
32600,34511,26065
32516,34500,26129
32485,34492,26087
32448,34469,26082
32493,34471,26056
32504,34471,26092
32536,34471,26087
32612,34497,26062
32600,34506,26133
32544,34510,26074
32460,34511,26082
32454,34465,26119
32525,34476,26068
32598,34461,26060
32624,34463,26133
32616,34461,26057
32644,34455,26078
32708,34495,26060
32724,34503,26129
32704,34514,26071
32676,34506,26058
32671,34492,26140
32684,34477,26079
32716,34469,26058
32776,34460,26124
32781,34471,26079
32796,34476,26060
32880,34484,26140
32873,34500,26064
32884,34508,26073
32952,34503,26084
32960,34493,26118
32924,34469,26064
32916,34463,26076
32864,34422,26116
32852,34461,26125
32836,34439,26065
32788,34487,26094
32784,34500,26068
32820,34500,26084
32760,34509,26149
32664,34492,26079
32588,34479,26100
32532,34471,26077
32528,34463,26112
32596,34457,26111
32544,34449,26100
32520,34485,26076
32528,34500,26156
32525,34500,26077
32484,34497,26101
32448,34460,26111
32424,34479,26104
32508,34468,26113
32544,34453,26084
32624,34463,26160
32632,34455,26096
32580,34484,26128
32640,34498,26095
32636,34505,26159
32600,34502,26129
32644,34495,26100
32624,34452,26116
32656,34465,26156
32725,34448,26137
32788,34455,26116
32792,34465,26119
32696,34490,26118
32624,34501,26103
32592,34479,26167
32616,34498,26164
32624,34486,26104
32636,34477,26109
32668,34465,26148
32661,34457,26141
32684,34449,26106
32712,34465,26103
32736,34485,26172
32742,34493,26113
32693,34494,26101
32696,34500,26161
32818,34479,26096
32969,34473,26118
33112,34461,26087
33332,34455,26151
33616,34460,26132
33922,34462,26112
34257,34472,26092
34552,34477,26112
34981,34492,26093
35492,34465,26164
35884,34472,26101
36052,34444,26089
36184,34444,26148
36249,34432,26092
36372,34431,26097
36316,34447,26142
35904,34439,26119
35368,34481,26095
34736,34489,26145
33680,34500,26069
32357,34486,26080
31088,34478,26151
29968,34468,26098
28656,34471,26090
26680,34493,26073
24928,34511,26085
24128,34521,26101
24013,34511,26141
24357,34549,26069
24996,34541,26080
25560,34527,26143
26052,34511,26085
26665,34480,26072
27300,34468,26153
27757,34479,26078
28276,34477,26082
28898,34491,26098
29524,34503,26124
30114,34500,26079
30664,34505,26068
31148,34484,26079
31612,34473,26084
32117,34446,26152
32564,34445,26086
32986,34439,26100
33316,34455,26119
33540,34469,26087
33704,34484,26100
33836,34463,26171
33904,34484,26103
33964,34469,26103
34062,34439,26185
34173,34439,26124
34248,34436,26110
34186,34437,26204
34252,34437,26128
34236,34465,26165
34145,34476,26167
34156,34491,26183
34212,34484,26180
34210,34464,26166
34248,34452,26245
34340,34439,26181
34338,34413,26209
34404,34438,26249
34457,34439,26192
34452,34455,26207
34384,34468,26228
34352,34482,26286
34328,34471,26242
34368,34469,26247
34408,34449,26261
34384,34431,26297
34360,34431,26285
34384,34431,26263
34368,34439,26337
34404,34436,26316
34428,34468,26308
34468,34469,26306
34456,34468,26311
34436,34463,26386
34413,34431,26339
34436,34433,26352
34464,34414,26383
34476,34431,26409
34457,34413,26365
34460,34453,26404
34484,34468,26399
34505,34469,26466
34536,34471,26449
34568,34453,26441
34592,34439,26440
34648,34432,26495
34670,34431,26471
34724,34429,26498
34796,34436,26484
34837,34433,26556
34872,34453,26530
34892,34468,26549
34901,34463,26545
34919,34455,26568
34964,34444,26553
35000,34422,26618
35040,34422,26637
35020,34412,26595
35054,34424,26621
35040,34437,26613
35064,34460,26612
35092,34464,26689
35096,34468,26668
35164,34454,26668
35190,34439,26652
35132,34425,26708
35112,34415,26692
35104,34420,26693
35029,34428,26736
34981,34443,26758
34968,34439,26714
34905,34461,26720
34860,34460,26759
34820,34453,26773
34784,34447,26745
34692,34413,26748
34612,34429,26798
34572,34414,26789
34492,34437,26759
34384,34447,26780
34248,34468,26759
34116,34474,26809
33964,34465,26821
33760,34460,26778
33656,34452,26796
33540,34437,26773
33436,34431,26806
33324,34431,26794
33174,34454,26780
33056,34452,26775
32908,34462,26793
32812,34476,26821
32690,34479,26784
32556,34471,26789
32477,34452,26809
32353,34439,26820
32300,34423,26775
32249,34431,26779
32236,34439,26792
32256,34439,26815
32208,34471,26792
32144,34482,26808
32109,34476,26788
32092,34468,26794
32056,34455,26767
32096,34413,26796
32092,34435,26793
32032,34433,26778
32044,34447,26834
32060,34455,26785
32009,34468,26785
31980,34456,26811
31946,34479,26805
31989,34468,26783
32080,34458,26830
32120,34437,26794
32137,34439,26817
32176,34435,26831
32190,34439,26815
32132,34454,26793
32084,34455,26845
32048,34479,26798
32097,34472,26805
32136,34471,26835
32148,34439,26788
32135,34439,26797
32148,34425,26848
32212,34428,26798
32256,34437,26802
32245,34463,26834
32273,34469,26796
32268,34469,26816
32236,34476,26797
32268,34468,26818
32324,34455,26832
32332,34437,26809
32440,34420,26820
32480,34428,26817
32504,34439,26844
32480,34436,26860
32468,34463,26819
32532,34468,26831
32562,34477,26832
32572,34471,26840
32608,34439,26841
32712,34428,26852
32730,34427,26852
32708,34423,26863
32664,34422,26853
32640,34451,26882
32584,34469,26870
32556,34465,26871
32548,34473,26857
32556,34469,26909
32598,34445,26900
32688,34439,26884
32760,34421,26882
32832,34421,26845
32884,34418,26941
32880,34439,26920
32862,34452,26897
32852,34465,26916
32884,34468,26927
32888,34459,26962
32800,34446,26924
32732,34407,26949
32752,34423,26956
32788,34407,26981
32825,34422,26948
32824,34439,26954
32805,34455,26969
32812,34463,26956
32848,34469,27013
32846,34452,26998
32832,34425,27000
32864,34423,26986
32868,34412,27046
32848,34414,27018
32860,34431,27015
32908,34438,27014
32897,34436,27054
32828,34460,27036
32792,34468,27015
32741,34448,27037
32724,34439,27007
32744,34423,27080
32788,34413,27070
32836,34404,27074
32824,34415,27058
32792,34429,27074
32800,34455,27114
32780,34463,27084
32764,34463,27095
32728,34455,27085
32668,34437,27129
32630,34430,27117
32617,34415,27118
32632,34409,27111
32676,34422,27140
32732,34436,27119
32796,34445,27121
32825,34452,27129
32864,34439,27148
32764,34446,27143
32752,34435,27142
32768,34423,27160
32808,34405,27156
32788,34407,27177
32824,34415,27159
32832,34424,27157
32844,34437,27188
32813,34454,27181
32800,34453,27193
32797,34441,27180
32836,34429,27182
32836,34407,27208
32860,34403,27199
32910,34399,27239
32960,34405,27201
32940,34428,27234
32924,34439,27207
32918,34439,27205
32904,34447,27224
32932,34431,27225
32908,34421,27248
32884,34407,27228
32908,34396,27220
32904,34404,27241
32912,34407,27237
32872,34424,27244
32872,34433,27252
32793,34439,27238
32732,34444,27250
32713,34415,27257
32680,34424,27279
32624,34404,27266
32608,34402,27284
32560,34401,27256
32564,34408,27269
32564,34417,27276
32568,34431,27270
32570,34439,27289
32580,34444,27281
32520,34433,27304
32492,34413,27293
32512,34412,27284
32548,34399,27297
32628,34393,27300
32644,34403,27332
32616,34412,27335
32576,34433,27311
32608,34410,27312
32628,34439,27336
32645,34430,27324
32564,34409,27372
32542,34399,27353
32518,34391,27356
32528,34389,27356
32560,34388,27360
32504,34405,27371
32452,34422,27372
32448,34429,27367
32452,34436,27421
32437,34423,27399
32488,34412,27406
32544,34399,27404
32592,34383,27432
32580,34373,27439
32564,34391,27458
32600,34411,27452
32584,34408,27460
32564,34431,27494
32596,34415,27480
32625,34420,27484
32736,34415,27508
32852,34361,27535
33028,34372,27521
33304,34375,27556
33624,34381,27548
33908,34392,27567
34160,34396,27575
34422,34415,27588
34889,34412,27581
35396,34396,27620
35688,34383,27617
35888,34369,27627
36000,34359,27655
36052,34339,27648
36128,34367,27658
35940,34375,27684
35448,34397,27690
34950,34406,27686
34176,34416,27735
33064,34404,27732
31744,34404,27737
30596,34393,27754
29460,34389,27760
28012,34396,27772
26048,34379,27804
24608,34435,27804
24032,34455,27807
24044,34468,27844
24424,34453,27831
24968,34452,27848
25498,34428,27860
26080,34420,27890
26792,34394,27889
27414,34390,27895
27878,34401,27916
28372,34375,27916
28994,34428,27937
29628,34428,27968
30244,34407,27958
30745,34408,27965
31264,34396,27988
31778,34369,27991
32268,34369,28018
32784,34348,28023
33164,34365,28039
33480,34378,28045
33708,34388,28071
33824,34396,28075
33948,34376,28095
34044,34380,28108
34117,34373,28113
34204,34357,28144
34344,34351,28148
34400,34345,28167
34412,34357,28180
34364,34364,28194
34370,34385,28214
34356,34391,28223
34320,34389,28258
34326,34376,28260
34380,34367,28277
34441,34329,28294
34448,34342,28306
34428,34336,28335
34468,34341,28345
34457,34358,28356
34428,34377,28388
34414,34385,28401
34416,34388,28417
34412,34368,28447
34404,34359,28457
34444,34344,28471
34428,34333,28492
34436,34311,28492
34457,34348,28534
34456,34356,28551
34465,34375,28569
34504,34369,28590
34528,34388,28605
34517,34379,28634
34556,34359,28648
34574,34340,28656
34544,34322,28693
34508,34324,28716
34592,34337,28728
34624,34353,28759
34632,34373,28780
34612,34381,28783
34620,34387,28809
34636,34368,28844
34628,34353,28861
34644,34343,28884
34718,34327,28914
34788,34333,28927
34841,34332,28924
34894,34343,28980
34912,34363,28993
34926,34372,29000
34972,34367,29052
35017,34359,29056
35052,34349,29060
35112,34329,29108
35168,34319,29137
35236,34311,29148
35284,34326,29172
35276,34340,29175
35296,34362,29220
35288,34372,29248
35205,34368,29246
35136,34365,29280
35136,34345,29276
35156,34333,29332
35176,34311,29360
35216,34311,29349
35240,34332,29391
35204,34333,29383
35148,34340,29436
35104,34361,29429
35092,34361,29481
35044,34359,29464
34968,34341,29524
34872,34319,29507
34860,34295,29573
34760,34311,29589
34652,34320,29602
34565,34345,29613
34468,34357,29597
34286,34367,29656
34136,34372,29641
33908,34338,29703
33716,34344,29708
33653,34336,29703
33572,34324,29732
33464,34322,29711
33333,34327,29757
33236,34338,29732
33124,34354,29780
32992,34350,29775
32864,34361,29828
32728,34362,29836
32588,34351,29816
32474,34333,29860
32401,34324,29836
32312,34327,29894
32269,34308,29907
32196,34348,29873
32136,34361,29935
32140,34364,29911
32100,34374,29982
32012,34367,29999
31980,34357,29949
31956,34340,30034
31896,34325,30045
31868,34311,30018
31816,34336,30063
31784,34334,30052
31792,34360,30111
31749,34369,30102
31788,34375,30080
31796,34371,30156
31796,34348,30163
31836,34325,30151
31852,34320,30196
31820,34323,30207
31816,34332,30184
31840,34345,30258
31798,34356,30269
31792,34375,30247
31808,34349,30272
31760,34364,30307
31712,34349,30279
31720,34311,30348
31748,34329,30311
31768,34311,30389
31797,34330,30372
31840,34322,30424
31864,34361,30436
31904,34372,30405
31884,34368,30481
31860,34365,30509
31872,34355,30460
31892,34305,30540
31965,34325,30568
32028,34320,30521
32012,34326,30609
32044,34349,30626
32092,34356,30663
32080,34365,30604
32117,34367,30688
32125,34365,30689
32054,34351,30711
32040,34332,30772
32028,34311,30804
32062,34322,30762
32080,34321,30764
32032,34345,30828
32012,34357,30876
32008,34364,30844
32012,34349,30944
32020,34360,30956
32120,34350,30929
32157,34325,31000
32208,34311,31046
32254,34311,31015
32284,34323,31052
32256,34337,31104
32248,34348,31157
32136,34367,31098
32137,34365,31154
32192,34352,31206
32188,34336,31213
32200,34311,31276
32224,34311,31268
32268,34310,31281
32254,34325,31255
32276,34311,31376
32276,34345,31386
32319,34356,31373
32316,34357,31412
32312,34353,31452
32308,34341,31396
32316,34311,31508
32336,34309,31554
32300,34308,31460
32304,34309,31593
32328,34332,31623
32344,34336,31548
32285,34324,31655
32200,34356,31705
32200,34336,31654
32216,34329,31741
32216,34310,31678
32260,34307,31767
32281,34295,31804
32272,34302,31848
32264,34311,31836
32221,34342,31874
32204,34348,31870
32216,34332,31909
32288,34337,31949
32328,34321,31933
32352,34305,31944
32324,34303,32004
32324,34303,31989
32319,34276,32076
32337,34309,32109
32336,34332,32113
32284,34344,32148
32248,34332,32103
32288,34329,32163
32248,34319,32111
32301,34305,32167
32364,34289,32223
32364,34271,32268
32324,34293,32212
32328,34311,32252
32348,34311,32309
32368,34332,32289
32332,34311,32380
32316,34327,32378
32280,34311,32356
32332,34294,32388
32344,34287,32442
32386,34254,32368
32380,34284,32452
32416,34305,32506
32380,34311,32543
32348,34321,32504
32272,34329,32468
32224,34319,32576
32244,34301,32632
32332,34289,32629
32348,34284,32609
32321,34276,32615
32292,34261,32702
32264,34288,32715
32196,34311,32663
32153,34325,32740
32105,34332,32767
32116,34287,32740
32176,34311,32764
32204,34284,32820
32208,34279,32797
32168,34272,32855
32164,34274,32901
32228,34295,32811
32232,34311,32957
32224,34311,32956
32276,34321,32892
32372,34311,32924
32398,34295,32981
32388,34255,33037
32352,34273,32925
32356,34274,33049
32296,34270,33093
32228,34284,32989
32272,34303,33094
32288,34311,33080
32284,34311,33070
32264,34311,33159
32284,34299,33120
32328,34279,33200
32352,34268,33209
32344,34239,33277
32356,34269,33177
32477,34281,33276
32500,34307,33289
32476,34308,33342
32448,34292,33293
32380,34279,33396
32386,34285,33380
32412,34277,33297
32480,34263,33446
32538,34263,33445
32500,34271,33348
32492,34281,33460
32601,34293,33508
32752,34308,33467
32960,34301,33431
33184,34287,33583
33528,34277,33579
33920,34271,33524
34272,34249,33514
34477,34238,33640
34844,34247,33638
35328,34260,33670
35756,34273,33620
35988,34281,33589
36176,34287,33704
36269,34267,33712
36332,34263,33785
36261,34230,33692
35900,34237,33757
35332,34233,33725
34676,34249,33854
33500,34272,33857
32132,34271,33733
30808,34305,33864
29657,34321,33861
28409,34318,33922
26512,34311,33790
24754,34311,33904
24017,34309,33908
23952,34295,33977
24244,34256,33940
24768,34309,33988
25224,34279,33958
25732,34311,34023
26336,34330,33966
26984,34311,33993
27520,34310,34068
28082,34287,33921
28772,34269,34089
29477,34249,34046
30024,34264,33985
30383,34276,34061
30812,34284,34067
31308,34288,34013
31700,34301,34021
32132,34279,34167
32644,34265,34110
33161,34253,34148
33441,34241,34081
33660,34233,34055
33761,34240,34136
33805,34248,34220
33820,34252,34172
33848,34279,34116
33820,34281,34089
33868,34275,34196
33965,34253,34209
34112,34236,34244
34208,34237,34246
34288,34223,34287
34300,34223,34183
34300,34241,34165
34273,34268,34188
34264,34273,34188
34252,34271,34294
34296,34260,34309
34364,34245,34305
34400,34213,34220
34384,34212,34292
34344,34209,34384
34256,34228,34381
34180,34237,34384
34184,34256,34351
34236,34260,34412
34320,34261,34309
34336,34262,34348
34356,34252,34433
34404,34237,34404
34508,34223,34374
34616,34215,34340
34644,34220,34341
34556,34241,34486
34477,34243,34457
34452,34256,34514
34384,34261,34532
34340,34247,34409
34420,34233,34528
34516,34221,34532
34664,34204,34523
34720,34206,34545
34740,34215,34583
34769,34233,34509
34828,34231,34567
34788,34228,34648
34752,34245,34655
34800,34240,34621
34885,34234,34676
34988,34215,34596
34980,34199,34557
35044,34207,34713
35080,34207,34682
35073,34215,34719
35052,34231,34764
35084,34251,34662
35117,34253,34680
35092,34244,34740
35053,34220,34705
35120,34205,34819
35224,34205,34769
35224,34183,34840
35272,34197,34720
35316,34217,34884
35308,34231,34868
35244,34239,34783
35240,34252,34772
35216,34238,34936
35192,34225,34896
35112,34207,34932
34992,34194,34957
34917,34191,34844
34912,34197,34862
34869,34209,34950
34788,34228,35028
34720,34239,34981
34648,34244,35046
34601,34237,34935
34516,34226,34988
34460,34204,35117
34344,34188,35074
34217,34192,35015
34052,34199,34985
33944,34220,35120
33820,34239,35134
33636,34230,35098
33468,34249,35177
33372,34247,35058
33232,34231,35216
33153,34213,35207
33056,34183,35197
32908,34191,35122
32736,34199,35164
32616,34212,35288
32460,34223,35284
32388,34247,35236
32309,34240,35247
32264,34244,35316
32164,34237,35234
32133,34212,35231
32133,34196,35231
32164,34194,35332
32032,34206,35396
31912,34212,35432
31736,34239,35397
31624,34237,35335
31572,34249,35366
31573,34244,35444
31548,34231,35477
31564,34213,35519
31640,34196,35418
31733,34199,35421
31800,34193,35581
31733,34215,35526
31744,34235,35592
31720,34241,35516
31692,34250,35591
31663,34245,35660
31608,34230,35564
31572,34209,35700
31596,34207,35637
31612,34205,35713
31682,34204,35621
31784,34212,35620
31808,34228,35621
31812,34242,35716
31817,34237,35821
31804,34231,35847
31764,34228,35768
31740,34204,35844
31777,34192,35870
31780,34191,35868
31798,34190,35898
31832,34213,35916
31829,34220,35946
31812,34233,35829
31868,34236,35984
31916,34230,35936
31900,34220,35995
31905,34204,35887
31918,34181,35991
31904,34176,36070
31916,34183,36048
32036,34205,36092
32184,34213,36009
32292,34215,36157
32303,34207,36124
32240,34220,36172
32192,34206,36065
32188,34204,36199
32144,34177,36194
32100,34180,36094
32108,34181,36183
32108,34193,36303
32116,34213,36269
32072,34213,36260
32093,34216,36309
32086,34215,36205
32116,34207,36217
32140,34188,36263
32132,34172,36372
32136,34164,36420
32181,34165,36349
32216,34183,36404
32144,34197,36445
32120,34212,36479
32192,34217,36503
32240,34212,36388
32188,34198,36487
32204,34175,36487
32336,34143,36542
32386,34165,36577
32368,34167,36437
32340,34167,36517
32284,34188,36653
32233,34204,36622
32180,34207,36511
32165,34201,36660
32144,34194,36615
32188,34173,36687
32200,34167,36721
32240,34152,36583
32264,34156,36748
32216,34181,36696
32236,34183,36787
32224,34175,36660
32220,34206,36828
32261,34189,36823
32356,34181,36818
32456,34162,36849
32484,34151,36852
32464,34132,36731
32496,34146,36917
32432,34159,36889
32364,34172,36760
32348,34185,36948
32364,34191,36900
32380,34188,36964
32368,34173,36921
32344,34159,36933
32369,34141,36836
32428,34135,37033
32416,34143,37007
32364,34143,37004
32348,34164,37031
32328,34180,37015
32324,34180,36983
32328,34179,36909
32384,34167,37077
32388,34151,37092
32380,34137,37005
32352,34125,37064
32352,34141,36967
32341,34134,37092
32264,34157,37151
32216,34172,37169
32180,34175,37196
32224,34174,37188
32217,34139,37057
32184,34143,37236
32248,34132,37206
32288,34125,37239
32210,34132,37103
32156,34143,37140
32120,34151,37295
32132,34165,37289
32189,34172,37311
32250,34163,37264
32240,34150,37159
32177,34133,37367
32156,34124,37349
32160,34119,37213
32184,34120,37388
32216,34112,37381
32212,34145,37247
32189,34154,37437
32148,34156,37404
32112,34159,37277
32180,34145,37383
32248,34129,37375
32306,34113,37313
32340,34093,37497
32388,34115,37469
32408,34127,37360
32444,34141,37469
32396,34151,37520
32322,34151,37399
32257,34157,37477
32188,34143,37527
32244,34109,37568
32409,34108,37488
32470,34097,37621
32512,34103,37567
32596,34117,37608
32652,34132,37461
32669,34141,37498
32584,34142,37655
32520,34141,37701
32628,34127,37708
32856,34112,37606
33156,34103,37612
33424,34092,37686
33720,34092,37727
34104,34084,37574
34384,34112,37735
34580,34125,37704
34888,34125,37628
35448,34116,37823
35828,34105,37716
36160,34085,37808
36528,34069,37695
36660,34055,37797
36693,34063,37693
36644,34084,37789
36160,34103,37801
35540,34112,37886
34816,34123,37757
33604,34127,37945
32052,34124,37861
30580,34127,37927
29380,34077,37793
27908,34117,37967
25688,34116,37964
23792,34138,37823
23100,34159,38009
23086,34181,37908
23437,34167,37912
24008,34169,37844
24696,34167,38041
25464,34085,38020
26184,34124,38049
26824,34071,37914
27296,34083,38097
27876,34119,38036
28552,34127,38079
29214,34134,37944
29780,34141,38136
30216,34141,38024
30596,34125,38096
31008,34085,37975
31468,34081,38010
32000,34075,38193
32472,34071,38100
32900,34079,38164
33144,34100,38196
33368,34117,38112
33524,34107,38149
33660,34112,38190
33756,34095,38243
33817,34083,38075
33888,34068,38139
33908,34055,38295
33848,34069,38253
33872,34077,38255
33936,34084,38287
33956,34105,38296
33842,34107,38342
33832,34100,38156
33888,34087,38220
33960,34068,38318
34040,34069,38425
34072,34049,38334
34008,34055,38349
34016,34063,38404
34076,34087,38434
34012,34101,38452
33996,34092,38284
34001,34088,38482
34020,34087,38435
33990,34069,38495
34004,34055,38356
34084,34049,38557
34164,34043,38484
34112,34055,38372
34088,34073,38601
34132,34087,38517
34144,34092,38407
34120,34091,38620
34168,34069,38599
34252,34052,38439
34273,34046,38532
34280,34043,38689
34304,34045,38580
34465,34045,38672
34624,34073,38528
34684,34079,38712
34692,34076,38702
34668,34087,38647
34676,34079,38636
34568,34048,38698
34469,34047,38549
34398,34045,38598
34276,34036,38791
34284,34053,38681
34328,34063,38783
34412,34077,38611
34528,34085,38756
34668,34080,38813
34796,34074,38815
34912,34051,38647
34968,34031,38845
34996,34008,38767
35052,34035,38848
35096,34037,38727
35036,34055,38789
34926,34070,38873
34848,34073,38746
34844,34083,38925
34964,34069,38892
35087,34031,38730
35048,34036,38952
34954,34016,38913
34880,34023,38775
34800,34044,38976
34696,34055,38912
34760,34077,38765
34696,34054,38998
34624,34065,38885
34676,34055,38807
34698,34045,39024
34592,34023,38965
34580,34025,39005
34532,34030,38927
34312,34044,38988
34136,34055,39037
34016,34049,38887
33900,34071,39076
33856,34055,39092
33668,34069,39007
33424,34055,39061
33216,34033,38942
33008,34029,39120
32857,34030,39059
32704,34045,39089
32504,34062,38943
32420,34071,39160
32352,34083,39085
32278,34085,38943
32077,34074,39004
31960,34055,39204
31937,34023,39140
31968,34039,39012
31956,34037,39175
31877,34052,39132
31757,34069,39193
31676,34087,39078
31552,34095,39149
31413,34089,39277
31442,34075,39141
31580,34063,39238
31604,34047,39256
31646,34045,39269
31640,34039,39088
31629,34050,39110
31560,34070,39148
31481,34082,39241
31384,34089,39364
31364,34081,39386
31472,34081,39252
31556,34055,39360
31541,34046,39183
31524,34023,39277
31468,34039,39431
31476,34054,39324
31472,34068,39383
31477,34076,39428
31553,34091,39260
31678,34080,39332
31756,34071,39525
31868,34055,39396
31952,34044,39473
31941,34016,39530
31800,34037,39396
31656,34054,39612
31546,34071,39488
31572,34081,39589
31604,34076,39604
31664,34081,39404
31692,34068,39474
31639,34049,39620
31626,34038,39705
31696,34017,39676
31774,34028,39493
31756,34042,39609
31712,34055,39772
31706,34066,39675
31660,34084,39741
31622,34076,39773
31690,34069,39642
31800,34050,39873
31932,34039,39788
32076,34021,39638
32100,34025,39828
32040,34037,39932
31920,34055,39804
31870,34071,39701
31897,34046,39829
31992,34073,40002
32120,34052,39943
32336,34039,39990
32380,34031,40000
32324,34020,39943
32172,34023,40057
32084,34032,39940
32032,34049,40140
32029,34055,40016
32216,34073,40124
32268,34037,39943
32276,34048,40039
32188,34039,40196
32096,34021,40265
31921,34012,40189
31868,34014,40101
31936,34028,40335
32032,34023,40276
32213,34053,40175
32138,34055,40396
31950,34055,40421
31889,34046,40319
31806,34031,40396
31868,34021,40448
31988,34008,40305
31984,33992,40533
31952,34023,40460
32028,34036,40536
32104,34047,40390
32168,34053,40623
32136,34055,40573
32117,34016,40396
32172,34017,40661
32334,34006,40649
32321,34000,40671
32169,33997,40484
32177,34018,40661
32193,34031,40809
32272,34039,40679
32388,34052,40788
32350,34024,40583
32264,34022,40692
32164,34021,40855
32164,34005,40916
32153,33993,40839
32240,33992,40881
32304,34001,40952
32248,34020,40794
32236,34030,41045
32348,34036,40967
32448,34025,40824
32448,34029,41036
32301,34008,41129
32112,33996,41100
32024,33995,40905
32008,33995,41133
32021,33999,41221
31988,34018,41209
31852,34028,41127
31824,34008,41213
31824,34030,41023
32032,34020,41153
32120,34004,41367
32177,34001,41272
32224,33985,41092
32110,33983,41282
31988,34000,41413
31900,34008,41311
31920,34016,41325
31973,34039,41445
31997,34014,41220
32056,34021,41407
32176,34000,41477
32200,33977,41516
32188,33977,41380
32112,33959,41460
32104,33984,41583
32118,33994,41478
32172,34007,41596
32193,34020,41639
32136,34002,41506
32116,33987,41700
32168,33986,41725
32206,33977,41668
32020,33964,41732
31900,33979,41511
31900,33973,41748
31968,33985,41726
32110,34003,41755
32237,34009,41821
32180,34015,41588
32196,34002,41782
32276,33986,41879
32320,33959,41903
32348,33956,41935
32392,33963,41884
32332,33957,41692
32232,33977,42031
32148,33999,41951
32160,34013,41744
32236,34000,41919
32416,33991,42084
32608,33972,42020
32876,33959,41820
33228,33940,41908
33560,33948,42151
33816,33952,42159
34180,33961,42167
34448,33972,42125
34720,33983,42085
35220,33980,42189
35720,33961,41978
36140,33941,42102
36492,33927,42241
36761,33919,42207
36820,33919,42213
36992,33919,42296
36864,33941,42048
36373,33959,42196
35856,33965,42247
34940,33969,42320
33520,33972,42387
31788,33964,42169
30264,33961,42357
28860,33961,42358
27028,33969,42444
24680,33950,42276
23268,33998,42436
22904,34036,42503
23044,34031,42468
23556,34023,42263
24252,34017,42468
24980,33965,42438
25676,33981,42559
26356,33971,42324
26940,33959,42400
27412,33968,42636
28102,33983,42612
28784,33997,42628
29296,33989,42393
29936,33981,42497
30556,33972,42676
31040,33927,42570
31500,33925,42676
32108,33917,42710
32640,33912,42503
32920,33919,42750
33232,33943,42649
33572,33928,42740
33888,33956,42480
33948,33951,42788
33944,33938,42703
33888,33934,42789
33900,33905,42790
33985,33908,42548
33988,33895,42624
34072,33913,42688
34116,33924,42799
34104,33941,42852
34124,33949,42796
34258,33949,42860
34336,33939,42630
34212,33924,42886
34296,33905,42860
34412,33893,42637
34480,33893,42831
34544,33908,42860
34545,33919,42925
34288,33920,42724
34144,33940,42934
34136,33941,42909
34200,33937,42714
34144,33916,42969
34196,33901,42910
34320,33894,42669
34469,33892,42969
34500,33895,42936
34440,33915,42751
34356,33927,42967
34368,33933,42896
34384,33927,42711
34360,33924,42980
34468,33908,42895
34484,33893,42692
34436,33892,42980
34484,33885,42983
34524,33892,42793
34632,33902,43012
34564,33924,42940
34456,33934,42749
34452,33927,43020
34580,33919,42981
34724,33901,42777
34764,33881,43060
34828,33871,43060
34976,33875,42957
35152,33870,42954
35252,33895,43092
35264,33915,42857
35184,33919,43108
35168,33919,43094
35084,33911,42895
34992,33895,43108
35008,33875,43033
35112,33874,43141
35232,33871,43109
35336,33877,43121
35248,33894,43137
35165,33908,43198
35132,33916,42999
35188,33899,43183
35172,33909,43200
35052,33892,43215
35020,33870,43015
35064,33869,43236
35148,33856,43303
35156,33873,43151
35144,33891,43313
35144,33911,43246
35024,33917,43350
34888,33911,43204
34784,33901,43319
34701,33893,43368
34588,33877,43172
34480,33861,43392
34216,33877,43361
34117,33884,43412
34016,33895,43167
33880,33905,43320
33792,33920,43433
33700,33924,43423
33588,33910,43245
33244,33903,43460
32880,33885,43383
32708,33881,43215
32669,33871,43364
32680,33891,43460
32732,33897,43431
32688,33908,43488
32521,33922,43226
32324,33927,43333
32116,33918,43508
32012,33910,43444
32016,33885,43271
31988,33887,43513
31760,33884,43525
31704,33895,43334
31768,33882,43536
31792,33922,43436
31764,33935,43540
31700,33927,43337
31592,33927,43545
31576,33900,43548
31440,33897,43324
31276,33893,43444
31276,33887,43521
31313,33895,43587
31478,33917,43351
31620,33904,43559
31664,33937,43567
31616,33943,43606
31538,33927,43488
31532,33919,43519
31524,33901,43412
31496,33893,43644
31424,33871,43577
31528,33903,43396
31676,33915,43621
31761,33925,43644
31708,33945,43687
31444,33947,43588
31284,33935,43621
31472,33927,43706
31664,33903,43716
31669,33900,43739
31644,33895,43573
31660,33905,43645
31824,33913,43497
32084,33940,43740
31936,33949,43728
31584,33951,43557
31437,33943,43769
31524,33933,43797
31668,33901,43615
31708,33909,43708
31889,33900,43805
31968,33911,43813
32028,33935,43783
31924,33935,43847
31822,33951,43839
31908,33951,43788
32012,33945,43844
32160,33932,43726
32076,33922,43769
31908,33909,43652
31797,33904,43802
31936,33919,43653
31912,33935,43852
31905,33949,43897
32012,33935,43845
32132,33956,43921
32292,33934,43671
32332,33933,43696
32376,33927,43753
32436,33910,43911
32286,33906,43728
32116,33927,43932
31980,33936,43940
31973,33951,43942
32072,33962,43862
32308,33958,43860
32516,33952,43936
32549,33940,43764
32404,33924,43956
32252,33925,43976
32192,33909,43868
32268,33925,43900
32449,33933,43750
32584,33948,43973
32396,33954,43911
32248,33957,44011
32070,33958,43829
31952,33923,44012
32008,33925,43972
32248,33921,43780
32372,33921,44048
32353,33907,43941
32196,33942,44071
31996,33965,44001
31993,33973,44037
32012,33959,43829
32108,33960,44084
32392,33940,44105
32544,33927,43973
32456,33925,44028
32228,33924,44095
32193,33927,44133
32252,33948,44065
32231,33952,44148
32216,33961,44148
32240,33948,44116
32249,33958,44196
32180,33941,44065
32092,33933,44219
32062,33918,44201
32352,33913,44007
32596,33917,44242
32656,33939,44182
32552,33943,44295
32384,33967,44258
32260,33965,44276
31986,33964,44069
31876,33951,44294
31969,33923,44321
31972,33913,44091
32036,33909,44354
32096,33897,44268
32108,33937,44132
32182,33956,44380
32249,33946,44391
32383,33957,44212
32368,33959,44360
32300,33944,44434
32221,33916,44196
32109,33919,44420
32164,33918,44437
32292,33920,44372
32417,33947,44407
32420,33949,44249
32396,33973,44444
32232,33969,44446
32000,33957,44271
32076,33951,44511
32220,33925,44532
32432,33916,44549
32504,33917,44334
32460,33927,44548
32284,33913,44567
32196,33951,44538
32248,33957,44551
32080,33965,44388
31952,33956,44644
32016,33941,44655
32148,33927,44541
32152,33917,44605
32112,33913,44693
32192,33921,44592
32332,33939,44730
32248,33956,44679
32244,33961,44768
32400,33964,44599
32526,33948,44748
32492,33937,44821
32260,33924,44733
32196,33913,44838
32256,33892,44828
32453,33915,44863
32716,33927,44764
32760,33948,44905
32576,33956,44917
32380,33959,44692
32352,33953,44948
32297,33932,44749
32340,33919,44927
32456,33911,44952
32645,33908,45040
32864,33895,44852
33152,33932,45063
33463,33941,45056
33756,33949,45129
33808,33953,44904
33948,33941,44965
34368,33924,45156
35288,33888,45116
36244,33894,45222
36792,33885,45012
37000,33894,45236
37332,33903,45212
37508,33920,45308
37396,33920,45288
37173,33935,45287
36792,33935,45124
36320,33920,45392
35312,33916,45416
33748,33915,45333
31892,33927,45391
30376,33941,45268
28856,33960,45498
26736,33999,45540
24145,34013,45493
22904,34022,45572
22629,34012,45385
22868,34000,45652
23360,33983,45628
24057,33972,45548
25012,33956,45703
25885,33961,45772
26584,33977,45753
27117,33980,45748
27468,33989,45863
27778,33989,45660
28268,33984,45910
28998,33957,45876
29760,33940,45975
30485,33917,45772
31048,33925,46032
31332,33924,46064
31744,33911,45958
32156,33955,46122
32656,33956,46173
32997,33934,46048
33280,33956,46140
33556,33935,46025
33600,33935,46183
33512,33909,46233
33625,33917,46140
33716,33927,46268
33837,33927,46364
33893,33943,46327
33798,33959,46356
33744,33965,46172
33772,33959,46444
33984,33927,46464
34148,33927,46353
34144,33911,46389
34112,33916,46481
34165,33906,46468
34257,33935,46452
34084,33946,46525
34100,33959,46404
34076,33965,46544
34020,33945,46521
34052,33937,46310
34156,33927,46560
34428,33921,46519
34540,33913,46581
34512,33924,46484
34120,33925,46560
33636,33957,46584
33628,33980,46471
33768,33972,46562
33920,33965,46358
34112,33953,46576
34220,33921,46536
34340,33925,46585
34432,33922,46527
34456,33929,46595
34500,33942,46597
34456,33956,46503
34286,33975,46562
33908,33974,46558
33780,33973,46580
33928,33959,46332
34108,33940,46557
34196,33935,46333
34552,33927,46552
34864,33935,46542
34960,33942,46343
34876,33965,46537
34844,33975,46525
34852,33977,46448
34798,33977,46437
34672,33961,46305
34696,33959,46495
34756,33933,46416
34945,33934,46239
35164,33941,46359
35264,33959,46452
35168,33975,46388
34992,33988,46193
34832,33985,46406
34700,33991,46385
34732,33966,46208
35164,33951,46365
35388,33943,46343
35252,33944,46246
35048,33951,46261
34688,33972,46308
34692,33988,46167
34764,33996,46215
34804,34004,46030
34806,33996,46251
34828,33980,46228
34734,33968,46215
34804,33961,46196
34684,33961,46173
34568,33967,46157
34520,33991,46152
34336,33996,46127
34224,34006,46113
34064,34013,46076
33812,34016,46076
33664,34005,46044
33860,33985,45917
33773,33975,45996
33460,33951,45801
33180,33980,45943
33148,33997,45968
33016,34013,45861
32906,34025,45876
32708,34038,45756
32468,34025,45831
32405,34014,45704
32392,33996,45863
32352,33988,45624
32284,33975,45840
32004,33999,45836
31848,34015,45653
31908,34029,45772
31836,34037,45788
31744,34045,45751
31693,34021,45740
31652,34039,45544
31732,34019,45695
31888,34004,45692
31928,34007,45632
31670,34020,45570
31425,34024,45636
31176,34050,45588
31088,34063,45599
31224,34068,45506
31408,34055,45528
31544,34045,45340
31713,34036,45436
31712,34013,45340
31624,34021,45372
31596,34036,45439
31560,34047,45359
31560,34055,45335
31516,34079,45119
31368,34071,45333
31396,34071,45320
31405,34056,45237
31468,34042,45215
31608,34036,45072
31704,34034,45165
31721,34029,45199
31732,34055,45036
31680,34078,45089
31644,34055,44985
31720,34085,45012
31852,34085,44860
31896,34050,44954
31888,34053,44792
31858,34047,44956
31800,34029,44940
31866,34049,44837
31888,34068,44864
31936,34079,44800
31956,34090,44777
31876,34097,44568
31876,34095,44677
31818,34076,44511
31864,34071,44644
31856,34049,44516
31772,34055,44564
31884,34038,44444
32000,34068,44508
32032,34098,44310
32176,34103,44464
32280,34108,44504
32016,34101,44424
31776,34095,44341
31727,34077,44397
31916,34063,44180
32120,34069,44325
32148,34077,44251
32280,34078,44260
32456,34100,44039
32360,34107,44135
32352,34115,44165
32140,34110,44142
32052,34100,44129
32200,34055,43871
32424,34073,44052
32508,34076,44013
32457,34079,43793
32314,34086,43925
32276,34109,43745
32249,34127,43900
32356,34124,43887
32416,34119,43855
32384,34103,43844
32429,34092,43666
32368,34055,43661
32240,34085,43527
32108,34095,43646
32116,34114,43701
32116,34118,43676
32262,34124,43605
32420,34137,43423
32440,34133,43527
32372,34120,43508
32248,34103,43325
32000,34096,43497
31904,34089,43396
32006,34095,43477
32105,34119,43188
32248,34124,43422
32272,34142,43376
32232,34151,43216
32352,34122,43231
32516,34117,43220
32628,34104,43284
32588,34096,43291
32568,34097,43216
32544,34079,42989
32456,34108,43204
32388,34133,43100
32420,34150,42884
32316,34156,43112
32200,34149,43108
32208,34139,42880
32340,34127,42939
32384,34108,42988
32428,34114,42997
32404,34109,42945
32356,34132,42692
32376,34151,42919
32472,34164,42900
32564,34164,42632
32652,34148,42851
32500,34148,42677
32366,34133,42740
32424,34114,42729
32528,34118,42700
32598,34113,42557
32692,34135,42520
32740,34154,42447
32688,34159,42615
32473,34173,42444
32240,34173,42503
32196,34160,42384
32272,34128,42365
32348,34118,42420
32487,34120,42356
32752,34113,42314
32780,34151,42119
32632,34160,42312
32352,34157,42252
32196,34181,42082
32265,34177,42303
32380,34160,42208
32544,34148,42036
32524,34132,42167
32424,34140,41942
32316,34138,42054
32316,34159,41877
32372,34172,42107
32428,34191,42064
32488,34192,42047
32513,34189,41916
32544,34175,41738
32548,34167,42029
32684,34133,41948
32764,34140,41782
32692,34157,41787
32392,34164,41669
32316,34167,41735
32221,34197,41575
32228,34206,41847
32356,34191,41774
32544,34183,41801
32856,34164,41701
32973,34162,41607
32772,34159,41598
32629,34143,41388
32648,34172,41505
32887,34188,41606
32946,34207,41479
32901,34189,41309
32848,34199,41509
32744,34196,41421
32600,34179,41323
32616,34172,41271
32630,34169,41078
32728,34165,41296
32844,34183,41262
33100,34206,41295
33180,34223,41201
33128,34223,41120
33164,34224,41120
33220,34215,40961
33268,34193,41029
33540,34172,40821
33820,34172,41053
34098,34180,40967
34544,34197,40809
35052,34204,40774
35724,34212,40812
36572,34207,40702
37160,34215,40754
37444,34183,40583
37672,34180,40768
37836,34165,40528
37960,34165,40799
37860,34161,40704
37236,34188,40748
36420,34209,40663
35301,34239,40534
33820,34229,40551
31912,34240,40596
30128,34255,40538
28556,34256,40502
26810,34236,40337
24580,34262,40564
23412,34215,40265
23356,34279,40522
23664,34293,40450
24186,34301,40332
24758,34311,40327
25436,34281,40240
26068,34284,40285
26672,34269,40189
27167,34228,40253
27748,34238,40085
28492,34251,40325
29168,34260,40260
29732,34277,40271
30319,34279,40208
30922,34281,40069
31344,34279,40092
31828,34269,39928
32536,34242,40185
33136,34223,39895
33344,34220,40071
33488,34236,39844
33665,34246,40100
33956,34260,40012
34236,34277,40021
34536,34271,39943
34592,34268,39783
34528,34275,39848
34455,34245,39734
34316,34235,39891
34328,34233,39821
34360,34237,39640
34588,34255,39808
34847,34252,39752
34740,34287,39727
34532,34292,39695
34481,34287,39559
34520,34254,39532
34533,34254,39412
34557,34247,39616
34656,34250,39516
34764,34257,39305
34776,34275,39517
34724,34276,39438
34640,34293,39319
34672,34310,39325
34750,34295,39214
34764,34286,39239
34712,34257,39096
34740,34260,39302
34648,34266,39225
34536,34269,39098
34556,34279,39134
34708,34301,38985
34900,34311,39150
35088,34311,39055
35068,34311,38916
34992,34279,38933
34952,34285,38791
34972,34276,39003
35080,34274,38929
35056,34287,38840
34908,34292,38858
34772,34310,38813
34688,34331,38788
34810,34332,38812
34904,34320,38757
34762,34311,38734
34772,34300,38671
34972,34282,38652
35128,34292,38616
35344,34290,38612
35349,34311,38561
35184,34310,38528
34996,34339,38380
34964,34345,38535
35100,34341,38444
35321,34316,38311
35448,34301,38446
35461,34295,38402
35284,34297,38277
35084,34303,38333
35066,34322,38215
35188,34343,38245
35356,34338,38151
35376,34357,38215
35416,34349,38082
35364,34335,38181
35364,34329,38045
35356,34311,38180
35372,34311,38020
35168,34327,38192
35040,34332,38141
35004,34359,38089
35053,34364,38017
35024,34372,37929
34913,34369,38052
34917,34351,38012
34844,34342,37870
34725,34332,37968
34676,34332,37830
34528,34341,37865
34336,34345,37788
34148,34374,37837
33956,34390,37879
33748,34398,37797
33564,34396,37804
33404,34385,37676
33304,34365,37747
33216,34357,37765
33202,34357,37629
33188,34367,37631
33104,34381,37537
32866,34394,37686
32628,34412,37628
32544,34412,37639
32504,34412,37599
32524,34382,37551
32424,34380,37509
32220,34381,37375
32108,34378,37428
32128,34380,37311
32128,34399,37477
32016,34413,37410
31904,34429,37315
31944,34436,37320
31885,34432,37195
31946,34431,37340
32065,34404,37293
32056,34399,37242
31969,34396,37217
31732,34412,37125
31772,34423,37020
31868,34430,37166
31912,34425,37103
31972,34456,36928
32097,34441,37007
32068,34439,36863
31992,34428,36996
32012,34420,36977
32000,34415,36919
32056,34417,36857
32072,34437,36844
32092,34452,36674
32152,34463,36751
32168,34477,36628
32108,34476,36668
32104,34463,36548
32001,34452,36614
31968,34439,36484
32084,34406,36538
32158,34438,36415
32164,34449,36546
32132,34473,36482
32084,34484,36325
32018,34482,36399
32068,34480,36292
31996,34479,36399
32028,34460,36207
32140,34451,36343
32200,34451,36263
32196,34454,36121
32212,34463,36228
32344,34491,36217
32514,34496,36172
32716,34500,35988
32772,34478,36036
32664,34484,35948
32528,34477,36068
32520,34461,35890
32520,34436,35982
32524,34470,35959
32564,34477,35937
32512,34508,35893
32508,34517,35868
32696,34513,35823
32884,34514,35660
32984,34492,35782
32732,34495,35636
32582,34473,35713
32686,34473,35687
32740,34481,35673
32780,34502,35625
32820,34492,35525
32697,34530,35546
32612,34530,35407
32612,34535,35540
32610,34526,35476
32584,34503,35316
32592,34505,35388
32636,34495,35265
32629,34503,35360
32564,34524,35236
32628,34541,35304
32672,34548,35168
32604,34548,35316
32404,34555,35268
32292,34540,35221
32388,34524,35213
32568,34523,35104
32740,34510,35162
32725,34519,35012
32660,34528,35069
32624,34551,34967
32532,34545,35015
32608,34567,34936
32652,34575,35045
32664,34559,35004
32628,34526,34996
32620,34540,34941
32536,34525,34872
32544,34539,34868
32544,34553,34727
32562,34567,34804
32639,34567,34723
32688,34587,34748
32644,34583,34741
32620,34567,34743
32784,34551,34567
32972,34538,34652
33020,34536,34661
32992,34549,34529
32873,34559,34624
32688,34589,34493
32584,34599,34519
32637,34607,34530
32672,34603,34393
32740,34591,34444
32812,34566,34309
32782,34566,34372
32576,34545,34284
32484,34567,34356
32544,34583,34340
32760,34596,34298
32832,34604,34276
32840,34606,34153
32804,34612,34223
32740,34601,34151
32632,34596,34140
32532,34588,34002
32561,34576,34063
32628,34589,33949
32604,34597,34004
32538,34617,33916
32580,34628,33993
32588,34636,33959
32532,34631,33895
32338,34614,33824
32320,34615,33864
32312,34604,33713
32301,34587,33786
32288,34599,33676
32336,34612,33749
32320,34633,33725
32256,34657,33653
32272,34654,33642
32380,34637,33577
32484,34630,33593
32469,34630,33518
32468,34612,33522
32496,34625,33367
32528,34622,33437
32520,34634,33350
32472,34653,33375
32380,34663,33364
32311,34670,33260
32178,34672,33333
32149,34663,33287
32220,34652,33225
32334,34618,33214
32408,34634,33101
32453,34639,33135
32400,34649,33028
32308,34676,33093
32277,34685,33007
32320,34663,33038
32396,34695,32924
32480,34677,32978
32484,34669,32872
32448,34657,32888
32412,34644,32889
32448,34669,32854
32476,34679,32785
32548,34694,32775
32644,34713,32673
32656,34711,32726
32584,34708,32669
32556,34703,32657
32609,34691,32568
32665,34669,32590
32600,34673,32516
32660,34685,32540
32708,34695,32510
32736,34705,32397
32630,34721,32453
32632,34735,32412
32660,34725,32380
32736,34719,32303
32732,34700,32327
32764,34693,32204
32805,34695,32237
32820,34692,32135
32844,34709,32188
32752,34731,32077
32592,34748,32140
32548,34759,32111
32532,34740,32034
32544,34755,32033
32558,34725,31925
32584,34719,31983
32630,34716,31968
32792,34727,31853
32908,34725,31887
32788,34755,31780
32744,34773,31829
32716,34774,31762
32672,34779,31764
32748,34740,31680
32768,34732,31695
32816,34737,31592
32868,34732,31629
32836,34737,31525
32804,34731,31585
32916,34779,31556
32888,34789,31532
32900,34794,31478
32772,34793,31452
32744,34797,31332
32744,34773,31388
32712,34764,31300
32708,34758,31324
32680,34765,31284
32656,34780,31180
32780,34801,31229
32920,34815,31196
33037,34823,31103
33128,34814,31121
33122,34815,31015
32964,34797,31064
32860,34782,31029
32816,34791,30927
32888,34769,30938
32964,34804,30847
33056,34820,30871
33236,34838,30804
33313,34848,30820
33452,34840,30788
33636,34832,30695
33916,34820,30720
34356,34801,30656
34788,34799,30615
35136,34808,30600
35604,34818,30548
36228,34822,30551
36840,34823,30506
37256,34847,30436
37452,34844,30457
37496,34843,30420
37528,34823,30335
37472,34819,30348
37038,34813,30310
36320,34809,30257
35557,34845,30268
34224,34880,30215
32506,34894,30164
30914,34917,30159
29697,34921,30100
28405,34921,30092
26252,34919,30024
24422,34917,30028
23840,34924,29952
23921,34924,29970
24372,34883,29937
25048,34933,29876
25780,34953,29871
26432,34963,29809
27036,34972,29801
27552,34950,29742
27996,34933,29745
28532,34893,29713
29216,34917,29668
29744,34919,29642
30196,34893,29615
30724,34940,29563
31310,34951,29548
31864,34951,29501
32408,34959,29476
32900,34942,29447
33306,34933,29405
33661,34920,29393
33980,34892,29350
34116,34915,29305
34296,34935,29279
34508,34951,29257
34604,34965,29220
34672,34969,29173
34716,34967,29163
34732,34959,29128
34800,34956,29087
34840,34942,29066
34797,34932,29037
34752,34941,28990
34780,34951,28981
34733,34975,28936
34772,34989,28913
34852,34999,28882
35004,34996,28846
35053,34989,28807
35016,34975,28786
34912,34964,28752
34873,34956,28712
34909,34969,28697
34960,34988,28653
35024,34997,28632
35076,35021,28593
35136,35027,28550
35037,35028,28533
34924,35008,28501
34988,34999,28472
34960,34993,28432
35000,34984,28392
35024,35005,28380
35050,35001,28345
35076,35035,28328
35041,35047,28284
35064,35045,28252
35112,35053,28236
35128,35047,28196
35112,35030,28160
35104,35020,28156
35129,35003,28105
35168,35021,28080
35156,35045,28038
35264,35060,28009
35342,35068,28001
35352,35079,27945
35252,35079,27924
35293,35069,27888
35328,35055,27855
35280,35047,27845
35356,35037,27807
35424,35047,27809
35456,35070,27753
35575,35068,27708
35661,35093,27685
35652,35101,27666
35680,35110,27668
35656,35101,27612
35560,35076,27615
35536,35065,27545
35548,35065,27537
35564,35071,27484
35692,35085,27492
35804,35109,27431
35804,35127,27432
35816,35125,27374
35744,35129,27341
35642,35116,27353
35572,35096,27293
35580,35105,27234
35633,35092,27237
35660,35102,27198
35672,35111,27204
35620,35118,27132
35581,35142,27149
35520,35159,27076
35488,35149,27076
35448,35140,27014
35204,35129,26989
35039,35119,26952
34808,35124,26922
34632,35126,26897
34604,35141,26850
34668,35161,26813
34536,35181,26845
34348,35183,26759
34140,35168,26711
34008,35179,26692
33908,35167,26652
33772,35159,26691
33632,35156,26590
33468,35146,26552
33348,35171,26539
33244,35205,26490
33160,35212,26534
33068,35207,26453
33029,35207,26478
32940,35200,26393
32856,35177,26404
32664,35182,26326
32576,35183,26285
32453,35183,26338
32320,35207,26256
32300,35227,26260
32352,35231,26180
32386,35244,26156
32374,35241,26204
32352,35233,26127
32280,35205,26170
32224,35204,26093
32225,35201,26092
32232,35215,26023
32228,35194,25991
32272,35239,26020
32256,35257,25961
32196,35253,25950
32164,35255,25892
32148,35258,25872
32121,35237,25944
32128,35225,25821
32124,35221,25807
32258,35223,25847
32372,35243,25789
32388,35256,25840
32296,35267,25735
32232,35280,25702
32296,35276,25714
32312,35269,25690
32324,35249,25732
32257,35245,25655
32204,35247,25610
32228,35240,25644
32276,35247,25603
32340,35268,25597
32345,35264,25559
32444,35279,25540
32440,35288,25492
32452,35274,25567
32460,35268,25468
32452,35253,25442
32468,35250,25495
32560,35260,25431
32640,35268,25492
32660,35284,25378
32600,35294,25363
32548,35303,25432
32504,35303,25304
32536,35297,25292
32570,35272,25373
32569,35268,25281
32608,35264,25237
32644,35269,25318
32624,35280,25188
32617,35303,25192
32600,35316,25240
32568,35323,25137
32576,35296,25109
32644,35309,25144
32652,35289,25100
32684,35290,25164
32660,35276,25061
32644,35279,25108
32568,35276,25008
32513,35308,24966
32428,35317,24941
32416,35335,24918
32425,35325,24970
32480,35316,24910
32626,35305,24978
32744,35292,24858
32776,35281,24829
32664,35295,24852
32608,35303,24805
32584,35316,24852
32588,35335,24745
32548,35335,24724
32570,35333,24762
32640,35327,24696
32561,35300,24807
32492,35300,24662
32520,35297,24641
32592,35295,24615
32598,35316,24628
32562,35328,24617
32608,35335,24684
32560,35344,24581
32573,35335,24573
32548,35305,24504
32536,35305,24485
32496,35301,24479
32496,35296,24452
32528,35281,24484
32516,35316,24426
32504,35317,24456
32532,35335,24409
32526,35356,24468
32494,35325,24390
32576,35331,24381
32584,35327,24337
32600,35301,24313
32616,35293,24350
32632,35303,24297
32590,35319,24287
32536,35335,24230
32480,35335,24298
32412,35351,24183
32392,35332,24173
32380,35333,24237
32404,35321,24165
32424,35278,24220
32428,35297,24109
32460,35300,24095
32508,35312,24188
32628,35331,24124
32688,35344,24088
