ECG,EDA,RR
32852,39654,34832
32860,39648,34833
32808,39668,34793
32724,39697,34877
32712,39716,34889
32760,39736,34837
32800,39720,34924
32816,39732,34924
32844,39678,34956
32785,39687,34940
32748,39673,34981
32740,39676,34996
32796,39684,34945
32781,39719,35038
32720,39736,35052
32760,39764,35044
32840,39772,35079
32865,39764,35025
32804,39740,35102
32832,39712,35121
32868,39692,35129
32868,39673,35156
32784,39717,35112
32796,39733,35112
32840,39767,35212
32840,39785,35212
32836,39772,35237
32808,39780,35188
32762,39767,35182
32784,39740,35244
32777,39727,35280
32804,39687,35238
32821,39726,35316
32860,39741,35330
32788,39780,35333
32748,39806,35373
32733,39815,35334
32774,39810,35320
32800,39748,35420
32832,39764,35408
32860,39757,35430
32841,39752,35396
32844,39764,35372
32816,39748,35461
32796,39815,35468
32752,39815,35448
32814,39844,35453
32796,39821,35524
32740,39830,35514
32764,39800,35492
32800,39784,35534
32836,39783,35564
32828,39793,35548
32812,39822,35498
32721,39849,35574
32772,39875,35584
32772,39873,35528
32820,39879,35624
32856,39865,35600
32872,39828,35645
32860,39825,35560
32836,39820,35667
32820,39831,35660
32748,39868,35624
32760,39898,35665
32829,39912,35697
32832,39917,35661
32748,39884,35703
32768,39898,35728
32816,39878,35674
32840,39871,35724
32832,39858,35752
32840,39878,35674
32772,39894,35756
32724,39930,35694
32742,39932,35796
32764,39967,35792
32825,39943,35778
32750,39928,35793
32773,39911,35727
32813,39905,35831
32828,39900,35832
32784,39921,35749
32816,39943,35860
32836,39964,35850
32820,39996,35810
32784,40007,35847
32724,40003,35861
32744,39972,35889
32788,39928,35847
32804,39948,35879
32805,39940,35835
32726,39933,35914
32692,39980,35892
32780,40012,35860
32799,40036,35920
32832,40048,35909
32812,40051,35858
32829,40014,35951
32836,40006,35898
32797,39988,35963
32732,39992,35958
32728,40000,35941
32732,40036,35948
32681,40053,35893
32749,40076,35957
32784,40103,35886
32768,40099,35980
32716,40076,35943
32764,40061,35975
32768,40030,35980
32756,40032,35913
32756,40053,36005
32764,40076,35956
32737,40103,36017
32752,40130,36020
32756,40143,35988
32760,40132,36008
32760,40118,35956
32768,40111,36013
32752,40084,36032
32760,40084,35953
32761,40111,36048
32777,40124,36045
32680,40150,35997
32768,40180,36037
32820,40146,36013
32860,40180,36048
32872,40165,35981
32869,40148,36070
32900,40121,36006
32916,40099,36063
32932,40148,36048
32921,40162,36076
32916,40193,36103
32908,40229,36041
32848,40232,36104
32784,40227,36103
32836,40172,36082
32717,40196,36103
32672,40183,36053
32684,40151,36102
32712,40189,36036
32672,40214,36132
32698,40244,36136
32648,40269,36100
32662,40239,36116
32724,40276,36054
32680,40257,36141
32712,40229,36132
32752,40194,36069
32800,40223,36120
32848,40228,36054
32888,40258,36149
32888,40284,36150
32896,40296,36089
32881,40310,36145
32912,40313,36072
32928,40295,36145
32930,40282,36148
32900,40261,36158
32836,40252,36147
32740,40277,36068
32728,40308,36124
32740,40329,36084
32768,40348,36129
32781,40360,36077
32832,40367,36125
32872,40335,36048
32876,40320,36131
32796,40300,36084
32780,40294,36125
32776,40321,36125
32796,40345,36060
32824,40376,36109
32868,40393,36040
32812,40372,36103
32764,40409,36036
32749,40381,36109
32772,40361,36044
32808,40348,36124
32816,40333,36124
32824,40356,36124
32736,40381,36116
32692,40372,36084
32757,40432,36088
32797,40431,36012
32788,40447,36100
32721,40428,36057
32728,40400,36080
32784,40381,36092
32837,40392,36088
32857,40405,36040
32840,40417,36071
32856,40454,36014
32884,40477,36025
32900,40487,36072
32880,40484,36034
32880,40469,36026
32857,40440,36064
32856,40400,36025
32840,40422,36092
32816,40444,36069
32672,40478,36016
32624,40492,36063
32625,40513,36012
32652,40540,36077
32640,40527,36064
32721,40481,36040
32752,40479,36069
32816,40444,36068
32808,40455,36020
32840,40472,36065
32860,40492,36004
32868,40521,36063
32864,40535,36072
32760,40569,36072
32788,40556,36060
32805,40545,36020
32744,40527,36060
32752,40503,36036
32772,40468,36044
32800,40511,35988
32796,40541,36040
32820,40556,36036
32832,40580,35980
32856,40549,36053
32864,40588,36033
32764,40567,36029
32688,40551,36046
32736,40487,35969
32788,40519,36036
32782,40508,36022
32728,40564,36036
32744,40597,35953
32804,40616,36035
32812,40613,36026
32816,40620,35938
32800,40596,36021
32828,40583,36001
32849,40556,35944
32876,40553,35951
32816,40572,36005
32720,40596,35982
32708,40623,35934
32670,40637,35988
32660,40658,35988
32732,40657,35921
32757,40626,35965
32804,40573,35972
32813,40581,35900
32840,40548,35960
32844,40597,35957
32860,40616,35904
32842,40649,35948
32736,40676,35928
32704,40680,35892
32732,40684,35917
32704,40660,35908
32730,40636,35875
32796,40620,35852
32801,40612,35914
32812,40622,35896
32824,40645,35836
32824,40679,35890
32804,40688,35862
32828,40701,35885
32780,40700,35812
32700,40644,35858
32680,40660,35782
32724,40645,35807
32660,40620,35842
32680,40649,35816
32728,40677,35760
32713,40692,35788
32700,40711,35796
32732,40726,35735
32736,40727,35764
32732,40700,35761
32736,40679,35676
32732,40660,35720
32741,40652,35705
32720,40661,35654
32736,40681,35670
32724,40711,35652
32736,40735,35654
32741,40744,35589
32756,40735,35605
32669,40709,35556
32636,40697,35589
32680,40679,35566
32740,40672,35492
32680,40668,35534
32692,40695,35506
32728,40725,35444
32724,40748,35485
32752,40754,35463
32780,40756,35404
32736,40734,35432
32736,40708,35400
32772,40692,35335
32780,40686,35374
32796,40681,35370
32849,40711,35295
32776,40741,35309
32748,40760,35296
32780,40773,35239
32820,40772,35236
32828,40740,35255
32832,40732,35244
32838,40706,35196
32852,40693,35153
32880,40711,35165
32852,40725,35191
32864,40756,35149
32872,40768,35117
32868,40788,35082
32880,40781,35077
32868,40764,35066
32852,40729,35078
32832,40711,35068
32814,40718,35053
32752,40695,35038
32680,40732,34990
32628,40769,34984
32608,40788,35007
32672,40796,34993
32668,40754,34973
32764,40775,34951
32800,40745,34941
32816,40730,34901
32748,40716,34884
32748,40695,34892
32730,40741,34896
32737,40741,34872
32756,40792,34856
32736,40768,34808
32753,40792,34805
32764,40732,34823
32804,40745,34823
32848,40727,34796
32876,40702,34797
32876,40732,34784
32784,40724,34727
32782,40778,34724
32832,40774,34744
32864,40804,34727
32896,40791,34720
32905,40769,34679
32814,40756,34681
32828,40732,34660
32828,40728,34634
32848,40732,34654
32792,40761,34648
32798,40775,34636
32836,40800,34593
32862,40808,34608
32812,40800,34599
32832,40780,34548
32862,40756,34567
32789,40733,34559
32768,40736,34544
32796,40733,34519
32852,40716,34524
32862,40777,34505
32852,40796,34494
32864,40812,34455
32888,40796,34452
32928,40773,34452
32808,40752,34436
32824,40743,34396
32868,40713,34418
32880,40716,34393
32764,40757,34360
32756,40775,34380
32772,40804,34349
32824,40807,34311
32840,40804,34328
32876,40780,34311
32892,40744,34292
32882,40729,34303
32892,40720,34274
32792,40732,34241
32780,40759,34233
32701,40772,34232
32728,40775,34208
32718,40797,34220
32753,40799,34193
32768,40772,34164
32788,40748,34172
32816,40711,34153
32828,40724,34132
32828,40725,34132
32838,40743,34117
32844,40717,34085
32764,40791,34089
32652,40796,34073
32612,40799,34055
32672,40775,34031
32704,40733,34039
32756,40711,34025
32760,40711,33999
32772,40720,33984
32796,40735,33964
32788,40756,33964
32804,40780,33957
32733,40790,33935
32648,40748,33923
32622,40764,33924
32708,40734,33896
32740,40711,33870
32744,40706,33876
32752,40700,33860
32756,40676,33845
32732,40760,33842
32668,40783,33825
32668,40780,33799
32668,40772,33810
32613,40744,33789
32704,40725,33780
32758,40695,33780
32728,40692,33757
32718,40656,33737
32768,40710,33735
32760,40711,33716
32708,40763,33692
32732,40733,33696
32768,40756,33687
32804,40737,33668
32821,40706,33652
32805,40647,33633
32780,40675,33632
32784,40677,33632
32768,40655,33607
32784,40726,33597
32780,40744,33528
32772,40754,33572
32776,40745,33552
32716,40724,33543
32712,40698,33508
32752,40633,33513
32724,40668,33502
32698,40668,33493
32676,40637,33476
32700,40705,33452
32752,40735,33428
32788,40724,33431
32824,40729,33425
32800,40705,33409
32788,40677,33390
32800,40617,33368
32741,40637,33373
32801,40634,33357
32790,40676,33340
32820,40687,33320
32868,40708,33334
32892,40689,33310
32860,40703,33287
32840,40687,33280
32844,40660,33260
32788,40645,33244
32752,40636,33252
32772,40628,33237
32732,40657,33213
32760,40676,33205
32784,40692,33196
32848,40702,33163
32853,40684,33175
32880,40639,33167
32893,40636,33153
32872,40575,33133
32884,40607,33124
32812,40612,33097
32784,40627,33084
32792,40652,33068
32740,40668,33065
32768,40641,33065
32832,40669,33046
32880,40635,33031
32924,40564,33000
32912,40589,32980
32916,40581,32973
32932,40561,32949
32960,40593,32940
32952,40620,32933
32912,40644,32908
32921,40647,32888
32912,40640,32868
32896,40568,32876
32908,40588,32866
32920,40572,32829
32916,40548,32810
32938,40567,32813
32908,40569,32799
32896,40601,32768
32917,40609,32758
32944,40623,32732
32968,40596,32727
32952,40580,32736
32908,40565,32710
32801,40535,32676
32800,40529,32657
32878,40484,32634
32884,40550,32645
32872,40573,32629
32873,40573,32592
32876,40583,32579
32844,40548,32580
32816,40556,32579
32712,40504,32551
32772,40511,32510
32816,40503,32519
32840,40500,32493
32864,40528,32480
32884,40548,32492
32904,40561,32460
32904,40561,32429
32908,40549,32404
32880,40521,32401
32872,40519,32380
32900,40479,32343
32852,40471,32364
32796,40479,32359
32832,40488,32320
32848,40508,32295
32840,40485,32292
32804,40541,32261
32728,40540,32234
32716,40469,32217
32676,40485,32260
32708,40432,32188
32704,40446,32175
32664,40452,32199
32684,40478,32161
32632,40455,32138
32624,40508,32109
32636,40516,32124
32636,40496,32140
32761,40479,32076
32752,40428,32064
32696,40431,32052
32652,40413,32037
32690,40424,32004
32640,40436,32032
32588,40468,31993
32628,40476,31981
32664,40455,31964
32676,40464,31940
32702,40453,31919
32728,40421,31940
32788,40393,31936
32804,40384,31937
32816,40395,31884
32828,40405,31868
32840,40416,31853
32876,40432,31841
32852,40452,31820
32736,40425,31792
32672,40418,31777
32672,40392,31774
32736,40361,31775
32824,40351,31788
32836,40357,31764
32828,40377,31721
32860,40399,31709
32860,40420,31706
32788,40431,31676
32721,40414,31688
32772,40393,31678
32776,40359,31644
32793,40337,31628
32848,40321,31644
32868,40321,31637
32780,40348,31586
32708,40380,31572
32736,40395,31600
32800,40390,31559
32816,40377,31549
32841,40356,31508
32820,40327,31527
32744,40288,31552
32760,40284,31521
32733,40296,31473
32769,40271,31466
32812,40327,31464
32832,40304,31478
32774,40357,31422
32744,40351,31427
32784,40276,31393
32850,40293,31369
32860,40279,31416
32804,40248,31414
32740,40266,31348
32744,40246,31344
32752,40305,31333
32804,40314,31290
32832,40319,31343
32844,40312,31296
32846,40284,31269
32877,40260,31262
32880,40229,31305
32768,40181,31223
32748,40223,31206
32724,40244,31214
32721,40266,31236
32724,40270,31169
32768,40293,31156
32804,40241,31177
32808,40252,31116
32804,40197,31118
32832,40199,31069
32868,40157,31116
32768,40192,31055
32736,40193,31041
32780,40223,31089
32796,40215,31004
32740,40260,30986
32720,40252,30988
32764,40224,31028
32808,40198,30943
32816,40180,30944
32828,40159,30896
32832,40127,30948
32744,40174,30905
32765,40199,30884
32788,40217,30884
32796,40221,30837
32816,40219,30838
32820,40199,30796
32852,40159,30847
32904,40132,30831
32888,40135,30752
32800,40133,30760
32789,40148,30726
32844,40124,30787
32778,40167,30713
32774,40155,30701
32741,40180,30725
32777,40124,30668
32768,40126,30676
32680,40112,30628
32728,40098,30695
32773,40071,30629
32768,40114,30589
32752,40112,30668
32744,40153,30573
32800,40160,30556
32846,40144,30578
32848,40094,30564
32800,40108,30535
32709,40079,30544
32728,40068,30572
32760,40071,30476
32784,40071,30468
32812,40100,30495
32748,40121,30468
32740,40135,30496
32800,40121,30452
32752,40097,30445
32784,40078,30446
32800,40045,30404
32816,40036,30404
32796,40037,30365
32784,40056,30436
32788,40079,30381
32796,40096,30375
32772,40108,30360
32759,40094,30392
32796,40063,30324
32808,40047,30293
32816,40015,30385
32820,40006,30293
32800,39980,30303
32789,40022,30270
32776,40049,30252
32780,40022,30337
32696,40062,30241
32776,40058,30260
32828,39997,30236
32878,40021,30310
32878,39943,30228
32900,39972,30214
32912,39983,30279
32888,39998,30294
32884,40021,30191
32910,40004,30208
32884,40044,30191
32844,40041,30205
32756,40020,30183
32685,39980,30196
32677,39930,30182
32712,39956,30165
32653,39967,30165
32640,39980,30229
32656,39998,30149
32640,40029,30172
32652,40024,30244
32748,40021,30148
32804,40004,30136
32737,39956,30202
32756,39943,30153
32780,39930,30117
32840,39937,30212
32844,39957,30138
32864,39983,30132
32865,40002,30222
32920,40008,30160
32896,39990,30204
32800,39983,30181
32812,39959,30172
32813,39934,30209
32840,39917,30196
32861,39920,30190
32900,39934,30180
32908,39966,30220
32820,39984,30191
32720,40000,30196
32706,39976,30273
32776,39964,30264
32768,39905,30215
32824,39910,30232
32826,39911,30249
32812,39908,30278
32832,39927,30264
32852,39952,30254
32860,39973,30324
32876,39999,30272
32874,39982,30300
32800,39959,30374
32708,39943,30309
32684,39913,30312
32754,39911,30404
32784,39908,30352
32796,39933,30384
32820,39956,30412
32829,39975,30433
32824,39985,30428
32812,39992,30454
32736,39965,30445
32716,39908,30481
32768,39910,30495
32815,39909,30567
32828,39906,30526
32828,39932,30544
32856,39932,30504
32844,39968,30637
32868,39943,30608
32754,39980,30597
32676,39967,30712
32708,39943,30653
32800,39880,30692
32832,39906,30684
32792,39924,30781
32809,39940,30761
32813,39971,30760
32805,39988,30808
32812,40006,30804
32805,40007,30838
32801,39966,30862
32840,39959,30928
32836,39937,30964
32744,39926,30929
32726,39932,30959
32688,39952,30964
32672,39943,31029
32712,40000,31083
32720,40021,31044
32772,40014,31100
32816,40000,31081
32844,39974,31181
32828,39956,31156
32721,39943,31180
32664,39956,31189
32693,39978,31288
32740,40008,31256
32772,40029,31295
32728,40051,31334
32695,40036,31397
32709,40029,31381
32708,40002,31408
32700,39956,31418
32764,39964,31508
32776,39989,31500
32800,40005,31524
32740,40037,31546
32676,40061,31561
32700,40079,31655
32708,40068,31657
32740,40041,31673
32756,40028,31709
32772,40009,31740
32744,40000,31764
32716,40018,31804
32721,40037,31859
32764,40068,31858
32792,40092,31893
32770,40105,31928
32732,40103,31989
32767,40089,32013
32760,40064,32016
32776,40044,32053
32812,40033,32075
32792,40047,32128
32768,40036,32164
32736,40108,32183
32689,40092,32208
32672,40137,32221
32684,40142,32291
32664,40127,32290
32688,40100,32321
32752,40100,32351
32800,40077,32395
32804,40062,32412
32824,40121,32447
32796,40133,32473
32796,40180,32513
32704,40196,32524
32684,40199,32545
32712,40167,32584
32760,40156,32628
32812,40137,32638
32842,40135,32657
32796,40135,32700
32704,40173,32720
32720,40208,32746
32728,40231,32768
32776,40248,32799
32808,40236,32815
32760,40217,32836
32824,40199,32869
32840,40196,32898
32850,40184,32932
32832,40199,32952
32812,40177,32976
32798,40257,32992
32796,40249,33012
32796,40300,33047
32821,40260,33069
32840,40282,33088
32860,40237,33118
32900,40246,33133
32920,40247,33149
32816,40260,33170
32813,40287,33204
32820,40317,33230
32868,40336,33247
32876,40372,33250
32884,40369,33286
32936,40353,33313
32961,40343,33325
32938,40318,33336
32920,40308,33367
32900,40321,33392
32876,40348,33420
32848,40388,33446
32847,40368,33460
32900,40420,33485
32908,40440,33510
32908,40416,33511
32892,40405,33556
32888,40389,33580
32940,40340,33598
32920,40401,33617
32916,40427,33632
32896,40452,33669
32880,40496,33701
32900,40511,33727
32788,40502,33753
32772,40511,33782
32801,40478,33804
32824,40477,33823
32844,40460,33878
32848,40480,33897
32876,40500,33940
32924,40508,33951
32892,40560,33976
32864,40564,34021
32768,40590,34052
32716,40572,34068
32752,40564,34114
32688,40504,34157
32732,40541,34183
32696,40521,34216
32688,40573,34240
32700,40621,34276
32688,40640,34340
32692,40662,34376
32684,40661,34409
32669,40648,34429
32676,40588,34488
32648,40623,34532
32624,40583,34567
32632,40624,34618
32632,40667,34620
32584,40681,34679
32573,40724,34751
32632,40685,34790
32644,40745,34785
32696,40728,34854
32676,40711,34920
32716,40690,34951
32724,40679,34985
32740,40711,35040
32728,40741,35095
32764,40757,35136
32788,40807,35141
32820,40819,35173
32824,40823,35232
32732,40800,35319
32728,40789,35357
32688,40770,35398
32669,40772,35455
32702,40758,35465
32732,40820,35502
32736,40850,35532
32772,40839,35596
32764,40902,35628
32828,40890,35676
32868,40839,35784
32872,40865,35820
32757,40804,35860
32760,40844,35928
32796,40820,35927
32817,40895,35953
32856,40910,36052
32868,40948,36102
32864,40959,36131
32816,40967,36192
32696,40967,36173
32628,40959,36244
32632,40884,36317
32696,40925,36350
32692,40943,36389
32743,40980,36391
32792,41005,36456
32817,41034,36504
32844,41055,36544
32872,41055,36537
32864,41058,36639
32725,41031,36644
32748,41004,36654
32668,41012,36696
32720,41004,36773
32761,41052,36808
32772,41086,36764
32792,41109,36877
32812,41133,36893
32840,41133,36935
32832,41119,36884
32871,41103,36980
32920,41085,37015
32948,41095,36972
32820,41095,37045
32784,41135,37120
32780,41167,37126
32752,41189,37076
32768,41180,37185
32820,41208,37231
32836,41158,37244
32864,41183,37220
32800,41166,37228
32804,41165,37326
32780,41173,37360
32816,41197,37367
32812,41241,37388
32829,41260,37430
32852,41285,37357
32876,41292,37392
32896,41271,37464
32925,41265,37536
32940,41261,37536
32798,41244,37486
32800,41261,37580
32768,41287,37604
32812,41317,37638
32836,41332,37578
32820,41358,37607
32836,41375,37712
32872,41360,37713
32912,41342,37729
32904,41316,37785
32932,41318,37703
32928,41306,37806
32908,41361,37832
32818,41382,37752
32788,41413,37872
32796,41444,37912
32692,41447,37915
32756,41437,37860
32764,41381,37849
32816,41405,37980
32868,41396,37977
32900,41381,37997
32901,41436,37924
32790,41464,38055
32744,41501,38052
32768,41516,38007
32800,41519,38087
32828,41504,38081
32853,41490,38044
32881,41464,38060
32900,41466,38148
32908,41479,38150
32808,41508,38091
32736,41540,38151
32708,41564,38208
32768,41597,38212
32824,41581,38212
32805,41572,38208
32824,41557,38241
32852,41517,38256
32749,41536,38172
32720,41550,38196
32776,41575,38284
32833,41604,38267
32840,41628,38284
32792,41652,38181
32790,41613,38197
32831,41636,38300
32820,41632,38269
32732,41606,38293
32744,41599,38202
32772,41614,38202
32788,41637,38298
32800,41662,38300
32824,41655,38260
32848,41708,38213
32880,41675,38181
32885,41703,38288
32890,41685,38261
32876,41672,38260
32888,41668,38173
32880,41676,38239
32880,41699,38272
32864,41715,38242
32868,41764,38253
32871,41780,38177
32864,41784,38146
32864,41756,38212
32888,41718,38255
32948,41724,38228
32876,41721,38165
32781,41735,38226
32820,41759,38228
32832,41792,38217
32840,41780,38228
32864,41829,38149
32884,41828,38140
32852,41831,38120
32844,41813,38126
32884,41791,38156
32864,41735,38196
32856,41781,38183
32845,41816,38200
32756,41844,38101
32700,41879,38092
32676,41885,38120
32729,41888,38193
32676,41879,38148
32672,41863,38173
32636,41840,38073
32644,41830,38156
32732,41839,38149
32728,41877,38076
32656,41900,38068
32644,41926,38125
32680,41953,38133
32656,41941,38061
32672,41927,38074
32652,41888,38093
32672,41884,38087
32693,41863,38010
32672,41893,37999
32708,41920,38069
32736,41948,38069
32768,41977,37988
32808,41991,38053
32808,41991,38008
32800,41977,37924
32798,41958,38023
32772,41936,37976
32732,41932,37866
32686,41925,37924
32652,41957,37932
32684,41991,37857
32724,42029,37884
32764,42037,37870
32780,42044,37873
32800,42024,37813
32828,42004,37816
32828,41989,37812
32828,41985,37702
32793,41985,37780
32684,42020,37733
32676,42040,37698
32726,42044,37684
32676,42084,37620
32752,42088,37600
32804,42071,37609
32884,42052,37588
32860,42029,37566
32837,42028,37476
32800,42039,37524
32720,42064,37487
32692,42087,37426
32688,42112,37412
32772,42133,37339
32770,42124,37292
32820,42119,37340
32836,42093,37292
32821,42086,37231
32836,42073,37220
32832,42039,37196
32796,42096,37188
32712,42143,37080
32720,42156,37121
32712,42161,37072
32701,42175,36981
32732,42119,36989
32776,42135,36975
32802,42119,36916
32788,42111,36863
32780,42119,36898
32760,42140,36853
32696,42178,36816
32696,42202,36734
32752,42219,36716
32780,42215,36711
32740,42205,36692
32732,42187,36600
32736,42156,36601
32784,42167,36597
32829,42158,36566
32844,42182,36495
32836,42205,36453
32724,42241,36445
32696,42255,36457
32740,42263,36408
32773,42243,36391
32784,42215,36313
32804,42149,36325
32813,42183,36292
32820,42180,36271
32816,42220,36216
32796,42201,36193
32740,42281,36161
32716,42303,36173
32740,42292,36132
32700,42279,36119
32700,42260,36052
32776,42235,36056
32844,42224,36034
32876,42238,36012
32844,42262,35949
32840,42288,35969
32868,42312,35936
32892,42316,35872
32850,42329,35889
32884,42311,35847
32877,42297,35813
32876,42279,35789
32897,42268,35776
32884,42276,35733
32760,42311,35732
32724,42340,35707
32676,42359,35664
32684,42320,35644
32734,42375,35596
32784,42340,35612
32716,42338,35577
32717,42309,35532
32748,42292,35540
32676,42312,35500
32724,42300,35492
32736,42361,35444
32808,42381,35449
32884,42398,35420
32864,42404,35388
32900,42388,35392
32876,42375,35354
32900,42353,35314
32876,42343,35328
32812,42313,35300
32821,42359,35266
32752,42384,35272
32774,42415,35196
32768,42441,35236
32800,42433,35217
32848,42393,35190
32900,42393,35180
32905,42329,35148
32886,42368,35152
32896,42352,35136
32828,42391,35114
32776,42420,35084
32792,42453,35072
32736,42464,35066
32709,42454,35048
32768,42460,35016
32832,42429,35020
32784,42399,35001
32812,42384,34970
32852,42404,34983
32864,42416,34951
32888,42445,34935
32900,42473,34912
32896,42446,34902
32892,42477,34884
32785,42483,34869
32757,42453,34855
32766,42436,34841
32700,42374,34820
32760,42438,34801
32824,42453,34732
32892,42478,34768
32892,42503,34760
32896,42513,34745
32896,42520,34724
32908,42503,34717
32932,42482,34685
32942,42425,34676
32904,42444,34652
32912,42453,34636
32848,42476,34632
32828,42500,34604
32844,42476,34596
32844,42541,34581
32844,42543,34557
32848,42519,34548
32840,42497,34532
32832,42486,34520
32858,42470,34502
32888,42478,34477
32900,42450,34473
32912,42532,34445
32888,42559,34457
32820,42566,34444
32720,42565,34406
32772,42532,34396
32816,42525,34375
32804,42503,34372
32816,42488,34348
32812,42502,34328
32843,42518,34308
32880,42541,34311
32809,42565,34311
32744,42551,34292
32708,42580,34263
32720,42556,34233
32676,42544,34254
32665,42468,34228
32648,42503,34205
32604,42524,34191
32580,42537,34208
32576,42553,34156
32624,42589,34150
32616,42575,34148
32628,42597,34145
32644,42590,34097
32672,42558,34094
32692,42543,34071
32660,42533,34084
32644,42536,34048
32724,42556,34008
32756,42576,34028
32712,42604,33998
32709,42620,33972
32732,42625,34000
32712,42615,33956
32629,42583,33935
32672,42560,33932
32700,42549,33908
32684,42552,33903
32704,42570,33868
32748,42601,33901
32776,42613,33881
32752,42631,33840
32696,42631,33838
32625,42613,33820
32698,42592,33830
32724,42578,33798
32676,42564,33818
32697,42552,33767
32736,42590,33756
32744,42618,33741
32698,42641,33772
32716,42649,33748
32712,42645,33725
32684,42628,33688
32700,42607,33728
32688,42589,33684
32728,42580,33677
32768,42582,33664
32760,42599,33703
32768,42628,33657
32760,42631,33624
32744,42662,33629
32680,42661,33604
32660,42645,33636
32724,42622,33604
32696,42597,33604
32736,42592,33569
32744,42594,33626
32775,42607,33569
32804,42637,33572
32821,42661,33568
32815,42655,33541
32796,42660,33524
32798,42657,33509
32741,42644,33564
32661,42613,33528
32704,42597,33511
32752,42605,33489
32728,42621,33464
32681,42601,33495
32672,42665,33472
32716,42625,33460
32792,42676,33428
32824,42608,33487
32828,42631,33420
32832,42618,33416
32820,42600,33415
32828,42615,33444
32732,42631,33398
32708,42653,33372
32728,42678,33436
32708,42692,33369
32720,42689,33360
32741,42669,33334
32800,42648,33390
32864,42625,33348
32892,42564,33326
32876,42609,33375
32884,42613,33312
32888,42660,33301
32853,42697,33362
32768,42656,33292
32772,42695,33285
32828,42672,33260
32768,42662,33324
32783,42633,33260
32816,42625,33260
32868,42630,33268
32900,42645,33249
32893,42631,33248
32872,42684,33228
32862,42700,33199
32824,42705,33256
32804,42641,33220
32764,42660,33212
32776,42644,33193
32772,42639,33220
32752,42624,33257
32764,42648,33183
32836,42676,33204
32840,42705,33208
32872,42708,33206
32896,42711,33188
32848,42652,33159
32820,42671,33217
32808,42607,33172
32808,42641,33172
32820,42653,33191
32844,42657,33197
32852,42688,33161
32852,42660,33149
32820,42717,33181
32764,42733,33210
32796,42694,33151
32844,42677,33165
32884,42647,33168
32896,42631,33151
32836,42660,33135
32804,42664,33175
32816,42693,33142
32797,42719,33125
32840,42737,33140
32880,42719,33183
32801,42663,33109
32748,42687,33119
32824,42663,33084
32877,42644,33157
32920,42653,33086
32912,42621,33099
32909,42700,33076
32932,42717,33092
32884,42737,33116
32788,42738,33062
32764,42714,33084
32772,42690,33052
32792,42671,33075
32805,42652,33081
32820,42667,33045
32869,42681,33031
32894,42708,33102
32888,42721,33031
32900,42688,33014
32896,42736,33089
32896,42725,33062
32892,42702,33016
32864,42677,33032
32869,42660,32997
32876,42665,33068
32857,42684,32996
32860,42710,32992
32868,42740,33065
32876,42737,32984
32861,42746,32973
32864,42729,33020
32900,42708,32992
32789,42668,32999
32764,42681,32968
32796,42671,32954
32805,42685,33013
32788,42724,32967
32777,42741,32938
32776,42759,32991
32773,42748,32944
32760,42735,32957
32776,42712,32908
32770,42657,32997
32768,42677,32909
32762,42690,32916
32744,42700,32968
32716,42716,32905
32760,42753,32888
32680,42759,32877
32696,42759,32861
32708,42737,32862
32720,42678,32852
32696,42700,32921
32728,42668,32847
32709,42694,32836
32681,42661,32903
32696,42732,32828
32668,42748,32841
32628,42749,32856
32652,42764,32821
32720,42749,32797
32793,42703,32833
32872,42694,32804
32877,42690,32759
32848,42692,32836
32817,42704,32775
32788,42740,32748
32724,42752,32799
32704,42724,32735
32748,42772,32713
32761,42759,32788
32692,42727,32710
32736,42695,32679
32816,42695,32749
32864,42692,32684
32868,42704,32655
32844,42732,32740
32820,42759,32655
32732,42775,32628
32732,42780,32703
32806,42753,32636
32892,42726,32596
32929,42708,32672
32896,42703,32580
32804,42684,32565
32812,42688,32639
32828,42738,32572
32872,42775,32524
32912,42764,32614
32932,42772,32515
32920,42751,32500
32840,42735,32565
32805,42713,32480
32832,42692,32460
32877,42700,32500
32912,42710,32461
32936,42741,32452
32920,42758,32442
32952,42727,32408
32936,42760,32485
32892,42756,32365
32913,42735,32350
32932,42711,32396
32940,42698,32423
32956,42692,32327
32876,42719,32325
32792,42741,32317
32740,42769,32348
32700,42778,32356
32728,42772,32260
32716,42764,32260
32712,42747,32327
32752,42708,32228
32800,42701,32230
32812,42693,32310
32820,42669,32192
32740,42737,32168
32764,42735,32204
32833,42778,32176
32856,42775,32244
32864,42748,32176
32892,42738,32156
32948,42704,32218
32917,42692,32188
32840,42703,32129
32773,42724,32213
32720,42692,32121
32784,42756,32129
32812,42741,32095
32784,42782,32201
32848,42717,32115
32808,42736,32125
32816,42718,32076
32845,42700,32164
32869,42689,32087
32864,42724,32114
32832,42745,32122
32836,42775,32118
32741,42783,32101
32712,42780,32065
32768,42764,32169
32724,42748,32160
32696,42723,32094
32754,42694,32069
32776,42702,32096
32776,42721,32050
32808,42743,32152
32832,42745,32068
32852,42780,32049
32892,42783,32140
32880,42759,32096
32760,42740,32046
32780,42712,32053
32824,42704,32140
32816,42705,32109
32744,42727,32036
32796,42740,32038
32833,42781,32066
32841,42777,32082
32836,42785,32052
32781,42767,32000
32776,42733,32086
32804,42727,32040
32849,42708,32029
32848,42692,32031
32844,42698,32024
32877,42756,32025
32884,42757,32021
32901,42780,32007
32808,42785,31965
32788,42764,32040
32724,42740,31998
32724,42717,32004
32776,42709,32026
32752,42701,31966
32785,42716,31985
32749,42732,31945
32805,42741,32033
32820,42781,31950
32848,42777,31969
32840,42743,31910
32814,42742,32015
32788,42727,31936
32812,42704,31900
32792,42705,31968
32780,42700,31925
32772,42751,32002
32768,42775,31896
32708,42781,31900
32692,42783,31983
32740,42765,31932
32684,42741,31882
32733,42727,31860
32644,42703,31861
32684,42704,31865
32716,42727,31950
32748,42745,31854
32773,42767,31908
32804,42752,31828
32840,42788,31812
32816,42759,31909
32780,42743,31833
32720,42713,31887
32736,42657,31784
32744,42708,31780
32776,42676,31868
32800,42733,31761
32824,42775,31724
32810,42783,31836
32772,42775,31748
32760,42759,31762
32820,42732,31716
32896,42711,31742
32908,42696,31680
32840,42644,31784
32840,42712,31716
32836,42743,31777
32868,42764,31680
32860,42781,31645
32886,42733,31722
32869,42756,31671
32864,42740,31757
32852,42716,31652
32856,42692,31623
32876,42685,31724
32872,42724,31660
32764,42743,31637
32660,42759,31757
32656,42783,31650
32688,42765,31657
32644,42767,31719
32676,42737,31688
32648,42704,31691
32648,42692,31812
32692,42692,31745
32640,42711,31829
32686,42736,31744
32696,42759,31798
32668,42740,31820
32716,42765,31897
32724,42707,31837
32752,42733,31887
32780,42704,31996
32808,42677,31937
32784,42698,31902
32828,42724,31996
32828,42740,32033
32732,42756,32109
32732,42783,32122
32716,42765,32259
32712,42757,32213
32737,42732,32224
32788,42698,32325
32852,42700,32361
32852,42694,32417
32857,42705,32439
32852,42741,32460
32745,42708,32570
32788,42768,32585
32809,42740,32628
32884,42746,32673
32876,42724,32708
32888,42701,32716
32896,42663,32820
32828,42695,32836
32765,42704,32861
32780,42740,32880
32748,42750,32975
32736,42716,32981
32764,42765,33004
32768,42748,33013
32776,42727,33116
32789,42700,33074
32816,42700,33115
32796,42691,33180
32788,42708,33173
32732,42724,33173
32768,42756,33180
32788,42759,33265
32820,42732,33220
32840,42753,33245
32868,42741,33216
32912,42703,33293
32824,42697,33281
32832,42692,33269
32848,42704,33319
32852,42701,33280
32780,42759,33300
32772,42775,33301
32752,42774,33312
32796,42756,33309
32852,42676,33312
32860,42700,33294
32884,42692,33292
32892,42689,33308
32853,42717,33298
32756,42732,33287
32672,42752,33285
32736,42727,33304
32716,42773,33269
32732,42727,33236
32725,42735,33271
32764,42716,33245
32780,42695,33238
32816,42684,33232
32832,42657,33216
32844,42740,33233
32872,42759,33176
32832,42733,33164
32761,42783,33204
32748,42757,33148
32794,42741,33185
32832,42705,33112
32832,42692,33076
32829,42652,33133
32725,42716,33081
32704,42745,33038
32736,42728,33092
32668,42789,33020
32676,42783,33078
32736,42745,32977
32780,42732,32974
32824,42720,33023
32820,42706,32932
32800,42713,32908
32752,42735,32925
32732,42751,32903
32708,42767,32916
32704,42732,32889
32704,42788,32853
32756,42772,32879
32768,42748,32804
32798,42720,32796
32788,42712,32857
32744,42704,32775
32764,42727,32676
32780,42752,32758
32816,42772,32718
32836,42752,32648
32832,42784,32716
32796,42789,32665
32720,42748,32633
32724,42719,32660
32760,42679,32592
32772,42716,32580
32793,42724,32559
32789,42756,32532
32780,42783,32524
32705,42796,32529
32740,42788,32456
32788,42780,32425
32760,42749,32429
32788,42733,32455
32696,42692,32353
32692,42716,32356
32724,42730,32292
32736,42756,32359
32792,42788,32260
32836,42792,32242
32836,42756,32288
32812,42783,32271
32724,42759,32188
32752,42742,32168
32784,42721,32234
32768,42724,32162
32804,42741,32140
32748,42759,32129
32736,42785,32100
32766,42808,32087
32781,42804,32044
32798,42789,32103
32800,42772,32121
32813,42744,32021
32784,42685,32038
32728,42724,31988
32766,42756,32097
32776,42775,32033
32748,42806,32007
32784,42820,31957
32748,42809,32014
32736,42759,31966
32772,42772,31933
32792,42759,32032
32804,42737,31948
32824,42734,31943
32734,42756,32044
32720,42783,31932
32724,42804,31932
32706,42834,32026
32700,42828,31917
32688,42815,31926
32712,42718,32023
32729,42758,31964
32736,42745,31911
32724,42748,31927
32736,42765,31965
32741,42789,31897
32789,42809,31912
32788,42828,31868
32800,42828,31975
32764,42816,31892
32764,42791,31892
32828,42780,31876
32848,42750,31942
32880,42759,31838
32885,42776,31828
32852,42801,31929
32848,42822,31810
32844,42839,31796
32873,42843,31892
32885,42797,31781
32888,42807,31772
32864,42753,31739
32736,42766,31860
32736,42778,31736
32764,42793,31709
32836,42804,31813
32872,42780,31693
32880,42855,31688
32860,42852,31780
32856,42846,31662
32852,42816,31671
32876,42793,31700
32880,42725,31604
32912,42796,31588
32884,42808,31633
32848,42832,31572
32728,42852,31537
32684,42849,31649
32680,42874,31516
32654,42804,31528
32693,42838,31572
32652,42776,31547
32660,42793,31454
32632,42802,31465
32628,42815,31420
32657,42831,31505
32648,42862,31432
32686,42884,31365
32668,42884,31491
32677,42880,31397
32696,42854,31367
32668,42839,31310
32692,42818,31424
32681,42824,31323
32660,42837,31260
32716,42832,31313
32716,42886,31279
32720,42848,31220
32716,42906,31289
32764,42893,31239
32840,42871,31181
32888,42796,31300
32908,42834,31192
32936,42828,31144
32968,42851,31232
32976,42869,31141
32820,42908,31126
32844,42926,31202
32764,42925,31097
32820,42908,31111
32864,42887,31054
32862,42856,31170
32896,42844,31044
32856,42853,31072
32888,42870,30999
32879,42892,31120
32912,42926,31001
32892,42940,31036
32892,42937,30970
32896,42928,31100
32909,42908,30957
32900,42884,30985
32916,42858,30925
32916,42815,31060
32912,42880,30941
32796,42884,30915
32724,42945,30892
32737,42958,31038
32724,42952,30892
32729,42941,30924
32732,42919,30911
32728,42893,30864
32768,42884,30895
32816,42887,30829
32812,42895,30944
32808,42927,30903
32764,42965,30816
32768,42983,30817
32816,42972,30927
32836,42961,30828
32848,42900,30776
32800,42917,30917
32740,42917,30760
32768,42903,30798
32784,42900,30727
32824,42935,30861
32840,42975,30780
32856,42991,30744
32868,42996,30720
32908,42976,30668
32924,42953,30814
32768,42924,30664
32796,42916,30664
32858,42886,30774
32728,42935,30621
32780,42924,30594
32836,42989,30711
32836,42980,30596
32812,43004,30591
32816,42996,30544
32813,42964,30636
32808,42948,30523
32808,42932,30457
32693,42935,30557
32764,42952,30488
32769,42979,30408
32780,42964,30428
32754,43013,30361
32668,42977,30471
32644,42992,30308
32732,42981,30260
32764,42967,30342
32796,42948,30276
32800,42918,30188
32688,42960,30312
32644,42988,30176
32686,43008,30116
32708,43038,30192
32741,43028,30087
32768,43015,30047
32780,43007,30028
32788,42975,30064
32833,42961,29959
32757,42973,29973
32668,42980,29900
32640,43006,30020
32732,43004,29892
32761,43048,29828
32741,43060,29826
32744,43029,29780
32740,43031,29703
32752,42998,29692
32788,42965,29636
32796,42978,29648
32816,43009,29724
32764,43008,29594
32692,43060,29557
32652,43037,29620
32664,43077,29613
32692,43068,29506
32676,43044,29442
32733,43031,29596
32766,42959,29524
32776,42996,29436
32789,43029,29367
32772,43055,29360
32756,43089,29264
32705,43085,29437
32676,43108,29251
32736,43072,29270
32760,43072,29156
32788,43028,29285
32812,43049,29200
32760,43041,29086
32668,43060,29286
32713,43079,29162
32784,43104,29125
32792,43108,29032
32744,43134,29108
32732,43117,29017
32748,43069,29023
32780,43085,28926
32789,43015,29070
32797,43060,28945
32804,43095,28966
32828,43124,28935
32812,43141,28861
32824,43116,28830
32888,43166,28853
32912,43159,29012
32920,43127,28990
32892,43124,28904
32916,43102,28857
32945,43108,28833
32964,43132,28756
32952,43150,28812
32956,43183,28879
32941,43200,28760
32932,43204,28772
32932,43189,28764
32920,43166,28716
32804,43108,28658
32756,43143,28861
32696,43148,28696
32660,43157,28700
32672,43185,28828
32624,43205,28721
32650,43240,28679
32684,43249,28658
32708,43236,28596
32761,43208,28812
32712,43197,28663
32764,43176,28664
32796,43189,28679
32745,43202,28617
32780,43228,28590
32844,43255,28645
32878,43280,28759
32897,43270,28749
32916,43257,28687
32833,43244,28700
32776,43231,28636
32804,43220,28696
32752,43220,28766
32796,43236,28700
32776,43256,28754
32812,43295,28764
32852,43311,28685
32872,43313,28916
32900,43309,28791
32876,43281,28794
32928,43271,28769
32900,43244,28855
32784,43209,29008
32808,43265,28871
32824,43254,28918
32748,43312,28919
32780,43336,28910
32840,43341,29124
32888,43333,29098
32880,43308,29020
32896,43292,28988
32876,43282,29106
32864,43279,29234
32878,43256,29249
32776,43323,29272
32712,43352,29204
32752,43325,29156
32720,43375,29224
32736,43360,29180
32768,43342,29172
32815,43320,29398
32820,43308,29316
32832,43306,29281
32857,43324,29261
32886,43356,29412
32908,43380,29340
32808,43393,29284
32768,43399,29506
32780,43396,29374
32688,43372,29373
32720,43356,29356
32780,43326,29480
32736,43321,29456
32774,43359,29586
32832,43389,29468
32832,43409,29445
32844,43408,29597
32856,43423,29572
32877,43413,29566
32876,43391,29588
32756,43367,29584
32727,43348,29745
32760,43352,29669
32708,43376,29855
32737,43399,29728
32765,43393,29737
32820,43444,29929
32866,43445,29860
32868,43433,29861
32888,43413,29973
32820,43344,30006
32789,43377,30154
32800,43367,30093
32824,43393,30148
32844,43367,30233
32860,43455,30245
32842,43428,30284
32892,43473,30424
32784,43464,30380
32824,43444,30421
32869,43428,30620
32872,43399,30545
32876,43396,30602
32768,43436,30788
32732,43454,30689
32776,43480,30784
32788,43500,30861
32800,43498,30876
32793,43490,30872
32820,43464,31028
32832,43437,30941
32816,43436,30970
32849,43431,31140
32741,43404,31040
32708,43471,31066
32700,43484,31213
32685,43516,31113
32744,43510,31136
32776,43511,31262
32814,43492,31205
32812,43472,31170
32852,43452,31319
32832,43463,31204
32745,43468,31203
32720,43461,31317
32740,43527,31260
32772,43556,31361
32768,43549,31252
32832,43527,31204
32824,43472,31236
32816,43495,31207
32813,43484,31356
32748,43487,31233
32676,43505,31196
32649,43527,31304
32692,43553,31228
32736,43516,31205
32752,43567,31314
32768,43524,31228
32817,43527,31213
32844,43500,31157
32834,43496,31286
32824,43509,31149
32836,43527,31160
32860,43556,31232
32748,43584,31220
32658,43592,31156
32700,43604,31140
32732,43583,31182
32789,43569,31061
32832,43546,31034
32864,43527,31144
32844,43493,31009
32844,43549,30977
32852,43520,31098
32876,43597,30932
32901,43623,30895
32880,43623,30920
32888,43608,30860
32885,43588,30932
32916,43526,30788
32925,43552,30786
32880,43556,30756
32720,43574,30857
32680,43596,30678
32681,43570,30644
32640,43645,30748
32672,43649,30599
32637,43640,30559
32676,43609,30657
32700,43594,30484
32780,43568,30417
32808,43526,30540
32828,43585,30424
32836,43620,30500
32844,43646,30321
32848,43647,30261
32848,43669,30280
32852,43655,30221
32836,43623,30318
32876,43590,30212
32870,43601,30112
32889,43590,30160
32884,43599,30142
32869,43636,30236
32800,43668,30096
32756,43676,30040
32824,43685,30012
32858,43644,29945
32872,43641,30087
32836,43625,29952
32832,43607,29860
32832,43612,29996
32868,43592,29901
32872,43649,29917
32832,43669,29861
32828,43631,29836
32824,43692,29881
32784,43693,29756
32736,43655,29736
32684,43645,29892
32684,43628,29713
32684,43623,29646
32652,43599,29689
32652,43662,29661
32604,43689,29809
32640,43709,29679
32648,43708,29575
32644,43700,29687
32652,43673,29653
32628,43609,29688
32640,43644,29601
32624,43652,29540
32632,43641,29621
32644,43677,29589
32736,43716,29730
32760,43728,29620
32765,43735,29665
32756,43724,29575
32684,43705,29548
32664,43677,29632
32712,43623,29564
32762,43671,29652
32797,43676,29631
32804,43653,29716
32804,43724,29613
32832,43728,29598
32816,43751,29724
32732,43733,29666
32704,43712,29597
32706,43692,29792
32680,43640,29688
32712,43681,29641
32760,43693,29737
32760,43669,29733
32789,43735,29887
32824,43767,29772
32846,43762,29801
32876,43749,29756
32864,43738,29766
32728,43714,29944
32702,43701,29826
32732,43697,29886
32656,43712,29872
32652,43737,29974
32712,43745,29869
32744,43773,29916
32788,43783,29921
32856,43717,29905
32880,43750,29868
32860,43717,29928
32772,43712,29895
32764,43708,30011
32781,43717,29988
32788,43751,30116
32808,43774,30009
32848,43783,30132
32820,43798,29989
32776,43783,29948
32776,43756,30047
32720,43750,29976
32704,43724,30136
32752,43703,30025
32796,43737,29988
32832,43767,30116
32828,43783,30068
32788,43815,30004
32824,43800,30156
32848,43807,30093
32840,43781,30224
32828,43751,30084
32800,43696,30068
32784,43728,30263
32824,43753,30148
32868,43770,30140
32860,43800,30313
32868,43823,30183
32772,43828,30198
32756,43821,30181
32792,43783,30385
32826,43751,30249
32798,43749,30264
32724,43751,30340
32720,43756,30325
32776,43724,30361
32792,43804,30532
32836,43792,30411
32852,43831,30428
32864,43821,30503
32820,43792,30493
32788,43774,30584
32712,43757,30567
32736,43758,30575
32680,43765,30688
32736,43815,30764
32736,43817,30684
32797,43836,30688
32776,43840,30768
32808,43835,30719
32804,43802,30839
32812,43783,30855
32816,43759,30816
32820,43767,31016
32792,43780,30887
32757,43797,30901
32672,43783,31077
32701,43837,31008
32696,43819,30983
32700,43832,31164
32652,43812,31043
32716,43782,31064
32740,43759,31183
32756,43769,31082
32764,43764,31129
32752,43820,31205
32669,43840,31121
32684,43859,31084
32720,43860,31180
32769,43847,31142
32784,43822,31127
32780,43792,31292
32676,43776,31146
32664,43783,31160
32732,43757,31112
32760,43820,31279
32781,43847,31249
32784,43836,31133
32816,43863,31149
32804,43802,31258
32721,43834,31193
32740,43781,31159
32788,43783,31095
32812,43756,31228
32844,43804,31173
32840,43831,31136
32740,43858,31080
32704,43864,31149
32785,43868,31194
32776,43814,31111
32740,43838,31078
32760,43777,31197
32772,43796,31081
32813,43797,31081
32860,43820,31180
32844,43840,31109
32876,43873,31097
32777,43876,31021
32756,43895,31168
32769,43876,31063
32768,43864,31060
32844,43832,31040
32864,43820,31057
32856,43824,30988
32820,43831,31150
32748,43857,31013
32728,43828,30980
32764,43894,31136
32778,43900,30996
32775,43897,31016
32760,43884,30957
32768,43845,31015
32768,43813,31004
32804,43837,31004
32832,43849,30972
32822,43878,30936
32853,43892,31071
32892,43864,30944
32856,43916,30896
32908,43909,30972
32888,43893,30937
32888,43871,30983
32909,43853,30982
32948,43854,30911
32954,43868,30917
32928,43837,30890
32913,43917,30864
32908,43933,31056
32904,43885,30941
32946,43926,30946
32880,43860,30880
32796,43880,30986
32820,43868,30952
32768,43857,30902
32772,43876,31038
32724,43905,30981
32694,43943,31036
32752,43951,30949
32728,43943,30936
32712,43879,31094
32750,43909,31014
32740,43850,30961
32757,43881,31072
32756,43869,31042
32744,43860,31160
32812,43908,31041
32848,43880,31086
32860,43932,31028
32856,43901,31200
32748,43949,31079
32791,43865,31087
32798,43896,31247
32844,43877,31148
32832,43877,31141
32764,43894,31252
32792,43911,31172
32845,43940,31145
32817,43956,31184
32844,43960,31231
32864,43943,31209
32857,43916,31205
32873,43903,31230
32880,43874,31206
32927,43879,31248
32901,43894,31234
32776,43911,31316
32796,43920,31309
32828,43959,31274
32744,43967,31337
32742,43943,31324
32752,43908,31318
32824,43894,31312
32833,43884,31434
32744,43876,31296
32796,43835,31276
32820,43910,31453
32768,43932,31324
32800,43948,31319
32828,43951,31372
32824,43941,31452
32760,43908,31343
32772,43900,31340
32774,43877,31429
32832,43868,31310
32804,43873,31292
32800,43911,31353
32800,43925,31320
32836,43945,31442
32856,43965,31316
32728,43920,31321
32738,43860,31409
32676,43884,31301
32660,43873,31300
32653,43804,31373
32708,43880,31269
32702,43887,31287
32732,43927,31248
32760,43940,31230
32800,43935,31252
32832,43921,31240
32844,43844,31368
32888,43878,31252
32780,43865,31231
32704,43869,31364
32704,43869,31245
32732,43839,31260
32738,43911,31202
32781,43936,31360
32800,43943,31228
32820,43922,31201
32809,43844,31318
32818,43868,31232
32836,43865,31297
32748,43844,31228
32744,43856,31250
32776,43892,31202
32788,43911,31351
32816,43925,31201
32860,43924,31198
32841,43911,31357
32860,43893,31208
32880,43868,31232
32909,43849,31313
32916,43842,31208
32904,43844,31226
32904,43873,31354
32900,43904,31239
32932,43914,31271
32820,43930,31204
32824,43892,31312
32868,43884,31281
32864,43862,31224
32885,43783,31384
32912,43837,31310
32900,43832,31286
32832,43873,31239
32780,43856,31420
32716,43911,31283
32720,43911,31319
32680,43897,31279
32704,43876,31436
32692,43861,31328
32676,43824,31352
32720,43783,31295
32788,43836,31438
32740,43852,31412
32800,43880,31324
32880,43908,31361
32912,43908,31309
32916,43886,31447
32916,43869,31357
32904,43838,31364
32813,43817,31332
32752,43816,31463
32799,43829,31392
32765,43825,31492
32788,43870,31373
32778,43901,31385
32812,43887,31361
32852,43844,31480
32884,43847,31451
32852,43830,31388
32848,43809,31351
32860,43804,31461
32908,43814,31456
32828,43837,31364
32728,43860,31367
32764,43881,31439
32724,43887,31471
32708,43864,31365
32756,43847,31325
32769,43808,31493
32792,43805,31335
32826,43798,31374
32820,43752,31348
32828,43820,31440
32804,43852,31345
32848,43866,31294
32864,43868,31428
32776,43836,31324
32718,43830,31293
32768,43813,31316
32728,43783,31377
32708,43772,31268
32768,43777,31212
32788,43816,31247
32840,43838,31229
32864,43844,31349
32872,43852,31236
32864,43828,31261
32828,43816,31173
32808,43804,31141
32801,43717,31216
32756,43767,31128
32768,43781,31257
32796,43776,31135
32798,43824,31235
32796,43836,31092
32832,43852,31117
32812,43777,31056
32808,43815,31030
32812,43783,31160
32791,43758,31015
32800,43754,30960
32780,43773,31053
32796,43767,30992
32836,43816,30909
32861,43837,31009
32880,43789,30952
32860,43828,30916
32768,43801,30956
32748,43774,30916
32708,43753,30828
32684,43733,30976
32645,43768,30836
32640,43783,30815
32636,43756,30956
32728,43824,30797
32816,43783,30768
32828,43805,30920
32788,43783,30777
32744,43764,30753
32780,43739,30876
32800,43733,30727
32860,43740,30680
32888,43766,30772
32876,43783,30724
32878,43807,30644
32869,43804,30722
32908,43792,30672
32780,43761,30783
32756,43748,30660
32704,43724,30756
32784,43655,30584
32824,43727,30588
32832,43749,30608
32820,43783,30582
32836,43793,30529
32852,43756,30594
32880,43783,30544
32888,43764,30529
32912,43724,30597
32896,43711,30468
32820,43680,30496
32744,43724,30448
32752,43741,30389
32788,43756,30564
32737,43764,30402
32764,43783,30388
32812,43759,30416
32844,43720,30441
32892,43719,30386
32900,43680,30391
32896,43682,30346
32884,43702,30345
32904,43716,30253
32833,43708,30428
32764,43757,30304
32733,43767,30212
32673,43752,30336
32706,43713,30252
32785,43708,30183
32812,43687,30215
32842,43660,30204
32856,43687,30332
32860,43708,30168
32840,43735,30170
32780,43702,30169
32764,43741,30191
32742,43740,30136
32796,43717,30180
32808,43676,30054
32820,43617,30141
32828,43655,30052
32836,43660,30164
32744,43703,30085
32740,43705,30188
32781,43734,30037
32684,43738,30045
32724,43726,29967
32744,43711,30137
32800,43625,30037
32813,43652,29948
32816,43628,30055
32834,43629,30028
32852,43672,30048
32856,43706,29996
32744,43716,29940
32700,43664,30029
32744,43702,29992
32816,43679,29993
32848,43653,30036
32868,43647,29976
32749,43604,29967
32752,43640,29980
32804,43671,30003
32800,43663,29996
32740,43695,29975
32737,43708,29924
32832,43685,30080
32836,43669,30004
32844,43628,29958
32884,43623,30143
32896,43623,30004
32852,43620,29965
32800,43647,30086
32696,43632,30041
32740,43684,29996
32828,43684,30200
32848,43645,30044
32767,43653,30079
32728,43631,30172
32766,43612,30078
32842,43607,30086
32858,43612,30149
32854,43636,30116
32852,43655,30156
32856,43668,30212
32876,43676,30150
32772,43668,30168
32720,43636,30308
32724,43620,30201
32700,43602,30236
32708,43599,30175
32772,43605,30372
32774,43622,30244
32796,43616,30228
32812,43655,30412
32816,43663,30281
32844,43605,30261
32840,43628,30350
32848,43601,30372
32752,43564,30316
32748,43589,30498
32768,43591,30384
32696,43607,30357
32701,43629,30458
32700,43645,30471
32752,43621,30404
32820,43641,30605
32830,43620,30476
32841,43590,30479
32856,43572,30652
32880,43568,30654
32869,43565,30549
32750,43602,30536
32734,43596,30606
32692,43636,30597
32712,43645,30759
32736,43573,30655
32796,43604,30657
32824,43576,30844
32824,43560,30713
32848,43544,30727
32820,43561,30892
32852,43566,30789
32820,43596,30763
32764,43621,30903
32748,43565,30871
32821,43607,30997
32844,43583,30864
32748,43567,30845
32732,43551,30989
32712,43527,30948
32764,43527,31052
32797,43564,30953
32820,43584,30955
32829,43606,31022
32820,43572,30983
32856,43592,31079
32781,43564,31056
32744,43543,31109
32740,43518,31028
32800,43516,31085
32828,43514,31204
32856,43547,31112
32876,43556,31169
32864,43580,31107
32881,43583,31100
32872,43527,31253
32857,43543,31200
32880,43513,31200
32924,43492,31183
32916,43493,31199
32872,43493,31337
32844,43478,31237
32848,43540,31222
32848,43567,31263
32896,43565,31239
32884,43527,31354
32860,43521,31299
32828,43489,31397
32840,43474,31319
32846,43457,31455
32772,43485,31367
32768,43439,31366
32717,43524,31484
32708,43543,31407
32664,43494,31464
32628,43527,31430
32628,43508,31600
32688,43477,31486
32726,43450,31502
32676,43449,31632
32672,43452,31557
32656,43473,31588
32644,43447,31652
32704,43519,31608
32664,43512,31652
32701,43492,31770
32762,43478,31660
32796,43450,31658
32784,43444,31716
32791,43415,31713
32764,43399,31849
32668,43454,31777
32656,43473,31813
32712,43495,31805
32712,43500,31813
32740,43484,31918
32648,43413,31844
32721,43428,31862
32800,43423,31852
32840,43381,31944
32816,43415,31944
32800,43440,31938
32772,43468,31988
32788,43470,31992
32748,43476,31948
32700,43468,31956
32708,43447,32073
32732,43423,32000
32672,43399,32013
32684,43393,32006
32708,43381,32096
32764,43415,32066
32812,43436,32028
32812,43447,32163
32828,43468,32118
32821,43438,32093
32808,43428,32081
32712,43375,32189
32736,43380,32100
32756,43367,32092
32768,43380,32217
32772,43399,32129
32772,43420,32108
32810,43436,32190
32816,43452,32134
32820,43436,32141
32860,43367,32253
32864,43381,32248
32908,43321,32146
32920,43354,32182
32868,43340,32156
32721,43388,32287
32681,43408,32222
32663,43422,32188
32632,43420,32213
32588,43408,32173
32620,43396,32300
32708,43371,32246
32764,43348,32233
32780,43332,32207
32788,43298,32208
32716,43377,32216
32708,43399,32263
32712,43405,32337
32764,43372,32328
32820,43399,32233
32832,43385,32268
32828,43367,32242
32832,43330,32331
32776,43327,32388
32692,43339,32297
32684,43358,32330
32608,43383,32281
32660,43364,32381
32674,43399,32352
32712,43397,32317
32730,43361,32428
32780,43328,32440
32832,43325,32367
32856,43260,32383
32842,43320,32409
32748,43349,32459
32673,43377,32484
32696,43387,32426
32736,43396,32472
32676,43376,32452
32673,43348,32502
32732,43278,32584
32732,43308,32505
32768,43312,32530
32760,43319,32516
32780,43319,32636
32824,43361,32560
32832,43373,32561
32840,43384,32669
32749,43364,32613
32694,43350,32645
32684,43326,32620
32744,43297,32725
32748,43261,32665
32796,43301,32677
32812,43320,32706
32829,43344,32756
32860,43364,32744
32828,43333,32725
32728,43367,32832
32720,43332,32780
32756,43252,32804
32800,43295,32866
32820,43280,32836
32808,43295,32856
32808,43302,32823
32868,43293,32920
32928,43347,32888
32824,43372,32884
32812,43356,32993
32780,43330,32920
32816,43253,32941
32869,43277,33020
32844,43249,32972
32848,43280,32999
32880,43309,32978
32848,43330,33078
32864,43320,33094
32856,43337,33039
32872,43337,33052
32904,43316,33125
32909,43287,33071
32812,43236,33093
32756,43264,33189
32780,43236,33141
32869,43301,33136
32764,43319,33146
32792,43317,33222
32844,43341,33160
32862,43303,33188
32872,43315,33165
32896,43288,33274
32872,43264,33193
32840,43259,33209
32748,43244,33273
32736,43297,33208
32712,43324,33271
32664,43337,33237
32732,43342,33256
32761,43330,33255
32776,43303,33228
32816,43276,33324
32827,43255,33263
32725,43253,33311
32796,43255,33287
32784,43278,33265
32816,43261,33344
32836,43326,33278
32872,43340,33284
32868,43316,33348
32868,43301,33287
32890,43269,33260
32900,43258,33335
32910,43244,33289
32900,43257,33273
32888,43248,33337
32901,43300,33308
32880,43319,33321
32928,43324,33333
32829,43324,33308
32804,43303,33364
32840,43269,33308
32880,43252,33312
32892,43246,33312
32884,43262,33367
32868,43271,33316
32829,43263,33290
32852,43320,33350
32869,43326,33316
32864,43318,33311
32852,43292,33396
32864,43215,33332
32784,43252,33356
32780,43245,33337
32800,43256,33399
32704,43271,33338
32680,43307,33313
32740,43271,33376
32752,43322,33352
32672,43286,33356
32656,43297,33367
32612,43226,33364
32616,43248,33358
32676,43250,33406
32632,43254,33373
32628,43271,33384
32618,43301,33385
32612,43317,33381
32680,43325,33380
32656,43316,33439
32672,43301,33376
32687,43268,33365
32788,43257,33452
32816,43247,33401
32815,43252,33388
32820,43245,33441
32808,43303,33418
32764,43313,33400
32736,43334,33440
32684,43317,33440
32676,43300,33444
32744,43268,33455
32704,43192,33460
32744,43241,33424
32792,43192,33501
32818,43279,33516
32800,43307,33494
32804,43276,33457
32808,43321,33481
32712,43271,33492
32672,43292,33534
32716,43271,33529
32764,43259,33483
32808,43240,33503
32789,43259,33467
32720,43278,33565
32656,43300,33564
32660,43324,33573
32720,43316,33561
32780,43312,33570
32816,43296,33524
32788,43271,33540
32780,43263,33528
32804,43255,33518
32752,43255,33516
32680,43223,33570
32724,43303,33580
32696,43333,33608
32712,43283,33624
32756,43316,33612
32765,43303,33572
32740,43264,33568
32776,43248,33581
32808,43258,33597
32804,43245,33592
32812,43271,33581
32780,43312,33620
32780,43332,33663
32788,43328,33652
32816,43321,33605
32888,43300,33636
32876,43268,33641
32800,43229,33624
32716,43247,33637
32762,43252,33704
32824,43300,33671
32836,43308,33647
32796,43303,33668
32844,43332,33658
32892,43324,33711
32876,43309,33692
32920,43287,33681
32933,43264,33687
32940,43215,33671
32844,43268,33741
32760,43236,33736
32789,43319,33692
32728,43295,33713
32749,43348,33772
32848,43340,33714
32820,43320,33732
32836,43292,33732
32848,43271,33777
32872,43269,33779
32878,43279,33748
32868,43252,33765
32889,43325,33749
32924,43352,33807
32784,43358,33773
32776,43344,33794
32716,43321,33793
32764,43303,33798
32824,43271,33781
32868,43271,33845
32896,43280,33816
32848,43271,33828
32848,43332,33807
32872,43359,33860
32836,43373,33893
32760,43359,33842
32784,43341,33850
32828,43317,33849
32836,43288,33910
32864,43280,33860
32892,43297,33878
32896,43321,33875
32936,43336,33925
32912,43375,33892
32900,43372,33916
32893,43320,33892
32884,43348,33924
32916,43329,33948
32908,43301,33935
32932,43296,33975
32812,43324,33955
32661,43332,33961
32656,43360,33944
32692,43373,34012
32692,43389,34017
32740,43389,33983
32788,43367,34014
32836,43342,33996
32864,43311,33997
32784,43311,34049
32789,43328,34080
32812,43350,34081
32778,43376,34044
32804,43398,34069
32840,43412,34063
32844,43356,34052
32824,43377,34130
32720,43357,34132
32664,43343,34101
32700,43333,34121
32748,43348,34149
32797,43365,34181
32830,43389,34164
32848,43398,34164
32736,43420,34148
32752,43399,34228
32796,43399,34181
32808,43381,34205
32712,43360,34212
32712,43359,34249
32768,43354,34232
32764,43372,34249
32776,43409,34287
32801,43428,34277
32808,43436,34274
32825,43425,34266
32846,43412,34297
32856,43391,34340
32848,43376,34329
32866,43360,34320
32845,43368,34324
32865,43392,34368
32868,43425,34362
32876,43438,34366
32869,43399,34360
32748,43447,34415
32780,43396,34395
32826,43399,34404
32832,43375,34404
32852,43385,34428
32869,43390,34445
32868,43417,34437
32860,43431,34453
32836,43461,34444
32844,43477,34488
32877,43468,34471
32892,43449,34487
32872,43425,34476
32864,43407,34521
32864,43396,34548
32832,43404,34520
32788,43429,34529
32732,43431,34544
32816,43476,34559
32808,43453,34561
32812,43488,34600
32852,43466,34620
32840,43444,34608
32836,43421,34617
32868,43429,34628
32844,43421,34664
32844,43452,34668
32840,43492,34657
32836,43501,34710
32816,43511,34689
32784,43501,34717
32692,43493,34725
32688,43470,34725
32664,43422,34719
32656,43447,34780
32688,43460,34812
32660,43484,34800
32656,43503,34805
32664,43524,34812
32644,43527,34836
32688,43520,34858
32653,43505,34868
32648,43495,34895
32640,43469,34898
32628,43471,34905
32640,43476,34921
32694,43485,34965
32740,43526,34975
32688,43549,34960
32756,43554,34980
32780,43537,35028
32740,43535,35015
32756,43519,35020
32800,43492,35072
32804,43487,35049
32816,43503,35072
32732,43527,35089
32772,43550,35118
32820,43516,35125
32820,43588,35138
32829,43583,35144
32736,43557,35173
32728,43540,35173
32728,43524,35188
32764,43521,35209
32804,43527,35212
32812,43541,35218
32824,43540,35235
32810,43591,35244
32812,43550,35292
32740,43593,35273
32728,43548,35288
32792,43556,35292
32833,43492,35324
32752,43543,35335
32752,43500,35325
32792,43576,35329
32780,43600,35376
32800,43631,35356
32769,43604,35375
32717,43629,35396
32709,43612,35382
32760,43599,35384
32832,43573,35400
32842,43527,35404
32840,43573,35407
32836,43592,35412
32820,43631,35412
32776,43655,35416
32704,43665,35425
32680,43652,35416
32760,43645,35406
32761,43587,35422
32748,43592,35429
32748,43604,35420
32736,43607,35417
32758,43620,35413
32800,43605,35407
32796,43661,35404
32812,43648,35404
32828,43687,35384
32812,43655,35372
32756,43639,35392
32720,43596,35364
32684,43616,35346
32732,43628,35356
32720,43655,35333
32712,43684,35305
32772,43702,35296
32820,43720,35308
32828,43708,35291
32769,43636,35257
32748,43660,35249
32712,43652,35221
32764,43624,35215
32832,43655,35224
32810,43686,35189
32832,43652,35180
32864,43737,35156
32828,43748,35152
32774,43713,35140
32692,43716,35132
32708,43692,35105
32748,43680,35105
32796,43679,35105
32832,43695,35085
32789,43700,35092
32760,43737,35065
32804,43750,35028
32756,43769,35016
32764,43771,35012
32728,43748,34999
32752,43716,34989
32792,43705,34967
32824,43685,34957
32836,43717,34948
32856,43733,34944
32840,43762,34932
32820,43740,34936
32812,43804,34944
32740,43782,34918
32736,43772,34920
32676,43756,34909
32724,43732,34900
32746,43716,34888
32732,43733,34880
32776,43764,34873
32820,43794,34874
32854,43813,34879
32864,43773,34857
32864,43823,34836
32852,43805,34820
32853,43759,34884
32789,43764,34876
32840,43764,34847
32788,43757,34817
32766,43796,34822
32728,43820,34812
32764,43812,34821
32812,43853,34798
32832,43847,34780
32856,43821,34823
32872,43812,34814
32872,43749,34768
32898,43783,34760
32800,43805,34740
32738,43813,34738
32756,43837,34725
32704,43872,34756
32688,43877,34759
32784,43868,34737
32816,43853,34725
32813,43816,34713
32828,43813,34681
32760,43817,34655
32780,43820,34632
32824,43853,34622
32852,43876,34604
32888,43909,34575
32892,43911,34597
32888,43908,34576
32877,43877,34592
32876,43861,34542
32868,43799,34528
32872,43836,34521
32868,43850,34501
32825,43880,34456
32824,43849,34428
32876,43925,34428
32900,43935,34406
32884,43928,34369
32916,43903,34360
32884,43885,34349
32876,43865,34360
32862,43872,34340
32864,43879,34310
32868,43860,34264
32888,43921,34260
32864,43901,34221
32754,43966,34268
32752,43952,34254
32768,43949,34172
32800,43919,34167
32836,43900,34136
32869,43902,34167
32864,43911,34117
32748,43937,34111
32648,43968,34061
32608,43986,34039
32636,44005,34104
32608,43996,34037
32656,43968,34004
32620,43920,34002
32624,43932,33980
32644,43924,33941
32612,43943,33992
32644,43965,33953
32588,43982,33905
32620,44016,33908
32660,43996,33858
32640,44022,33837
32656,43997,33860
32692,43911,33894
32752,43957,33864
32712,43946,33786
32756,43911,33783
32780,43988,33764
32776,44014,33748
32696,44026,33714
32712,44052,33774
32728,44052,33756
32740,44026,33681
32784,43988,33689
32780,43999,33645
32700,43980,33627
32684,43989,33671
32740,44008,33678
32796,44039,33665
32808,44060,33668
32808,44085,33656
32733,44076,33647
32704,44044,33636
32720,43990,33566
32704,44024,33512
32761,44006,33523
32818,44028,33509
32832,44055,33500
32864,44039,33477
32892,44103,33438
32872,44104,33489
32756,44039,33516
32700,44090,33441
32713,44061,33409
32660,44021,33404
32680,44039,33361
32740,44056,33406
32752,44020,33423
32820,44111,33380
32828,44124,33324
32842,44144,33311
32857,44132,33304
32836,44124,33287
32804,44089,33281
32776,44079,33277
32780,44062,33268
32780,44080,33252
32765,44104,33252
32752,44076,33248
32716,44159,33252
32708,44166,33248
32768,44167,33210
32712,44140,33252
32772,44124,33306
32832,44060,33245
32749,44096,33285
32784,44105,33261
32800,44134,33199
32844,44096,33191
32804,44191,33220
32806,44188,33250
32800,44183,33260
32836,44167,33249
32913,44117,33221
32928,44128,33175
32916,44124,33145
32864,44140,33145
32848,44141,33143
32800,44183,33128
32741,44161,33101
32752,44212,33205
32816,44217,33205
32776,44196,33160
32788,44159,33108
32841,44145,33079
32836,44149,33076
32856,44159,33071
32856,44183,33084
32824,44215,33092
32840,44239,33025
32816,44251,33140
32780,44233,33103
32797,44206,33029
32800,44180,33056
32736,44180,33031
32764,44167,32997
32788,44175,32981
32836,44197,32980
32844,44238,32972
32821,44222,32967
32816,44263,32942
32832,44248,32993
32816,44228,33004
32848,44159,33058
32784,44189,32949
32733,44193,32960
32776,44161,32940
32784,44231,32900
32768,44244,32887
32760,44272,32945
32812,44273,32999
32841,44268,32970
32892,44248,32932
32884,44228,32871
32872,44228,32884
32872,44204,32848
32856,44167,32879
32764,44236,32940
32784,44271,32952
32844,44292,32908
32780,44277,32850
32785,44260,32887
32781,44268,32933
32812,44251,32927
32832,44236,32837
32824,44221,32797
32839,44250,32799
32840,44265,32812
32864,44292,32813
32910,44277,32808
32897,44320,32810
32856,44302,32791
32852,44241,32789
32868,44260,32834
32880,44256,32764
32920,44246,32768
32808,44255,32737
32708,44289,32772
32704,44317,32868
32660,44328,32775
32684,44323,32744
32640,44332,32763
32664,44309,32725
32712,44288,32710
32736,44273,32820
32776,44276,32821
32781,44277,32733
32680,44308,32712
32660,44335,32740
32696,44350,32752
32792,44356,32719
32820,44295,32736
32844,44325,32718
32860,44304,32702
32868,44295,32712
32888,44293,32736
32876,44295,32728
32884,44295,32744
32848,44349,32704
32868,44379,32708
32860,44383,32728
32881,44320,32729
32869,44352,32727
32884,44332,32716
32877,44265,32724
32724,44295,32696
32768,44312,32708
32848,44344,32692
32849,44365,32669
32842,44399,32789
32852,44364,32756
32852,44391,32688
32869,44375,32657
32888,44356,32682
32868,44332,32659
32816,44324,32652
32760,44285,32676
32700,44370,32672
32661,44388,32647
32692,44412,32620
32640,44361,32619
32640,44420,32615
32644,44389,32605
32625,44373,32672
32670,44335,32713
32640,44347,32717
32648,44352,32719
32600,44383,32704
32668,44404,32709
32712,44423,32676
32648,44439,32598
32720,44436,32538
32793,44404,32572
32760,44332,32568
32797,44364,32565
32805,44372,32516
32741,44332,32547
32760,44399,32617
32836,44428,32567
32828,44415,32540
32872,44452,32468
32868,44453,32471
32872,44436,32432
32892,44354,32444
32896,44390,32456
32924,44391,32423
32948,44348,32409
32821,44412,32381
32816,44448,32359
32778,44431,32428
32812,44474,32495
32752,44409,32440
32768,44445,32336
32849,44428,32354
32856,44415,32358
32856,44396,32356
32864,44354,32322
32872,44424,32268
32880,44469,32387
32797,44486,32372
32756,44491,32268
32772,44478,32263
32744,44461,32252
32740,44444,32234
32788,44426,32226
32838,44404,32252
32848,44438,32245
32896,44431,32231
32908,44469,32218
32880,44452,32161
32852,44508,32148
32824,44505,32260
32824,44484,32281
32836,44454,32284
32752,44444,32193
32788,44444,32129
32836,44449,32135
32804,44458,32134
32804,44503,32127
32836,44510,32124
32856,44519,32092
32868,44512,32056
32877,44501,32113
32872,44445,32180
32856,44448,32056
32864,44447,32036
32880,44444,32058
32852,44476,32046
32872,44509,32036
32864,44477,32004
32764,44536,32036
32732,44529,32007
32744,44452,31996
32728,44488,31949
32748,44481,32006
32712,44469,32071
32709,44468,32064
32788,44450,31957
32828,44508,31941
32792,44548,31935
32812,44549,31892
32806,44549,31938
32740,44524,32015
32720,44497,31884
32772,44476,31908
32812,44462,31863
32858,44484,31824
32732,44496,31969
32764,44528,31863
32796,44546,31854
32799,44551,31849
32796,44547,31782
32809,44524,31945
32842,44500,31788
32852,44480,31804
32756,44485,31810
32728,44494,31791
32766,44512,31745
32796,44538,31836
32824,44509,31884
32852,44563,31780
32756,44551,31733
32760,44532,31751
32752,44516,31759
32748,44500,31693
32720,44496,31832
32704,44505,31800
32780,44486,31716
32807,44541,31690
32804,44574,31720
32848,44575,31680
32828,44565,31646
32836,44545,31652
32842,44520,31698
32864,44497,31756
32892,44498,31796
32800,44511,31672
32704,44530,31676
32736,44551,31657
32696,44577,31654
32697,44581,31676
32774,44572,31655
32820,44551,31648
32824,44525,31604
32836,44506,31597
32837,44469,31580
32868,44506,31571
32868,44538,31712
32908,44540,31724
32900,44577,31626
32888,44582,31620
32868,44542,31578
32788,44550,31619
32744,44536,31609
32716,44514,31564
32736,44511,31684
32764,44521,31564
32821,44529,31596
32832,44573,31617
32752,44589,31564
32805,44590,31546
32816,44534,31540
32784,44560,31692
32820,44536,31680
32824,44525,31559
32788,44516,31593
32741,44532,31530
32736,44548,31702
32780,44572,31552
32808,44585,31596
32860,44613,31588
32860,44580,31562
32880,44568,31536
32896,44550,31632
32892,44525,31632
32900,44508,31554
32896,44528,31543
32876,44506,31669
32904,44569,31568
32932,44536,31596
32901,44601,31533
32804,44600,31613
32822,44569,31644
32813,44492,31623
32832,44541,31621
32824,44533,31660
32836,44534,31599
32832,44548,31612
32840,44597,31716
32856,44597,31751
32856,44580,31652
32852,44600,31695
32896,44580,31653
32893,44551,31829
32876,44551,31744
32873,44536,31766
32844,44550,31764
32748,44580,31956
32789,44593,31844
32828,44607,31916
32820,44623,31881
32820,44609,32081
32782,44594,32013
32789,44567,32060
32804,44551,32124
32748,44549,32168
32690,44543,32169
32656,44581,32208
32648,44548,32276
32620,44623,32357
32632,44636,32380
32616,44623,32493
32636,44607,32504
32700,44591,32516
32652,44551,32550
32640,44544,32727
32613,44564,32684
32628,44534,32708
32673,44612,32804
32664,44636,32820
32710,44636,32900
32748,44639,33031
32820,44608,32976
32788,44588,33071
32692,44575,33085
32702,44561,33267
32716,44573,33276
32760,44580,33284
32824,44621,33300
32828,44653,33460
32844,44620,33413
32866,44637,33494
32852,44572,33503
32730,44598,33625
32652,44596,33701
32700,44583,33646
32716,44580,33709
32788,44608,33741
32776,44602,33854
32781,44646,33792
32796,44631,33844
32828,44645,33823
32833,44642,33961
32836,44622,33884
32872,44592,33927
32752,44591,34020
32768,44600,33945
32804,44604,33977
32820,44667,34055
32712,44676,34092
32752,44686,34013
32800,44668,34038
32822,44597,34000
32860,44628,34117
32856,44600,34021
32772,44608,34032
32808,44592,34106
32766,44644,34032
32789,44678,34040
32797,44644,34125
32812,44695,34063
32784,44633,34037
32824,44660,34076
32808,44608,34093
32784,44631,34032
32700,44639,34041
32734,44631,34055
32772,44664,34080
32708,44692,34000
32692,44708,34001
32776,44662,33989
32784,44708,34052
32806,44703,33965
32848,44679,33961
32872,44608,34012
32865,44663,33984
32832,44613,33948
32800,44689,33892
32694,44727,33952
32688,44726,33903
32756,44692,33876
32736,44736,33844
32780,44732,33903
32828,44676,33900
32792,44689,33798
32773,44692,33798
32772,44711,33788
32752,44724,33695
32764,44764,33828
32756,44783,33735
32749,44788,33708
32760,44788,33798
32776,44773,33709
32768,44746,33704
32772,44733,33700
32797,44733,33684
32738,44744,33633
32712,44760,33647
32760,44728,33609
32686,44820,33718
32672,44807,33609
32740,44828,33626
32733,44815,33600
32765,44792,33573
32772,44783,33684
32788,44736,33674
32828,44792,33583
32832,44820,33585
32728,44845,33543
32736,44878,33634
32828,44860,33612
32836,44885,33568
32772,44853,33513
32752,44844,33638
32812,44828,33575
32852,44820,33551
32873,44839,33493
32860,44871,33573
32844,44900,33525
32816,44924,33557
32788,44884,33524
32756,44935,33486
32752,44917,33464
32760,44908,33561
32804,44884,33445
32852,44895,33430
32848,44902,33537
32804,44927,33424
32732,44961,33396
32716,44983,33465
32789,44993,33428
32828,44996,33389
32816,44977,33332
32744,44956,33444
32772,44940,33305
32788,44943,33281
32820,44901,33312
32809,44972,33284
32812,45012,33332
32832,45045,33223
32840,45044,33215
32832,45044,33252
32728,45024,33159
32720,45010,33167
32684,45006,33100
32716,45005,33192
32696,45016,33108
32750,45040,33036
32788,45030,33158
32813,45093,33045
32808,45053,33016
32808,45104,33077
32832,45100,32944
32732,45081,32958
32712,45060,33009
32764,45063,32877
32752,45088,32887
32704,45114,32911
32752,45140,32857
32832,45172,32820
32840,45185,32740
32852,45125,32786
32852,45161,32722
32856,45156,32836
32852,45140,32697
32865,45092,32644
32876,45145,32652
32912,45168,32564
32893,45201,32687
32808,45241,32541
32796,45252,32558
32840,45249,32469
32848,45228,32564
32838,45216,32458
32829,45204,32452
32812,45204,32369
32820,45209,32495
32829,45247,32364
32844,45277,32335
32852,45308,32345
32808,45312,32302
32728,45312,32353
32708,45293,32375
32668,45289,32223
32672,45279,32239
32704,45264,32217
32657,45230,32156
32676,45319,32245
32640,45340,32225
32616,45362,32103
32652,45397,32100
32628,45391,32036
32560,45380,32168
32624,45365,32096
32604,45349,32044
32708,45351,31974
32744,45367,32045
32796,45396,31990
32792,45417,31968
32760,45412,31925
32820,45447,31980
32860,45452,31982
32820,45447,31881
32781,45407,31815
32797,45415,31920
32816,45414,31864
32824,45424,31820
32856,45402,31820
32872,45485,31902
32877,45469,31765
32888,45532,31768
32916,45524,31724
32857,45518,31820
32760,45509,31773
32708,45496,31740
32708,45494,31652
32796,45508,31832
32816,45540,31706
32800,45564,31668
32808,45536,31697
32844,45607,31689
32864,45607,31676
32845,45597,31580
32813,45562,31685
32729,45556,31761
32728,45521,31628
32780,45575,31620
32824,45608,31554
32865,45644,31669
32804,45604,31661
32796,45674,31576
32764,45676,31596
32800,45666,31612
32836,45637,31541
32856,45604,31726
32781,45644,31572
32800,45581,31607
32792,45676,31512
32828,45664,31719
32848,45735,31623
32856,45703,31604
32852,45751,31570
32836,45740,31581
32805,45727,31695
32756,45703,31588
32753,45711,31583
32804,45739,31621
32720,45756,31645
32764,45780,31585
32796,45813,31612
32820,45821,31633
32829,45816,31612
32836,45796,31556
32820,45788,31666
32828,45772,31757
32816,45769,31640
32788,45796,31652
32768,45823,31635
32749,45860,31701
32732,45871,31678
32696,45888,31612
32744,45887,31804
32692,45873,31656
32652,45852,31634
32668,45831,31751
32736,45844,31685
32784,45855,31687
32824,45893,31610
32780,45911,31751
32672,45932,31700
32692,45956,31679
32716,45945,31636
32716,45904,31717
32696,45920,31640
32764,45887,31648
32800,45901,31564
32832,45916,31681
32848,45940,31676
32880,45972,31597
32892,45997,31607
32876,46008,31524
32917,46004,31701
32869,45988,31588
32752,45975,31540
32704,45914,31552
32708,45959,31484
32668,45979,31546
32668,45999,31514
32652,46028,31509
32632,46028,31422
32732,46061,31511
32668,46049,31482
32704,46052,31408
32748,46016,31445
32752,46017,31372
32780,45977,31317
32768,46024,31432
32796,46052,31417
32800,46020,31317
32744,46108,31354
32720,46108,31306
32708,46119,31252
32764,46038,31294
32808,46081,31348
32812,46076,31239
32800,46071,31252
32764,46080,31249
32804,46053,31284
32796,46125,31228
32828,46136,31164
32816,46177,31292
32728,46173,31168
32708,46152,31124
32764,46132,31125
32788,46116,31256
32808,46112,31095
32800,46086,31102
32824,46156,30999
32854,46188,31213
32896,46212,31058
32792,46210,31068
32765,46221,30972
32709,46156,31077
32752,46170,31028
32748,46160,31013
32808,46161,30965
32808,46173,31106
32813,46167,30945
32876,46223,30953
32888,46245,30861
32896,46269,30976
32910,46260,30953
32936,46256,30825
32844,46218,31040
32856,46191,30864
32864,46215,30822
32796,46164,30866
32800,46247,31008
32804,46269,30857
32844,46304,30868
32916,46301,30797
32928,46308,30953
32900,46292,30817
32912,46271,30716
32928,46231,30937
32956,46255,30772
32948,46260,30684
32952,46279,30900
32952,46260,30741
32952,46332,30650
32948,46342,30809
32944,46329,30736
32941,46285,30726
32941,46300,30711
32926,46300,30624
32916,46287,30796
32884,46249,30700
32865,46312,30586
32832,46343,30762
32868,46375,30791
32872,46392,30658
32904,46375,30640
32904,46305,30636
32932,46343,30734
32957,46332,30626
32936,46320,30539
32896,46335,30752
32820,46316,30616
32720,46385,30624
32696,46337,30740
32746,46405,30609
32740,46421,30576
32752,46407,30621
32705,46382,30632
32700,46343,30589
32752,46357,30558
32708,46373,30700
32676,46400,30577
32744,46428,30556
32752,46436,30577
32808,46457,30588
32744,46452,30612
32760,46432,30504
32816,46388,30580
32828,46403,30716
32876,46382,30620
32902,46389,30565
32889,46414,30609
32876,46455,30497
32801,46470,30665
32744,46476,30621
32744,46456,30578
32795,46447,30468
32780,46405,30689
32709,46420,30556
32764,46359,30504
32800,46428,30631
32786,46447,30580
32806,46471,30578
32832,46505,30488
32824,46508,30481
32756,46501,30620
32748,46500,30725
32790,46457,30594
32840,46447,30568
32864,46440,30586
32856,46460,30487
32880,46471,30703
32886,46500,30597
32904,46533,30720
32905,46532,30612
32892,46532,30493
32881,46511,30628
32893,46493,30582
32888,46471,30625
32904,46396,30509
32824,46470,30722
32692,46460,30586
32648,46532,30631
32694,46542,30548
32677,46533,30656
32672,46540,30596
32728,46532,30616
32752,46524,30501
32788,46488,30695
32804,46455,30568
32828,46503,30532
32860,46516,30703
32868,46516,30559
32856,46556,30522
32833,46509,30674
32732,46562,30547
32685,46549,30566
32764,46538,30449
32812,46509,30634
32856,46471,30582
32868,46508,30556
32872,46511,30440
32856,46552,30569
32772,46580,30508
32696,46599,30556
32704,46594,30525
32741,46568,30529
32776,46538,30460
32788,46527,30493
32804,46527,30513
32856,46529,30409
32836,46554,30612
32804,46568,30494
32692,46554,30460
32664,46597,30661
32664,46599,30517
32668,46580,30532
32728,46564,30428
32772,46537,30670
32796,46523,30533
32789,46537,30558
32828,46562,30508
32840,46572,30612
32852,46599,30604
32856,46620,30572
32756,46599,30567
32748,46537,30500
32748,46572,30548
32753,46551,30727
32808,46542,30623
32736,46541,30631
32732,46539,30632
32736,46584,30556
32705,46608,30804
32713,46628,30764
32792,46615,30660
32808,46535,30704
32788,46552,30584
32744,46492,30849
32772,46537,30708
32804,46529,30668
32772,46572,30828
32724,46592,30769
32744,46544,30651
32780,46616,30814
32788,46568,30756
32788,46599,30758
32781,46562,30820
32796,46548,30789
32824,46537,30734
32828,46553,30961
32812,46567,30804
32764,46532,30778
32672,46599,30976
32684,46615,30822
32756,46620,30818
32652,46593,30860
32692,46556,30952
32776,46524,30839
32824,46540,30836
32800,46535,30904
32708,46556,30948
32724,46537,30896
32740,46599,30805
32780,46552,30942
32832,46599,30924
32856,46580,30884
32816,46548,30908
32806,46484,30917
32797,46527,30956
32717,46540,30918
32664,46560,30940
32716,46567,30912
32780,46599,30852
32806,46599,31068
32752,46599,30948
32724,46583,30958
32772,46552,30897
32808,46519,30904
32848,46517,31079
32872,46524,30977
32844,46541,30916
32804,46573,30932
32772,46533,30921
32732,46592,30951
32744,46577,30916
32736,46564,30860
32724,46532,30823
32784,46524,30880
32801,46511,30942
32764,46484,31035
32764,46538,31038
32748,46554,30933
32736,46573,30885
32768,46576,30903
32783,46583,30905
32788,46556,30798
32812,46535,30998
32812,46516,30873
32829,46500,30844
32856,46455,30772
32880,46524,30964
32864,46557,30864
32828,46576,30864
32782,46569,30829
32780,46573,30882
32792,46551,30838
32844,46517,30734
32832,46493,30969
32828,46492,30837
32804,46497,30805
32744,46513,30801
32704,46536,30821
32772,46508,30814
32788,46572,30799
32732,46567,30716
32693,46509,30768
32680,46500,30896
32645,46503,30854
32688,46446,30801
32665,46492,30748
32662,46504,30735
32624,46495,30774
32630,46545,30656
32720,46556,30876
32676,46504,30873
32712,46524,30727
32732,46492,30733
32784,46416,30661
32832,46470,30825
32852,46469,30706
32876,46476,30701
32768,46511,30696
32748,46527,30625
32777,46533,30693
32780,46524,30746
32804,46509,30733
32849,46476,30615
32876,46456,30840
32872,46404,30709
32784,46438,30708
32758,46468,30682
32804,46497,30616
32860,46519,30784
32876,46524,30709
32789,46516,30676
32768,46445,30616
32796,46464,30720
32800,46436,30846
32830,46436,30704
32872,46429,30718
32892,46447,30748
32797,46464,30820
32796,46493,30797
32832,46500,30745
32856,46497,30748
32784,46445,30772
32793,46445,30716
32804,46400,30665
32837,46408,30821
32852,46427,30884
32840,46422,30796
32848,46453,30766
32772,46471,30796
32748,46470,30762
32772,46412,30897
32804,46432,30847
32836,46404,30782
32852,46392,30805
32877,46380,30727
32880,46337,30828
32896,46394,30905
32801,46430,30804
32800,46436,30784
32741,46436,30822
32776,46424,30788
32808,46428,30727
32800,46389,30792
32844,46369,30831
32784,46356,30792
32805,46359,30892
32832,46356,30881
32809,46385,30785
32772,46428,30767
32774,46362,30780
32760,46416,30756
32672,46388,30661
32692,46349,30910
32748,46332,30789
32796,46329,30720
32724,46333,30681
32704,46332,30654
32760,46375,30689
32796,46352,30843
32814,46388,30761
32740,46386,30669
32688,46343,30680
32720,46319,30546
32744,46313,30621
32797,46297,30690
32840,46300,30598
32828,46256,30620
32785,46340,30536
32764,46348,30492
32712,46311,30697
32656,46336,30528
32668,46326,30554
32704,46257,30444
32696,46269,30631
32709,46252,30500
32724,46260,30382
32748,46253,30556
32798,46305,30457
32820,46325,30409
32796,46337,30432
32780,46320,30322
32752,46304,30380
32660,46268,30401
32680,46196,30343
32748,46228,30359
32708,46236,30306
32652,46260,30200
32704,46269,30432
32748,46232,30312
32800,46294,30244
32804,46281,30249
32744,46277,30158
32716,46244,30164
32680,46164,30320
32708,46198,30252
32764,46151,30184
32784,46215,30089
32777,46246,30192
32780,46257,30206
32760,46256,30145
32753,46247,30130
32756,46231,30076
32748,46198,30119
32741,46180,30020
32756,46172,29959
32736,46162,30200
32661,46121,30088
32636,46207,30020
32708,46231,30017
32630,46220,29906
32628,46215,30153
32680,46143,30003
32652,46161,30004
32704,46140,29927
32756,46140,29888
32792,46118,29855
32788,46087,30112
32790,46167,30046
32848,46163,29929
32880,46183,29941
32856,46164,29837
32737,46156,29948
32654,46132,30086
32704,46086,29940
32716,46096,29928
32772,46055,29942
32789,46113,29939
32801,46129,29852
32840,46158,29912
32892,46153,29926
32917,46113,30094
32944,46123,29945
32948,46101,29862
32836,46070,30040
32836,46064,30008
32797,46064,29924
32840,46086,30041
32848,46103,30176
32836,46087,30106
32893,46127,30045
32920,46116,30055
32937,46068,30105
32952,46048,30071
32916,46041,30016
32948,46021,30278
32972,46020,30137
32944,46044,30101
32916,46060,30089
32910,46079,30236
32936,46083,30324
32929,46036,30222
32880,46048,30235
32824,45966,30228
32876,45998,30404
32880,45991,30353
32892,45984,30263
32924,46015,30505
32978,46020,30540
32986,46048,30512
32984,46049,30452
32972,46033,30500
32916,46030,30432
32884,45978,30544
32901,45956,30675
32924,45956,30645
32852,45959,30615
32852,45981,30684
32873,45996,30613
32876,46004,30801
32864,46008,30787
32848,45981,30780
32880,45983,30759
32901,45903,30804
32918,45924,31029
32912,45887,30909
32940,45916,30973
32988,45927,30904
32969,45958,31031
32844,45978,31183
32820,45989,31120
32864,45964,31087
32848,45952,31121
32824,45924,31188
32729,45897,31188
32692,45884,31151
32672,45885,31232
32644,45844,31381
32716,45921,31276
32680,45941,31308
32685,45942,31324
32648,45940,31425
32609,45909,31404
32640,45829,31329
32588,45845,31542
32648,45852,31436
32644,45856,31438
32644,45860,31458
32680,45889,31532
32609,45903,31460
32568,45901,31477
32608,45892,31552
32680,45863,31572
32756,45860,31469
32740,45828,31518
32756,45812,31516
32768,45817,31452
32762,45825,31428
32768,45821,31613
32736,45869,31466
32696,45877,31495
32712,45872,31421
32724,45831,31407
32768,45821,31540
32804,45785,31458
32837,45775,31480
32828,45708,31407
32704,45796,31584
32672,45768,31454
32736,45831,31397
32812,45844,31431
32824,45831,31380
32732,45804,31316
32692,45788,31296
32728,45759,31492
32793,45741,31385
32740,45742,31312
32736,45756,31334
32768,45785,31314
32784,45795,31305
32752,45798,31297
32784,45729,31188
32824,45768,31239
32720,45741,31267
32749,45717,31356
32752,45696,31333
32796,45703,31312
32784,45702,31324
32820,45740,31263
32836,45759,31173
32853,45740,31119
32860,45751,31141
32864,45732,31112
32848,45703,31025
32768,45676,31086
32748,45596,31207
32728,45661,31058
32736,45672,31039
32788,45700,31050
32828,45709,31006
32853,45672,30927
32848,45712,30962
32844,45693,31083
32852,45665,30949
32788,45637,30983
32773,45597,30973
32788,45615,30905
32840,45591,30908
32849,45671,30980
32768,45629,30892
32804,45676,30865
32856,45676,30893
32832,45650,30915
32830,45628,30888
32856,45599,30858
32756,45575,30908
32809,45575,30833
32804,45593,30759
32812,45575,30938
32840,45632,30798
32864,45589,30820
32872,45636,30721
32868,45607,30904
32896,45575,30876
32928,45556,30841
32888,45538,30878
32776,45492,30773
32748,45558,30788
32720,45575,30676
32736,45599,30873
32764,45602,30806
32796,45588,30724
32832,45572,30748
32856,45536,30692
32852,45492,30649
32876,45492,30639
32840,45504,30812
32780,45471,30805
32756,45532,30830
32796,45562,30809
32828,45566,30698
32784,45559,30710
32816,45524,30661
32801,45495,30630
32845,45479,30824
32837,45464,30721
32836,45453,30689
32836,45479,30742
32824,45447,30697
32796,45527,30637
32712,45521,30704
32744,45493,30752
32780,45484,30842
32816,45465,30718
32840,45441,30740
32772,45421,30666
32728,45365,30833
32716,45437,30733
32789,45462,30727
32844,45468,30663
32868,45500,30682
32780,45476,30813
32756,45461,30764
32776,45424,30669
32816,45401,30830
32852,45377,30774
32876,45388,30724
32884,45414,30756
32864,45428,30660
32848,45444,30752
32768,45455,30710
32805,45447,30692
32792,45416,30749
32812,45336,30807
32800,45365,30689
32816,45356,30689
32820,45365,30674
32804,45380,30741
32804,45396,30692
32768,45412,30589
32800,45431,30704
32832,45380,30659
32886,45388,30773
32908,45366,30623
32880,45343,30629
32760,45285,30537
32754,45319,30713
32808,45341,30572
32900,45362,30533
32900,45388,30678
32909,45388,30559
32885,45389,30520
32881,45361,30653
32901,45329,30521
32910,45303,30471
32908,45301,30528
32892,45300,30612
32892,45316,30501
32870,45337,30465
32800,45355,30628
32745,45350,30468
32700,45349,30438
32668,45328,30556
32728,45311,30449
32700,45272,30406
32692,45223,30422
32692,45252,30548
32664,45284,30456
32708,45304,30357
32676,45268,30488
32688,45316,30441
32701,45319,30335
32700,45284,30512
32728,45268,30388
32732,45247,30428
32784,45236,30433
32804,45228,30400
32853,45238,30367
32868,45204,30415
32884,45265,30402
32904,45279,30391
32837,45287,30375
32748,45248,30367
32680,45191,30316
32768,45205,30429
32836,45185,30400
32824,45191,30353
32844,45212,30343
32860,45205,30288
32844,45236,30359
32837,45252,30357
32876,45245,30303
32784,45220,30380
32740,45175,30357
32736,45158,30318
32768,45140,30312
32805,45151,30272
32772,45164,30398
32740,45188,30308
32760,45191,30253
32764,45173,30448
32764,45190,30292
32821,45152,30286
32836,45145,30262
32780,45111,30340
32696,45104,30277
32724,45046,30292
32710,45108,30287
32780,45144,30340
32825,45173,30272
32833,45156,30304
32848,45141,30288
32836,45124,30200
32868,45044,30345
32758,45076,30318
32744,45063,30290
32728,45062,30236
32772,45028,30437
32768,45092,30273
32800,45084,30301
32824,45124,30205
32852,45111,30436
32873,45030,30280
32880,45056,30242
32872,45020,30298
32754,45030,30422
32741,45020,30343
32828,45008,30282
32832,45063,30423
32720,45080,30305
32740,45093,30351
32758,45080,30255
32805,45052,30476
32824,45033,30324
32840,45008,30332
32832,44993,30398
32732,44943,30327
32728,44992,30321
32736,44972,30375
32780,45036,30376
32800,45018,30383
32812,45029,30293
32808,45005,30473
32828,44996,30381
32872,44975,30491
32892,44967,30365
32788,44960,30361
32721,44988,30485
32696,45000,30411
32724,45029,30317
32717,45024,30420
32752,45025,30430
32820,45000,30343
32828,44975,30480
32848,44949,30480
32864,44935,30410
32864,44936,30393
32836,44956,30456
32732,44980,30431
32768,44991,30418
32784,44999,30496
32728,44989,30505
32744,44964,30457
32780,44949,30431
32801,44879,30508
32816,44911,30464
32856,44869,30372
32864,44928,30588
32864,44964,30460
32864,44981,30376
32740,44980,30478
32714,44983,30471
32722,44956,30432
32676,44935,30590
32706,44908,30460
32788,44895,30388
32800,44900,30568
32776,44905,30503
32796,44935,30398
32820,44959,30612
32808,44964,30539
32736,44959,30452
32733,44948,30453
32756,44908,30405
32800,44892,30601
32813,44872,30468
32824,44886,30468
32841,44888,30388
32876,44905,30520
32856,44929,30436
32840,44935,30414
32836,44935,30591
32868,44872,30420
32868,44873,30398
32865,44833,30521
32900,44853,30415
32892,44845,30439
32748,44872,30334
32697,44886,30493
32684,44852,30388
32630,44916,30426
32688,44888,30391
32661,44885,30489
32652,44804,30345
32720,44845,30375
32760,44780,30286
32788,44831,30508
32736,44861,30405
32772,44887,30329
32784,44893,30365
32816,44864,30284
32840,44885,30445
32832,44836,30420
32856,44847,30288
32842,44807,30315
32840,44804,30231
32832,44817,30405
32820,44828,30287
32836,44852,30280
32844,44873,30176
32848,44877,30303
32864,44864,30286
32868,44859,30204
32852,44828,30144
32869,44797,30336
32840,44788,30168
32845,44740,30124
32813,44807,30236
32700,44836,30223
32756,44852,30121
32804,44868,30113
32842,44854,30048
32876,44821,30202
32856,44807,30108
32860,44784,30028
32814,44775,30215
32760,44776,30092
32744,44807,30084
32708,44820,29988
32696,44846,30201
32712,44849,30055
32712,44831,30058
32728,44820,29953
32690,44756,30052
32664,44764,30137
32660,44764,29988
32716,44750,30006
32708,44786,30023
32668,44793,30092
32690,44807,30020
32628,44836,29973
32621,44831,29924
32656,44807,30112
32624,44795,29964
32616,44750,29986
32648,44748,29884
32670,44736,30076
32656,44727,29928
32700,44789,29940
32668,44759,29854
32684,44807,30028
32752,44820,30032
32780,44796,29937
32796,44769,29940
32704,44748,29828
32736,44733,30037
32784,44725,29895
32752,44688,29889
32766,44775,29878
32765,44762,30008
32788,44796,29883
32756,44772,29897
32709,44770,29791
32756,44701,29964
32821,44725,29926
32836,44719,29844
32848,44694,29852
32804,44742,29764
32756,44757,29909
32774,44765,29817
32796,44782,29852
32828,44773,29776
32776,44757,29946
32704,44741,29832
32677,44727,29762
32700,44700,29735
32756,44696,29785
32800,44724,29922
32784,44741,29785
32776,44774,29796
32756,44768,29708
32736,44773,29812
32660,44740,29857
32664,44720,29748
32754,44672,29794
32782,44687,29706
32754,44640,29845
32752,44702,29784
32684,44724,29767
32712,44752,29703
32720,44769,29654
32684,44720,29636
32732,44729,29776
32756,44716,29809
32740,44701,29806
32704,44673,29703
32772,44692,29721
32788,44700,29612
32804,44733,29761
32792,44749,29672
32824,44753,29686
32832,44743,29636
32796,44731,29580
32736,44692,29753
32696,44677,29682
32692,44668,29565
32678,44668,29676
32676,44700,29679
32728,44709,29612
32772,44734,29652
32780,44741,29545
32679,44700,29768
32660,44718,29628
32696,44695,29601
32770,44660,29612
32808,44641,29604
32809,44661,29608
32846,44670,29585
32844,44692,29488
32828,44700,29725
32704,44719,29645
32664,44724,29585
32692,44708,29551
32680,44672,29583
32661,44580,29500
32716,44633,29469
32736,44637,29454
32764,44652,29612
32768,44671,29620
32792,44676,29500
32828,44711,29486
32876,44716,29477
32856,44672,29639
32748,44655,29596
32718,44642,29573
32724,44580,29476
32804,44628,29473
32836,44647,29480
32864,44624,29481
32872,44692,29490
32894,44701,29472
32908,44695,29377
32912,44668,29480
32912,44601,29602
32808,44629,29556
32853,44612,29521
32888,44572,29470
32908,44636,29414
32897,44606,29459
32792,44676,29361
32784,44633,29448
32858,44671,29518
32888,44619,29423
32941,44624,29373
32928,44620,29321
32924,44613,29455
32916,44607,29548
32876,44621,29403
32820,44644,29425
32822,44660,29372
32785,44679,29420
32824,44670,29432
32852,44615,29384
32785,44624,29408
32804,44600,29312
32797,44580,29408
32844,44596,29417
32748,44612,29416
32792,44577,29301
32809,44653,29540
32792,44645,29376
32832,44661,29388
32852,44647,29400
32852,44609,29391
32912,44588,29383
32924,44517,29345
32932,44581,29512
32876,44548,29381
32796,44623,29404
32800,44592,29359
32832,44646,29454
32840,44628,29375
32853,44616,29333
32788,44570,29544
32768,44581,29469
32796,44504,29375
32828,44573,29404
32876,44590,29300
32888,44612,29469
32888,44636,29375
32904,44644,29389
32924,44637,29365
32908,44621,29352
32872,44596,29406
32864,44568,29420
32868,44559,29304
32864,44567,29423
32846,44537,29540
32832,44604,29474
32720,44580,29408
32760,44647,29317
32828,44639,29550
32872,44607,29444
32852,44528,29384
32876,44560,29422
32866,44548,29336
32864,44544,29444
32856,44516,29571
32852,44596,29484
32840,44612,29423
32814,44619,29444
32817,44564,29356
32780,44596,29464
32756,44557,29524
32816,44548,29442
32829,44544,29468
32861,44540,29383
32840,44551,29575
32820,44551,29461
32820,44607,29492
32708,44621,29393
32672,44616,29634
32656,44599,29490
32616,44564,29479
32620,44537,29528
32592,44534,29433
32584,44535,29532
32608,44551,29612
32588,44551,29533
32621,44582,29534
32598,44551,29568
32612,44596,29472
32592,44572,29725
32632,44551,29657
32644,44520,29572
32628,44520,29612
32664,44524,29620
32692,44536,29576
32772,44551,29572
32812,44546,29652
32704,44584,29726
32732,44588,29677
32724,44556,29684
32768,44548,29688
32733,44526,29645
32740,44518,29845
32768,44522,29721
32741,44533,29768
32796,44544,29721
32833,44583,29692
32840,44580,29804
32832,44527,29851
32821,44546,29884
32736,44529,29849
32724,44483,29969
32777,44496,30003
32856,44502,29965
32889,44469,30004
32880,44540,29912
32844,44569,29908
32788,44568,29927
32792,44567,29940
32761,44551,29900
32758,44528,29888
32816,44500,29924
32844,44488,30087
32808,44476,29993
32816,44488,30036
32864,44543,29964
32856,44551,30157
32896,44572,30041
32892,44551,30032
32888,44548,30014
32892,44516,30076
32800,44484,30259
32780,44432,30222
32716,44490,30180
32704,44500,30172
32708,44533,30164
32784,44544,30208
32808,44540,30229
32845,44544,30203
32852,44541,30188
32864,44508,30260
32868,44484,30420
32873,44476,30376
32820,44480,30324
32788,44492,30311
32780,44520,30324
32808,44488,30386
32821,44548,30369
32760,44516,30374
32760,44532,30540
32772,44492,30420
32804,44481,30455
32889,44452,30496
32896,44457,30460
32905,44437,30551
32912,44503,30559
32933,44472,30528
32912,44543,30572
32897,44499,30526
32896,44500,30591
32920,44498,30639
32920,44471,30712
32924,44469,30612
32824,44461,30671
32845,44479,30632
32870,44500,30680
32876,44518,30816
32872,44525,30705
32816,44535,30742
32724,44509,30757
32712,44486,30719
32744,44460,30826
32694,44452,30886
32753,44444,30801
32708,44416,30843
32720,44498,30784
32764,44510,30986
32816,44525,30935
32848,44514,30872
32841,44493,30909
32776,44478,30889
32736,44441,31060
32760,44436,30917
32764,44385,30941
32808,44452,31116
32752,44484,30972
32740,44501,31028
32768,44508,31068
32800,44455,31085
32832,44476,31079
32782,44404,31068
32824,44431,31129
32844,44421,31213
32872,44416,31137
32776,44404,31134
32792,44460,31205
32812,44463,31148
32736,44496,31332
32756,44492,31202
32776,44420,31257
32796,44447,31223
32834,44423,31399
32756,44416,31288
32788,44413,31296
32808,44415,31286
32844,44455,31480
32764,44480,31363
32788,44484,31368
32800,44469,31384
32812,44455,31483
32832,44431,31500
32844,44373,31439
32748,44399,31476
32713,44401,31489
32748,44423,31652
32780,44451,31588
32792,44407,31580
32813,44476,31545
32804,44469,31727
32808,44448,31604
32856,44423,31668
32816,44354,31632
32733,44389,31776
32744,44397,31751
32788,44405,31708
32733,44388,31751
32756,44452,31776
32800,44417,31740
32814,44460,31912
32828,44439,31786
32848,44404,31860
32856,44399,31834
32848,44385,31893
32868,44382,32022
32872,44396,32007
32888,44365,31951
32876,44432,31981
32812,44453,31941
32788,44453,32088
32772,44423,32075
32748,44404,32036
32748,44383,32037
32758,44356,32058
32696,44376,32190
32677,44388,32084
32712,44409,32095
32728,44433,32245
32728,44436,32167
32734,44436,32148
32773,44415,32206
32764,44357,32233
32756,44360,32231
32758,44356,32365
32796,44356,32254
32788,44377,32281
32784,44396,32417
32774,44384,32333
32764,44423,32340
32768,44423,32359
32824,44404,32393
32816,44377,32517
32872,44358,32406
32872,44292,32444
32912,44337,32428
32916,44354,32592
32888,44388,32495
32757,44404,32548
32689,44409,32516
32720,44412,32663
32692,44388,32558
32680,44327,32592
32668,44344,32589
32652,44336,32734
32657,44284,32641
32652,44340,32669
32648,44365,32807
32653,44332,32701
32696,44406,32753
32681,44405,32788
32701,44324,32772
32700,44349,32789
32776,44326,32798
32840,44317,32896
32864,44303,32836
32872,44324,32868
32876,44352,32933
32869,44372,32956
32860,44381,32941
32780,44382,32917
32764,44364,33068
32750,44341,32964
32820,44316,32975
32848,44292,33094
32844,44295,33039
32852,44316,33050
32872,44340,33132
32904,44301,33071
32792,44380,33117
32776,44365,33117
32812,44313,33140
32812,44312,33167
32754,44292,33141
32776,44281,33260
32800,44287,33175
32848,44306,33220
32837,44322,33185
32838,44344,33320
32884,44295,33230
32892,44352,33264
32916,44295,33255
32806,44308,33364
32720,44292,33311
32704,44221,33316
32692,44268,33317
32749,44288,33381
32800,44314,33388
32836,44324,33371
32856,44335,33352
32856,44328,33424
32854,44317,33489
32852,44293,33394
32864,44244,33431
32756,44247,33441
32704,44263,33501
32792,44276,33439
32748,44288,33449
32780,44263,33536
32804,44327,33517
32789,44287,33503
32806,44295,33479
32816,44264,33604
32824,44253,33508
32852,44228,33537
32860,44228,33629
32864,44232,33557
32748,44287,33577
32684,44293,33557
32750,44308,33678
32780,44300,33632
32812,44281,33638
32821,44244,33672
32792,44236,33629
32738,44221,33664
32780,44222,33655
32788,44236,33764
32756,44256,33692
32744,44231,33700
32776,44284,33799
32820,44276,33740
32824,44263,33820
32824,44237,33741
32852,44215,33743
32877,44200,33860
32888,44209,33789
32774,44216,33823
32748,44176,33796
32756,44252,33862
32700,44261,33872
32756,44265,33842
32824,44245,33870
32852,44230,33852
32852,44196,33950
32788,44189,33884
32792,44188,33921
32808,44196,33940
32816,44220,33927
32808,44236,33948
32782,44244,34020
32804,44232,33948
32832,44229,33949
32828,44197,34046
32848,44149,33991
32876,44167,33981
32928,44161,33998
32797,44149,33988
32801,44205,34044
32692,44231,34013
32724,44229,34089
32776,44232,34009
32820,44213,34023
32856,44172,34118
32780,44156,34069
32829,44144,34101
32840,44135,34060
32824,44167,34052
32844,44140,34085
32736,44214,34076
32712,44221,34100
32772,44216,34072
32772,44161,34092
32732,44167,34085
32748,44136,34148
32772,44092,34127
32810,44132,34191
32764,44143,34128
32796,44166,34148
32812,44194,34195
32784,44199,34149
32721,44201,34125
32717,44165,34208
32766,44097,34140
32748,44127,34165
32748,44103,34213
32716,44124,34155
32701,44120,34191
32704,44152,34156
32742,44172,34175
32788,44185,34112
32812,44183,34248
32820,44152,34183
32828,44085,34188
32836,44111,34184
32832,44108,34205
32718,44103,34172
32712,44122,34261
32784,44126,34192
32826,44129,34185
32886,44167,34245
32884,44165,34220
32864,44140,34185
32888,44109,34272
32880,44095,34204
32892,44084,34223
32888,44077,34295
32916,44100,34221
32889,44108,34230
32844,44134,34302
32836,44135,34223
32793,44141,34245
32804,44127,34258
32798,44103,34224
32812,44072,34231
32804,44036,34284
32828,44068,34241
32820,44084,34284
32800,44047,34225
32816,44127,34237
32732,44140,34298
32633,44119,34232
32652,44117,34302
32616,44099,34220
32620,44023,34248
32600,44057,34237
32596,44055,34236
32546,44029,34263
32553,44084,34253
32580,44117,34238
32600,44060,34300
32604,44116,34237
32621,44094,34252
32716,44073,34232
32748,44039,34216
32784,44036,34279
32824,44033,34220
32848,44049,34223
32864,44039,34294
32773,44095,34228
32726,44098,34218
32768,44102,34261
32745,44026,34232
32784,44052,34281
32756,44036,34224
32720,43967,34207
32712,44017,34266
32720,44038,34232
32736,44010,34276
32764,44077,34236
32788,44100,34295
32749,44038,34224
32704,44075,34231
32784,44011,34248
32821,44020,34241
32828,44000,34238
32864,44006,34238
32876,44012,34230
32876,44039,34232
32880,44008,34280
32872,44087,34244
32848,44068,34266
32864,44012,34228
32880,44028,34220
32788,44012,34265
32836,43936,34221
32868,43998,34213
32864,43998,34276
32848,44036,34221
32817,44061,34209
32784,44015,34242
32752,44065,34220
32760,44067,34276
32742,43968,34221
32776,43997,34265
32740,43991,34194
32685,43932,34196
32716,44005,34196
32676,44020,34183
32732,44057,34229
32796,44062,34188
32832,44048,34190
32836,43984,34212
32772,44022,34168
32784,43993,34214
32808,43931,34148
32844,43979,34172
32832,44005,34149
32825,44009,34128
32825,44052,34141
32796,44039,34116
32724,44028,34190
32704,44039,34124
32784,44004,34159
32848,43980,34133
32776,43972,34128
32772,43958,34096
32812,43991,34164
32852,44024,34111
32864,44039,34084
32832,44055,34116
32784,44004,34100
32748,44039,34118
32760,44018,34105
32800,43992,34101
32820,43972,34093
32850,43968,34081
32832,43993,34077
32801,44020,34143
32773,44035,34084
32768,44057,34088
32720,44057,34086
32688,44032,34063
32728,43957,34124
32752,43980,34055
32708,43962,34052
32752,43980,34132
32760,43985,34063
32796,43965,34040
32840,44036,34135
32848,44052,34055
32844,44039,34061
32836,44037,34126
32776,44012,34065
32728,43980,34054
32784,43911,34100
32796,43972,34081
32824,43981,34068
32760,44012,34053
32737,44039,34060
32788,44013,34065
32838,44039,34114
32824,44027,34051
32724,44005,34046
32720,43980,34108
32736,43911,34056
32792,43972,34055
32800,43991,34029
32806,44004,34087
32788,44021,34024
32796,44028,34032
32768,44039,34009
32700,44036,33996
32672,43988,34064
32744,43977,33997
32804,43964,33997
32800,43964,34020
32768,43984,34033
32800,44023,33976
32800,44020,33960
32796,44036,34025
32820,44039,33956
32816,44012,33945
32736,43940,34007
32692,43964,33926
32744,43964,33927
32736,43956,33961
32766,43977,33937
32760,44004,33890
32760,44017,33938
32721,44038,33888
32760,44036,33950
32788,43988,33884
32792,43992,33891
32780,43964,33863
32768,43956,33862
32689,43958,33877
32720,43964,33868
32733,43984,33864
32696,44024,33828
32748,44026,33909
32796,44020,33840
32792,44015,33846
32708,43992,33833
32750,43908,33829
32784,43956,33823
32824,43956,33836
32820,43942,33825
32844,43982,33823
32872,44012,33861
32796,44024,33870
32749,44016,33829
32800,44004,33807
32821,43969,33823
32836,43910,33808
32869,43953,33860
32905,43948,33814
32932,43948,33790
32900,43984,33869
32900,44004,33789
32872,44020,33743
32864,44026,33861
32865,43988,33798
32884,43980,33773
32872,43956,33808
32893,43886,33804
32904,43949,33821
32906,43967,33822
32788,43965,33806
32849,44001,33769
32892,44005,33860
32910,44004,33799
32904,43948,33780
32920,43974,33773
32916,43957,33854
32897,43918,33785
32900,43932,33799
32896,43957,33841
32884,43980,33812
32880,44004,33796
32800,43996,33817
32764,44005,33782
32752,43967,33881
32742,43968,33824
32692,43944,33842
32664,43935,33868
32745,43933,33889
32752,43957,33860
32728,43974,33880
32716,43996,33924
32684,44004,33983
32692,44000,33949
32724,43963,33968
32702,43964,33969
32728,43941,34057
32692,43929,34056
32700,43933,34076
32784,43889,34077
32754,43964,34175
32784,43992,34177
32817,44005,34196
32840,43988,34268
32828,43924,34311
32844,43967,34337
32796,43925,34349
32724,43919,34463
32740,43917,34460
32780,43932,34502
32832,43963,34566
32812,43976,34589
32868,43952,34612
32884,43988,34698
32900,43916,34751
32885,43956,34781
32805,43924,34796
32780,43911,34837
32812,43911,34909
32793,43920,34909
32753,43945,34946
32768,43919,34962
32817,43969,34982
32852,43928,35076
32808,43948,35079
32840,43941,35116
32864,43911,35145
32868,43885,35204
32864,43868,35209
32764,43908,35240
32732,43892,35253
32800,43940,35294
32782,43937,35337
32800,43959,35352
32840,43887,35372
32876,43911,35417
32856,43887,35461
32752,43873,35463
32784,43873,35473
32796,43898,35513
32726,43911,35510
32772,43932,35554
32812,43936,35556
32796,43933,35580
32844,43916,35600
32844,43900,35621
32832,43868,35625
32772,43845,35628
32780,43838,35665
32792,43863,35656
32808,43886,35668
32830,43908,35664
32829,43911,35703
32820,43900,35694
32812,43889,35698
32716,43868,35697
32701,43847,35716
32764,43826,35733
32804,43823,35745
32828,43830,35735
32756,43852,35744
32728,43877,35734
32772,43887,35748
32820,43880,35761
32856,43862,35742
32780,43813,35724
32765,43812,35719
32757,43748,35705
32828,43783,35700
32848,43777,35658
32860,43835,35634
32844,43828,35612
32832,43869,35590
32816,43868,35557
32760,43852,35500
32693,43821,35449
32780,43796,35404
32808,43776,35349
32792,43776,35287
32804,43809,35250
32764,43823,35215
32785,43836,35129
32788,43852,35079
32828,43856,35026
32864,43840,34964
32828,43816,34959
32840,43772,34876
32832,43772,34837
32777,43783,34778
32718,43784,34790
32732,43812,34758
32736,43838,34676
32712,43793,34626
32744,43847,34584
32804,43828,34580
32848,43796,34556
32847,43768,34469
32820,43770,34452
32708,43775,34407
32744,43783,34413
32760,43804,34369
32828,43776,34284
32864,43836,34240
32888,43845,34273
32860,43815,34173
32790,43793,34164
32824,43769,34092
32860,43756,34148
32864,43757,34052
32860,43775,34032
32856,43805,33976
32832,43823,34021
32742,43809,33943
32718,43831,33903
32772,43823,33956
32790,43782,33896
32824,43756,33856
32848,43749,33844
32812,43753,33788
32756,43757,33855
32768,43781,33788
32800,43810,33781
32816,43813,33823
32856,43757,33736
32796,43791,33726
32776,43767,33781
32796,43745,33734
32800,43716,33687
32807,43725,33692
32788,43745,33661
32770,43778,33709
32800,43783,33671
32788,43815,33649
32808,43807,33615
32844,43780,33692
32868,43751,33609
32852,43743,33614
32792,43716,33568
32832,43714,33646
32864,43737,33634
32865,43748,33588
32868,43741,33540
32862,43794,33534
32857,43783,33494
32848,43773,33582
32792,43740,33500
32836,43708,33493
32832,43694,33477
32840,43708,33460
32848,43708,33436
32858,43740,33429
32904,43764,33444
32909,43774,33373
32872,43773,33359
32849,43764,33377
32852,43734,33324
32872,43692,33320
32872,43636,33260
32832,43685,33327
32736,43652,33243
32768,43724,33204
32808,43759,33233
32832,43760,33192
32848,43765,33132
32840,43748,33070
32836,43729,33124
32832,43693,33022
32848,43687,32996
32860,43679,32926
32864,43703,33007
32892,43725,32920
32832,43749,32823
32704,43712,32805
32748,43764,32751
32812,43732,32693
32856,43711,32644
32832,43687,32660
32796,43625,32667
32800,43677,32537
32824,43685,32472
32852,43716,32443
32900,43733,32462
32848,43692,32338
32788,43755,32289
32684,43728,32200
32660,43713,32245
32608,43631,32152
32612,43668,32120
32612,43664,32086
32624,43677,31972
32656,43708,31908
32592,43720,31928
32609,43730,31841
32612,43684,31791
32604,43720,31832
32649,43655,31750
32724,43672,31620
32688,43668,31565
32668,43655,31626
32704,43682,31509
32652,43700,31455
32664,43712,31444
32669,43729,31355
32668,43724,31363
32684,43717,31397
32612,43685,31236
32606,43676,31236
32676,43655,31148
32708,43655,31138
32796,43644,31247
32796,43684,31156
32813,43654,31070
32804,43733,31064
32716,43722,31032
32688,43667,30956
32700,43679,30925
32768,43658,31083
32812,43652,30968
32820,43638,30924
32804,43665,30896
32841,43681,30920
32832,43712,30916
32740,43724,30893
32660,43687,30852
32664,43700,30941
32716,43695,30982
32736,43672,30878
32777,43655,30930
32770,43653,30889
32800,43668,31080
32815,43655,31005
32844,43719,31020
32804,43711,30980
32820,43724,31174
32796,43720,31121
32728,43700,31122
32704,43676,31141
32776,43655,31237
32824,43652,31356
32736,43648,31317
32724,43700,31332
32744,43692,31374
32784,43743,31414
32800,43741,31588
32752,43743,31496
32756,43709,31588
32740,43637,31621
32737,43671,31672
32793,43672,31828
32826,43684,31761
32816,43688,31831
32800,43741,31853
32772,43752,31912
32740,43717,31949
32684,43740,32092
32736,43713,32052
32752,43696,32196
32780,43679,32308
32705,43684,32301
32788,43685,32287
32781,43724,32359
32808,43745,32385
32844,43756,32407
32825,43744,32567
32788,43737,32593
32748,43715,32549
32812,43692,32630
32860,43681,32614
32869,43655,32751
32836,43693,32772
32837,43653,32733
32808,43732,32796
32736,43748,32841
32748,43703,32837
32792,43733,32845
32800,43703,32981
32820,43679,32964
32836,43668,32949
32772,43665,32981
32696,43679,32977
32709,43692,33004
32749,43711,33102
32788,43716,33124
32788,43713,33072
32748,43650,33104
32760,43684,33120
32684,43612,33132
32696,43628,33130
32744,43623,33132
32752,43638,33181
32777,43665,33236
32688,43685,33180
32637,43686,33181
32664,43693,33205
32736,43669,33180
32776,43631,33276
32752,43580,33252
32681,43589,33221
32741,43591,33248
32760,43601,33333
32760,43623,33269
32736,43641,33286
32716,43589,33359
32756,43631,33303
32748,43604,33320
32752,43576,33317
32796,43524,33411
32833,43537,33349
32858,43487,33381
32756,43550,33389
32772,43572,33346
32776,43591,33485
32760,43588,33421
32770,43558,33444
32790,43561,33516
32812,43493,33493
32716,43516,33492
32736,43493,33512
32781,43493,33514
32784,43500,33596
32736,43516,33575
32716,43545,33569
32736,43549,33573
32741,43509,33628
32764,43516,33685
32820,43492,33668
32848,43468,33692
32873,43436,33684
32880,43440,33671
32892,43471,33777
32936,43478,33788
32928,43448,33773
32916,43508,33796
32840,43502,33812
32849,43432,33838
32840,43464,33844
32856,43432,33880
32868,43384,33941
32868,43416,33969
32832,43425,33940
32828,43455,33953
32856,43460,33985
32893,43487,33975
32928,43447,34047
32900,43461,34088
32901,43428,34089
32908,43348,34073
32928,43383,34084
32884,43382,34115
32788,43404,34122
32732,43421,34116
32748,43451,34191
32732,43459,34157
32694,43444,34181
32705,43438,34230
32756,43408,34213
32724,43376,34199
32788,43365,34260
32788,43372,34247
32821,43386,34244
32752,43412,34263
32712,43428,34292
32696,43439,34279
32692,43449,34287
32752,43431,34278
32716,43399,34344
32752,43372,34301
32796,43359,34311
32836,43367,34368
32780,43365,34337
32832,43384,34340
32772,43382,34396
32798,43428,34368
32804,43432,34365
32796,43415,34416
32848,43391,34405
32912,43372,34404
32918,43349,34444
32944,43345,34433
32940,43365,34500
32976,43384,34485
32924,43420,34500
32792,43412,34541
32776,43420,34589
32782,43404,34584
32804,43388,34612
32856,43353,34615
32816,43348,34708
32844,43311,34708
32820,43360,34749
32840,43326,34778
32850,43404,34852
32856,43404,34864
32888,43429,34905
32904,43396,34926
32900,43375,34999
32780,43353,35020
32748,43311,35047
32736,43340,35095
32708,43348,35149
32745,43375,35164
32804,43399,35196
32800,43399,35253
32836,43399,35268
32840,43340,35296
32832,43375,35346
32736,43348,35367
32700,43335,35377
32740,43336,35429
32781,43352,35438
32709,43380,35449
32708,43415,35476
32776,43410,35484
32804,43420,35504
32776,43399,35508
32784,43330,35496
32704,43356,35437
32736,43297,35500
32710,43340,35469
32700,43327,35447
32748,43372,35431
32790,43396,35384
32804,43412,35365
32844,43421,35329
32840,43399,35270
32864,43376,35220
32844,43364,35184
32720,43344,35116
32748,43340,35060
32776,43358,35005
32704,43373,34940
32720,43408,34873
32744,43413,34820
32748,43420,34744
32761,43404,34668
32804,43376,34637
32836,43357,34540
32852,43327,34465
32858,43344,34436
32848,43359,34352
32781,43386,34279
32720,43415,34197
32724,43438,34183
32684,43436,34071
32668,43405,34015
32756,43388,33944
32774,43365,33921
32822,43351,33799
32836,43345,33750
32833,43316,33694
32832,43389,33608
32845,43401,33548
32828,43439,33493
32728,43396,33414
32685,43423,33325
32760,43385,33253
32720,43344,33241
32748,43351,33104
32740,43353,33044
32776,43365,32942
32768,43388,32949
32772,43392,32791
32800,43421,32708
32736,43428,32680
32752,43420,32607
32790,43391,32461
32808,43313,32364
32820,43344,32391
32808,43352,32213
32824,43369,32116
32828,43397,32152
32824,43412,31965
32812,43422,31870
32772,43428,31909
32784,43414,31724
32805,43389,31616
32800,43358,31660
32832,43305,31469
32776,43356,31418
32728,43372,31333
32720,43397,31353
32692,43420,31153
32664,43422,31116
32708,43428,31123
32784,43382,30924
32848,43398,30845
32876,43377,30926
32840,43348,30737
32840,43356,30652
32844,43377,30719
32780,43399,30517
32740,43420,30439
32804,43436,30444
32832,43434,30476
32876,43412,30277
32761,43373,30252
32736,43372,30113
32772,43358,30228
32806,43360,30041
32752,43388,29972
32688,43392,30020
32744,43423,29912
32816,43436,29849
32840,43447,29708
32840,43428,29689
32844,43399,29628
32896,43368,29657
32925,43356,29633
32964,43308,29524
32960,43372,29391
32976,43399,29428
32932,43423,29376
32925,43444,29325
32928,43449,29314
32904,43424,29229
32892,43412,29108
32904,43375,29178
32816,43364,29120
32784,43369,29024
32848,43373,29121
32860,43348,28954
32912,43431,28927
32912,43452,28873
32865,43452,28933
32880,43429,28816
32876,43354,28748
32908,43381,28844
32954,43373,28720
32952,43365,28663
32896,43397,28828
32780,43415,28679
32804,43444,28637
32844,43407,28558
32864,43448,28671
32904,43429,28621
32893,43420,28573
32820,43345,28525
32716,43381,28544
32672,43391,28455
32720,43412,28495
32672,43421,28388
32672,43417,28568
32672,43476,28406
32604,43469,28388
32661,43448,28312
32641,43399,28528
32684,43408,28338
32744,43353,28278
32736,43397,28439
32800,43412,28324
32840,43440,28249
32856,43463,28413
32788,43476,28321
32720,43487,28228
32736,43463,28456
32672,43449,28288
32741,43414,28305
32778,43399,28208
32788,43404,28409
32820,43417,28284
32824,43428,28315
32852,43476,28210
32780,43484,28260
32776,43445,28448
32800,43471,28346
32702,43444,28276
32684,43372,28312
32716,43405,28226
32752,43412,28232
32816,43431,28234
32860,43444,28289
32869,43470,28480
32880,43429,28387
32880,43490,28380
32784,43466,28337
32708,43452,28280
32728,43424,28396
32736,43376,28484
32680,43398,28368
32700,43381,28391
32716,43444,28327
32770,43471,28520
32828,43488,28568
32844,43480,28456
32852,43471,28422
32756,43452,28417
32758,43423,28452
32768,43404,28492
32792,43392,28499
32816,43420,28412
32840,43444,28644
32824,43463,28503
32732,43452,28482
32728,43485,28678
32752,43467,28566
32804,43435,28480
32840,43415,28663
32840,43345,28567
32816,43396,28565
32752,43359,28581
32793,43428,28692
32824,43473,28703
32840,43469,28632
32856,43455,28569
32852,43457,28764
32751,43376,28699
32720,43407,28688
32756,43392,28613
32808,43396,28848
32853,43400,28757
32800,43428,28736
32752,43447,28717
32789,43461,28933
32809,43460,28784
32828,43448,28764
32868,43425,28961
32896,43399,28900
32876,43336,28846
32772,43376,28866
32728,43399,28918
32788,43412,28917
32710,43439,28965
32704,43398,28926
32700,43452,28908
32768,43431,28991
32821,43413,29160
32857,43391,29016
32884,43365,29031
32916,43332,29094
32901,43375,29071
32828,43399,29100
32776,43424,29282
32760,43431,29214
32776,43437,29140
32765,43417,29188
32676,43399,29135
32717,43375,29367
32742,43322,29224
32808,43344,29196
32848,43324,29365
32836,43389,29284
32848,43415,29293
32884,43430,29407
32820,43421,29369
32744,43412,29358
32704,43396,29361
32740,43361,29504
32708,43340,29447
32688,43344,29464
32748,43352,29488
32780,43367,29468
32816,43399,29506
32824,43360,29436
32796,43412,29548
32764,43393,29613
32688,43354,29545
32692,43356,29524
32736,43332,29516
32792,43335,29702
32800,43348,29636
32704,43373,29596
32720,43399,29708
32760,43399,29757
32832,43398,29649
32864,43372,29661
32836,43359,29844
32824,43331,29754
32812,43316,29740
32796,43324,29716
32796,43328,29887
32712,43359,29860
32720,43388,29781
32700,43388,29838
32736,43391,29788
32696,43373,29984
32732,43348,29884
32756,43319,29908
32812,43271,29996
32812,43305,29908
32852,43313,29937
32808,43336,29891
32728,43364,30060
32760,43383,29945
32804,43380,29980
32808,43373,30102
32816,43335,29993
32836,43296,30041
32792,43295,29980
32752,43296,30165
32700,43304,30036
32753,43332,30010
32772,43359,30084
32785,43335,30076
32804,43368,30124
32804,43359,30069
32808,43320,30103
32808,43305,30209
32832,43292,30060
32869,43284,30049
32862,43268,30165
32890,43317,30105
32868,43335,30045
32802,43365,30202
32833,43357,30136
32856,43348,30121
32920,43324,30225
32924,43295,30106
32944,43271,30126
32916,43264,30053
32904,43253,30215
32884,43311,30172
32908,43328,30076
32876,43351,30121
32884,43356,30086
32880,43333,30049
32897,43309,30159
32910,43292,30106
32900,43271,30033
32804,43271,30185
32788,43281,30162
32748,43253,30054
32668,43325,30088
32660,43340,30072
32788,43328,30124
32740,43324,30085
32692,43309,30004
32726,43276,30109
32704,43260,30065
32676,43253,30156
32634,43228,30042
32640,43300,30055
32672,43325,29997
32672,43284,30014
32686,43328,30144
32732,43325,30052
32744,43247,29972
32784,43255,29964
32824,43252,29988
32720,43198,30100
32756,43252,29959
32772,43260,29956
32748,43309,30087
32784,43317,29992
32816,43324,29940
32724,43306,29887
32740,43276,29966
32780,43215,29924
32808,43233,29857
32832,43177,30007
32840,43246,29865
32888,43268,29906
32836,43285,29892
32768,43254,29904
32752,43300,29892
32768,43284,29868
32805,43213,29822
32832,43239,29988
32836,43220,29922
32858,43214,29846
32864,43232,29873
32860,43199,29796
32745,43276,29980
32684,43252,29820
32676,43292,29855
32700,43271,29799
32760,43217,29806
32800,43223,29777
32824,43215,29924
32832,43212,29835
32868,43220,29794
32894,43236,29980
32880,43269,29818
32796,43277,29796
32736,43279,29995
32769,43254,29829
32820,43172,29863
32736,43217,29806
32696,43165,29989
32756,43183,29864
32753,43156,29902
32668,43223,29828
32652,43252,29974
32716,43270,29972
32708,43264,29901
32696,43245,29889
32720,43231,30052
32736,43207,29925
32792,43183,29937
32812,43180,30108
32813,43203,29957
32816,43216,29975
32789,43246,30052
32800,43246,30024
32804,43220,30172
32820,43236,30039
32804,43219,30009
32804,43189,30197
32836,43175,30064
32782,43168,30080
32672,43182,30246
32652,43207,30164
32616,43239,30132
32608,43245,30244
32636,43260,30168
32616,43236,30199
32640,43215,30196
32676,43188,30250
32664,43160,30190
32680,43156,30207
32680,43175,30359
32724,43142,30260
32756,43221,30273
32776,43228,30215
32820,43239,30285
32820,43220,30297
32812,43205,30256
32728,43173,30384
32673,43156,30292
32712,43156,30322
32688,43175,30343
32732,43192,30416
32736,43215,30336
32760,43215,30357
32804,43228,30306
32796,43215,30404
32812,43190,30365
32788,43175,30372
32702,43152,30376
32716,43143,30479
32760,43153,30385
32724,43187,30390
32728,43201,30398
32776,43210,30550
32792,43225,30407
32848,43172,30424
32868,43180,30489
32874,43169,30487
32781,43141,30468
32756,43094,30410
32748,43151,30500
32772,43182,30449
32684,43199,30468
32720,43229,30412
32788,43222,30581
32724,43205,30460
32736,43143,30497
32813,43152,30445
32856,43117,30617
32820,43133,30556
32828,43158,30477
32844,43175,30517
32864,43204,30470
32880,43222,30574
32764,43221,30500
32736,43196,30488
32781,43177,30531
32824,43108,30503
32856,43132,30540
32880,43126,30583
32896,43148,30505
32844,43181,30470
32768,43204,30620
32770,43204,30501
32850,43157,30534
32884,43193,30488
32820,43173,30650
32816,43143,30575
32840,43134,30503
32872,43111,30536
32880,43143,30480
32880,43164,30637
32900,43188,30525
32913,43212,30484
32928,43207,30580
32917,43195,30513
32916,43166,30540
32908,43148,30466
32900,43135,30497
32844,43128,30532
32796,43140,30460
32860,43167,30604
32864,43192,30490
32892,43200,30457
32880,43204,30556
32900,43192,30487
32928,43167,30461
32916,43149,30532
32892,43124,30567
32900,43121,30479
32896,43082,30488
32856,43168,30629
32905,43188,30493
32922,43204,30484
32848,43197,30561
32848,43197,30532
32856,43168,30613
32876,43143,30553
32868,43137,30541
32860,43127,30610
32876,43143,30562
32880,43124,30520
32872,43193,30676
32796,43218,30573
32748,43221,30556
32742,43193,30717
32704,43171,30596
32684,43152,30636
32668,43142,30720
32637,43142,30700
32668,43154,30700
32621,43174,30674
32640,43201,30664
32652,43216,30852
32656,43209,30756
32696,43213,30765
32664,43180,30868
32668,43132,30788
32656,43143,30811
32644,43143,30838
32696,43127,30980
32736,43177,30888
32754,43205,30920
32780,43215,30872
32753,43220,31069
32672,43215,30932
32672,43190,30997
32704,43137,30954
32760,43140,31116
32760,43149,31108
32772,43153,31033
32788,43195,31029
32808,43184,31194
32780,43217,31072
32680,43175,31077
32660,43228,31140
32673,43203,31233
32668,43177,31156
32716,43159,31136
32746,43156,31169
32776,43165,31135
32812,43173,31121
32816,43220,31261
32804,43237,31225
32845,43241,31167
32752,43228,31195
32716,43151,31145
32764,43172,31278
32688,43169,31205
32692,43140,31161
32744,43175,31173
32828,43206,31152
32796,43212,31133
32800,43244,31212
32832,43253,31248
32816,43239,31138
32832,43212,31158
32857,43159,31101
32860,43164,31241
32757,43169,31239
32732,43192,31236
32760,43221,31139
32700,43244,31109
32728,43256,31112
32768,43244,31072
32840,43244,31061
32840,43222,31117
32824,43165,31184
32849,43189,31189
32872,43180,31101
32780,43161,31044
32776,43221,31067
32828,43241,31040
32873,43271,31033
32840,43249,31025
32856,43260,31036
32864,43238,31030
32792,43216,31044
32733,43166,31052
32796,43193,31045
32821,43220,31032
32784,43207,30980
32758,43271,31021
32770,43293,31084
32772,43286,30983
32816,43247,31044
32836,43261,31103
32864,43228,31055
32880,43164,30964
32798,43200,30968
32746,43229,30983
32816,43260,30919
32816,43293,31074
32848,43302,30934
32864,43301,30948
32784,43239,30911
32776,43265,30929
32832,43244,31053
32858,43233,30957
32887,43229,30880
32869,43207,30925
32852,43271,30880
32801,43300,30950
32800,43313,31000
32799,43318,30884
32784,43252,30925
32768,43276,30871
32730,43255,31000
32725,43188,31034
32724,43240,30928
32756,43263,30957
32816,43285,30908
32841,43309,31087
32856,43327,30972
32842,43333,30980
32836,43285,31133
32836,43292,31108
32768,43271,31077
32776,43260,31117
32788,43265,31101
32840,43242,31269
32888,43297,31313
32773,43331,31228
32680,43344,31290
32636,43341,31293
32634,43340,31466
32645,43311,31417
32748,43287,31428
32812,43260,31487
32848,43245,31517
32840,43288,31677
32860,43304,31612
32844,43332,31684
32840,43361,31701
32721,43364,31724
32748,43348,31876
32797,43335,31844
32776,43300,31852
32828,43264,32013
32836,43293,31941
32780,43302,32012
32776,43343,32004
32788,43357,32119
32832,43372,32157
32840,43388,32135
32844,43372,32163
32832,43348,32276
32761,43332,32281
32780,43302,32233
32838,43317,32258
32852,43328,32385
32772,43351,32321
32775,43332,32316
32800,43388,32323
32858,43399,32392
32848,43396,32372
32844,43377,32372
32840,43303,32371
32800,43340,32348
32800,43340,32416
32808,43340,32413
32844,43380,32385
32860,43407,32348
32868,43430,32452
32885,43436,32349
32877,43415,32375
32817,43396,32373
32756,43380,32402
32792,43367,32365
32844,43337,32324
32888,43372,32388
32872,43385,32348
32924,43428,32308
32928,43449,32423
32936,43460,32303
32904,43454,32322
32900,43425,32277
32876,43399,32361
32868,43389,32306
32849,43398,32301
32848,43399,32337
32868,43417,32300
32884,43457,32232
32884,43473,32231
32904,43476,32228
32904,43468,32241
32772,43452,32186
32788,43416,32160
32772,43422,32143
32749,43417,32249
32688,43439,32165
32660,43461,32121
32648,43472,32133
32664,43508,32063
32704,43508,32134
32656,43440,32132
32680,43469,32100
32676,43455,32012
32668,43444,31996
32700,43444,31984
32684,43448,31917
32716,43487,31878
32709,43488,31951
32712,43524,31924
32716,43492,31812
32700,43519,31807
32784,43495,31768
32848,43492,31697
32864,43462,31661
32928,43455,31720
32937,43488,31735
32904,43522,31636
32941,43526,31551
32928,43557,31505
32920,43556,31476
32928,43527,31440
32944,43527,31416
32929,43501,31399
32924,43488,31372
32884,43500,31314
32808,43464,31239
32784,43543,31313
32756,43572,31305
32704,43573,31278
32740,43589,31186
32724,43583,31084
32748,43556,31087
32804,43527,31005
32832,43512,31080
32828,43517,31091
32736,43500,30933
32680,43559,30936
32676,43588,30895
32760,43608,30845
32820,43604,30789
32840,43548,30841
32821,43561,30880
32820,43555,30903
32784,43537,30811
32672,43540,30717
32704,43549,30741
32785,43581,30704
32729,43608,30645
32757,43623,30814
32800,43620,30685
32832,43596,30645
32832,43589,30664
32840,43572,30695
32828,43550,30636
32784,43554,30620
32704,43579,30640
32696,43604,30626
32724,43616,30772
32808,43591,30717
32832,43632,30661
32830,43631,30714
32760,43613,30665
32749,43585,30692
32788,43564,30821
32833,43565,30727
32856,43583,30705
32828,43557,30749
32824,43623,30718
32760,43613,30804
32736,43647,30828
32745,43576,30765
32756,43615,30818
32821,43537,30749
32856,43568,30927
32848,43527,30910
32752,43592,30832
32744,43621,30820
32812,43637,30847
32784,43668,30838
32793,43664,30896
32712,43652,30839
32714,43581,30916
32748,43600,31032
32744,43588,30983
32765,43596,30970
32832,43598,30928
32869,43624,30925
