ECG,EDA,RR
29308,27417,33527
28816,27396,33461
29520,27383,33463
31248,27373,33439
33404,27389,33408
35681,27388,33407
36476,27402,33388
35744,27413,33395
33706,27406,33317
31449,27399,33465
29934,27380,33436
29230,27369,33405
29756,27365,33265
32056,27352,33255
34696,27361,33215
36304,27373,33207
37144,27375,33167
36232,27388,33319
34404,27385,33287
32036,27372,33268
29960,27367,33252
29924,27349,33236
30196,27342,33209
31980,27333,33120
34408,27344,33127
36028,27357,33185
37000,27366,33146
36280,27368,33156
34036,27364,33092
31614,27359,32977
29977,27344,32935
29288,27339,32885
29684,27334,33028
31576,27325,32924
33916,27324,33012
35492,27332,32893
35800,27348,32813
35088,27354,32813
33305,27352,32941
31512,27341,32920
29920,27333,32908
28624,27327,32871
29576,27316,32808
31220,27303,32884
33552,27308,32772
35260,27319,32687
36204,27331,32829
35856,27329,32768
34180,27337,32784
31317,27327,32801
29181,27325,32669
28548,27297,32610
29536,27292,32749
31168,27285,32727
33392,27293,32679
35436,27295,32620
36300,27306,32725
35912,27313,32708
33872,27317,32692
31796,27300,32492
30084,27288,32488
29424,27281,32625
29572,27280,32590
30844,27271,32516
33000,27275,32600
35056,27281,32480
33356,27301,32398
34022,27302,32397
33117,27293,32367
31464,27285,32517
29453,27279,32501
28356,27268,32461
28689,27261,32407
31204,27255,32453
33820,27248,32317
35860,27266,32263
36496,27271,32409
35540,27280,32326
34288,27278,32332
31928,27268,32386
29576,27261,32305
28608,27260,32197
29272,27244,32181
31424,27233,32317
34092,27234,32256
35997,27245,32205
36360,27263,32276
35548,27271,32159
33457,27266,32085
31153,27265,32072
29604,27242,32066
29156,27236,32044
29728,27230,32049
31356,27220,32172
33692,27229,32088
35276,27234,32070
35960,27249,32143
35768,27255,32006
34328,27249,31940
32464,27240,31926
30308,27234,31909
29497,27215,31908
30016,27212,32029
31636,27207,32000
34156,27208,31908
36328,27216,31913
36984,27236,31976
36172,27237,31797
34016,27241,31940
31916,27228,31914
30484,27220,31854
29564,27209,31885
29753,27198,31892
31340,27191,31870
33996,27197,31688
35556,27209,31840
36380,27213,31802
35836,27236,31761
34128,27226,31705
31872,27215,31703
30197,27201,31716
29956,27188,31675
30592,27185,31680
32972,27173,31642
35392,27177,31636
36960,27184,31607
37940,27203,31652
38276,27198,31636
38852,27192,31636
36120,27190,31672
33720,27172,31653
32684,27165,31557
32812,27157,31517
34784,27161,31445
37236,27160,31407
38468,27182,31400
39608,27188,31399
38224,27192,31372
35736,27190,31364
32558,27184,31424
28492,27196,31476
26656,27187,31462
26152,27181,31449
26816,27181,31412
26704,27191,31396
26668,27218,31391
27080,27211,31383
27620,27228,31354
26108,27237,31212
24529,27229,31172
23271,27213,31164
23128,27197,31128
23932,27191,31116
26190,27180,31102
28824,27172,31086
31380,27180,31052
33156,27190,31062
33272,27193,31174
32116,27186,31145
30532,27181,31109
28773,27173,31024
28576,27159,31032
29304,27143,31089
31617,27141,31081
34372,27143,31033
36524,27142,31038
37612,27165,30984
37352,27177,30956
36192,27165,30981
34088,27159,30965
31436,27153,30952
30364,27143,30915
30840,27133,30899
32700,27133,30903
34652,27136,30868
36216,27152,30860
37392,27164,30740
36884,27172,30678
35464,27165,30655
33100,27159,30674
31312,27136,30615
30652,27132,30647
30920,27129,30735
32308,27127,30727
34460,27133,30637
36364,27140,30648
37640,27153,30669
37280,27161,30544
35616,27167,30636
33396,27152,30524
30788,27143,30605
29713,27135,30580
30469,27125,30564
32477,27120,30554
34736,27127,30506
36828,27140,30503
37364,27156,30468
37248,27164,30401
35632,27167,30464
33500,27145,30342
32022,27135,30268
30894,27124,30279
30940,27117,30248
32216,27112,30245
35112,27124,30221
37316,27132,30257
38500,27141,30342
38048,27163,30296
36664,27153,30223
34520,27143,30220
32237,27136,30249
30668,27133,30269
30688,27127,30256
32128,27117,30158
34368,27122,30225
36128,27136,30082
37164,27155,30036
36936,27160,30013
35364,27156,29993
32644,27160,29986
30804,27150,30100
30020,27135,30060
30320,27121,30033
31296,27111,29983
33884,27124,30005
35777,27140,30033
37393,27154,29896
36940,27161,29852
35184,27167,29881
32756,27159,29954
30902,27143,29879
29568,27143,29856
29901,27132,29884
32004,27116,29908
34420,27131,29724
36496,27136,29741
37221,27149,29847
36448,27169,29797
35876,27167,29781
34084,27154,29721
31664,27143,29727
30116,27140,29778
30864,27125,29688
33061,27125,29564
35008,27132,29546
36945,27134,29543
37840,27156,29670
37296,27164,29622
36156,27172,29580
33812,27165,29620
31818,27144,29588
30704,27140,29523
30876,27133,29457
32116,27127,29389
33501,27142,29380
35300,27152,29350
36712,27157,29384
36424,27178,29326
34916,27176,29308
32357,27175,29319
30180,27170,29386
29504,27153,29364
29228,27148,29343
30752,27140,29350
33024,27143,29288
35192,27164,29324
35912,27172,29310
35008,27188,29300
33560,27197,29307
31288,27188,29289
29837,27174,29213
28564,27175,29210
28812,27165,29204
30245,27156,29201
32488,27165,29252
34652,27177,29140
35600,27185,29063
34640,27197,29206
32780,27213,29188
30864,27196,29103
29076,27196,29073
28012,27186,29072
28088,27180,29093
29616,27175,29028
31520,27181,29022
33117,27184,29075
34368,27205,29145
34064,27215,29099
32454,27218,29101
30452,27215,29112
28480,27204,29111
27264,27201,29095
27452,27196,29084
29114,27189,29082
31752,27186,29038
33608,27204,29082
34440,27221,29070
34340,27226,29053
33152,27226,29109
30984,27225,28952
29020,27219,29021
28224,27209,29101
28680,27199,29071
29824,27202,29112
32176,27207,29111
33872,27215,29113
34976,27235,29124
34868,27236,29133
33460,27241,29020
31360,27238,28994
29032,27237,29161
27972,27228,29142
28284,27221,29108
30192,27208,29151
32864,27204,29188
35312,27227,29168
40684,27223,29095
38685,27238,29094
35548,27249,29100
31768,27253,29093
29668,27241,29111
28600,27242,29128
28817,27228,29140
30492,27214,29149
32536,27228,29201
34365,27240,29334
35361,27264,29300
35340,27268,29325
34020,27271,29381
31976,27266,29319
29578,27260,29285
28352,27252,29280
28612,27247,29304
29958,27240,29349
32484,27244,29416
34472,27254,29360
35220,27277,29423
34744,27287,29463
33156,27286,29468
31152,27287,29488
29228,27279,29543
28032,27279,29599
27996,27264,29724
29433,27264,29756
31892,27268,29776
34005,27270,29796
35148,27295,29805
35044,27303,29816
33340,27308,29856
30680,27302,29884
28796,27293,29967
27640,27300,30006
27978,27278,30036
29744,27270,30089
32024,27281,30131
34416,27287,30146
36000,27302,30157
35668,27319,30225
34000,27325,30269
31784,27320,30293
30416,27303,30361
29060,27300,30420
29140,27295,30425
30372,27290,30479
32681,27293,30546
35000,27303,30586
36104,27322,30649
35684,27333,30655
34433,27334,30683
31908,27332,30704
29824,27328,30704
28500,27324,30773
28684,27316,30752
30420,27305,30810
33030,27306,30872
35280,27318,30922
36264,27340,30956
36178,27349,31037
35456,27351,31204
32820,27344,31112
30420,27340,31170
28848,27340,31380
29046,27328,31433
30288,27325,31450
32472,27324,31471
34540,27344,31612
35804,27348,31612
36033,27366,31585
34280,27376,31613
31708,27365,31685
29400,27370,31885
28196,27362,31932
28308,27351,31999
30048,27347,31893
32104,27345,31962
34033,27367,32020
35439,27380,32228
35276,27393,32285
33697,27396,32285
31497,27392,32431
29460,27375,32417
28341,27375,32388
28204,27373,32575
29664,27371,32556
32070,27372,32665
34104,27383,32719
34776,27399,32741
34816,27408,32875
33593,27413,32964
31800,27404,33013
29666,27404,33068
28234,27393,33143
28733,27387,33188
30164,27385,33241
32138,27386,33157
34400,27399,33212
35660,27419,33416
35312,27417,33450
33644,27433,33434
31852,27429,33521
30228,27420,33672
28980,27413,33572
29160,27399,33580
30936,27402,33792
33144,27404,33812
34920,27423,33900
36448,27429,33836
36000,27439,33831
34478,27455,34021
32836,27436,34080
30488,27433,34108
29228,27433,34144
28753,27428,34140
30340,27408,34132
32968,27420,34199
35456,27439,34268
37348,27446,34248
36892,27460,34196
35388,27457,34388
34172,27463,34423
32744,27444,34453
31560,27440,34470
32514,27428,34489
34584,27422,34486
37128,27421,34494
39364,27437,34456
40788,27460,34464
39608,27471,34612
37932,27479,34624
35592,27474,34623
32960,27465,34628
30852,27469,34565
29540,27463,34498
29188,27471,34532
29724,27478,34641
30784,27495,34719
30248,27513,34740
27844,27536,34692
25093,27550,34567
22868,27558,34580
21517,27551,34588
20788,27546,34564
21884,27530,34759
23509,27518,34756
26034,27522,34753
28544,27520,34759
30288,27533,34789
30244,27545,34797
29470,27545,34823
27444,27549,34824
25638,27553,34840
25496,27535,34688
26392,27527,34676
27620,27516,34733
30276,27514,34775
32792,27518,34834
34565,27532,34757
34760,27548,34738
33261,27556,34793
31252,27551,34805
29294,27542,34823
27744,27538,34978
28292,27527,34980
29920,27522,34967
31956,27524,34940
33760,27542,35076
34436,27556,35092
33624,27573,35117
31784,27580,35140
29879,27582,35177
27476,27580,35164
26341,27572,35124
26342,27568,35204
28038,27561,35201
29812,27558,35229
31896,27568,35293
33397,27591,35284
33220,27600,35207
31588,27604,35152
30300,27604,35305
28576,27605,35333
26417,27599,35304
26756,27591,35276
30093,27569,35458
31284,27577,35292
32796,27593,35313
34176,27604,35272
34140,27620,35302
32756,27632,35345
30316,27629,35536
29108,27620,35545
27936,27605,35560
27293,27611,35583
28604,27604,35615
31276,27606,35458
34108,27613,35659
35740,27623,35685
36728,27631,35700
36076,27633,35622
34309,27633,35759
32436,27624,35820
31453,27623,35847
31980,27611,35842
32884,27604,35873
35136,27614,35768
37456,27620,35711
38504,27638,35708
38220,27650,35743
37268,27655,35767
35664,27655,35748
32864,27646,35888
31785,27640,35925
31808,27631,35892
33260,27639,35917
35436,27639,35891
37608,27645,35840
39444,27655,35981
39856,27676,35911
38972,27671,35847
36912,27678,35838
35748,27669,35965
34944,27655,35956
34936,27650,35935
36572,27639,35809
40040,27653,35752
42684,27676,35730
43364,27697,35694
43556,27703,35621
43004,27699,35620
40788,27693,35600
38264,27687,35567
37192,27669,35580
37480,27655,35557
39192,27665,35545
40492,27671,35501
42180,27685,35432
43757,27701,35417
43392,27732,35399
41988,27727,35351
39448,27735,35508
37229,27726,35455
36036,27705,35426
35992,27694,35386
36397,27700,35344
38196,27708,35301
40772,27728,35304
41976,27743,35079
41304,27748,35257
39676,27769,35236
37151,27757,35205
34712,27753,35084
32700,27749,35033
31592,27751,35047
32528,27748,34969
34996,27749,34912
37312,27760,34896
38144,27783,34872
37748,27800,34732
36280,27799,34702
34312,27807,34652
31660,27796,34640
29799,27784,34589
29348,27788,34583
30280,27783,34637
32228,27788,34652
34020,27800,34567
35548,27818,34585
35709,27833,34556
34718,27845,34537
31921,27836,34532
29356,27839,34389
28112,27821,34463
27420,27828,34436
28420,27831,34420
30324,27836,34392
32748,27840,34364
33800,27847,34343
33472,27874,34316
32778,27864,34297
31420,27873,34124
29140,27864,34089
27309,27855,34068
26852,27863,34223
28052,27856,34189
30428,27857,34180
32452,27864,34175
34496,27879,34123
34897,27889,34084
33462,27898,34156
30952,27900,34017
29148,27896,33945
28321,27886,34076
28053,27884,34063
29032,27879,33981
31244,27874,34000
33454,27889,34085
34776,27908,33903
34756,27919,33884
33536,27924,33884
32058,27925,33860
30348,27917,33857
28956,27911,34020
29030,27905,33974
30476,27896,33972
33252,27899,33990
35296,27908,33993
35884,27925,33983
35860,27930,33984
35700,27943,33934
33460,27933,33929
30992,27934,33922
29892,27919,33927
30164,27919,33932
31148,27911,33876
32708,27922,33895
34524,27927,33890
36452,27940,33828
37064,27956,33813
35530,27959,33769
33040,27962,33743
31452,27948,33869
29820,27943,33844
29067,27941,33880
30196,27941,33788
32960,27922,33700
35404,27943,33886
36196,27960,33702
35936,27968,33831
35076,27976,33806
33280,27977,33713
30852,27968,33824
28748,27962,33756
28505,27965,33629
30148,27957,33773
32500,27956,33764
34468,27956,33748
36356,27973,33658
36836,27993,33749
35492,27996,33665
32328,27997,33571
30416,27995,33701
30357,27972,33653
30501,27965,33668
31232,27974,33676
33724,27956,33532
36016,27972,33529
37384,27997,33480
37916,28007,33460
37541,28000,33476
35508,28000,33552
32696,27996,33495
31068,27990,33496
31076,27988,33477
32456,27976,33398
34736,27976,33368
36133,27993,33348
37364,28005,33489
37708,28012,33440
36836,28031,33376
34624,28023,33356
32692,28013,33407
31380,28007,33444
31328,27998,33325
32384,27996,33263
34445,28001,33215
36612,28005,33196
37972,28023,33196
38504,28031,33319
37344,28043,33303
35346,28038,33286
32732,28037,33260
30552,28031,33236
30505,28021,33275
31758,28015,33220
33408,28025,33071
35140,28036,33064
36964,28042,33044
37420,28052,33003
35720,28063,32989
33172,28071,32972
31384,28053,32958
30116,28044,32967
29648,28046,33092
30812,28039,33049
33236,28041,32991
35568,28047,32962
36670,28054,32956
36660,28073,32992
35188,28087,33028
33040,28078,32916
30900,28079,32900
29240,28073,32972
28668,28065,32917
29604,28067,32912
31588,28053,32940
33648,28071,32911
35288,28088,32912
35760,28098,32903
35004,28100,32887
32592,28094,32869
30652,28098,32856
29437,28088,32845
28645,28080,32742
30004,28073,32640
32065,28073,32666
34372,28085,32760
35764,28096,32677
35796,28110,32758
34436,28114,32740
32540,28110,32567
30334,28108,32570
28541,28109,32551
28357,28098,32692
28972,28095,32673
30828,28097,32661
33512,28104,32652
35512,28108,32632
35748,28124,32560
34896,28125,32567
33060,28121,32668
30784,28121,32600
29340,28116,32636
29120,28108,32633
30285,28093,32567
32185,28098,32511
34337,28108,32450
35916,28121,32592
36232,28127,32565
34844,28140,32500
33001,28134,32519
31312,28128,32494
29668,28133,32481
29744,28113,32513
30846,28108,32493
33100,28106,32444
35237,28120,32546
36932,28124,32360
37248,28133,32505
36432,28143,32492
34316,28149,32476
32380,28132,32393
30978,28129,32500
31036,28123,32425
32824,28104,32316
35168,28113,32305
37376,28122,32297
40048,28130,32300
40728,28140,32435
40492,28151,32364
38029,28143,32420
36030,28140,32424
34932,28135,32365
34145,28127,32236
34240,28120,32228
35640,28132,32198
37408,28133,32198
37872,28159,32349
36301,28179,32322
33700,28188,32239
30390,28199,32317
26201,28207,32327
21636,28228,32313
19892,28200,32295
20596,28210,32188
22716,28204,32104
25872,28212,32104
27745,28222,32086
28864,28230,32095
28633,28241,32220
27196,28231,32197
24804,28223,32172
23540,28215,32183
24040,28213,32047
25312,28207,32030
28200,28190,32032
31680,28199,32148
34276,28199,32109
36052,28211,32079
35248,28220,32119
32984,28208,31957
31228,28205,32088
30804,28194,32040
30456,28188,32103
31417,28181,32007
33944,28180,31957
36284,28188,31909
38084,28199,31908
38744,28210,32039
37872,28218,31997
36256,28226,32048
34476,28204,31878
32652,28196,32014
31828,28196,31966
32620,28196,32023
35024,28186,31847
37152,28207,31984
41636,28212,31952
40336,28228,31999
38800,28239,31821
36060,28244,31972
33313,28240,31888
31324,28229,31913
30712,28226,31839
31748,28220,31956
34540,28214,31921
36128,28229,31905
37328,28247,31807
38108,28255,31970
37984,28260,31918
36120,28255,31882
33036,28256,31836
31444,28249,31972
31637,28237,31895
32804,28228,31983
34528,28236,31893
36656,28244,31839
38064,28263,31958
38644,28284,31948
37660,28278,31813
35268,28284,31972
32648,28281,31926
31120,28273,31968
30952,28261,31816
31668,28260,31845
34048,28259,31973
36632,28271,31933
37902,28284,31917
38316,28293,31912
36944,28302,31920
34477,28308,31785
31988,28305,31793
30212,28303,31935
29436,28295,31836
30204,28294,31918
32668,28284,31910
35228,28295,31908
36644,28317,31854
36848,28324,31747
35784,28335,31877
33944,28334,31820
31448,28335,31848
29476,28335,31823
29828,28317,31751
31412,28304,31743
33365,28309,31672
34996,28319,31666
37204,28335,31686
37836,28342,31789
37236,28356,31708
35088,28357,31799
32628,28351,31632
31552,28345,31630
31444,28328,31732
33020,28321,31714
34604,28328,31668
37344,28340,31582
38968,28356,31710
39740,28367,31638
44008,28368,31691
40672,28364,31596
36884,28359,31536
33893,28359,31516
32728,28357,31531
33152,28353,31620
35088,28356,31560
37836,28364,31581
39089,28382,31457
39252,28415,31449
38765,28407,31517
36876,28409,31552
34520,28409,31440
32476,28397,31351
32156,28391,31383
32848,28384,31489
34478,28389,31486
36864,28407,31428
38965,28418,31469
38844,28435,31388
37560,28441,31281
35616,28446,31430
33296,28444,31349
30688,28437,31394
29936,28435,31236
30820,28435,31281
32744,28423,31362
35376,28439,31351
36857,28449,31285
37246,28466,31212
36304,28478,31260
34216,28480,31312
31472,28476,31348
29770,28473,31178
28704,28479,31316
29172,28476,31266
31340,28469,31300
33880,28479,31199
35468,28484,31160
35416,28504,31257
33990,28520,31276
32320,28517,31213
29504,28537,31106
27592,28521,31159
26988,28508,31205
27960,28518,31239
29353,28525,31153
32228,28513,31092
33944,28535,31217
34113,28548,31142
33296,28564,31183
31152,28570,31049
28568,28567,31184
26952,28567,31144
26848,28557,31121
27945,28552,31116
29888,28548,31169
32364,28551,31132
33839,28577,31038
34268,28581,31006
33328,28591,31049
31068,28600,31084
28724,28605,31153
21416,28647,31008
23036,28617,31132
26068,28604,31077
29120,28588,31054
32348,28584,30980
34604,28598,31005
35416,28604,31111
35038,28619,31092
33444,28621,31100
31212,28621,30970
29776,28601,30972
29818,28602,31074
31232,28594,31082
33356,28602,31004
35520,28612,31012
37228,28626,30960
37924,28635,31077
37732,28644,31005
35776,28645,31074
33108,28642,30915
31792,28631,31057
31326,28636,30985
31264,28629,31053
32864,28628,30960
34901,28642,30877
36788,28656,30887
37096,28673,31021
36724,28673,30997
34540,28688,30940
32044,28686,31001
29541,28685,30877
28352,28689,30833
28893,28679,30853
30560,28678,30973
32828,28685,30967
35032,28700,30934
35684,28715,30872
34304,28728,30800
31845,28725,30846
29224,28737,30956
28112,28729,30953
28148,28725,30932
28324,28714,30906
29504,28719,30929
31672,28724,30880
33860,28735,30796
34696,28745,30918
34068,28760,30855
31992,28762,30876
29412,28761,30797
27740,28751,30800
27341,28757,30855
27704,28757,30908
30084,28745,30890
32897,28749,30852
34712,28761,30815
35724,28775,30856
35680,28789,30822
33996,28782,30727
31692,28791,30749
29424,28787,30839
28736,28777,30820
30512,28762,30776
32058,28762,30793
34368,28775,30797
36314,28785,30709
37452,28799,30769
36897,28805,30628
34732,28812,30620
32400,28808,30649
30236,28815,30628
29724,28804,30694
30656,28799,30663
32564,28793,30629
34972,28804,30665
36393,28818,30567
37168,28829,30601
36332,28836,30599
34608,28852,30578
31880,28849,30460
30352,28844,30485
29464,28836,30504
30212,28824,30567
31744,28828,30540
34388,28840,30500
35708,28856,30501
36104,28866,30497
35520,28876,30529
33668,28883,30510
31140,28885,30424
29166,28882,30364
28296,28869,30368
29116,28868,30385
31328,28860,30318
34024,28871,30340
36108,28879,30351
36744,28896,30308
35708,28908,30374
33364,28920,30357
30397,28916,30444
28768,28916,30417
28752,28903,30367
29252,28900,30400
30849,28905,30428
33128,28905,30389
35040,28916,30256
35608,28929,30308
35180,28941,30381
33824,28948,30348
31492,28943,30392
29220,28948,30320
28057,28946,30233
28796,28932,30295
30740,28932,30365
32516,28941,30314
34156,28961,30364
35080,28964,30372
35268,28975,30280
33332,28981,30372
30432,28980,30340
28004,28984,30367
27720,28980,30253
29120,28967,30271
30937,28965,30349
33076,28965,30325
37440,28966,30327
37932,28985,30224
36984,28993,30245
34708,29004,30351
32324,29000,30305
29780,29004,30343
29249,28996,30220
30236,28981,30365
31712,28984,30347
33393,29002,30303
35420,29012,30340
36980,29012,30211
35820,29036,30264
33744,29039,30364
31588,29037,30381
30716,29029,30268
30600,29023,30372
30300,29019,30384
31954,29012,30259
34276,29020,30369
36344,29031,30358
37500,29047,30305
36588,29057,30392
35140,29061,30296
33272,29056,30319
31836,29038,30383
30176,29045,30239
30620,29036,30303
32584,29036,30364
35028,29047,30348
36948,29058,30228
37044,29072,30390
37168,29083,30325
36008,29085,30373
34376,29080,30241
32637,29069,30284
32208,29063,30389
32926,29058,30333
35308,29055,30368
37992,29058,30244
39632,29073,30397
40692,29085,30332
40196,29094,30350
37716,29103,30280
34800,29104,30372
31220,29103,30333
29108,29116,30392
28420,29098,30311
29336,29120,30287
30480,29127,30380
30620,29128,30359
29466,29168,30380
27716,29188,30260
25281,29196,30265
22724,29199,30384
21320,29191,30317
21424,29185,30398
22228,29167,30244
24408,29173,30376
28118,29148,30328
30896,29171,30281
32148,29177,30383
31716,29189,30381
30512,29190,30290
28864,29191,30360
27581,29191,30372
27284,29175,30367
28480,29164,30237
30824,29157,30332
34020,29163,30368
36428,29166,30212
37500,29182,30320
37068,29199,30272
35208,29204,30276
32680,29200,30316
30808,29191,30196
30708,29183,30325
31572,29168,30308
32840,29175,30244
34888,29176,30346
37060,29188,30335
38108,29203,30302
37212,29218,30276
35256,29226,30340
32794,29226,30348
30536,29228,30236
29792,29212,30264
30876,29204,30361
32544,29206,30312
35128,29207,30333
36968,29221,30237
37520,29236,30380
37196,29247,30335
36092,29249,30376
33460,29249,30286
31676,29242,30351
31172,29236,30228
31832,29222,30381
33032,29228,30340
35136,29233,30364
37592,29241,30242
38964,29254,30311
38524,29263,30364
36436,29272,30373
34244,29276,30233
32877,29256,30394
32113,29250,30351
33100,29247,30357
35144,29246,30296
37136,29248,30332
39040,29256,30380
39808,29282,30285
38568,29293,30354
36984,29292,30346
34865,29285,30232
33125,29289,30365
32376,29279,30332
33072,29277,30280
34816,29268,30365
36480,29286,30305
38088,29298,30269
38992,29310,30359
38424,29316,30286
36376,29325,30349
33856,29321,30189
31996,29317,30340
30360,29318,30317
30928,29305,30176
32660,29311,30317
34904,29318,30229
36892,29319,30315
37517,29343,30252
36576,29351,30229
34786,29364,30210
32353,29356,30253
30520,29356,30199
29988,29348,30284
30389,29340,30277
31936,29336,30142
34492,29342,30173
36504,29350,30218
37460,29373,30215
36856,29383,30094
35808,29380,30237
33788,29385,30198
32120,29375,30215
31572,29369,30100
31980,29356,30162
33952,29357,30180
35644,29364,30078
37756,29380,29996
38544,29385,30055
38592,29399,30132
37372,29411,30076
34624,29405,30092
32272,29401,30033
30928,29396,29964
32096,29389,30061
33696,29389,30016
35888,29394,30045
37824,29407,29864
38196,29423,29937
37892,29428,29993
36616,29433,29949
33769,29442,29960
31308,29431,29861
30045,29429,29936
30884,29421,29894
32484,29423,29785
34613,29419,29904
36836,29429,29856
37652,29447,29885
36916,29463,29764
35320,29470,29870
33120,29471,29845
30868,29468,29797
29648,29471,29709
29870,29456,29843
31272,29461,29786
33180,29457,29797
35012,29473,29669
36712,29484,29816
36222,29492,29764
34288,29501,29738
31852,29496,29770
29012,29513,29658
28020,29498,29679
34120,29462,29734
33860,29476,29695
34304,29486,29735
35772,29503,29669
36236,29519,29623
35396,29533,29615
33672,29532,29701
31093,29544,29653
29444,29528,29631
28820,29509,29599
29228,29521,29549
30801,29513,29652
32564,29527,29621
34200,29532,29637
34920,29548,29620
35060,29561,29589
33612,29564,29519
31372,29556,29604
28984,29568,29594
27664,29565,29589
28540,29552,29476
30280,29543,29586
32754,29544,29544
34440,29561,29532
35392,29569,29572
34728,29592,29535
33008,29593,29424
30836,29595,29424
28967,29596,29548
28766,29578,29509
28776,29583,29535
30224,29575,29405
33300,29575,29440
36132,29575,29465
36860,29595,29496
36200,29615,29520
34814,29613,29381
32600,29615,29412
30592,29613,29420
30165,29601,29429
30644,29599,29437
32603,29589,29439
34964,29599,29439
36996,29609,29437
37776,29621,29503
37656,29629,29500
36340,29640,29481
33876,29642,29464
31624,29640,29460
30145,29638,29494
30590,29621,29462
32488,29620,29454
33916,29636,29492
35572,29641,29481
36076,29661,29464
35912,29679,29469
34224,29685,29500
31636,29675,29350
29876,29676,29512
28728,29669,29508
28871,29676,29511
30064,29676,29486
31964,29682,29484
34412,29685,29504
35480,29703,29437
35176,29710,29455
33584,29718,29544
31136,29725,29524
29012,29730,29577
28445,29713,29567
28277,29712,29493
29324,29712,29462
31757,29704,29534
34068,29725,29556
35592,29730,29631
35196,29748,29634
33720,29748,29609
31032,29758,29623
29472,29753,29534
28537,29753,29660
28680,29736,29650
29901,29742,29664
32324,29740,29628
34584,29753,29599
35732,29766,29703
34968,29779,29668
33650,29796,29694
31324,29781,29580
29552,29790,29712
28664,29777,29703
29188,29775,29641
30524,29774,29640
33001,29774,29700
34857,29780,29725
35736,29799,29717
35040,29809,29598
34164,29823,29657
32217,29810,29718
30388,29813,29685
28580,29810,29733
28813,29796,29649
30608,29807,29610
33152,29808,29604
35260,29819,29662
36004,29828,29728
35912,29840,29725
34816,29845,29700
32496,29846,29676
30261,29844,29652
28760,29847,29580
29364,29844,29659
30805,29831,29668
32916,29844,29596
34764,29856,29618
36376,29865,29636
36676,29876,29652
35216,29885,29706
32580,29877,29679
30264,29877,29702
29214,29873,29580
29244,29878,29628
31121,29868,29667
32684,29873,29646
34820,29885,29633
36016,29897,29629
37156,29893,29703
34664,29912,29717
31792,29909,29700
29304,29924,29680
27762,29924,29692
28200,29913,29692
29916,29906,29670
32020,29917,29664
33904,29920,29708
35044,29935,29704
34848,29938,29703
33384,29957,29677
31292,29951,29696
28368,29965,29702
26808,29967,29701
27245,29928,29695
28768,29944,29700
31036,29949,29737
32760,29953,29629
34404,29968,29598
34592,29982,29638
33416,29997,29678
30725,29992,29746
28702,29993,29749
27816,29988,29746
28309,29981,29730
29425,29959,29740
31812,29980,29749
34199,29988,29757
35456,30004,29754
34900,30013,29754
33440,30021,29732
31132,30020,29736
29368,30020,29769
28461,30023,29768
28256,30009,29767
30144,30011,29689
32872,30002,29636
34696,30018,29663
35388,30025,29703
35424,30036,29651
33564,30060,29633
31900,30045,29620
30328,30045,29669
29144,30047,29757
29588,30030,29716
31124,30032,29744
33472,30032,29712
35832,30039,29647
36652,30054,29624
36648,30068,29636
35428,30076,29606
33148,30077,29724
31248,30068,29684
30189,30068,29684
30308,30060,29679
31440,30054,29700
33933,30060,29681
35856,30071,29694
37212,30078,29693
36964,30095,29676
35356,30103,29684
32816,30108,29704
30160,30116,29732
29092,30109,29653
30008,30092,29588
32000,30074,29648
34532,30093,29719
37092,30089,29699
38529,30108,29717
38856,30127,29745
37852,30122,29649
36316,30119,29664
34972,30108,29626
34036,30109,29629
34784,30097,29660
36584,30089,29664
38632,30095,29703
40980,30111,29710
41684,30121,29772
41104,30137,29751
39060,30151,29753
36072,30153,29788
32692,30165,29664
30190,30165,29687
28949,30159,29703
28692,30166,29738
29216,30185,29812
29752,30200,29809
29424,30220,29784
28828,30239,29789
28014,30249,29796
25848,30253,29792
24002,30228,29831
23048,30241,29741
23861,30219,29764
26141,30209,29848
28640,30197,29828
30888,30216,29837
32212,30235,29852
32816,30242,29752
32416,30244,29776
30889,30244,29872
28864,30247,29869
27848,30228,29874
28600,30237,29878
30420,30220,29887
32944,30215,29872
35513,30233,29871
37124,30239,29901
37000,30254,29899
35832,30256,29891
33248,30276,29932
30728,30266,29919
29888,30263,29862
30356,30255,29913
31824,30244,29962
33596,30251,29900
35488,30257,29841
36932,30272,29892
36436,30292,29992
35052,30303,29971
32992,30300,29964
30648,30284,29966
29036,30296,29981
23260,30311,29996
27208,30310,29937
31412,30292,29914
34328,30301,30039
35724,30301,30034
35652,30320,30036
35136,30324,30022
33356,30326,30020
31300,30325,30026
29832,30324,30037
29748,30321,30065
31032,30316,30076
33168,30311,30084
35168,30320,30086
36728,30333,30055
36928,30343,30060
35884,30348,30001
33772,30351,29968
31848,30356,29961
30544,30352,29972
30656,30343,30000
31844,30332,29978
34214,30340,29986
36414,30349,30016
37816,30359,29993
37764,30369,30021
36392,30377,30008
34048,30384,30026
31233,30388,29996
30012,30385,30004
30229,30373,30063
31896,30356,30120
33188,30367,30114
35360,30377,30140
36964,30391,30087
37248,30405,30024
35540,30413,30100
32764,30418,30161
30280,30417,30140
28436,30419,30130
28033,30396,30174
29144,30416,30140
31544,30404,30084
33988,30408,30076
35808,30427,30051
35880,30445,30073
34344,30449,30052
32417,30444,30052
30325,30446,30068
29013,30437,30124
28392,30434,30196
30320,30435,30202
33648,30428,30200
36020,30432,30196
37016,30436,30198
36348,30454,30189
35164,30469,30188
33584,30471,30161
31384,30465,30173
29902,30456,30190
30452,30455,30222
32576,30439,30196
34976,30444,30140
38181,30437,30073
39120,30455,30084
38674,30471,30124
37576,30483,30200
35232,30485,30180
32508,30484,30156
31216,30476,30151
31868,30471,30148
33137,30460,30143
34540,30470,30154
36104,30484,30169
37576,30496,30165
37816,30501,30169
36384,30511,30076
33812,30513,30044
31244,30521,30029
30012,30521,30071
30308,30512,30152
31572,30504,30121
33152,30509,30112
35696,30511,30152
36596,30526,30022
36524,30533,30042
35344,30547,30140
32952,30538,30111
30496,30556,30108
28764,30559,30092
28353,30528,30107
29876,30542,30092
32440,30538,30084
34628,30544,30092
36436,30549,30108
35980,30569,30105
34672,30574,30084
32604,30581,30068
30044,30590,30062
28256,30585,30063
28644,30573,30093
30380,30564,30095
32648,30556,30038
34256,30575,30085
35224,30582,30087
35556,30591,30065
34752,30608,30041
31812,30615,30044
29061,30616,30044
27976,30599,30025
27873,30601,30020
29525,30592,30016
31185,30598,30044
33536,30598,30056
35605,30600,30052
35613,30620,29987
34198,30639,29953
32012,30636,29932
29716,30631,29944
28192,30630,29904
27644,30624,29905
28885,30614,29912
31144,30613,29967
33932,30615,30039
35044,30631,30036
36164,30646,30030
34640,30654,30036
32856,30646,30048
30474,30656,30029
27936,30653,30037
27676,30652,30032
30076,30633,30052
32650,30617,30038
34820,30639,30028
35872,30655,30004
36096,30665,30036
35020,30675,30052
32725,30676,29964
30456,30664,29948
29421,30672,29984
29152,30662,29932
30472,30656,29973
32080,30664,30017
34012,30668,30058
35653,30675,30028
35932,30686,30071
34548,30700,30072
32400,30705,30063
30624,30708,29956
28988,30708,29949
28772,30692,29991
30280,30679,30084
32488,30660,30079
34624,30687,30065
36636,30692,30053
36888,30700,30084
35438,30716,30039
33640,30726,29956
30780,30720,30095
29196,30718,30086
29184,30711,30065
30984,30697,30068
33301,30692,30095
35372,30707,30088
37164,30711,30023
37612,30724,29988
35808,30745,30057
33540,30748,30092
31504,30740,30124
30340,30727,30010
29420,30727,30140
30470,30721,30113
32216,30725,30108
34668,30737,30024
36414,30732,30082
36524,30753,30166
36092,30759,30132
34300,30764,30135
31456,30770,30181
29718,30749,30151
29352,30743,30189
30668,30749,30151
32833,30740,30060
35116,30744,30116
36364,30759,30146
36288,30779,30177
35852,30781,30164
34362,30774,30117
27228,30817,30156
26912,30804,30226
28840,30772,30192
30424,30767,30207
32404,30757,30199
34588,30773,30192
36368,30776,30228
36468,30790,30209
35516,30800,30209
33518,30804,30247
31390,30796,30253
29634,30800,30230
29144,30799,30182
30160,30786,30167
32324,30776,30264
34060,30796,30233
35784,30802,30229
36308,30810,30261
35335,30822,30155
33168,30828,30200
30984,30819,30281
29656,30819,30221
30101,30800,30265
30908,30801,30236
33177,30796,30209
35548,30799,30292
36984,30820,30309
37348,30829,30180
36784,30831,30257
35214,30836,30308
32288,30833,30308
30620,30829,30266
30660,30823,30194
31664,30818,30276
33548,30812,30329
36092,30816,30308
37308,30828,30284
38172,30830,30269
37452,30844,30295
35628,30845,30343
33588,30851,30316
32120,30831,30357
31696,30835,30356
32920,30821,30325
35248,30831,30237
37502,30825,30351
39272,30832,30269
39788,30846,30271
38856,30855,30220
36232,30866,30244
33312,30865,30286
31108,30860,30352
31048,30855,30357
31540,30853,30317
33740,30852,30309
35792,30852,30354
36992,30871,30256
37324,30876,30249
36076,30886,30356
33861,30896,30332
31664,30892,30348
29712,30893,30274
29032,30895,30270
29304,30869,30340
31233,30884,30329
33953,30887,30356
35656,30892,30343
36276,30907,30266
35260,30911,30244
32968,30919,30316
30920,30917,30349
29064,30915,30398
28692,30893,30262
30064,30894,30401
32578,30892,30372
34260,30895,30407
35700,30910,30324
36345,30917,30308
35224,30933,30422
33272,30933,30385
30980,30927,30412
30052,30916,30327
30048,30910,30434
31528,30911,30397
32924,30902,30443
34848,30910,30335
36198,30924,30377
36420,30938,30428
35904,30940,30454
34405,30943,30432
32012,30944,30335
30701,30933,30411
29956,30918,30444
30909,30921,30385
33264,30921,30391
35821,30916,30491
37389,30929,30471
37772,30944,30508
35812,30959,30480
33776,30965,30401
31288,30957,30536
29796,30961,30505
29976,30948,30505
31448,30933,30464
34134,30933,30500
36288,30936,30566
38372,30946,30553
38732,30961,30596
37868,30971,30549
35906,30968,30507
33804,30968,30552
32184,30959,30637
32204,30948,30608
33716,30943,30657
35972,30942,30572
37736,30945,30677
38460,30965,30663
37820,30981,30700
36396,30992,30572
33588,31004,30584
29776,31005,30660
27284,31019,30721
25665,31013,30718
24532,31029,30629
25336,31031,30703
27936,31028,30774
27544,31055,30756
27672,31063,30723
26760,31076,30727
24801,31061,30800
23112,31071,30821
21905,31069,30732
21444,31056,30784
23312,31045,30884
25569,31020,30858
28008,31036,30825
30576,31048,30855
31909,31047,30912
32160,31058,30949
30400,31061,30921
28880,31053,30825
28268,31044,30993
28732,31028,30976
30160,31022,30988
33017,31012,30905
34980,31019,30911
36737,31035,31046
38148,31037,31047
37596,31047,31068
35220,31055,30956
32653,31040,31120
31122,31047,31086
30428,31047,31129
31292,31035,31027
33064,31031,31176
36056,31029,31167
38000,31042,31205
38836,31052,31205
37708,31062,31100
35356,31069,31246
33080,31068,31227
31648,31064,31276
30636,31060,31204
31360,31049,31153
33728,31048,31312
36364,31050,31290
38188,31054,31348
38496,31074,31276
38140,31076,31262
36056,31084,31369
33204,31096,31340
31092,31095,31366
30348,31086,31408
31487,31069,31285
33616,31073,31351
36184,31079,31429
37960,31087,31423
38237,31099,31460
37764,31105,31351
35932,31116,31495
33552,31117,31465
31640,31108,31504
30860,31109,31442
31872,31087,31381
34093,31097,31428
36228,31101,31532
38257,31108,31503
43892,31095,31580
41324,31111,31453
38284,31119,31452
34904,31117,31569
32637,31125,31540
31173,31132,31535
31652,31125,31507
33160,31124,31623
35904,31126,31591
37178,31137,31593
37718,31150,31644
36549,31165,31653
33900,31170,31662
31304,31172,31654
29080,31179,31680
28245,31170,31625
29312,31160,31544
31760,31148,31605
33912,31162,31688
35692,31170,31694
36375,31176,31711
35476,31190,31623
33404,31198,31599
31508,31199,31734
29860,31193,31693
29460,31190,31727
30109,31189,31695
32136,31180,31667
34312,31168,31732
35572,31191,31740
36052,31207,31661
35756,31227,31777
34136,31220,31731
31708,31228,31749
30012,31223,31680
29753,31207,31767
31028,31196,31788
33160,31209,31652
35200,31209,31709
37340,31209,31772
38104,31223,31732
37520,31237,31736
35600,31239,31653
33652,31239,31760
32132,31238,31788
30980,31229,31720
32569,31221,31645
35048,31206,31773
37428,31218,31716
39216,31229,31772
39724,31246,31647
38476,31260,31636
36200,31268,31756
33376,31268,31722
31864,31261,31748
30884,31263,31615
31714,31239,31748
33472,31258,31739
35526,31268,31621
37268,31278,31741
37680,31292,31744
36870,31292,31648
34860,31305,31736
32289,31308,31692
30464,31301,31595
29840,31298,31730
30816,31287,31688
32356,31292,31610
33688,31319,31724
35133,31321,31673
36452,31319,31668
35920,31337,31622
33793,31349,31678
31120,31356,31596
28977,31356,31584
28692,31342,31668
29444,31346,31673
30960,31341,31546
34016,31345,31666
35772,31353,31644
36556,31359,31587
35412,31375,31570
33336,31391,31652
31270,31388,31616
28744,31391,31613
28388,31383,31523
29624,31381,31564
31468,31383,31626
33924,31385,31576
35740,31392,31630
36516,31407,31580
35744,31417,31494
33053,31425,31493
30266,31424,31608
29480,31420,31556
28632,31431,31568
28756,31424,31580
30600,31425,31596
32977,31428,31551
34572,31439,31465
35157,31459,31465
34692,31472,31516
32905,31473,31580
30116,31487,31581
27928,31492,31535
27456,31486,31495
27900,31479,31456
30384,31470,31484
32948,31463,31495
34704,31484,31584
35392,31495,31588
34866,31511,31576
33368,31512,31564
31136,31525,31592
29464,31519,31556
29088,31492,31500
29754,31506,31481
31777,31502,31457
33576,31519,31484
35476,31524,31516
36044,31532,31605
35005,31556,31584
32992,31561,31572
30708,31575,31556
28828,31564,31479
20806,31614,31500
23880,31597,31616
29020,31576,31584
32777,31556,31573
35056,31573,31620
35869,31591,31498
35544,31604,31632
33904,31612,31604
31136,31618,31639
29192,31608,31569
28416,31609,31519
29464,31613,31623
31144,31604,31636
33696,31615,31494
36160,31605,31644
37028,31622,31628
36616,31639,31618
34320,31646,31610
31980,31655,31660
30618,31652,31676
29225,31657,31648
29796,31651,31543
32416,31636,31676
34952,31647,31632
36864,31655,31678
37212,31673,31621
36712,31686,31540
34928,31700,31684
32672,31700,31658
30156,31723,31677
29624,31681,31615
31256,31687,31545
33346,31687,31695
35240,31693,31649
37369,31708,31708
38280,31722,31616
37120,31740,31582
35232,31748,31688
32472,31748,31668
30436,31748,31688
29936,31751,31575
29848,31732,31630
31708,31751,31711
34396,31750,31698
36556,31751,31705
37252,31781,31710
35856,31796,31717
33773,31800,31695
31500,31796,31709
30468,31815,31718
29256,31812,31612
29784,31803,31688
31726,31784,31689
34224,31810,31685
35756,31822,31702
36432,31829,31780
36552,31838,31771
34750,31844,31769
32568,31855,31760
30276,31860,31727
30020,31854,31801
31900,31845,31806
34289,31844,31801
37209,31839,31784
38780,31845,31772
39344,31871,31805
38376,31885,31837
36192,31886,31847
34213,31900,31844
33180,31893,31740
33044,31884,31709
33400,31884,31764
33956,31888,31789
35657,31893,31775
37892,31908,31758
38860,31919,31790
38144,31935,31813
35721,31956,31805
33328,31955,31905
31464,31951,31823
30044,31952,31824
30656,31959,31804
32504,31938,31816
34981,31950,31852
37240,31957,31952
37452,31975,31969
36769,31998,31973
35132,32007,31985
33020,31984,31972
31124,32002,31976
29924,32001,31972
29868,32004,32001
31816,32004,32013
33820,32001,31994
35528,32016,32004
36120,32039,32004
35584,32057,32018
34448,32054,32044
31768,32068,32056
29984,32061,32036
29040,32052,32108
30060,32052,32097
32820,32033,32028
34823,32060,32007
36220,32068,32053
36904,32078,32149
36352,32094,32140
33780,32113,32149
30860,32120,32173
29414,32118,32183
28876,32103,32176
29057,32113,32143
30040,32117,32197
32124,32115,32212
34664,32125,32196
35244,32135,32132
34984,32148,32085
33360,32157,32116
31018,32169,32102
28944,32173,32159
28316,32154,32263
27988,32160,32236
29240,32159,32144
32240,32153,32200
34884,32175,32246
35808,32181,32296
37128,32180,32222
34044,32207,32164
31332,32192,32159
29488,32212,32173
28428,32209,32182
28712,32201,32182
30680,32199,32189
33248,32191,32205
35564,32206,32214
36310,32209,32239
35848,32237,32254
34220,32244,32284
32180,32255,32369
29596,32254,32356
28424,32249,32364
29232,32238,32316
31436,32239,32256
34856,32218,32414
38064,32232,32384
39680,32241,32407
39732,32255,32428
37988,32262,32381
35056,32276,32292
33121,32276,32327
32240,32263,32452
32905,32252,32448
33876,32263,32460
35704,32277,32437
37012,32278,32435
37032,32305,32476
35956,32316,32435
33360,32340,32413
28988,32356,32399
25632,32365,32388
23708,32356,32365
22560,32375,32428
23296,32378,32526
25096,32346,32500
27900,32378,32488
30000,32390,32487
30146,32404,32526
28436,32415,32535
26732,32413,32524
25580,32413,32461
24560,32389,32452
25280,32398,32444
27724,32388,32508
31316,32388,32540
34052,32391,32541
35480,32397,32476
35864,32405,32422
35021,32406,32427
32724,32413,32474
30692,32421,32556
30244,32409,32552
31364,32404,32564
33097,32391,32535
35496,32404,32529
37880,32420,32532
38384,32423,32519
37796,32433,32572
35616,32449,32457
35416,32448,32430
32816,32440,32423
30776,32441,32432
31164,32444,32429
32740,32436,32489
35144,32445,32568
36908,32455,32544
37628,32468,32548
37196,32484,32573
35668,32492,32556
33111,32500,32497
30653,32479,32428
29540,32506,32406
29668,32502,32415
31153,32479,32404
33948,32492,32417
36084,32500,32438
37272,32513,32460
36612,32531,32527
35068,32541,32493
32877,32538,32530
31060,32544,32533
29804,32543,32485
29580,32545,32500
31512,32530,32442
33440,32534,32404
35760,32537,32372
37204,32550,32397
37252,32564,32508
35460,32572,32484
32990,32573,32484
30976,32572,32486
29964,32580,32464
30108,32565,32458
32688,32559,32448
35456,32557,32444
36741,32578,32438
37636,32587,32428
37280,32600,32423
35528,32612,32434
33272,32621,32437
30964,32617,32424
29445,32616,32428
29740,32604,32412
32052,32598,32421
34912,32600,32407
36968,32604,32398
37884,32623,32391
37400,32632,32341
35624,32637,32348
32932,32645,32374
30192,32654,32356
28340,32664,32325
28610,32647,32356
30400,32644,32301
32768,32647,32233
34940,32655,32218
35796,32668,32232
35316,32679,32253
34364,32683,32292
32608,32684,32324
30748,32677,32304
29556,32675,32294
20756,32722,32215
26236,32698,32212
32748,32670,32169
35932,32667,32166
37284,32685,32216
37344,32693,32272
36348,32707,32285
34644,32709,32247
32832,32700,32224
31780,32695,32227
32580,32691,32228
34332,32676,32220
36696,32677,32248
38612,32693,32120
39828,32702,32151
39296,32710,32169
37689,32725,32174
35280,32735,32255
32832,32728,32212
31404,32726,32239
31508,32725,32157
33620,32712,32246
35464,32719,32216
37392,32718,32231
38424,32743,32237
38196,32751,32277
36320,32763,32228
33937,32765,32136
31672,32770,32217
29708,32775,32302
29548,32773,32293
31332,32756,32285
33720,32770,32279
35640,32753,32320
37253,32775,32347
36400,32796,32218
34868,32807,32292
32272,32805,32372
29472,32793,32365
28344,32815,32364
28280,32807,32365
30108,32805,32393
32616,32803,32413
34316,32813,32445
35557,32820,32444
34920,32836,32367
33488,32845,32375
30452,32844,32408
27964,32860,32464
26980,32859,32463
27712,32831,32459
29056,32834,32508
31158,32834,32528
33184,32846,32423
34128,32863,32405
33644,32869,32459
32704,32879,32548
30284,32870,32540
28128,32883,32542
26884,32881,32572
27548,32860,32593
29092,32868,32604
31500,32865,32580
34232,32874,32600
35760,32873,32500
36276,32884,32546
34696,32897,32535
31666,32901,32671
29240,32896,32665
27604,32903,32661
26980,32895,32650
28176,32903,32668
30616,32897,32661
32820,32897,32669
33872,32917,32698
33456,32928,32647
32140,32927,32634
30616,32935,32612
29149,32932,32646
27692,32919,32760
27864,32899,32736
29320,32908,32718
31500,32911,32775
33538,32916,32661
35101,32932,32668
35080,32943,32710
33866,32943,32799
31328,32952,32787
29408,32951,32796
28520,32948,32782
29052,32932,32773
29900,32927,32766
32004,32935,32821
34536,32925,32822
36168,32943,32813
35812,32957,32751
33776,32966,32708
30778,32964,32756
28544,32981,32844
27544,32975,32846
27480,32972,32829
28896,32940,32826
31498,32959,32829
34088,32965,32832
35296,32964,32829
35576,32976,32836
34072,33001,32758
31625,32997,32758
29796,32989,32743
28040,32996,32766
27696,32993,32810
29776,32977,32879
32176,32975,32867
34124,32992,32861
35612,32993,32853
35576,33007,32873
33900,33012,32911
30930,33005,32778
28860,33012,32806
28096,33020,32831
28270,33013,32924
29877,33000,32900
31992,33009,32936
34360,33010,32885
35548,33005,32812
36876,33011,32940
34716,33031,32900
31788,33039,32947
29348,33040,32927
28756,33023,32831
29044,33029,32952
30328,33012,32940
32436,32993,32921
34260,33031,32964
35268,33036,32900
35352,33048,32844
34596,33045,32865
32080,33060,32892
30133,33061,32900
28476,33046,32965
27838,33017,32933
28808,33048,32999
31612,33045,32968
34212,33048,32857
35264,33067,32909
35436,33077,33000
34588,33070,32996
32440,33062,32981
30112,33073,32964
28978,33076,32979
28948,33068,33022
29858,33060,32997
32496,33053,32932
35156,33069,32884
36846,33070,32903
37220,33085,32950
35152,33093,33031
32584,33103,33029
30152,33100,33037
28844,33092,33001
28704,33089,33038
29728,33085,32909
32860,33079,32961
34592,33085,33059
36048,33093,33017
36016,33108,33069
34448,33125,32996
32516,33113,32961
30230,33121,33071
28760,33117,33063
28708,33093,33031
30612,33109,33045
32944,33100,33080
35244,33101,33094
36516,33119,33047
36148,33127,32964
34540,33150,33020
32308,33132,33096
30420,33140,33077
28888,33149,33108
29248,33135,33018
30816,33125,33038
33084,33125,32997
34996,33140,33040
35816,33153,33132
35504,33159,33123
34372,33166,33121
32620,33174,33116
30260,33180,33093
28928,33166,33116
28560,33170,33129
29596,33164,33117
32008,33159,33159
34000,33165,33164
34836,33181,33146
34804,33196,33132
33308,33189,33162
30768,33204,33107
28580,33193,33063
26908,33213,33028
27013,33205,33056
28517,33190,33060
31232,33193,33076
33220,33205,33076
34496,33196,33074
34300,33231,33072
33098,33237,33108
31501,33240,33233
29884,33236,33241
27669,33213,33246
27412,33228,33231
28580,33230,33229
30948,33224,33221
33668,33230,33245
34504,33241,33175
34248,33261,33140
33228,33263,33124
30968,33274,33152
29164,33268,33137
27340,33255,33130
26664,33270,33151
28696,33251,33132
31301,33249,33148
33752,33260,33204
35468,33268,33218
35968,33287,33159
34444,33296,33209
31740,33301,33214
29672,33303,33332
29789,33287,33324
30384,33272,33324
31688,33273,33338
34052,33276,33303
36600,33273,33324
38664,33285,33216
39208,33287,33262
38272,33300,33316
36284,33316,33341
34004,33310,33351
33016,33309,33336
33320,33300,33383
34158,33301,33415
36400,33297,33416
38812,33300,33303
39712,33309,33332
39048,33341,33420
37268,33345,33425
33888,33372,33420
30488,33372,33420
28132,33383,33415
26688,33376,33452
26516,33388,33412
27328,33396,33424
28185,33412,33359
28480,33423,33477
28980,33444,33463
28140,33453,33428
26428,33461,33429
24818,33456,33461
24128,33436,33480
24406,33445,33350
27232,33426,33383
29896,33423,33352
32524,33435,33400
33804,33448,33401
34172,33460,33505
33812,33468,33472
31633,33483,33454
29676,33479,33522
28236,33476,33501
29396,33467,33464
31072,33454,33510
34164,33447,33437
36400,33457,33470
37824,33473,33441
37676,33486,33380
36492,33501,33399
34088,33500,33426
32264,33511,33529
30660,33511,33488
30504,33509,33535
32144,33500,33521
34897,33500,33404
36805,33508,33409
37936,33516,33439
37446,33548,33460
35768,33561,33558
33964,33564,33523
31476,33572,33576
30864,33567,33568
30321,33567,33492
31152,33569,33436
33501,33564,33482
35704,33572,33600
37408,33576,33575
37164,33600,33623
36044,33612,33544
33937,33628,33637
31636,33626,33577
29976,33626,33653
29576,33622,33588
30488,33635,33607
32896,33622,33533
35104,33631,33560
36716,33649,33593
36504,33665,33681
35336,33683,33652
33112,33685,33728
30900,33688,33733
29488,33676,33700
28984,33692,33736
30612,33685,33711
25180,33716,33752
29737,33732,33644
34180,33725,33685
36194,33729,33792
35540,33738,33781
33786,33735,33763
31712,33752,33839
29738,33751,33695
29513,33751,33843
30940,33750,33812
32624,33753,33860
35004,33765,33748
36800,33767,33730
37308,33788,33775
35964,33790,33876
33300,33817,33848
30932,33825,33912
29376,33829,33782
29524,33823,33912
30280,33826,33881
32368,33823,33897
35572,33830,33872
37428,33838,33773
37672,33852,33842
35972,33879,33893
33288,33892,33884
31364,33885,33925
29764,33900,33940
29992,33884,33927
31112,33892,33909
33504,33892,33820
35996,33876,33770
37584,33908,33775
37936,33919,33789
36912,33938,33912
34552,33956,33887
31752,33962,33881
30060,33964,33844
29944,33960,33862
31644,33952,33860
34065,33964,33829
36896,33962,33757
38584,33972,33758
38900,33993,33841
37988,34003,33799
35624,34018,33776
32724,34029,33821
30764,34012,33766
30760,34020,33662
32688,34025,33796
34688,34028,33742
36449,34037,33710
38744,34049,33740
39440,34052,33748
38248,34074,33677
36524,34085,33572
33829,34092,33594
31968,34102,33612
31368,34103,33692
32704,34100,33676
34668,34103,33605
37300,34100,33657
39152,34107,33502
39276,34135,33537
37832,34155,33601
34888,34168,33573
32064,34177,33536
31316,34164,33572
30804,34173,33420
31304,34165,33470
33605,34181,33512
35632,34173,33492
37348,34200,33509
36914,34228,33503
35696,34249,33454
33760,34246,33414
31588,34225,33316
29924,34252,33316
29780,34252,33321
30693,34252,33313
32318,34260,33314
33844,34279,33388
35412,34293,33356
36444,34301,33316
35476,34321,33345
32608,34329,33220
30084,34342,33245
28372,34348,33301
27400,34356,33276
28808,34336,33268
31220,34324,33276
33500,34351,33143
34548,34372,33160
34640,34390,33129
33124,34404,33120
31384,34417,33100
29326,34401,33116
27360,34420,33212
27148,34425,33200
28313,34424,33179
29924,34420,33159
32136,34436,33151
33681,34452,33077
34544,34457,33173
34164,34464,33155
31656,34494,33119
29112,34488,33124
27716,34459,33124
27172,34493,33004
28836,34485,32988
31012,34493,33039
32777,34495,33096
34792,34511,33069
35556,34525,33096
34588,34543,33065
32181,34558,33070
30144,34557,32968
28676,34556,32980
28700,34551,33024
30728,34543,33003
32764,34543,33047
34196,34548,32942
36180,34576,32932
36632,34588,32924
35840,34609,33009
34072,34604,32982
30881,34626,32956
28576,34625,32981
29256,34616,32948
30552,34620,32962
32340,34615,32921
34070,34636,32864
36060,34647,32839
36976,34655,32937
36420,34660,32933
34528,34681,32933
32376,34677,32903
30056,34676,32888
29704,34687,32885
29992,34685,32882
32436,34685,32892
34648,34689,32772
36460,34711,32775
36816,34721,32877
36024,34743,32836
34460,34749,32864
31612,34757,32764
29732,34748,32775
28932,34751,32839
29989,34748,32812
32096,34758,32804
34309,34772,32841
36512,34770,32772
37988,34781,32713
36794,34804,32692
34436,34815,32732
31773,34818,32716
30726,34785,32736
30404,34809,32798
30640,34815,32775
32896,34814,32799
35296,34823,32665
37199,34839,32785
38148,34844,32748
36996,34852,32757
34616,34854,32775
32400,34870,32661
30273,34886,32713
29452,34884,32742
30436,34876,32721
33224,34880,32670
36208,34884,32676
36764,34897,32698
36720,34914,32760
35360,34933,32748
33908,34927,32760
31684,34940,32669
29876,34950,32775
28908,34944,32766
29800,34932,32758
31920,34944,32757
35044,34936,32704
36928,34951,32788
38240,34965,32768
36892,34983,32775
34296,34996,32801
31868,35000,32773
30128,35004,32708
23124,34977,32740
27184,35000,32820
31100,35012,32805
33893,35012,32814
36100,35006,32820
36648,35033,32741
35856,35051,32741
34181,35047,32749
31424,35057,32772
29640,35060,32881
29477,35049,32870
30872,35041,32856
32792,35044,32897
34937,35047,32854
36360,35068,32832
37255,35087,32810
36944,35095,32823
35156,35100,32864
31928,35108,32962
29700,35111,32936
29540,35105,32949
30780,35103,32973
33004,35103,32972
35420,35081,33017
36512,35120,33009
37248,35124,33018
36580,35144,32920
33928,35164,32977
31080,35164,33015
29644,35173,33092
29440,35166,33076
29945,35159,33112
31832,35124,33095
34148,35168,33029
36166,35173,33093
36288,35189,33149
35880,35204,33166
33152,35220,33106
29760,35235,33133
28655,35215,33181
27944,35214,33205
28624,35213,33144
30768,35216,33172
33224,35217,33261
35432,35236,33248
35708,35247,33279
34744,35262,33181
32924,35262,33224
30500,35271,33335
28424,35272,33319
27720,35257,33359
29209,35244,33380
31960,35253,33388
34541,35255,33377
36280,35273,33284
37424,35273,33329
36956,35288,33349
35040,35280,33368
32637,35300,33455
30240,35300,33445
30612,35284,33455
31652,35284,33468
26606,35316,33429
32108,35316,33380
37376,35297,33412
39068,35313,33421
38233,35322,33533
35272,35349,33524
32544,35342,33524
29568,35350,33527
27828,35356,33535
28416,35351,33576
29672,35340,33588
30680,35365,33588
31404,35384,33590
30400,35404,33584
27908,35430,33597
24704,35444,33637
21514,35428,33625
21097,35375,33614
21177,35418,33566
21895,35401,33614
23802,35416,33700
26746,35432,33680
29652,35429,33695
31097,35451,33710
30164,35420,33749
28712,35457,33646
27074,35461,33701
26376,35454,33760
25977,35445,33772
27480,35432,33761
29728,35432,33788
32832,35428,33792
35600,35431,33782
36481,35444,33796
35816,35461,33804
34044,35463,33829
32194,35468,33855
31040,35456,33820
30640,35462,33772
31856,35445,33788
33732,35444,33903
35388,35456,33901
37028,35470,33908
37192,35479,33916
36776,35477,33896
34792,35508,33941
32456,35476,33824
29784,35502,33895
29848,35495,33952
30416,35492,33953
31832,35484,34007
34040,35480,33885
36404,35510,34025
36592,35520,34016
35628,35539,34015
33660,35536,34054
31733,35533,33975
30384,35535,33973
29680,35534,33964
30132,35514,34034
32200,35527,34085
35000,35527,34098
36437,35532,34137
35984,35556,34149
35252,35570,34128
33660,35564,34141
31864,35540,34195
30112,35559,34175
29692,35559,34156
30623,35524,34076
32468,35551,34132
35048,35556,34148
37072,35559,34145
38088,35567,34180
38341,35581,34262
36748,35591,34268
33514,35578,34284
31196,35588,34287
30696,35588,34272
31364,35589,34265
33056,35572,34274
35736,35580,34308
37752,35590,34320
38592,35591,34303
38044,35613,34237
35596,35625,34244
33180,35623,34236
30988,35620,34225
30060,35620,34208
30544,35612,34206
31976,35612,34272
34180,35610,34260
36604,35615,34212
37852,35639,34236
36692,35639,34228
34260,35658,34248
31808,35633,34360
29420,35652,34332
28086,35647,34365
28940,35642,34325
31320,35633,34224
34304,35616,34281
36140,35640,34338
36388,35663,34317
35904,35652,34351
34168,35684,34348
31237,35680,34319
29032,35671,34331
29084,35673,34230
30716,35657,34221
32924,35652,34200
34720,35652,34190
37184,35656,34199
38996,35663,34296
38452,35679,34251
37044,35684,34270
35180,35684,34190
33296,35677,34117
32500,35664,34121
33080,35657,34096
35164,35660,34166
37364,35654,34169
39488,35666,34144
40477,35668,34036
39584,35684,34013
30189,35748,34055
30692,35735,34088
31092,35691,34092
31492,35684,33957
33081,35676,34051
35652,35676,34001
37836,35672,33969
40208,35680,33927
41096,35687,33985
40084,35700,33937
37824,35713,33936
35132,35716,33824
33012,35712,33903
31772,35713,33846
32449,35700,33871
34460,35703,33728
36944,35700,33733
38900,35700,33787
39436,35713,33738
38340,35729,33755
36800,35740,33716
34169,35742,33609
32508,35709,33589
30764,35729,33655
30624,35733,33597
32360,35722,33564
33764,35735,33559
35932,35737,33509
36616,35750,33420
35708,35753,33398
34288,35772,33432
31202,35776,33404
28722,35761,33372
27178,35765,33348
27832,35760,33204
30029,35756,33201
32381,35748,33254
34376,35767,33204
35312,35776,33159
34300,35783,33152
32420,35792,33044
30045,35793,33087
28008,35792,33031
27596,35781,33025
27733,35769,32917
29294,35748,32877
31576,35772,32896
33792,35788,32884
34668,35798,32748
35008,35795,32756
34302,35800,32762
31796,35780,32721
29221,35796,32660
27984,35784,32666
29081,35783,32631
31020,35770,32623
33332,35775,32572
36044,35778,32509
37360,35788,32458
37188,35790,32413
35860,35792,32376
33128,35789,32331
30664,35794,32312
22924,35821,32281
25940,35802,32279
30752,35788,32289
34796,35780,32252
37668,35775,32284
38480,35771,32262
38476,35791,32236
36760,35796,32220
34692,35792,32188
33196,35789,32160
31620,35765,32136
31936,35778,32083
34596,35772,32047
38248,35766,32066
40620,35769,32064
40548,35782,32095
39622,35789,32081
37908,35797,32086
35532,35800,32048
32992,35780,32036
31712,35792,31989
31668,35785,32016
33560,35781,32012
36068,35796,32079
37886,35789,32076
38082,35804,32065
37448,35814,32071
36016,35823,32076
33444,35818,32083
31428,35805,32105
29829,35810,32109
30544,35798,32159
31949,35780,32150
34584,35796,32110
37236,35799,32129
37676,35813,32222
36980,35824,32236
35045,35833,32249
32108,35836,32268
29800,35828,32332
29648,35807,32317
29536,35816,32280
31142,35805,32328
33705,35796,32372
35380,35813,32422
36157,35820,32519
35861,35830,32496
33949,35844,32519
31164,35846,32556
28924,35801,32629
27900,35822,32646
28321,35813,32713
30600,35813,32796
32780,35808,32820
35172,35816,32869
36184,35817,32927
35744,35816,32996
33952,35841,33051
32096,35837,33026
29794,35828,33140
28648,35829,33188
28828,35811,33247
33024,35796,33284
35128,35802,33343
36840,35810,33393
37820,35817,33447
37220,35832,33517
35724,35824,33493
33464,35800,33516
31292,35825,33534
29926,35817,33636
30168,35813,33710
31416,35812,33845
33745,35780,33897
35896,35812,33870
36881,35813,33903
36512,35835,33968
35252,35841,33981
33768,35831,34036
30744,35828,34127
28575,35790,34181
28440,35823,34257
30072,35812,34301
32500,35807,34408
34760,35813,34415
34920,35837,34478
34636,35839,34582
33381,35844,34593
31038,35836,34588
29121,35815,34588
27264,35828,34684
27188,35821,34813
29176,35832,34841
32149,35825,34852
33798,35820,34953
34312,35837,34973
34504,35817,35020
32592,35847,35068
29620,35856,35130
27744,35844,35128
26618,35837,35164
27104,35823,35237
28802,35820,35296
31140,35817,35314
32940,35825,35365
34132,35836,35392
34632,35839,35409
32940,35833,35452
30061,35847,35492
27436,35847,35538
28084,35832,35598
29366,35772,35636
31380,35812,35664
33056,35808,35716
34688,35815,35752
35400,35821,35752
34784,35840,35796
32776,35812,35841
30460,35847,35900
28532,35841,35912
27364,35804,35917
27540,35825,35943
30025,35785,35961
32860,35813,35992
35372,35812,36065
31720,35847,36076
33118,35846,36088
33140,35844,36164
31233,35840,36228
29721,35828,36240
28444,35820,36204
28528,35772,36293
29052,35821,36212
30248,35825,36231
31386,35832,36268
31853,35838,36284
30316,35870,36411
27484,35866,36501
24194,35871,36484
20720,35872,36508
19032,35866,36564
20428,35845,36457
20988,35847,36486
23352,35844,36615
26344,35856,36653
28308,35867,36673
28560,35876,36729
27772,35862,36765
26532,35860,36780
24652,35859,36804
23440,35847,36836
23448,35840,36853
25116,35834,36896
28172,35839,36925
30852,35829,36809
32588,35845,36973
32660,35847,36861
31060,35847,36876
28648,35847,36917
26677,35838,37072
25520,35840,37093
25777,35816,36990
28391,35768,37135
31497,35807,37140
32584,35816,37156
33600,35837,37165
32717,35847,37226
29996,35847,37092
26868,35828,37124
24433,35861,37144
23368,35832,37167
23572,35815,37173
24788,35831,37206
26880,35828,37241
28744,35836,37358
30072,35823,37383
30325,35847,37421
29220,35859,37463
27416,35847,37479
24280,35798,37410
24064,35829,37348
25548,35820,37504
26612,35825,37481
29364,35815,37484
31290,35804,37574
32480,35827,37593
32284,35842,37456
22296,35888,37604
23216,35872,37605
24633,35847,37575
24806,35823,37639
25916,35817,37666
28137,35820,37664
31472,35804,37628
34320,35784,37541
35700,35812,37535
35552,35823,37541
33720,35807,37692
31180,35823,37699
29200,35825,37672
28373,35788,37700
29468,35807,37686
31196,35788,37601
33936,35783,37548
36421,35797,37648
37428,35813,37604
37536,35815,37533
35872,35796,37552
33134,35816,37692
30172,35835,37671
29116,35827,37670
29020,35814,37631
30641,35792,37586
33224,35812,37592
35476,35808,37597
37152,35817,37576
37016,35817,37587
35505,35825,37619
32660,35836,37594
30273,35829,37581
29250,35820,37568
29172,35820,37500
31372,35800,37380
34084,35804,37344
36112,35808,37484
36876,35809,37445
36569,35840,37407
34900,35832,37367
32592,35840,37400
30788,35845,37396
29534,35843,37349
29504,35831,37322
31196,35830,37284
34828,35813,37285
36820,35815,37244
37932,35813,37199
37544,35825,37174
36364,35837,37137
34272,35847,37117
32092,35815,37068
30634,35837,37045
30812,35839,37015
32626,35820,36980
35068,35823,36956
37432,35826,36900
38976,35823,36868
39252,35845,36827
38116,35844,36724
35620,35868,36629
32812,35846,36587
23044,35862,36676
27301,35866,36633
31102,35857,36542
34800,35843,36586
37084,35842,36527
38972,35836,36356
38992,35865,36320
37284,35866,36337
34744,35862,36383
32780,35868,36340
32096,35857,36293
31572,35858,36271
33021,35853,36244
35728,35864,36199
37500,35867,36172
38420,35879,36130
37980,35898,36078
36504,35898,36013
34788,35904,36041
31964,35906,35972
30104,35905,35836
30100,35894,35836
31726,35895,35798
34112,35894,35872
36468,35885,35823
37076,35911,35764
36645,35921,35768
35656,35932,35748
32566,35938,35712
29044,35949,35568
27428,35919,35560
27984,35933,35549
28718,35929,35612
30521,35940,35546
33272,35948,35576
34628,35933,35524
34364,35969,35441
32564,35972,35372
29760,35977,35365
26842,35972,35439
26144,35983,35367
26088,35964,35399
27040,35972,35316
29021,35972,35342
31389,35972,35310
33120,35988,35300
32896,35997,35278
31872,36001,35172
29260,36012,35156
26752,36010,35096
25709,35950,35041
25680,35996,35050
27840,35983,35036
30972,35991,35108
33376,35996,35060
35472,36000,35061
35168,36012,35029
35064,36016,34872
32428,36014,34861
30284,36023,34850
28768,36013,34871
28950,35973,34892
28856,36016,34863
31749,36009,34862
34808,36012,34767
36640,36015,34844
36748,36038,34805
35444,36037,34801
32560,36053,34651
29673,36053,34676
28548,36048,34732
29254,36041,34695
30152,36042,34635
32396,36037,34593
34654,36048,34653
36380,36059,34604
36244,36076,34636
35308,36083,34608
33164,36084,34551
31532,36073,34484
29768,36066,34471
29204,36076,34526
30956,36068,34476
32976,36073,34496
35032,36084,34436
36700,36084,34342
36270,36100,34349
35156,36119,34400
32796,36116,34414
30476,36122,34268
29120,36119,34383
29236,36103,34335
30716,36100,34306
32808,36103,34308
34680,36112,34304
36576,36132,34184
37032,36135,34169
35748,36125,34254
33136,36150,34213
31248,36150,34192
30349,36143,34188
30861,36129,34165
32032,36103,34145
33424,36140,34172
35808,36149,34081
38432,36145,33999
38396,36165,34040
36428,36178,34080
33436,36188,34074
31221,36177,34019
30376,36183,34045
30024,36173,34009
31057,36180,33892
33504,36186,33992
35404,36188,33969
37112,36197,33951
37276,36215,33913
35896,36221,33887
34592,36217,33878
31828,36193,33860
30217,36228,33757
30788,36215,33736
32088,36189,33761
34424,36222,33786
36884,36212,33788
38484,36229,33670
38328,36248,33758
36728,36261,33704
34136,36268,33728
31796,36256,33638
29664,36268,33597
29540,36269,33668
30838,36260,33625
33389,36266,33616
35396,36277,33616
38012,36271,33527
38044,36276,33484
36285,36308,33469
33584,36316,33476
31008,36316,33537
29588,36317,33516
29512,36272,33497
31192,36308,33487
33604,36304,33470
35964,36310,33444
38280,36317,33420
37760,36337,33388
35824,36345,33408
32986,36352,33333
31708,36348,33257
30708,36349,33252
29860,36346,33245
31024,36341,33223
33040,36348,33255
35696,36356,33276
37320,36359,33268
36996,36380,33247
35808,36403,33236
33786,36407,33212
30644,36408,33157
29124,36399,33200
30208,36388,33185
31484,36384,33167
34172,36391,33146
36852,36396,33128
37500,36404,33109
37364,36430,33115
35792,36445,33069
33464,36448,33001
31188,36428,32969
29984,36431,33004
30536,36432,33044
31312,36433,33012
33392,36437,33009
36552,36439,32996
38992,36444,32981
39949,36455,32951
38408,36468,32946
37208,36468,32940
34996,36461,32933
33304,36471,32900
32776,36457,32830
33548,36473,32834
35408,36463,32876
36828,36487,32848
37640,36500,32844
36796,36512,32849
30244,36552,32770
28512,36563,32775
25696,36552,32800
23169,36562,32788
22144,36557,32772
22738,36554,32780
25273,36564,32774
28240,36560,32748
30582,36576,32730
30893,36588,32653
29580,36604,32689
27840,36601,32704
26504,36541,32705
25628,36583,32693
25714,36587,32684
27320,36587,32665
30008,36581,32644
33625,36572,32596
35660,36593,32576
35596,36601,32548
34784,36591,32546
32796,36615,32566
30848,36612,32606
29641,36608,32575
31080,36595,32560
32524,36588,32573
34448,36606,32513
36300,36608,32485
38304,36609,32455
39044,36625,32448
37904,36636,32447
35156,36652,32466
32388,36647,32500
30657,36649,32454
30604,36644,32461
31828,36631,32465
34685,36644,32448
37044,36615,32452
38536,36657,32397
38992,36665,32372
37352,36685,32345
34916,36684,32372
31896,36678,32391
29870,36692,32375
29908,36676,32388
31476,36684,32352
34194,36689,32313
36744,36690,32284
38924,36692,32303
39224,36711,32289
37800,36717,32318
36108,36724,32269
33368,36720,32324
30380,36732,32303
30228,36716,32309
31908,36724,32309
35176,36712,32228
37920,36708,32301
39572,36731,32280
39512,36740,32269
38516,36759,32296
36600,36760,32262
34576,36758,32228
34261,36756,32226
33636,36743,32276
34220,36743,32272
35932,36758,32285
39072,36750,32289
40172,36759,32285
40636,36773,32287
39644,36791,32287
36880,36806,32273
34488,36806,32218
32704,36790,32231
32788,36794,32224
33464,36794,32226
36660,36786,32240
39192,36781,32256
40316,36805,32272
39752,36825,32309
38352,36833,32314
35808,36852,32313
33224,36844,32297
31238,36821,32300
30896,36839,32301
32616,36836,32308
35288,36823,32312
37116,36845,32325
38357,36862,32318
38496,36871,32321
37552,36884,32333
35156,36896,32326
32480,36887,32326
30628,36885,32319
30020,36885,32326
30860,36886,32327
32696,36856,32281
34733,36908,32280
36204,36908,32324
35948,36926,32311
35044,36940,32332
32396,36948,32284
29380,36949,32280
27604,36949,32317
27324,36940,32253
27996,36932,32308
30404,36901,32288
32660,36953,32279
34156,36958,32298
34958,36952,32247
33868,36982,32220
31368,36984,32276
29444,36989,32264
29796,36961,32252
29840,36928,32261
30648,36957,32248
33109,36956,32231
35804,36965,32220
37568,36964,32203
38472,36978,32175
38093,36989,32185
36968,36985,32189
34768,36995,32212
33388,36954,32196
33588,36972,32185
37376,36952,32184
40032,36941,32164
41556,36948,32176
42964,36967,32165
42808,36981,32149
41460,36988,32124
39797,36992,32101
37913,36996,32109
35952,36993,32144
34856,36994,32135
35356,36997,32122
37805,36996,32132
39948,36996,32106
41560,36999,32085
41520,37015,32078
40120,37030,32119
37088,37044,32119
34608,37050,32120
32824,37047,32103
32332,37039,32071
33404,37011,32093
34576,37041,32108
36518,37049,32125
37920,37039,32132
37960,37079,32140
36796,37080,32103
34656,37057,32086
31565,37100,32140
29276,37095,32148
29376,37085,32140
30297,37068,32167
31949,37062,32132
34112,37085,32114
35436,37096,32165
35664,37115,32168
34749,37121,32161
32316,37118,32132
28949,37135,32135
26976,37116,32134
26764,37114,32144
27557,37117,32185
30160,37111,32172
32540,37116,32156
34516,37124,32159
34492,37151,32174
34054,37157,32183
31652,37153,32140
29316,37156,32194
27548,37143,32176
27852,37117,32194
29512,37126,32135
31860,37127,32157
34704,37127,32185
35873,37141,32170
36517,37151,32169
36230,37156,32135
34388,37158,32143
31728,37167,32132
30092,37156,32124
29872,37145,32180
31353,37141,32168
34196,37129,32168
36128,37137,32178
28968,37191,32132
33344,37191,32133
35260,37158,32130
33878,37172,32150
31536,37179,32173
30065,37169,32162
30209,37167,32180
31532,37156,32129
32964,37152,32121
35188,37148,32135
37472,37165,32124
38164,37176,32118
36964,37182,32117
34676,37197,32113
32144,37181,32114
31485,37179,32151
30640,37162,32177
30792,37168,32172
32712,37141,32167
35428,37175,32168
37836,37177,32167
38252,37182,32189
36712,37199,32138
34220,37205,32120
30992,37204,32184
29912,37207,32169
29324,37199,32163
29117,37190,32165
31604,37164,32167
35028,37193,32160
37312,37196,32181
37960,37210,32175
36104,37220,32169
33729,37228,32163
31360,37223,32111
29008,37215,32103
28853,37175,32110
30264,37205,32153
32748,37191,32152
34900,37192,32132
36832,37212,32136
37064,37204,32143
36348,37237,32068
35064,37203,32095
32512,37221,32116
29784,37228,32116
29332,37209,32109
30060,37180,32077
32944,37204,32056
35408,37216,32052
37029,37184,32069
37648,37217,32100
36288,37239,32095
33912,37249,32070
31448,37244,32074
29768,37197,32076
29512,37221,32041
31108,37217,32016
33036,37215,32032
35008,37220,32060
36893,37221,32064
38080,37232,32048
36976,37225,32038
34544,37252,32038
31764,37247,32049
29846,37244,32039
29561,37237,32049
30301,37228,32021
33352,37220,32020
36176,37209,32012
38196,37220,31994
38240,37232,31972
36948,37249,31986
35292,37247,32017
32744,37242,32007
30584,37239,32001
30192,37230,31993
30944,37221,31998
33440,37220,31999
35828,37217,31996
37556,37231,31996
37716,37245,31996
36960,37252,32005
35404,37249,31977
32556,37244,31982
30756,37230,31988
30134,37236,31975
31236,37225,31961
33120,37229,31964
35160,37215,31953
36872,37236,31945
37488,37247,31940
37116,37255,31922
35212,37247,31940
33062,37260,31944
32084,37236,31941
31204,37231,31941
31364,37204,31936
34084,37198,31916
36832,37225,31921
39316,37220,31920
39636,37237,31920
38764,37247,31917
36644,37248,31904
33876,37262,31870
32352,37245,31868
31952,37221,31852
32248,37214,31868
34208,37236,31863
35040,37247,31884
35264,37263,31884
34548,37276,31884
32669,37287,31878
28908,37296,31869
24090,37268,31874
21248,37288,31884
21017,37283,31834
22892,37245,31828
25584,37274,31827
27700,37276,31824
29600,37279,31831
30900,37302,31857
29968,37301,31849
27694,37271,31845
25740,37300,31840
25992,37276,31836
26124,37255,31833
27436,37261,31844
30168,37249,31832
32425,37241,31793
33980,37269,31794
34536,37285,31778
34088,37286,31784
32592,37292,31780
30248,37277,31785
28412,37258,31820
29225,37256,31808
30041,37255,31813
32272,37245,31812
34991,37249,31804
36837,37250,31805
37381,37260,31812
36368,37279,31813
34397,37287,31822
31780,37281,31816
29574,37279,31829
28384,37217,31824
29036,37260,31829
30432,37261,31834
33984,37245,31832
36684,37263,31836
37392,37264,31828
36796,37276,31838
34717,37272,31845
31468,37285,31844
29170,37280,31823
28560,37273,31805
30088,37260,31799
31816,37252,31805
34352,37263,31820
36328,37269,31852
36724,37284,31860
36552,37284,31854
34700,37285,31854
31345,37304,31845
29772,37277,31862
29064,37255,31844
29829,37264,31848
32904,37255,31857
35748,37264,31831
37792,37267,31820
38324,37278,31828
37308,37295,31829
35600,37295,31842
32716,37296,31839
30148,37285,31846
29836,37284,31845
29824,37270,31842
31980,37265,31831
35124,37273,31852
37321,37276,31884
38648,37281,31879
37856,37280,31879
35860,37301,31885
32884,37295,31898
30212,37305,31849
29044,37292,31852
31488,37282,31848
32848,37281,31857
35112,37284,31863
36708,37292,31861
37068,37300,31855
35808,37327,31839
33693,37322,31869
30557,37327,31873
28400,37316,31901
28156,37306,31884
28466,37305,31897
30321,37268,31905
31802,37306,31860
34216,37298,31854
35392,37327,31882
35064,37312,31887
33657,37332,31884
30740,37342,31894
28580,37337,31863
27112,37332,31843
27456,37287,31845
30368,37316,31848
33364,37312,31872
35278,37330,31874
36300,37345,31863
35756,37351,31855
33924,37348,31855
31292,37348,31852
29030,37348,31852
28012,37340,31853
29028,37334,31850
31380,37326,31844
34337,37332,31844
36244,37335,31838
36832,37349,31839
36584,37352,31828
35256,37361,31832
32536,37336,31828
29680,37351,31823
29130,37355,31824
29764,37303,31825
32168,37344,31828
36288,37314,31837
37940,37339,31841
38552,37344,31828
38004,37350,31828
35600,37372,31805
32948,37375,31818
30970,37329,31803
29753,37357,31829
30557,37351,31853
32944,37343,31856
35404,37351,31863
36972,37359,31871
38308,37367,31853
37480,37378,31853
34872,37376,31854
32164,37399,31845
30048,37383,31839
29080,37338,31846
29828,37377,31877
31820,37326,31871
34320,37380,31892
37100,37372,31887
37612,37392,31895
36052,37407,31877
33764,37417,31864
31004,37420,31852
28784,37383,31844
27610,37398,31889
28360,37397,31900
30653,37397,31888
32236,37407,31900
34460,37413,31893
36152,37413,31885
35110,37436,31868
32544,37437,31876
29788,37448,31909
27892,37398,31900
27448,37426,31908
28096,37428,31900
29484,37377,31895
32504,37412,31917
34688,37433,31917
35780,37439,31876
34600,37454,31887
32385,37468,31912
30700,37451,31905
28652,37409,31903
27577,37448,31917
27668,37407,31887
29216,37453,31878
32220,37408,31908
34456,37455,31900
35808,37469,31908
34668,37482,31908
32956,37487,31881
31320,37484,31879
29412,37479,31887
28316,37469,31905
30208,37447,31911
32116,37456,31900
34436,37456,31910
36592,37453,31908
36764,37495,31912
36164,37503,31910
34736,37503,31908
31748,37493,31900
28620,37480,31884
27656,37503,31866
28720,37479,31892
30244,37487,31903
33096,37502,31873
35480,37503,31864
36796,37519,31889
36646,37512,31887
34532,37532,31887
31636,37516,31890
29156,37526,31847
27804,37513,31849
28064,37532,31871
29852,37519,31879
32116,37487,31860
34074,37540,31852
35048,37544,31845
35148,37564,31872
32566,37561,31865
29868,37574,31860
28600,37566,31862
27880,37551,31847
28112,37537,31844
29732,37547,31857
32020,37511,31865
34472,37558,31863
35813,37579,31828
35054,37580,31836
32756,37592,31868
29456,37565,31863
28524,37588,31863
28004,37568,31871
28924,37566,31844
30944,37566,31861
33524,37572,31887
35772,37581,31864
37561,37587,31844
37760,37589,31864
36090,37601,31885
33117,37597,31903
31388,37592,31868
30404,37584,31909
30752,37587,31909
33994,37567,31933
35658,37579,31909
36556,37597,31941
37820,37604,31950
36932,37606,31917
34228,37634,31968
32396,37620,31977
30196,37620,31952
29264,37588,31999
30033,37604,31994
31700,37605,32006
34032,37614,32024
36204,37609,32050
37024,37599,32034
36560,37637,32064
34576,37653,32037
31308,37638,32084
29514,37639,32100
28056,37600,32074
28772,37635,32120
30208,37633,32140
33100,37624,32109
35328,37639,32153
35920,37655,32164
35760,37668,32145
33805,37668,32193
31133,37670,32190
28820,37669,32180
27688,37663,32213
29532,37645,32228
31348,37647,32192
33773,37645,32236
35868,37660,32233
36528,37668,32257
35412,37685,32244
33558,37697,32230
32016,37685,32271
28669,37688,32268
27216,37679,32285
27872,37671,32266
29912,37628,32249
31609,37673,32301
34432,37653,32304
34976,37698,32295
34080,37710,32317
31796,37719,32272
28992,37716,32319
27436,37700,32327
26316,37700,32321
27644,37703,32316
28904,37700,32336
31469,37694,32328
35092,37703,32300
36896,37695,32300
36008,37700,32320
34464,37723,32345
32129,37711,32335
31936,37695,32361
31820,37695,32308
31744,37687,32354
33449,37695,32348
37300,37679,32353
39684,37676,32324
40672,37693,32352
40476,37700,32352
38528,37705,32338
35796,37724,32305
33124,37710,32348
30964,37708,32343
30701,37675,32340
31208,37704,32324
33236,37716,32324
32844,37697,32341
32348,37751,32282
31312,37767,32332
30224,37764,32316
28518,37767,32312
26808,37745,32303
25052,37748,32308
26756,37687,32256
29209,37728,32270
31664,37696,32297
33688,37740,32286
35392,37753,32287
35864,37749,32294
34516,37764,32252
31870,37750,32236
29073,37757,32246
28108,37747,32271
28706,37724,32269
30884,37725,32241
33532,37735,32216
36538,37728,32231
37544,37735,32263
37260,37757,32263
35452,37756,32246
33310,37767,32255
30742,37742,32211
29541,37748,32248
31384,37694,32236
31316,37729,32237
33632,37709,32245
36185,37748,32229
36532,37734,32203
35808,37760,32245
33468,37772,32241
31162,37775,32199
29564,37764,32237
28184,37760,32236
28182,37741,32212
31540,37743,32204
33780,37749,32229
35788,37733,32231
36724,37760,32214
36320,37765,32185
34708,37781,32206
32760,37774,32215
30088,37772,32238
29294,37759,32180
30248,37750,32221
31020,37744,32213
33116,37759,32185
35972,37759,32165
37228,37767,32217
37228,37762,32204
36056,37767,32217
34049,37765,32208
31928,37753,32196
31492,37757,32174
31888,37745,32157
33500,37740,32208
36352,37741,32182
38864,37735,32197
39722,37745,32164
39524,37757,32165
37812,37757,32183
35668,37759,32185
32982,37766,32198
32068,37758,32167
33092,37740,32152
34636,37735,32187
36380,37735,32192
38788,37736,32164
40193,37738,32156
39444,37764,32180
37700,37771,32183
34869,37736,32188
31376,37767,32148
29628,37759,32186
29652,37759,32194
31140,37764,32180
33092,37758,32188
35772,37765,32167
37676,37763,32188
36876,37772,32198
34636,37780,32148
31780,37780,32188
28232,37791,32181
27456,37780,32135
28384,37719,32185
29785,37756,32173
32948,37735,32164
36084,37761,32138
37128,37767,32172
36716,37781,32164
35041,37777,32178
32532,37781,32133
31392,37783,32166
29164,37770,32145
29613,37765,32157
32848,37745,32119
34652,37759,32108
36620,37749,32108
37936,37764,32101
38041,37773,32127
36300,37781,32130
33864,37789,32132
31284,37773,32121
30461,37732,32076
30396,37767,32092
32336,37753,32109
34584,37759,32108
37312,37753,32093
38848,37767,32076
38096,37777,32103
36700,37780,32113
33688,37784,32118
31240,37784,32079
29360,37775,32087
29665,37759,32121
31684,37759,32113
34084,37757,32129
36325,37767,32093
37560,37772,32112
36887,37777,32141
35824,37784,32140
32928,37789,32157
30972,37775,32158
29232,37772,32133
29664,37750,32181
30424,37760,32199
32848,37767,32164
34856,37767,32209
35184,37781,32228
34812,37798,32196
33428,37802,32233
31381,37796,32260
28784,37791,32222
27748,37783,32248
27069,37780,32292
28958,37775,32289
31240,37775,32262
32984,37780,32316
34289,37796,32336
35132,37793,32282
33360,37782,32348
30656,37797,32360
28456,37788,32316
27108,37749,32384
27420,37767,32384
28504,37759,32400
31188,37767,32372
33860,37780,32417
35828,37772,32416
27706,37828,32447
28780,37815,32436
27924,37815,32405
26704,37791,32471
25900,37781,32481
26160,37775,32478
28824,37762,32492
32101,37764,32447
34112,37773,32501
35088,37772,32508
35472,37783,32484
34164,37791,32480
31952,37780,32528
28960,37778,32525
28652,37776,32551
28512,37751,32505
30816,37743,32508
33208,37736,32548
35648,37757,32567
36732,37743,32524
36553,37767,32527
35376,37766,32582
32316,37776,32584
29060,37767,32549
28142,37733,32540
28220,37747,32585
30224,37740,32552
32936,37708,32577
35456,37741,32598
36356,37751,32601
36176,37757,32623
34872,37759,32599
31776,37756,32562
28341,37764,32621
26784,37757,32600
27516,37743,32623
29520,37732,32566
31776,37735,32577
34244,37740,32607
35956,37743,32617
35601,37757,32545
33412,37761,32612
29888,37732,32617
27644,37759,32552
27056,37740,32601
28237,37724,32609
29268,37709,32564
32165,37685,32574
35024,37716,32596
36480,37732,32601
35472,37728,32559
34052,37749,32584
31080,37735,32575
29204,37735,32588
28268,37721,32580
28042,37665,32543
28876,37710,32540
32068,37716,32564
35076,37700,32542
36040,37712,32519
35409,37724,32548
34276,37732,32542
32032,37734,32513
30492,37708,32508
28476,37686,32516
28894,37696,32527
30544,37687,32458
32736,37682,32509
35248,37703,32492
36764,37701,32455
36577,37701,32507
35256,37703,32481
32629,37703,32481
30304,37701,32437
28436,37687,32464
28674,37683,32464
30008,37676,32458
32325,37677,32412
35348,37672,32432
35932,37661,32458
35020,37702,32439
33868,37703,32448
31656,37697,32431
29032,37691,32403
27340,37684,32440
27901,37671,32440
29726,37609,32417
32332,37660,32398
34853,37664,32436
36124,37669,32439
35884,37682,32397
34748,37679,32396
32212,37674,32436
30004,37629,32450
29248,37652,32396
29568,37645,32457
32036,37633,32441
34432,37633,32464
36320,37612,32405
38016,37645,32465
37208,37662,32485
35844,37660,32438
33272,37669,32438
31380,37612,32485
30216,37639,32452
30087,37623,32509
31868,37604,32511
33984,37609,32511
36276,37626,32482
38344,37616,32548
38676,37621,32549
37676,37625,32572
34952,37628,32529
31829,37623,32584
30290,37613,32592
30208,37564,32553
32240,37600,32616
34400,37596,32629
37076,37580,32583
37924,37604,32639
37336,37620,32669
36116,37620,32631
33760,37616,32676
31076,37612,32669
29152,37596,32700
31860,37577,32716
33468,37540,32684
34868,37582,32689
36696,37578,32733
38496,37576,32711
37688,37596,32764
35864,37601,32775
32685,37605,32786
29568,37572,32789
27904,37593,32804
27440,37573,32806
28689,37576,32820
30528,37576,32832
31740,37596,32793
32320,37593,32837
30877,37615,32846
28868,37604,32804
23872,37629,32856
19708,37621,32829
18273,37590,32879
17925,37598,32871
19520,37519,32844
23604,37576,32900
25964,37593,32917
29308,37591,32845
29700,37591,32903
28865,37597,32921
27296,37585,32871
25272,37575,32921
23157,37572,32887
23692,37493,32936
26082,37542,32948
29245,37535,32909
33212,37540,32944
36513,37519,32909
36144,37534,32942
34744,37545,32938
33128,37520,32985
31932,37516,32980
30608,37511,32944
30860,37456,32967
33306,37476,33001
36556,37480,32949
38480,37476,33008
39664,37464,32964
39800,37492,33023
38784,37487,32988
36247,37463,33055
33508,37487,33061
31842,37473,33014
31624,37462,33076
33252,37463,33073
35940,37444,33060
38028,37454,33101
39480,37449,33111
39948,37447,33068
38236,37475,33125
35716,37468,33132
33529,37450,33119
31916,37449,33161
32164,37438,33133
33024,37429,33185
34792,37443,33172
39744,37423,33117
40424,37431,33205
39968,37428,33171
38112,37444,33218
34788,37456,33153
32593,37432,33229
31057,37437,33207
30648,37420,33222
31822,37396,33231
34780,37412,33180
36068,37417,33224
37088,37417,33183
36532,37428,33249
35192,37439,33208
32908,37416,33255
30092,37431,33242
28512,37417,33241
28864,37407,33193
29776,37400,33216
32992,37396,33216
35548,37395,33222
37040,37393,33214
37012,37421,33158
36484,37407,33185
33032,37409,33133
29729,37408,33189
27464,37406,33148
27356,37342,33173
29052,37382,33164
31186,37383,33070
33980,37375,33120
35204,37396,33127
34964,37403,33045
33004,37399,33089
30410,37400,33061
27360,37399,33083
25514,37372,33053
25632,37380,32997
27436,37365,33056
30924,37364,33020
33112,37364,32937
34900,37373,32996
34808,37372,32967
32880,37383,32888
30276,37383,32932
27848,37372,32870
26788,37356,32916
27744,37295,32892
29952,37332,32804
32684,37324,32832
35560,37329,32754
37488,37316,32784
37469,37329,32729
36260,37328,32753
34368,37329,32735
32288,37330,32636
31140,37316,32669
32104,37302,32584
33900,37287,32608
36760,37282,32556
38896,37264,32573
40632,37281,32544
42164,37279,32453
39428,37280,32462
36325,37294,32437
33172,37307,32367
31909,37285,32372
31340,37278,32350
32492,37263,32261
35444,37264,32263
37336,37273,32233
38520,37279,32205
38660,37283,32183
37229,37285,32117
34212,37287,32101
31424,37269,32065
29489,37273,32012
29488,37275,32007
30560,37252,31979
32834,37252,31914
35175,37253,31892
36488,37271,31832
36012,37282,31825
33900,37285,31793
31065,37279,31729
28272,37271,31724
27220,37238,31685
27148,37244,31664
27761,37252,31642
31252,37221,31564
33128,37247,31563
34364,37253,31527
33676,37271,31510
32468,37261,31492
29677,37272,31457
27542,37225,31428
26124,37237,31377
26908,37231,31361
28252,37221,31348
31020,37220,31340
33956,37220,31286
35936,37204,31300
36868,37223,31254
35333,37220,31260
33560,37225,31247
30580,37184,31207
28938,37220,31224
29152,37197,31183
31686,37178,31204
34276,37176,31184
36561,37176,31189
38504,37178,31196
38248,37195,31174
36372,37199,31199
34664,37204,31172
32200,37180,31212
29996,37173,31209
29924,37164,31231
31696,37150,31236
34792,37150,31253
37764,37148,31276
39300,37156,31292
39204,37165,31309
38556,37159,31336
35676,37167,31343
39512,37108,31398
35100,37127,31423
32360,37135,31452
33390,37127,31486
36512,37124,31508
38496,37100,31554
39516,37124,31604
39052,37143,31621
38037,37141,31669
35416,37111,31671
32445,37140,31743
31036,37127,31746
31136,37111,31820
32592,37084,31871
35708,37100,31903
37072,37108,31948
38565,37100,31980
37972,37121,32036
36172,37127,32036
33252,37127,32103
31117,37126,32141
28780,37117,32204
29548,37095,32229
30560,37095,32263
32540,37088,32320
34912,37093,32360
36388,37094,32351
36104,37104,32444
34438,37116,32489
32064,37117,32535
29368,37108,32578
27512,37093,32549
28157,37086,32653
30276,37072,32693
32236,37070,32676
34180,37087,32744
35556,37060,32740
35780,37089,32825
34157,37095,32853
31948,37088,32860
28761,37087,32936
26968,37072,32933
26508,37017,33020
27772,37063,33028
31472,37040,33096
34060,37055,33124
35340,37045,33162
34868,37070,33206
32495,37072,33148
29576,37080,33250
26883,37076,33277
24956,37062,33301
25217,36988,33356
26708,37036,33321
28820,37037,33425
31240,37037,33388
32808,37013,33488
32466,37060,33556
31497,37060,33508
29773,37043,33608
26444,37053,33566
24976,37036,33693
26648,37013,33730
27384,37014,33709
29636,37008,33788
32584,37005,33764
33644,37023,33861
33764,36997,33846
33148,37029,33908
29568,37036,33868
27152,36999,33995
25314,37010,34032
25202,36999,33988
26652,36948,34061
29388,36989,34035
32060,36989,34133
33496,36996,34101
33088,37015,34196
32192,37015,34220
29820,37014,34293
27368,36999,34318
26704,36990,34268
25636,36935,34380
28041,36969,34348
30156,36967,34423
33381,36956,34444
35700,36974,34503
35412,36980,34453
33736,36964,34567
30964,36991,34551
28512,36983,34657
26521,36965,34583
26068,36950,34709
27361,36942,34757
29248,36952,34665
31836,36933,34804
34112,36949,34832
34660,36965,34756
33660,36942,34892
31536,36962,34911
28716,36965,34840
26996,36928,34994
26809,36936,35002
28784,36924,34936
31816,36886,35055
34420,36924,35098
36592,36932,35063
37212,36932,35183
35960,36943,35199
33272,36932,35224
30796,36933,35142
28634,36916,35263
28224,36908,35275
29280,36901,35254
30232,36916,35340
32285,36914,35372
32600,36924,35431
31468,36940,35352
29392,36916,35448
25741,36961,35492
21288,36961,35396
18360,36901,35520
16621,36927,35575
18045,36940,35485
22264,36928,35585
18304,36959,35640
22788,36948,35574
26368,36961,35649
25932,36957,35684
25564,36949,35613
22756,36903,35732
22000,36922,35720
21980,36871,35796
22804,36913,35669
25574,36913,35828
29564,36892,35813
32612,36903,35876
32724,36917,35760
31876,36908,35808
29920,36912,35919
28057,36916,35933
26700,36899,35822
26884,36839,35964
27700,36869,36012
30520,36871,35897
33688,36871,35992
35748,36856,36018
36268,36877,36063
34796,36888,36087
31520,36896,35981
28950,36847,36095
27105,36889,36125
26512,36871,36047
27714,36865,36116
31340,36861,36038
33516,36866,36185
35912,36871,36184
36416,36871,36217
34532,36885,36244
31272,36896,36135
29384,36863,36212
28404,36869,36137
27512,36870,36286
28860,36860,36313
31696,36848,36204
34757,36861,36316
36880,36844,36217
37012,36869,36365
35008,36879,36332
31932,36893,36244
29860,36880,36390
27300,36881,36401
26117,36861,36431
27637,36860,36430
29888,36871,36308
32508,36857,36451
34884,36861,36461
34784,36871,36359
33952,36882,36495
31004,36894,36513
27665,36872,36428
25560,36886,36487
25544,36871,36460
27044,36853,36545
29269,36860,36548
32736,36861,36460
33772,36871,36577
33830,36875,36613
31301,36871,36505
28552,36900,36596
26456,36891,36548
24997,36885,36557
25676,36841,36615
26232,36871,36544
28216,36871,36661
31614,36864,36676
32832,36883,36717
33156,36893,36711
31768,36893,36612
28572,36899,36746
25704,36893,36652
23652,36888,36711
23356,36886,36740
24973,36871,36669
28368,36871,36783
30820,36840,36656
31680,36895,36743
31325,36908,36764
30352,36916,36692
26966,36912,36744
24437,36911,36744
23828,36839,36693
23230,36894,36759
24824,36881,36669
27361,36884,36756
31100,36863,36773
32910,36895,36695
33868,36910,36768
32568,36916,36768
30368,36910,36644
27904,36917,36760
26525,36909,36773
26412,36871,36631
27186,36893,36709
30264,36885,36664
33268,36902,36740
35484,36901,36693
35481,36884,36708
34096,36913,36702
31444,36927,36560
29016,36921,36640
28552,36901,36597
28503,36905,36644
29668,36904,36604
32825,36855,36478
35364,36900,36569
37488,36896,36558
38480,36917,36453
36536,36927,36532
34201,36939,36396
31068,36937,36508
30148,36920,36487
30748,36901,36471
30823,36908,36452
32524,36912,36421
35452,36917,36280
37628,36921,36356
37489,36932,36342
36054,36944,36254
33708,36951,36324
30504,36957,36174
27886,36953,36255
28188,36946,36158
30764,36925,36249
32500,36932,36244
34360,36947,36213
35888,36953,36196
35776,36969,36052
34400,36981,36125
31832,36986,36068
28732,36991,36020
27374,36980,36052
26920,36981,35996
28346,36965,36048
30725,36964,36039
34209,36964,35914
36413,36974,35952
36980,36988,35884
35300,36994,35948
33752,37007,35887
30869,36999,35768
28933,37007,35836
28520,36982,35753
30189,36983,35830
32792,36983,35809
35272,36997,35700
37312,36999,35759
38862,36996,35612
37536,37009,35688
35237,37028,35663
32392,36998,35676
30500,37022,35645
30696,37016,35532
32008,37004,35612
34080,37002,35497
37080,37007,35561
39268,36999,35424
39704,37028,35476
38893,37039,35416
36297,37047,35452
33352,37044,35438
31664,37036,35312
31184,37037,35380
33012,37018,35328
35736,37017,35256
37764,37047,35233
39409,37039,35266
39400,37053,35252
38120,37063,35168
35824,37072,35108
32500,37070,35168
30520,37080,35133
29764,37076,35079
30620,37056,35109
33268,37070,35088
36048,37062,34932
37300,37086,35036
37248,37089,35004
36280,37103,34857
33596,37109,34925
30417,37108,34884
28792,37117,34907
28208,37101,34864
31964,37066,34756
33368,37092,34797
35249,37103,34749
36772,37111,34780
36920,37127,34762
36433,37111,34631
33762,37143,34677
31716,37140,34624
29130,37127,34664
29224,37127,34631
30668,37119,34515
33800,37112,34581
36260,37116,34476
38536,37120,34532
38730,37133,34535
37308,37156,34399
35220,37159,34462
32332,37143,34434
31061,37151,34335
30588,37148,34417
31968,37111,34373
34412,37140,34377
36676,37136,34264
38834,37146,34340
38896,37173,34308
37860,37177,34214
35156,37190,34256
32432,37189,34197
30761,37174,34244
30448,37166,34200
31661,37169,34220
33356,37173,34128
36368,37168,34096
37768,37188,34166
37828,37204,34153
37180,37210,34020
34796,37208,34116
32752,37205,34113
30596,37205,33996
30180,37193,34016
31525,37185,34055
33912,37185,34045
36612,37194,33932
38628,37198,34016
39220,37215,34004
37744,37220,33895
35064,37223,33972
32474,37229,33973
29984,37229,33876
29432,37191,33932
31220,37215,33902
34920,37212,33866
37092,37215,33900
38620,37223,33893
38408,37239,33814
36925,37255,33808
34596,37261,33852
31805,37255,33850
30578,37248,33775
30889,37215,33772
31772,37229,33808
34812,37232,33700
37200,37228,33785
38433,37253,33791
38124,37259,33678
37464,37270,33700
35248,37255,33736
33144,37263,33728
31360,37266,33632
31496,37255,33704
32480,37255,33708
34456,37255,33607
37128,37263,33684
39256,37253,33666
39772,37271,33625
39712,37278,33565
37952,37274,33631
35332,37279,33634
33960,37277,33520
33625,37255,33611
35328,37255,33590
37852,37255,33540
39976,37255,33588
41469,37269,33562
41920,37281,33480
40616,37277,33532
38208,37300,33536
34420,37316,33492
31424,37304,33517
30060,37303,33533
29972,37313,33429
30900,37303,33476
31604,37320,33450
31676,37341,33487
30544,37365,33489
27640,37376,33393
26132,37383,33458
23232,37360,33447
22032,37359,33362
22300,37348,33414
24401,37333,33420
26697,37338,33357
29949,37338,33383
32524,37306,33380
33572,37361,33287
33980,37357,33364
32104,37333,33332
29760,37353,33348
27484,37353,33260
27484,37297,33273
29444,37327,33284
32717,37320,33287
34496,37308,33220
36624,37344,33253
37380,37344,33271
37164,37353,33208
34844,37356,33224
31154,37362,33188
29652,37351,33220
29272,37340,33216
29584,37332,33121
31292,37339,33193
33813,37345,33202
36496,37352,33199
36732,37357,33180
35196,37378,33168
33108,37372,33161
30708,37377,33104
29244,37365,33159
29049,37356,33077
31060,37343,33131
33180,37340,33055
36104,37344,33116
38680,37330,33056
39632,37345,33102
38816,37359,33036
36808,37361,33069
33996,37361,33001
32320,37349,33064
31546,37340,33017
32360,37337,33060
35080,37336,33036
37496,37330,32999
40080,37340,33047
39992,37356,32985
40064,37358,33016
38424,37357,32924
35568,37357,32984
33508,37363,32904
32672,37348,32969
33592,37348,32979
36240,37340,32921
38420,37333,32941
40460,37338,32861
41264,37351,32932
39776,37364,32925
37109,37372,32849
34406,37373,32893
32322,37348,32867
32456,37348,32828
33532,37349,32860
35637,37351,32818
37288,37359,32856
38704,37356,32844
39300,37367,32848
38224,37383,32824
35896,37383,32744
33217,37383,32804
31140,37383,32762
30452,37380,32775
30980,37375,32720
33360,37368,32764
36136,37367,32741
37932,37365,32751
38077,37383,32741
36888,37383,32681
35432,37383,32714
32188,37390,32668
29556,37383,32684
29828,37378,32639
30500,37368,32662
34052,37364,32648
36036,37369,32584
37220,37356,32626
37864,37383,32575
36780,37393,32620
34585,37375,32591
32584,37392,32549
30581,37383,32585
29980,37372,32559
32344,37338,32514
34668,37361,32532
36664,37361,32482
39054,37373,32500
39892,37369,32445
39040,37375,32476
36704,37383,32400
34476,37391,32444
32094,37380,32436
31520,37375,32376
33360,37370,32397
34988,37355,32379
37936,37356,32332
40024,37352,32351
40440,37372,32278
39580,37359,32330
37500,37383,32300
34296,37383,32308
32256,37382,32284
31268,37380,32236
32288,37366,32260
34076,37365,32237
37844,37361,32193
39737,37357,32220
40596,37359,32196
38892,37380,32142
36494,37383,32184
33664,37383,32156
31252,37375,32165
31272,37367,32156
31440,37372,32132
33508,37365,32113
35924,37370,32104
37696,37373,32103
38188,37381,32038
36780,37383,32068
34224,37385,32068
30896,37397,32008
28869,37385,32000
28334,37376,32019
29896,37328,32004
31944,37363,31940
34456,37373,31975
35636,37372,31957
36108,37391,31954
34504,37405,31908
31320,37381,31916
29450,37396,31920
27324,37348,31857
26402,37383,31890
27180,37378,31870
29056,37374,31864
32748,37375,31809
34564,37380,31836
35488,37377,31820
34856,37383,31781
31769,37388,31819
28920,37396,31804
27098,37348,31791
26246,37371,31735
27040,37373,31764
29672,37351,31765
32700,37356,31732
34502,37369,31748
35964,37376,31728
35008,37381,31689
33105,37376,31680
31392,37368,31699
29112,37366,31688
28240,37353,31655
29466,37345,31679
32480,37326,31660
35684,37333,31644
37765,37332,31647
38536,37321,31650
37524,37340,31598
35396,37352,31631
32474,37356,31616
30244,37302,31606
29716,37325,31584
31188,37327,31589
33220,37326,31588
35504,37319,31557
37332,37328,31540
37296,37325,31569
36160,37351,31545
34428,37346,31549
31628,37340,31508
28864,37333,31496
28776,37326,31528
30704,37312,31524
32184,37311,31468
34252,37293,31500
37212,37308,31492
37892,37301,31468
36796,37324,31456
34552,37335,31456
32168,37327,31452
29617,37325,31455
29296,37294,31447
30860,37293,31436
34324,37280,31440
36372,37279,31435
37504,37292,31436
38464,37293,31408
37305,37312,31416
35285,37309,31389
32404,37292,31413
30604,37296,31415
30256,37285,31377
31653,37276,31392
34288,37272,31388
37172,37269,31392
40024,37255,31380
39696,37264,31373
39452,37261,31348
36728,37286,31365
33880,37255,31365
31888,37267,31346
30805,37261,31349
31648,37228,31346
33300,37245,31362
37164,37244,31317
38208,37244,31348
39084,37248,31343
38041,37256,31351
35488,37271,31308
32764,37265,31334
30464,37263,31324
30400,37245,31337
31268,37200,31316
33324,37239,31298
36760,37228,31308
38286,37220,31317
38892,37237,31280
37540,37241,31302
34777,37252,31284
33072,37255,31297
30916,37225,31254
29980,37229,31281
31000,37223,31264
34149,37200,31260
35808,37221,31234
37328,37197,31239
38108,37221,31239
36908,37229,31229
34512,37236,31208
31964,37232,31216
30608,37224,31213
31077,37213,31204
31256,37198,31196
33100,37188,31176
36220,37196,31181
37816,37204,31151
38312,37204,31165
37508,37215,31125
35168,37223,31137
31970,37216,31125
29812,37217,31127
29616,37198,31089
29933,37195,31100
33540,37172,31097
35328,37181,31097
37240,37184,31088
38692,37185,31064
37568,37190,31048
35341,37199,31063
33196,37198,31045
30696,37188,31029
30364,37175,31034
31054,37159,31028
33128,37158,31024
35584,37156,30988
38524,37149,31007
39576,37157,31001
38996,37160,31001
36752,37165,30976
35140,37164,30972
33176,37151,30973
32752,37135,30973
33360,37105,30949
35784,37127,30956
38096,37127,30949
39440,37124,30935
40024,37127,30935
40244,37127,30935
36326,37148,30935
31246,37154,30909
27861,37159,30920
26176,37111,30904
25840,37156,30914
26208,37159,30860
27608,37164,30903
28768,37139,30897
29444,37178,30900
29864,37167,30892
28749,37175,30855
25960,37113,30889
23653,37153,30893
23224,37141,30884
26772,37116,30889
28900,37124,30882
31294,37117,30884
33232,37127,30879
33772,37142,30853
33257,37140,30880
31772,37137,30876
29548,37127,30871
27525,37089,30873
27376,37100,30884
29708,37086,30869
32304,37076,30877
35012,37081,30872
36988,37076,30884
37584,37092,30886
37452,37095,30880
35048,37090,30883
31744,37092,30905
30240,37092,30916
29385,37069,30929
30728,37046,30920
32748,37055,30934
34752,37062,30944
36452,37049,30961
37180,37064,30951
35872,37075,30979
33324,37084,31009
30793,37071,30996
28872,37071,30997
28112,37055,31033
28373,37046,31040
30136,37041,31073
32602,37012,31060
35144,37033,31092
35776,37049,31127
34816,37063,31113
32896,37052,31156
29421,37044,31181
27857,37036,31204
26730,37031,31202
28412,37012,31239
30434,37001,31286
32560,37008,31315
34124,37012,31348
34470,37018,31357
34036,37023,31423
32248,37029,31448
20252,36999,31489
21828,37028,31502
24468,37006,31586
27109,36989,31620
29620,36987,31668
32992,36965,31704
35992,36969,31757
37168,36974,31804
36324,36965,31829
35168,36980,31847
32752,36967,31934
30409,36972,31988
29796,36952,31993
30368,36928,32082
32816,36927,32124
36080,36927,32152
37808,36929,32212
38464,36938,32246
37596,36938,32317
36548,36927,32353
33280,36924,32356
30588,36922,32439
30680,36901,32497
30928,36901,32483
32880,36892,32544
35800,36884,32596
38236,36888,32665
39076,36889,32636
38948,36895,32727
37460,36893,32748
34396,36901,32752
33352,36861,32833
32688,36861,32843
33161,36860,32887
35760,36844,32840
38688,36837,32864
41444,36837,32952
42600,36837,32950
42296,36841,32961
40108,36845,33008
37312,36852,32927
35332,36839,32997
34072,36832,33036
35420,36815,32988
38488,36796,32985
40896,36790,33047
43544,36788,33036
45384,36791,32997
45120,36795,33060
42480,36802,33044
39248,36808,32999
37436,36803,33037
38120,36772,33012
39100,36758,32992
40864,36744,33044
42516,36751,33061
44400,36761,32996
44928,36767,32996
43728,36780,33014
41156,36780,32952
38166,36793,32983
36684,36774,33020
35908,36775,32927
39244,36741,32998
40012,36743,32977
41710,36743,32972
43428,36740,32913
44520,36743,32944
43128,36759,32928
40480,36769,32869
38076,36772,32917
35640,36772,32847
34592,36759,32892
35585,36743,32840
37525,36729,32876
40340,36725,32878
41864,36735,32845
43060,36740,32831
42700,36743,32813
41665,36741,32804
38520,36743,32700
34796,36747,32712
33552,36709,32735
34017,36732,32668
35940,36726,32638
38316,36733,32676
39968,36727,32668
40591,36727,32575
39392,36743,32637
36988,36756,32593
34624,36749,32596
31384,36743,32498
29760,36736,32519
30956,36728,32519
32544,36701,32538
35176,36725,32452
36448,36725,32482
36758,36741,32485
35512,36757,32400
32796,36748,32441
29637,36757,32436
26552,36753,32353
26037,36743,32397
25888,36737,32365
27812,36720,32381
29902,36725,32356
32936,36728,32287
33224,36743,32340
32045,36748,32335
30318,36749,32292
27324,36749,32241
24412,36729,32293
23554,36688,32285
24424,36711,32220
27004,36710,32212
30232,36701,32237
31672,36715,32219
32097,36691,32232
32428,36721,32225
29770,36735,32145
26425,36719,32201
23584,36716,32200
22698,36708,32124
22909,36711,32178
26116,36690,32151
31180,36647,32156
31934,36684,32093
31952,36692,32108
30604,36701,32141
27788,36716,32151
25312,36700,32077
23270,36696,32133
21940,36691,32104
22677,36671,32125
24520,36669,32067
27704,36631,32120
30096,36677,32108
30853,36645,32109
30924,36680,32095
28712,36689,32048
26276,36677,32111
24706,36660,32100
24584,36615,32109
26684,36624,32055
28846,36603,32113
31388,36628,32103
33913,36637,32117
35292,36637,32044
35120,36636,32034
33632,36643,32060
31585,36601,32072
29632,36623,32062
28656,36607,32045
29700,36557,32052
32376,36580,32052
36009,36548,32093
38872,36567,32072
39524,36580,32084
39276,36580,32081
37312,36588,32085
34712,36585,32024
32554,36551,32085
31556,36575,32067
31812,36557,32076
33788,36556,32026
36424,36552,32084
39284,36545,32066
39520,36554,32052
38636,36557,32073
36708,36573,32053
33664,36581,32028
31304,36536,32024
30168,36564,32041
30420,36544,32036
32346,36513,32007
34596,36545,32036
36400,36549,32000
37164,36543,31985
36649,36561,32009
34604,36561,32016
31460,36565,31948
28589,36565,32012
28028,36551,31985
28356,36535,31990
29352,36529,31928
32892,36529,31937
35336,36533,31972
36052,36535,31959
40120,36517,31940
36828,36532,31959
31513,36542,31884
28226,36540,31942
26502,36532,31919
27014,36524,31927
29956,36516,31910
32532,36512,31862
34233,36524,31860
35354,36519,31884
34668,36541,31869
32476,36537,31888
28556,36540,31828
26688,36529,31822
26056,36524,31855
26272,36457,31861
29076,36489,31800
31420,36492,31839
33829,36501,31847
34752,36511,31783
34044,36512,31836
31920,36512,31812
31324,36487,31831
29504,36508,31758
28568,36447,31813
29712,36477,31806
31088,36464,31761
34752,36453,31812
37848,36448,31788
39152,36453,31781
39584,36453,31805
39040,36452,31799
36388,36452,31751
34093,36453,31756
32966,36428,31781
34300,36431,31788
36340,36406,31718
38640,36408,31766
40120,36415,31759
39448,36428,31705
38052,36440,31744
35008,36452,31745
30612,36460,31684
26528,36452,31696
24320,36460,31720
23457,36460,31727
24684,36457,31668
26865,36444,31681
29232,36461,31688
30897,36463,31696
30369,36468,31646
29060,36468,31680
26772,36444,31694
24828,36448,31646
24312,36408,31671
24748,36420,31644
26125,36425,31638
29473,36390,31652
33024,36400,31644
34760,36417,31609
33834,36419,31645
32564,36431,31649
31936,36405,31593
28760,36412,31614
28420,36401,31623
28700,36341,31574
31406,36372,31622
34048,36364,31631
36416,36369,31569
37448,36372,31616
36911,36377,31607
35152,36385,31559
32434,36391,31601
29833,36376,31600
28808,36359,31567
29912,36359,31538
31504,36341,31580
34696,36345,31590
36080,36348,31540
37156,36348,31541
36568,36359,31559
35268,36375,31537
32045,36369,31559
29584,36359,31554
28532,36348,31522
29076,36337,31500
31112,36322,31536
34404,36320,31511
36888,36322,31505
38068,36324,31526
37192,36340,31524
34324,36349,31497
31359,36345,31513
28788,36333,31534
27856,36324,31455
28760,36313,31454
31393,36292,31493
34244,36305,31493
37536,36284,31445
38924,36292,31500
38748,36304,31496
37492,36301,31444
35529,36300,31432
33050,36292,31480
31706,36292,31465
32576,36261,31478
34028,36264,31436
37444,36245,31416
40040,36255,31456
41056,36255,31449
40636,36260,31447
38788,36270,31404
36564,36272,31402
34044,36276,31381
32492,36232,31429
32244,36253,31408
33508,36246,31433
36192,36244,31367
38508,36240,31380
39328,36253,31398
38236,36273,31415
35836,36279,31380
33100,36272,31349
29768,36281,31401
28254,36274,31380
19521,36303,31392
24932,36278,31329
29860,36264,31378
34240,36261,31357
36076,36262,31380
35932,36270,31327
33844,36276,31365
31112,36269,31366
28620,36231,31296
28250,36247,31364
28540,36207,31349
30260,36231,31340
33848,36231,31296
36264,36231,31321
36960,36234,31310
36684,36244,31325
35288,36253,31328
31856,36246,31274
29916,36247,31310
29032,36226,31253
29564,36223,31301
31328,36205,31297
34636,36204,31250
36436,36215,31289
37740,36204,31272
37508,36213,31254
35820,36231,31239
33384,36228,31255
30576,36231,31216
28916,36193,31217
29516,36220,31241
31272,36199,31252
33564,36196,31208
36232,36204,31181
37480,36205,31196
37240,36215,31232
35120,36221,31218
32024,36220,31223
29380,36190,31223
28192,36196,31177
28485,36169,31168
30076,36191,31158
33508,36191,31176
37024,36169,31198
37996,36186,31193
36672,36196,31196
35380,36204,31164
32140,36199,31145
29220,36196,31138
28712,36191,31172
28892,36176,31164
29744,36164,31177
33208,36165,31125
34958,36180,31114
35416,36192,31118
35353,36182,31151
34041,36196,31144
31140,36191,31135
28620,36191,31127
28040,36183,31108
27940,36167,31085
28980,36166,31103
33600,36121,31109
35276,36159,31088
36172,36165,31105
35452,36157,31117
34132,36170,31068
31532,36176,31100
28052,36172,31095
26876,36162,31097
26996,36113,31097
29020,36148,31048
31732,36140,31089
34560,36140,31100
35660,36148,31078
35772,36153,31076
33916,36167,31088
31436,36156,31079
28808,36156,31060
28072,36145,31092
28132,36133,31096
30112,36113,31109
32740,36129,31115
35256,36132,31070
35980,36140,31069
36048,36142,31111
34380,36144,31111
31572,36129,31120
29244,36102,31128
29164,36116,31084
29137,36084,31092
30940,36103,31084
32860,36076,31145
34916,36116,31140
36948,36121,31156
36860,36120,31135
34840,36132,31129
31440,36140,31168
28712,36126,31160
27060,36120,31183
27936,36115,31172
28940,36111,31141
33072,36100,31191
35400,36093,31189
36141,36114,31188
35192,36119,31214
32324,36135,31209
29128,36120,31165
26825,36132,31180
25496,36129,31231
25128,36101,31239
27096,36108,31229
31020,36092,31234
33772,36103,31198
34840,36103,31224
34748,36124,31262
33052,36125,31269
29996,36127,31295
28232,36100,31271
25980,36113,31246
26284,36100,31251
29746,36074,31258
33464,36077,31272
35216,36072,31278
35952,36086,31272
26108,36153,31281
28960,36132,31289
29505,36123,31337
28052,36108,31332
27150,36103,31355
28012,36079,31305
30521,36071,31361
33484,36063,31341
35772,36071,31367
38208,36061,31311
38484,36065,31367
37032,36076,31360
33856,36093,31348
31260,36080,31326
29217,36071,31380
29404,36061,31377
31216,36061,31368
33088,36044,31391
35376,36072,31373
37488,36067,31359
37276,36073,31351
35964,36079,31382
32925,36080,31399
30016,36080,31351
28993,36076,31337
28564,36067,31397
29896,36052,31391
33210,36052,31396
36024,36052,31372
37312,36057,31353
36421,36060,31391
33844,36087,31383
30848,36095,31396
28513,36080,31350
27457,36072,31372
27796,36063,31391
29280,36052,31389
31584,36046,31348
34480,36043,31402
35968,36056,31396
35932,36066,31404
34608,36078,31351
32493,36077,31349
29996,36048,31367
27921,36065,31408
28228,36055,31397
30252,36044,31397
33376,36033,31407
35848,36036,31366
37668,36039,31382
36991,36052,31413
35124,36073,31415
32592,36060,31372
29928,36065,31430
28237,36016,31429
28301,36040,31377
31244,36037,31412
33328,36033,31397
35860,36028,31389
37328,36047,31446
36656,36069,31383
35236,36067,31436
35204,36052,31420
32392,36048,31452
29764,36039,31457
30100,36036,31418
32141,36024,31473
34624,36023,31479
37304,36024,31430
38744,36031,31495
38496,36053,31484
36824,36049,31500
33864,36061,31448
31716,36052,31488
30868,36042,31516
30680,35992,31542
33392,36017,31516
35768,36005,31488
38448,36020,31508
40468,36015,31549
39616,36028,31580
37637,36044,31521
34029,36068,31582
29976,36064,31580
27708,36065,31569
26644,36057,31572
26870,36052,31623
28240,36065,31615
29044,36048,31655
28948,36084,31604
27309,36103,31656
26156,36118,31665
23264,36121,31606
21920,36093,31685
20701,36091,31684
22736,36075,31660
24344,36068,31652
26425,36076,31702
30404,36068,31733
32609,36064,31685
33493,36079,31741
32516,36057,31755
30376,36081,31724
27652,36077,31718
27536,36013,31773
27988,36057,31774
29528,36055,31774
33888,36012,31784
36604,36036,31743
38340,36051,31790
38160,36053,31808
37100,36060,31744
34496,36062,31812
31669,36028,31816
28641,36068,31818
30272,36039,31836
32192,36036,31812
34264,36048,31792
36648,36044,31785
37937,36059,31852
38020,36060,31837
36693,36076,31828
33552,36079,31836
31148,36081,31870
29396,36053,31884
29944,36061,31841
31136,36068,31821
33856,36054,31861
37088,36061,31897
38588,36064,31905
38820,36071,31860
36796,36093,31874
34656,36092,31916
31372,36089,31936
30026,36085,31873
29472,36079,31933
31261,36081,31940
33816,36069,31917
36620,36078,31886
38016,36089,31961
38480,36088,31949
37289,36103,31976
34240,36121,31940
31108,36103,31918
29533,36119,31988
30256,36101,31961
32416,36084,32002
34656,36096,31916
37368,36093,31994
39444,36100,31991
38780,36103,31957
37112,36129,31993
35188,36129,32007
32501,36124,31940
30756,36079,32015
30440,36125,32004
32112,36103,31984
34144,36121,31976
35724,36133,32008
37380,36137,31966
36940,36148,32031
34600,36175,32005
31405,36172,32029
28120,36133,31967
26441,36161,32010
26349,36161,31961
27572,36150,32021
30356,36161,32024
32484,36148,31975
33876,36180,32013
33888,36195,31985
32352,36204,31977
30561,36156,32008
27948,36204,31948
26385,36206,32013
26361,36185,32001
29444,36176,31936
32069,36180,31994
34796,36182,31988
35596,36196,31917
36444,36189,31905
35120,36212,31932
32224,36192,31968
29480,36219,31952
28340,36214,31944
29268,36191,31948
31212,36194,31872
25481,36240,31933
31800,36228,31918
36272,36220,31908
37620,36221,31874
36512,36231,31841
34856,36206,31849
33652,36225,31860
31433,36228,31856
30748,36220,31844
31368,36223,31784
34016,36220,31772
36686,36217,31812
38692,36231,31792
39168,36245,31788
38144,36245,31776
35300,36264,31720
32460,36268,31700
30852,36260,31745
31048,36257,31712
32172,36246,31705
34728,36248,31641
37220,36229,31692
39948,36246,31671
39916,36276,31664
37984,36280,31645
34860,36292,31588
31604,36296,31637
29134,36297,31615
29968,36285,31591
31496,36271,31556
33936,36292,31574
36412,36288,31582
38348,36296,31501
38604,36316,31557
36652,36329,31533
34804,36327,31517
31808,36336,31493
30080,36325,31509
30840,36325,31488
32192,36317,31472
34404,36327,31456
37012,36310,31412
38772,36324,31460
39177,36343,31448
37732,36354,31433
34936,36375,31454
32100,36369,31396
30016,36359,31414
29780,36359,31428
32868,36317,31360
35176,36345,31412
36992,36355,31396
37948,36359,31380
37568,36376,31377
35972,36397,31404
32708,36406,31401
29844,36408,31384
27285,36410,31415
27780,36405,31404
28868,36375,31426
30500,36394,31422
33356,36409,31396
34924,36420,31444
37775,36411,31444
35176,36437,31448
31905,36432,31471
28108,36449,31468
27066,36436,31495
26777,36428,31460
28038,36413,31521
31016,36423,31521
33244,36436,31546
34980,36445,31512
35712,36455,31566
35332,36459,31585
32364,36457,31609
29508,36464,31580
28668,36448,31591
28544,36452,31612
29220,36444,31664
32470,36428,31687
35820,36445,31671
37212,36447,31662
37664,36449,31701
36428,36465,31745
33380,36478,31740
30864,36451,31751
30240,36464,31787
29648,36467,31796
31100,36463,31777
33420,36454,31809
36024,36463,31836
37740,36468,31845
37580,36487,31842
35440,36496,31889
33172,36505,31920
30452,36509,31873
28592,36493,31940
28901,36489,31948
30940,36474,31956
32856,36487,31932
36352,36487,32000
37536,36493,31997
37278,36506,32007
35648,36520,31970
32320,36516,32041
29820,36538,32032
28440,36527,32068
28236,36517,32061
29810,36504,32030
32380,36479,32087
34976,36515,32092
36526,36517,32085
36572,36538,32130
34844,36543,32124
32356,36549,32160
29448,36539,32120
28513,36538,32108
28252,36527,32174
29356,36528,32172
32048,36524,32132
34793,36529,32199
36252,36541,32191
36972,36545,32208
35196,36560,32156
39352,36528,32228
33829,36545,32224
29926,36552,32172
28594,36556,32240
30104,36500,32252
32153,36548,32237
35136,36541,32192
36980,36551,32256
36236,36567,32273
34800,36577,32208
32316,36585,32272
30260,36576,32289
28112,36580,32254
27124,36575,32223
29112,36537,32296
30985,36554,32279
34748,36569,32310
36348,36580,32226
36696,36577,32311
35284,36590,32319
32856,36584,32298
29656,36602,32273
27968,36536,32321
28632,36581,32327
29760,36572,32315
32128,36568,32281
34736,36550,32271
37428,36579,32334
36944,36588,32342
35572,36593,32357
32736,36612,32285
29420,36608,32364
28272,36591,32357
28030,36592,32383
29164,36583,32321
31620,36582,32312
33520,36589,32384
35196,36590,32383
35628,36615,32386
33956,36608,32375
32004,36608,32344
29132,36628,32340
27676,36607,32344
27796,36596,32383
28870,36589,32376
31604,36588,32425
33724,36604,32424
35457,36597,32454
35140,36612,32373
34140,36621,32469
31476,36620,32452
28848,36622,32473
27680,36591,32423
27565,36601,32492
28608,36596,32486
31850,36598,32511
34688,36596,32439
36792,36599,32474
37620,36599,32542
36676,36609,32544
34008,36583,32552
31381,36603,32564
29980,36605,32532
24772,36615,32525
27732,36604,32602
31329,36584,32608
35460,36593,32604
37224,36583,32561
36660,36606,32647
34068,36629,32647
30828,36631,32628
27168,36624,32600
24276,36624,32676
21897,36558,32708
22704,36615,32647
25312,36615,32712
29596,36614,32714
30608,36633,32672
31982,36633,32748
30556,36639,32737
29000,36615,32769
27496,36613,32692
25661,36619,32727
26624,36599,32768
27616,36596,32789
31152,36584,32749
34016,36589,32808
36476,36588,32809
37264,36597,32808
36036,36607,32765
34172,36608,32824
32280,36605,32838
30002,36593,32817
30284,36588,32791
31304,36574,32868
35256,36552,32852
38288,36556,32784
40756,36552,32885
40592,36560,32879
38828,36578,32888
36092,36588,32826
32712,36591,32857
31992,36567,32888
30968,36578,32886
32472,36556,32869
35268,36549,32924
38540,36549,32936
40204,36552,32844
40396,36559,32941
38620,36580,32949
35792,36571,32916
32604,36578,32903
31036,36573,32949
31818,36550,32961
33688,36539,32884
36344,36539,32976
38820,36541,32956
40992,36535,32982
41308,36543,32895
39844,36556,32941
36472,36572,32996
33188,36573,32973
31208,36557,33001
30432,36553,32913
32757,36535,32940
35688,36527,32988
37424,36532,33010
38796,36545,32984
38280,36554,32913
37084,36564,33004
35284,36566,32986
31832,36564,33004
28772,36560,32951
28312,36540,32935
30196,36538,32964
33728,36529,32999
35960,36530,32985
37532,36532,33001
37878,36551,32924
36184,36556,32985
33525,36560,32992
30296,36559,33004
29188,36547,32989
27952,36534,32902
27828,36509,32999
29484,36535,32968
31725,36540,32917
33800,36543,32996
34392,36555,32972
32708,36564,32936
29416,36568,32992
26672,36573,32990
25228,36545,32916
24640,36535,32949
25560,36540,32971
28736,36524,32916
31204,36500,32989
33836,36517,32988
33784,36542,32915
32726,36544,32981
30528,36541,32964
28556,36537,32982
26490,36528,32901
26132,36511,32880
28017,36506,32977
31328,36493,32948
34484,36464,32965
37118,36487,32876
38084,36483,32893
36972,36505,32956
35196,36508,32944
31976,36501,32927
29792,36487,32894
30552,36481,32864
32212,36468,32924
35404,36452,32936
37944,36445,32868
39741,36452,32844
40680,36454,32912
39534,36452,32912
37592,36473,32866
34388,36444,32863
32196,36460,32884
32092,36434,32887
33112,36447,32837
35416,36426,32797
38220,36422,32796
40320,36431,32887
40812,36435,32857
38596,36452,32871
35040,36461,32788
32852,36460,32784
30668,36462,32785
30268,36448,32825
31972,36424,32852
34332,36417,32768
36832,36429,32812
38128,36437,32829
39084,36439,32740
38060,36423,32807
35037,36455,32770
31872,36452,32749
29237,36452,32789
28197,36436,32766
29632,36426,32781
32320,36408,32694
35876,36412,32758
37270,36421,32745
37824,36435,32740
36188,36437,32696
33936,36430,32645
29780,36441,32704
27069,36452,32708
25528,36425,32615
26580,36428,32673
30573,36404,32676
33364,36406,32584
34840,36393,32608
35112,36431,32639
34048,36420,32610
32248,36428,32634
29512,36425,32556
26881,36415,32554
25836,36398,32577
27688,36396,32580
30268,36372,32592
32696,36392,32493
34796,36384,32567
34782,36404,32542
33560,36407,32550
31040,36405,32470
29440,36349,32532
27240,36401,32508
26628,36376,32502
28364,36324,32461
31476,36354,32515
35080,36351,32480
37216,36349,32500
38044,36351,32420
37172,36359,32485
34360,36359,32463
31052,36367,32485
29241,36344,32389
29140,36337,32465
29852,36326,32449
32720,36292,32412
35518,36318,32429
37320,36324,32440
37456,36326,32375
36156,36340,32425
34948,36332,32429
32084,36326,32389
30328,36324,32356
29312,36311,32404
30464,36300,32395
32836,36264,32389
35748,36291,32317
37620,36292,32381
37636,36294,32385
36044,36317,32317
34604,36309,32391
31604,36304,32374
29724,36297,32316
28556,36268,32372
29356,36276,32372
31988,36268,32351
34400,36238,32367
36596,36269,32352
38236,36271,32345
36864,36276,32372
33760,36282,32343
30412,36284,32334
28456,36280,32375
27704,36258,32397
29612,36245,32324
32729,36231,32389
35600,36228,32340
37424,36228,32365
37528,36239,32401
36956,36245,32380
35088,36256,32436
32028,36253,32426
30053,36244,32444
29512,36231,32381
31180,36211,32453
33880,36197,32452
35940,36204,32373
37600,36215,32469
38228,36207,32476
37284,36219,32391
34304,36216,32484
31412,36181,32489
28740,36204,32423
28024,36212,32485
29777,36181,32472
31768,36180,32519
35012,36176,32525
36836,36172,32485
37380,36185,32532
36288,36196,32457
33340,36196,32542
30420,36196,32555
28356,36182,32476
27142,36175,32569
28028,36149,32582
30568,36144,32543
33601,36162,32565
35428,36158,32582
35840,36165,32541
34804,36177,32584
33016,36164,32547
30136,36164,32614
28020,36164,32592
27880,36133,32608
28656,36128,32553
32169,36100,32623
34964,36105,32628
36780,36119,32557
36968,36121,32644
36324,36135,32632
33824,36132,32662
31548,36131,32672
28533,36114,32596
28568,36103,32664
29372,36079,32653
31712,36094,32643
34200,36093,32670
36472,36081,32647
37576,36091,32663
36868,36087,32703
34140,36084,32724
31524,36092,32632
29324,36090,32710
28460,36072,32713
29984,36061,32704
32468,36055,32732
35076,36050,32688
36944,36041,32775
37292,36063,32772
37240,36070,32709
34028,36068,32807
30880,36063,32782
28564,36053,32732
27824,36047,32828
29726,36020,32807
31972,36025,32829
34508,36007,32775
36336,36028,32844
36873,36029,32848
36164,36032,32785
32888,36040,32847
30404,36037,32844
28916,36029,32832
27612,36013,32868
29064,35996,32903
33045,35975,32802
35948,35980,32840
37720,35975,32917
37949,35989,32898
37032,35996,32900
33272,36004,32842
29768,36000,32919
26497,35994,32932
24920,35984,32858
25316,35996,32956
26132,35982,32946
28114,35991,32944
28852,36006,32900
27828,36013,32868
26260,36012,32965
23328,36020,32948
21489,35960,32933
20022,35988,32884
21684,35975,32980
23209,35956,32980
27436,35942,32909
30056,35937,32908
32068,35953,33012
33502,35948,32991
33044,35949,33008
30660,35948,32924
28564,35940,33030
27358,35874,33025
26988,35908,33044
28680,35905,32937
32056,35892,33053
35644,35876,33049
39012,35854,33085
40356,35861,33028
39316,35871,33021
37024,35876,33088
34508,35878,33100
32628,35845,33044
31712,35842,33141
32672,35836,33132
35100,35833,33078
38212,35816,33092
40064,35815,33159
40624,35829,33180
39876,35830,33116
37240,35844,33158
34114,35844,33224
31884,35831,33217
31588,35821,33262
32737,35800,33175
34613,35793,33272
38692,35780,33276
40369,35783,33204
41504,35780,33318
41012,35784,33332
39169,35788,33220
36020,35796,33358
33060,35793,33334
31892,35776,33253
32617,35764,33358
34400,35764,33316
37324,35764,33391
38521,35761,33388
38664,35772,33301
38845,35766,33405
36384,35770,33381
33277,35778,33393
30012,35772,33316
29848,35752,33404
30748,35711,33423
33300,35728,33317
35604,35719,33348
37960,35724,33412
38872,35737,33409
38160,35743,33437
35576,35748,33340
33164,35733,33383
29588,35744,33412
28552,35713,33440
30428,35714,33359
33172,35708,33428
35692,35700,33384
37508,35701,33457
27568,35740,33463
31268,35751,33346
32036,35729,33449
30136,35710,33451
27868,35716,33476
27668,35700,33471
29064,35676,33367
32025,35668,33493
34492,35672,33469
36412,35679,33429
37424,35678,33388
36284,35685,33492
33452,35680,33513
30510,35684,33404
28188,35677,33521
27452,35677,33500
29529,35646,33508
31600,35631,33429
35728,35633,33562
38308,35628,33543
39388,35644,33528
38856,35623,33543
35744,35644,33561
33088,35643,33457
31588,35625,33473
30832,35607,33510
31228,35607,33552
34840,35584,33573
37317,35584,33520
39460,35591,33576
40188,35591,33543
39528,35591,33540
37296,35598,33473
34268,35610,33441
31442,35600,33536
31256,35582,33508
32308,35572,33512
33964,35544,33396
36089,35556,33445
38148,35562,33474
39520,35561,33500
38572,35572,33377
36320,35584,33453
33012,35572,33414
30644,35543,33380
29408,35564,33428
30976,35548,33437
32768,35545,33308
35073,35525,33400
37696,35537,33381
37392,35551,33253
35596,35566,33348
33408,35572,33313
30112,35569,33268
27764,35553,33223
26456,35548,33268
27808,35495,33273
29332,35529,33132
31718,35522,33133
33724,35533,33206
34558,35538,33162
33256,35552,33170
33556,35532,33129
29352,35536,33029
26036,35536,33082
23750,35524,33073
24944,35522,32997
28114,35508,33030
31384,35492,33018
33348,35496,32958
33164,35519,32971
32566,35524,32979
30288,35485,32840
28188,35509,32940
25056,35513,32900
24104,35500,32828
25503,35468,32828
27892,35476,32866
31544,35474,32836
33597,35458,32831
33696,35493,32753
32869,35484,32814
30344,35493,32783
27840,35494,32753
25952,35478,32770
25000,35454,32689
25128,35452,32644
27668,35412,32724
30932,35448,32680
32764,35428,32695
34248,35453,32581
33892,35453,32656
32124,35461,32549
29097,35458,32642
27100,35444,32606
25936,35428,32597
27276,35390,32484
29856,35406,32566
32664,35405,32540
34840,35412,32542
36424,35412,32469
35652,35417,32418
33576,35418,32495
30528,35416,32455
28096,35414,32436
27182,35401,32343
27941,35380,32412
31020,35380,32367
33604,35383,32377
35704,35377,32248
37680,35365,32276
36553,35378,32279
34436,35365,32192
31224,35385,32244
28248,35372,32228
27608,35369,32129
29428,35348,32100
31836,35335,32133
34614,35335,32097
36845,35335,32097
38316,35335,31980
37420,35343,32039
34908,35351,31980
31926,35360,31960
30260,35348,31865
20540,35369,31820
25620,35344,31788
30181,35317,31836
33856,35316,31793
36780,35308,31765
38124,35305,31677
37384,35313,31696
35593,35316,31668
32508,35318,31568
30437,35317,31607
30352,35272,31566
31292,35284,31476
33612,35264,31453
36868,35264,31477
39168,35265,31423
39608,35277,31413
39120,35281,31319
36720,35293,31346
33255,35288,31296
31164,35276,31292
30868,35265,31204
31556,35254,31207
33141,35244,31173
35996,35240,31128
38188,35244,31142
38884,35263,31073
37680,35261,31033
35692,35276,31071
32872,35241,31044
30306,35252,30975
29233,35258,30940
30080,35241,30967
32832,35220,30932
35248,35222,30924
37804,35216,30839
39520,35223,30844
39332,35225,30864
36944,35229,30861
34016,35241,30816
31853,35229,30769
31456,35209,30805
32085,35199,30797
35040,35181,30740
37612,35173,30786
39616,35172,30766
40648,35188,30771
39636,35194,30724
37876,35204,30765
35500,35197,30757
33616,35190,30774
33296,35188,30712
34921,35134,30765
36660,35143,30724
38492,35141,30750
40848,35145,30780
42392,35153,30805
41664,35161,30786
39294,35156,30817
38172,35146,30852
36944,35140,30788
35208,35136,30871
35520,35132,30879
39948,35100,30910
40868,35106,30865
41604,35116,30913
41744,35128,30948
40672,35140,30977
38312,35143,30999
34437,35157,30961
31936,35141,31056
30885,35135,31067
31124,35124,31102
32596,35128,31055
35288,35120,31121
37520,35118,31183
38680,35112,31212
37741,35136,31252
35444,35127,31200
32740,35134,31314
29656,35140,31332
30084,35116,31375
31464,35101,31333
34068,35062,31445
36904,35079,31469
40349,35068,31481
41268,35079,31515
39816,35103,31564
37920,35094,31585
35064,35103,31550
30770,35100,31584
30044,35068,31704
29949,35093,31725
30777,35087,31711
32692,35093,31812
33944,35100,31812
35072,35093,31852
33752,35092,31893
30772,35104,31887
25165,35132,31968
