ECG,EDA,RR
32840,31133,33072
32856,31137,33002
32784,31121,32965
32800,31084,32959
32864,31073,32948
32868,31056,32949
32876,31070,32927
32820,31095,32901
32785,31109,32896
32816,31128,32773
32828,31140,32716
32840,31124,32781
32820,31105,32828
32824,31077,32754
32784,31063,32770
32712,31065,32652
32736,31054,32600
32760,31089,32706
32801,31111,32712
32820,31132,32656
32848,31126,32598
32808,31127,32585
32764,31108,32552
32788,31081,32547
32776,31052,32543
32792,31048,32518
32844,31060,32552
32844,31079,32468
32768,31111,32466
32768,31125,32452
32796,31116,32448
32832,31114,32359
32832,31100,32281
32856,31072,32263
32828,31057,32247
32848,31042,32287
32844,31052,32372
32844,31072,32324
32768,31106,32327
32736,31113,32153
32776,31119,32233
32712,31096,32258
32746,31103,32224
32816,31062,32137
32860,31052,32079
32900,31028,32213
32768,31052,32127
32740,31066,32164
32776,31092,32068
32784,31117,32008
32816,31127,31960
32828,31111,32046
32844,31087,32031
32852,31061,32036
32870,31048,32042
32873,31041,31908
32888,31049,31869
32896,31068,31917
32876,31103,31957
32864,31109,31946
32904,31114,31845
32894,31109,31772
32752,31093,31879
32800,31061,31826
32828,31044,31832
32820,31036,31847
32868,31045,31728
32912,31066,31684
32908,31093,31751
32916,31111,31788
32880,31114,31741
32868,31107,31727
32876,31085,31700
32892,31062,31692
32912,31044,31703
32862,31044,31700
32796,31049,31700
32720,31074,31597
32696,31092,31559
32777,31109,31522
32784,31112,31602
32756,31108,31641
32668,31095,31576
32681,31062,31592
32796,31043,31589
32788,31028,31523
32716,31059,31468
32744,31066,31461
32704,31095,31414
32696,31111,31393
32684,31117,31437
32652,31101,31468
32628,31090,31457
32657,31068,31497
32732,31057,31473
32764,31039,31466
32796,31048,31457
32821,31072,31453
32844,31103,31425
32886,31121,31433
32800,31111,31434
32728,31114,31309
32688,31100,31265
32752,31079,31349
32728,31066,31328
32745,31056,31360
32772,31066,31269
32812,31080,31206
32804,31109,31245
32833,31128,31336
32790,31140,31268
32736,31128,31295
32764,31108,31304
32796,31088,31223
32840,31073,31176
32872,31061,31160
32848,31075,31196
32852,31094,31253
32852,31120,31199
32752,31137,31213
32704,31148,31212
32736,31153,31136
32728,31124,31054
32768,31109,31112
32768,31088,31175
32740,31076,31148
32796,31088,31164
32816,31108,31137
32816,31135,31120
32812,31153,31138
32828,31154,31140
32848,31157,31007
32768,31141,31040
32688,31119,31107
32664,31105,31097
32716,31109,31084
32776,31109,31076
32752,31135,31026
32760,31156,31029
32800,31181,31044
32856,31185,30972
32864,31175,30900
32873,31152,30924
32888,31134,30945
32876,31120,30936
32816,31125,30937
32789,31128,30951
32780,31144,30973
32781,31167,30948
32800,31192,30948
32808,31213,30889
32762,31204,30805
32688,31193,30770
32700,31161,30759
32648,31152,30758
32645,31152,30733
32684,31156,30730
32648,31181,30735
32720,31212,30710
32788,31228,30684
32804,31236,30672
32784,31222,30672
32776,31215,30636
32784,31190,30656
32697,31185,30750
32676,31179,30708
32672,31192,30715
32752,31212,30670
32792,31236,30688
32712,31260,30677
32748,31281,30672
32784,31271,30656
32800,31252,30608
32832,31236,30609
32832,31219,30616
32804,31217,30621
32768,31236,30528
32780,31252,30455
32792,31276,30440
32816,31305,30471
32684,31319,30488
32629,31313,30524
32656,31300,30488
32768,31279,30476
32788,31262,30471
32788,31263,30476
32808,31269,30461
32804,31292,30388
32809,31316,30453
32692,31350,30426
32702,31356,30410
32760,31353,30408
32804,31341,30335
32728,31321,30273
32754,31304,30276
32738,31301,30293
32796,31310,30343
32812,31333,30316
32872,31366,30335
32884,31389,30309
32864,31406,30301
32820,31401,30293
32812,31384,30256
32760,31366,30264
32717,31356,30258
32768,31348,30254
32788,31367,30256
32692,31384,30192
32704,31417,30165
32752,31438,30131
32796,31448,30116
32816,31448,30140
32832,31433,30208
32864,31413,30165
32880,31400,30161
32800,31404,30180
32736,31418,30093
32680,31440,30100
32736,31469,30173
32796,31488,30132
32784,31503,30126
32800,31500,30148
32820,31489,30032
32872,31471,30012
32880,31462,30132
32881,31456,30095
32888,31476,30112
32896,31495,30046
32785,31524,29972
32740,31548,30069
32812,31560,30069
32742,31569,29956
32789,31550,30053
32836,31525,30054
32808,31509,29981
32848,31509,29937
32904,31516,29984
32901,31541,30016
32900,31581,29992
32921,31601,30005
32908,31620,30000
32920,31606,29932
32868,31607,29884
32868,31584,29962
32853,31579,29953
32865,31566,29931
32872,31588,29953
32869,31615,29892
32852,31641,29844
32849,31660,29897
32776,31682,29892
32748,31682,29912
32820,31665,29908
32840,31646,29840
32852,31633,29788
32832,31629,29866
32792,31650,29855
32804,31668,29767
32824,31703,29783
32848,31724,29844
32856,31737,29809
32840,31737,29772
32824,31718,29739
32858,31716,29820
32808,31696,29783
32736,31696,29756
32688,31712,29700
32644,31728,29757
32640,31764,29780
32600,31791,29764
32632,31800,29746
32610,31809,29756
32604,31789,29752
32652,31772,29668
32640,31750,29669
32661,31751,29727
32620,31773,29735
32616,31799,29676
32652,31812,29666
32648,31849,29644
32689,31864,29632
32724,31865,29701
32764,31858,29701
32752,31831,29721
32714,31812,29722
32704,31827,29733
32720,31823,29740
32776,31860,29687
32788,31884,29653
32812,31896,29639
32825,31933,29648
32788,31941,29644
32714,31922,29712
32708,31904,29756
32756,31892,29728
32700,31889,29745
32704,31903,29717
32752,31928,29668
32772,31950,29775
32792,31970,29777
32800,31996,29724
32884,31993,29748
32909,31972,29780
32889,31951,29796
32800,31950,29816
32768,31952,29789
32832,31962,29743
32868,31985,29852
32893,32020,29836
32888,32040,29856
32772,32064,29878
32752,32067,29849
32792,32044,29822
32808,32034,29825
32884,32012,29894
32876,32017,29933
32880,32027,29957
32912,32052,29917
32888,32084,29892
32864,32110,29916
32764,32119,30000
32720,32126,30028
32776,32108,30054
32704,32092,30057
32740,32085,30061
32804,32086,30074
32820,32089,30086
32756,32119,30124
32776,32145,30102
32764,32165,30100
32796,32184,30090
32844,32186,30080
32864,32164,30152
32896,32152,30228
32892,32142,30228
32900,32137,30246
32816,32152,30252
32764,32175,30208
32752,32200,30212
32740,32228,30224
32776,32247,30304
32824,32246,30309
32800,32222,30329
32844,32215,30336
32864,32199,30339
32869,32180,30369
32865,32209,30439
32874,32232,30449
32870,32263,30447
32776,32284,30457
32708,32304,30497
32740,32303,30453
32720,32293,30436
32713,32276,30482
32704,32263,30489
32766,32257,30500
32833,32268,30569
32868,32296,30584
32852,32324,30548
32856,32354,30539
32924,32358,30552
32932,32357,30621
32824,32349,30630
32772,32332,30640
32680,32324,30628
32732,32319,30645
32772,32332,30646
32752,32352,30668
32792,32367,30657
32768,32409,30601
32736,32425,30608
32748,32421,30668
32752,32404,30677
32804,32391,30761
32800,32373,30685
32800,32375,30720
32720,32386,30727
32681,32407,30797
32728,32443,30804
32696,32463,30821
32652,32481,30821
32696,32481,30820
32740,32468,30833
32792,32448,30855
32796,32432,30873
32784,32429,30869
32797,32434,30857
32752,32466,30877
32660,32500,30896
32644,32519,30884
32708,32537,30919
32760,32540,30904
32772,32517,30832
32788,32507,30836
32808,32487,30855
32694,32492,30904
32616,32501,30967
32672,32528,30960
32676,32550,30941
32728,32581,30959
32796,32591,30985
32832,32591,30900
32832,32564,30893
32852,32551,30892
32884,32530,30927
32832,32537,30908
32740,32557,30928
32766,32577,30996
32812,32599,31017
32824,32628,31017
32732,32644,31024
32741,32647,31017
32736,32630,31035
32797,32608,31054
32793,32602,31000
32844,32596,30945
32793,32606,30953
32788,32628,31036
32724,32653,31056
32784,32677,31036
32832,32693,31069
32828,32687,30997
32812,32681,30960
32812,32654,31031
32865,32633,31076
32896,32631,31054
32908,32657,31076
32916,32673,31060
32921,32692,31079
32912,32717,31044
32880,32735,31060
32844,32715,31074
32900,32714,31013
32904,32701,30952
32908,32684,30957
32932,32676,30958
32900,32688,30996
32908,32710,31032
32924,32732,31068
32904,32748,31036
32900,32772,31033
32894,32775,31044
32877,32759,31055
32780,32742,31047
32840,32724,31046
32812,32719,31046
32792,32716,30980
32710,32771,30965
32729,32783,30946
32720,32800,30963
32708,32809,30959
32732,32816,31012
32688,32801,31006
32704,32766,30936
32764,32771,30900
32780,32756,30876
32796,32767,30853
32824,32788,30856
32744,32828,30845
32772,32850,30868
32804,32832,30925
32832,32855,30916
32876,32844,30860
32886,32815,30805
32878,32807,30820
32880,32801,30808
32876,32804,30770
32884,32820,30752
32897,32852,30786
32888,32879,30746
32896,32886,30732
32868,32873,30717
32832,32877,30712
32740,32860,30714
32724,32844,30748
32716,32844,30740
32704,32837,30720
32736,32877,30708
32692,32887,30700
32656,32924,30636
32656,32930,30652
32676,32908,30681
32724,32908,30620
32684,32901,30612
32705,32884,30637
32770,32876,30666
32828,32879,30632
32852,32893,30620
32836,32924,30615
32772,32949,30619
32768,32964,30597
32816,32936,30569
32832,32949,30569
32832,32924,30560
32776,32906,30552
32840,32887,30542
32816,32903,30528
32829,32919,30517
32834,32956,30508
32824,32981,30494
32854,32989,30409
32876,32988,30383
32892,32964,30365
32844,32949,30359
32761,32936,30356
32720,32938,30319
32708,32951,30332
32768,32960,30321
32788,32983,30310
32812,33004,30356
32788,32997,30317
32804,33010,30308
32857,32996,30289
32893,32986,30300
32860,32966,30284
32840,32964,30247
32814,32964,30186
32722,32984,30163
32700,33009,30214
32772,33032,30204
32776,33045,30189
32757,33045,30142
32800,33023,30169
32852,33006,30149
32856,32982,30127
32848,32980,30106
32840,32985,30079
32796,33004,30072
32733,33041,30064
32736,33060,30040
32772,33069,30020
32820,33068,30013
32832,33048,29992
32816,33028,29948
32760,33012,29943
32812,33012,29912
32836,33008,29853
32832,33031,29853
32784,33056,29858
32714,33068,29812
32709,33092,29816
32764,33094,29853
32784,33070,29836
32805,33045,29808
32820,33028,29790
32848,33028,29782
32832,33029,29780
32812,33055,29759
32801,33063,29750
32788,33103,29740
32706,33113,29717
32720,33104,29717
32764,33100,29710
32664,33069,29656
32704,33062,29612
32796,33045,29593
32812,33051,29589
32820,33068,29573
32736,33093,29567
32697,33113,29580
32732,33125,29604
32792,33124,29580
32812,33103,29564
32796,33083,29545
32817,33065,29540
32808,33044,29516
32776,33071,29509
32736,33087,29489
32749,33110,29470
32744,33135,29465
32768,33141,29460
32805,33140,29453
32829,33108,29392
32828,33090,29372
32844,33074,29348
32830,33068,29345
32805,33087,29321
32744,33109,29304
32752,33127,29309
32688,33140,29314
32752,33167,29304
32824,33133,29320
32844,33129,29293
32836,33109,29288
32833,33094,29228
32834,33085,29204
32748,33079,29196
32744,33109,29177
32700,33135,29201
32740,33159,29199
32809,33166,29206
32869,33164,29204
32856,33143,29176
32856,33127,29157
32832,33102,29136
32856,33089,29133
32872,33086,29084
32864,33123,29079
32878,33149,29073
32880,33170,29052
32828,33173,29016
32736,33177,29061
32704,33159,29055
32780,33133,29044
32836,33108,29025
32870,33109,29006
32884,33108,28996
32856,33132,28978
32840,33159,28972
32860,33149,28969
32864,33189,28948
32864,33177,28901
32841,33164,28898
32860,33148,28905
32864,33108,28916
32864,33109,28900
32881,33119,28884
32900,33137,28878
32884,33152,28855
32896,33181,28850
32904,33189,28788
32852,33185,28777
32764,33167,28781
32788,33141,28781
32824,33129,28775
32848,33121,28790
32844,33130,28796
32812,33145,28781
32792,33168,28772
32704,33188,28752
32684,33207,28742
32676,33197,28705
32700,33181,28668
32709,33159,28719
32672,33136,28726
32668,33132,28716
32620,33135,28698
32628,33150,28690
32664,33174,28676
32652,33188,28665
32692,33204,28660
32664,33185,28644
32732,33183,28652
32796,33159,28643
32824,33140,28604
32856,33124,28596
32864,33133,28591
32877,33149,28582
32870,33157,28565
32848,33189,28546
32772,33201,28534
32732,33200,28546
32789,33180,28543
32773,33159,28540
32708,33119,28524
32708,33124,28516
32780,33132,28511
32820,33146,28513
32864,33165,28498
32864,33191,28517
32820,33204,28513
32784,33188,28512
32720,33167,28475
32768,33156,28465
32812,33141,28453
32864,33124,28450
32900,33125,28453
32836,33158,28455
32780,33173,28422
32775,33193,28413
32784,33205,28428
32836,33203,28436
32856,33161,28444
32861,33151,28404
32856,33135,28397
32832,33125,28398
32734,33132,28409
32752,33157,28416
32845,33160,28422
32796,33192,28405
32820,33205,28401
32840,33191,28401
32860,33175,28389
32884,33150,28405
32886,33132,28415
32864,33127,28413
32832,33129,28406
32752,33149,28404
32764,33170,28404
32784,33172,28404
32780,33197,28396
32805,33189,28393
32824,33168,28391
32748,33140,28397
32764,33132,28412
32768,33125,28413
32828,33129,28414
32868,33146,28412
32852,33164,28409
32809,33189,28408
32716,33193,28412
32692,33185,28419
32748,33181,28411
32752,33152,28397
32728,33142,28398
32732,33124,28389
32752,33124,28402
32776,33143,28430
32788,33163,28428
32772,33175,28436
32757,33203,28434
32748,33185,28436
32796,33173,28445
32824,33144,28453
32848,33124,28462
32832,33119,28463
32772,33117,28455
32752,33133,28452
32700,33159,28460
32672,33188,28441
32720,33190,28470
32724,33188,28466
32785,33164,28477
32828,33155,28500
32847,33125,28508
32868,33113,28516
32888,33119,28551
32888,33135,28580
32764,33159,28580
32724,33185,28583
32780,33189,28589
32740,33190,28610
32746,33175,28604
32740,33145,28608
32772,33125,28641
32768,33120,28664
32712,33116,28676
32729,33140,28696
32740,33164,28696
32784,33175,28702
32780,33192,28720
32738,33191,28720
32768,33164,28740
32712,33147,28752
32748,33124,28773
32796,33112,28786
32797,33114,28772
32844,33132,28783
32816,33151,28783
32816,33172,28812
32772,33183,28820
32708,33181,28855
32696,33165,28854
32696,33144,28872
32772,33127,28864
32832,33105,28854
32808,33116,28878
32816,33125,28904
32828,33157,28911
32852,33181,28910
32824,33180,28935
32710,33180,28949
32660,33150,28957
32668,33141,28965
32632,33097,28948
32654,33101,28964
32676,33092,28993
32741,33127,28964
32765,33157,29012
32764,33179,28990
32734,33181,28980
32704,33176,28975
32704,33159,29004
32724,33132,29021
32760,33113,29048
32756,33113,29060
32700,33109,29073
32732,33129,29096
32740,33135,29126
32772,33159,29140
32796,33176,29128
32820,33173,29096
32836,33159,29120
32856,33124,29134
32876,33105,29151
32884,33100,29171
32856,33096,29183
32848,33125,29213
32836,33142,29238
32796,33166,29264
32756,33180,29256
32765,33168,29293
32640,33153,29318
32668,33135,29319
32672,33113,29318
32716,33100,29306
32724,33102,29343
32696,33133,29372
32696,33151,29380
32688,33164,29437
32692,33181,29440
32724,33160,29456
32752,33159,29476
32784,33135,29494
32812,33102,29525
32788,33109,29556
32772,33095,29572
32781,33096,29584
32808,33148,29620
32840,33159,29648
32872,33172,29661
32856,33166,29685
32868,33154,29668
32868,33125,29664
32880,33096,29686
32896,33092,29703
32900,33102,29762
32896,33121,29816
32860,33136,29839
32872,33159,29865
32848,33169,29888
32772,33159,29912
32784,33151,29932
32732,33127,29956
32652,33108,29985
32652,33089,30008
32628,33093,30028
32704,33124,30046
32668,33133,30078
32692,33159,30108
32728,33169,30133
32704,33167,30100
32716,33149,30134
32725,33104,30122
32728,33108,30204
32780,33095,30252
32810,33094,30268
32836,33104,30261
32860,33125,30316
32892,33151,30247
32877,33173,30312
32816,33167,30364
32808,33145,30393
32852,33117,30372
32896,33101,30351
32892,33089,30395
32881,33092,30463
32892,33108,30508
32904,33133,30511
32804,33159,30512
32736,33171,30494
32756,33158,30516
32712,33151,30560
32728,33124,30654
32796,33087,30644
32800,33082,30692
32824,33092,30727
32848,33116,30662
32884,33129,30676
32804,33148,30781
32778,33159,30800
32765,33156,30825
32800,33141,30846
32808,33112,30884
32832,33101,30921
32804,33084,30844
32740,33097,30895
32666,33123,30986
32728,33120,31005
32728,33159,31026
32781,33150,31014
32788,33141,31012
32792,33135,31108
32780,33117,31109
32704,33103,31065
32736,33084,31157
32780,33087,31197
32792,33109,31209
32792,33129,31205
32766,33152,31239
32696,33160,31300
32684,33159,31301
32741,33136,31323
32748,33120,31319
32809,33085,31304
32784,33086,31356
32708,33076,31344
32754,33100,31368
32784,33126,31394
32820,33143,31415
32780,33156,31436
32728,33149,31481
32748,33138,31485
32768,33117,31520
32797,33071,31524
32782,33084,31556
32760,33086,31576
32748,33109,31616
32716,33125,31709
32704,33149,31776
32752,33159,31760
32824,33149,31805
32852,33134,31832
32854,33116,31849
32856,33094,31881
32864,33087,31854
32761,33092,31878
32676,33111,31908
32685,33135,31921
32744,33156,31949
32808,33159,31922
32760,33159,31978
32788,33140,32020
32820,33116,32109
32808,33095,32132
32832,33084,32159
32812,33092,32184
32828,33107,32212
32808,33124,32160
32760,33151,32153
32772,33148,32197
32772,33165,32296
32744,33140,32324
32704,33121,32329
32732,33084,32328
32813,33089,32375
32864,33085,32397
32856,33105,32420
32864,33132,32412
32897,33153,32444
32884,33159,32477
32792,33159,32519
32752,33142,32546
32764,33105,32439
32733,33100,32468
32748,33087,32486
32798,33096,32576
32856,33112,32652
32864,33135,32670
32832,33153,32679
32852,33160,32668
32884,33167,32694
32888,33141,32745
32782,33125,32669
32708,33108,32648
32741,33092,32774
32768,33100,32834
32832,33111,32842
32888,33135,32825
32896,33140,32856
32762,33174,32876
32760,33166,32901
32776,33143,32934
32848,33121,32852
32880,33101,32845
32901,33080,32956
32864,33101,33005
32760,33121,32984
32756,33124,33017
32784,33162,33036
32829,33170,33050
32864,33159,33084
32834,33144,33108
32752,33116,33139
32680,33117,33053
32784,33102,33038
32845,33099,33100
32780,33117,33073
32746,33157,33133
32784,33169,33240
32836,33164,33242
32836,33160,33244
32820,33148,33236
32820,33135,33252
32824,33112,33277
32829,33096,33308
32848,33096,33303
32796,33127,33319
32828,33125,33348
32808,33167,33337
32820,33183,33372
32816,33165,33415
32760,33149,33423
32780,33137,33411
32808,33121,33429
32817,33095,33437
32798,33107,33460
32804,33121,33489
32812,33144,33513
32830,33158,33452
32872,33183,33415
32868,33183,33428
32892,33159,33463
32932,33143,33604
32864,33119,33620
32876,33100,33622
32880,33098,33636
32772,33135,33641
32680,33143,33661
32625,33175,33703
32656,33189,33606
32676,33188,33616
32673,33167,33597
32704,33150,33594
32796,33121,33652
32760,33103,33624
32800,33113,33644
32812,33132,33660
32792,33157,33703
32832,33168,33830
32888,33188,33845
32900,33188,33863
32928,33170,33884
32932,33146,33888
32920,33124,33900
32884,33119,33928
32824,33116,33945
32841,33132,33948
32797,33156,33965
32808,33180,33990
32792,33188,33998
32820,33188,34017
32840,33162,34013
32870,33149,34038
32900,33128,34058
32892,33118,34074
32888,33127,34092
32840,33141,34076
32752,33169,34056
32792,33185,34095
32836,33183,34141
32841,33189,34114
32768,33180,34125
32740,33149,34192
32772,33143,34221
32808,33108,34228
32844,33110,34254
32876,33141,34209
32864,33157,34149
32752,33192,34172
32776,33195,34208
32800,33192,34172
32872,33175,34196
32872,33159,34230
32872,33132,34360
32848,33126,34337
32784,33128,34362
32789,33147,34344
32808,33169,34405
32808,33165,34444
32777,33203,34396
32696,33200,34302
32736,33184,34332
32800,33159,34373
32812,33145,34476
32868,33129,34449
32868,33128,34496
32840,33140,34404
32812,33172,34431
32721,33204,34446
32732,33212,34573
32724,33205,34537
32756,33189,34580
32808,33164,34624
32752,33149,34638
32712,33133,34604
32752,33133,34597
32816,33141,34671
32832,33175,34677
32844,33196,34692
32853,33212,34642
32873,33201,34536
32772,33188,34556
32712,33168,34567
32704,33153,34599
32720,33135,34589
32716,33129,34617
32792,33159,34610
32798,33165,34742
32836,33194,34626
32832,33212,34612
32852,33205,34628
32864,33183,34637
32872,33164,34768
32864,33140,34757
32836,33135,34718
32745,33151,34732
32797,33158,34771
32808,33188,34822
32752,33189,34800
32732,33222,34697
32764,33215,34685
32800,33191,34704
32864,33172,34729
32886,33155,34712
32877,33148,34716
32892,33144,34702
32917,33145,34733
32796,33181,34724
32800,33199,34769
32832,33221,34727
32844,33214,34762
32900,33204,34775
32903,33167,34789
32932,33144,34921
32916,33140,34917
32896,33143,34908
32908,33164,34885
32884,33184,34884
32872,33189,34872
32872,33223,34894
32864,33217,34909
32736,33204,34900
32700,33177,34972
32660,33159,34996
32644,33141,34991
32692,33146,35004
32664,33175,35006
32676,33189,35032
32764,33212,35038
32762,33218,35052
32680,33220,35062
32708,33173,35055
32716,33167,35060
32788,33142,35055
32772,33140,35063
32797,33140,35070
32800,33157,35113
32806,33183,35004
32756,33208,35012
32712,33212,35021
32764,33213,35016
32776,33194,35062
32792,33173,35078
32820,33150,35087
32817,33141,35079
32840,33125,35108
32840,33159,35217
32836,33188,35240
32720,33198,35221
32661,33222,35193
32712,33222,35237
32676,33191,35220
32692,33180,35252
32784,33148,35316
32709,33140,35316
32748,33147,35332
32769,33158,35316
32752,33169,35265
32804,33199,35324
32836,33212,35293
32844,33204,35372
32844,33182,35400
32836,33166,35389
32872,33150,35396
32908,33135,35390
32904,33137,35374
32876,33153,35327
32880,33172,35412
32858,33194,35289
32848,33211,35284
32879,33200,35412
32852,33175,35420
32852,33167,35428
32852,33140,35461
32840,33129,35337
32880,33132,35329
32830,33151,35384
32760,33173,35473
32796,33185,35525
32832,33197,35524
32844,33192,35528
32864,33180,35463
32876,33159,35400
32893,33132,35388
32814,33117,35396
32720,33133,35400
32732,33143,35405
32752,33168,35425
32693,33173,35428
32668,33193,35424
32668,33181,35428
32656,33174,35461
32668,33151,35591
32673,33129,35591
32641,33124,35607
32668,33127,35473
32648,33140,35621
32680,33148,35623
32768,33186,35591
32761,33188,35620
32784,33180,35648
32752,33165,35644
32720,33145,35653
32736,33130,35673
32776,33092,35692
32805,33106,35543
32804,33124,35544
32788,33149,35564
32712,33166,35577
32697,33183,35652
32732,33170,35628
32720,33153,35612
32764,33125,35636
32740,33118,35620
32717,33100,35769
32776,33088,35768
32764,33108,35795
32792,33137,35794
32808,33159,35673
32857,33166,35670
32836,33166,35679
32740,33143,35777
32656,33108,35845
32692,33100,35815
32780,33087,35796
32764,33092,35804
32789,33108,35818
32724,33127,35808
32678,33148,35815
32672,33153,35876
32712,33153,35908
32782,33127,35783
32832,33105,35846
32744,33096,35920
32708,33085,35916
32760,33076,35927
32793,33085,35926
32792,33092,35894
32722,33134,35908
32732,33151,35932
32800,33140,35949
32848,33122,35927
32824,33093,35956
32768,33061,35989
32772,33057,35960
32764,33060,36072
32764,33084,36085
32692,33106,36074
32708,33116,36103
32749,33133,36116
32760,33134,36124
32660,33117,36124
32656,33093,36098
32668,33071,36039
32736,33047,35992
32752,33054,36034
32788,33071,36153
32780,33087,36174
32764,33104,36157
32760,33120,36164
32693,33119,36177
32684,33096,36188
32740,33069,36168
32720,33039,36196
32784,33040,36236
32724,33044,36252
32669,33057,36188
32728,33077,36197
32740,33095,36256
32788,33104,36217
32828,33089,36329
32809,33078,36330
32732,33061,36336
32737,33031,36343
32704,33012,36329
32764,33021,36368
32792,33031,36316
32801,33046,36288
32744,33072,36302
32756,33085,36264
32740,33084,36280
32808,33064,36271
32824,33041,36247
32800,33020,36340
32720,33004,36262
32748,33009,36260
32824,33004,36273
32860,33042,36280
32825,33050,36297
32824,33073,36281
32736,33069,36309
32760,33045,36308
32812,33017,36356
32844,32999,36481
32840,32980,36428
32831,32979,36473
32800,32999,36334
32772,33025,36415
32716,33046,36484
32736,33056,36421
32792,33025,36460
32828,33028,36487
32820,33001,36517
32832,32980,36359
32788,32969,36524
32748,32972,36514
32780,32986,36503
32812,32993,36458
32824,33031,36464
32856,33030,36493
32855,33024,36551
32842,33013,36548
32764,32984,36405
32800,32961,36420
32788,32951,36536
32840,32956,36568
32848,32964,36604
32785,32984,36540
32824,33005,36541
32804,33017,36572
32852,33007,36439
32880,32988,36468
32896,32958,36516
32876,32920,36633
32772,32929,36621
32816,32917,36601
32868,32948,36662
32885,32964,36615
32836,32988,36592
32820,32992,36645
32840,32990,36511
32857,32972,36516
32910,32940,36662
32881,32924,36678
32880,32903,36692
32912,32900,36709
32913,32926,36620
32868,32950,36674
32776,32965,36677
32812,32975,36516
32868,32956,36532
32824,32941,36536
32864,32932,36540
32804,32903,36528
32768,32895,36609
32784,32887,36701
32800,32906,36703
32848,32927,36682
32888,32937,36615
32901,32953,36557
32892,32946,36571
32884,32932,36544
32864,32910,36582
32884,32868,36668
32900,32864,36652
32920,32856,36632
32920,32883,36540
32892,32892,36628
32892,32925,36575
32880,32934,36596
32886,32937,36447
32880,32915,36437
32896,32885,36428
32904,32876,36420
32910,32857,36412
32888,32858,36461
32869,32873,36475
32768,32892,36493
32748,32916,36534
32752,32936,36504
32700,32924,36477
32704,32911,36383
32652,32880,36373
32656,32852,36409
32653,32844,36428
32624,32850,36413
32656,32860,36395
32652,32884,36369
32660,32903,36359
32672,32912,36340
32636,32909,36349
32652,32893,36334
32668,32876,36183
32652,32844,36159
32704,32831,36145
32744,32831,36146
32776,32845,36125
32793,32854,36118
32732,32890,36092
32692,32901,36096
32732,32901,36080
32768,32884,36209
32708,32852,36221
32712,32829,36157
32716,32820,36185
32730,32821,36120
32732,32833,36103
32752,32852,36124
32788,32876,36124
32780,32889,36096
32728,32890,35940
32740,32868,35913
32728,32844,35896
32776,32812,35867
32788,32804,35904
32781,32800,35864
32728,32820,35808
32684,32829,35940
32750,32858,35774
32772,32864,35884
32792,32868,35845
32712,32847,35808
32744,32836,35801
32820,32801,35760
32832,32773,35735
32800,32791,35712
32792,32799,35671
32836,32823,35640
32820,32845,35613
32768,32860,35580
32800,32844,35404
32804,32840,35357
32844,32804,35322
32868,32793,35300
32868,32772,35262
32832,32764,35356
32812,32788,35316
32812,32806,35268
32776,32828,35100
32748,32852,35047
32748,32841,35157
32760,32806,35112
32756,32799,35036
32752,32772,34997
32740,32764,34940
32744,32761,34892
32788,32775,34840
32820,32799,34885
32820,32808,34774
32820,32825,34660
32848,32823,34605
32840,32804,34583
32820,32772,34537
32756,32757,34512
32716,32740,34452
32728,32755,34484
32720,32763,34472
32696,32789,34405
32757,32804,34444
32796,32811,34401
32728,32810,34336
32780,32775,34308
32864,32753,34277
32852,32729,34249
32888,32724,34064
32894,32716,34021
32884,32736,34013
32784,32763,34068
32776,32775,34013
32840,32783,33935
32812,32775,33916
32834,32765,33910
32852,32742,33824
32860,32712,33765
32864,32693,33704
32869,32704,33671
32893,32709,33661
32804,32732,33593
32740,32757,33556
32748,32773,33521
32744,32770,33504
32800,32750,33348
32840,32720,33276
32880,32689,33301
32880,32676,33327
32896,32685,33269
32928,32684,33213
32837,32709,33173
32796,32736,33111
32825,32744,33077
32832,32743,33015
32886,32729,32934
32892,32698,32900
32904,32677,32852
32783,32668,32807
32824,32657,32796
32796,32670,32637
32832,32704,32588
32846,32718,32640
32880,32729,32567
32800,32732,32500
32777,32714,32460
32792,32686,32434
32812,32656,32377
32853,32647,32336
32754,32654,32193
32768,32673,32244
32824,32684,32180
32816,32706,32112
32824,32720,32067
32864,32710,32025
32900,32688,31972
32808,32675,31950
32800,32647,31838
32828,32631,31720
32852,32613,31724
32864,32641,31756
32868,32665,31703
32884,32698,31636
32862,32700,31581
32793,32693,31534
32780,32679,31481
32792,32652,31461
32824,32632,31401
32864,32606,31351
32876,32607,31335
32840,32621,31248
32748,32656,31183
32776,32678,31116
32838,32679,31033
32840,32679,31013
32762,32655,30968
32760,32636,30912
32792,32608,30881
32832,32586,30884
32852,32596,30821
32868,32615,30776
32796,32621,30727
32800,32647,30692
32780,32669,30668
32820,32655,30622
32876,32639,30611
32908,32620,30670
32892,32588,30613
32908,32577,30573
32928,32579,30549
32880,32592,30528
32892,32609,30492
32900,32638,30469
32884,32646,30417
32916,32641,30395
32908,32622,30368
32913,32600,30327
32892,32566,30293
32862,32564,30305
32868,32560,30184
32852,32585,30150
32868,32600,30196
32752,32623,30180
32777,32624,30139
32812,32620,30074
32812,32600,30020
32840,32568,30059
32837,32561,30032
32848,32548,30004
32791,32537,29991
32720,32564,29949
32676,32587,29922
32688,32601,29909
32645,32615,29831
32648,32613,29781
32688,32591,29756
32624,32572,29778
32632,32535,29722
32676,32530,29703
32740,32535,29650
32712,32552,29628
32684,32566,29615
32696,32584,29607
32772,32604,29648
32796,32596,29596
32797,32568,29581
32796,32556,29552
32828,32519,29541
32864,32501,29525
32764,32513,29512
32680,32531,29478
32720,32556,29464
32721,32570,29446
32672,32584,29415
32712,32574,29404
32752,32567,29373
32812,32529,29359
32812,32506,29327
32812,32482,29302
32808,32494,29286
32812,32496,29264
32816,32527,29240
32744,32553,29236
32736,32567,29216
32704,32556,29204
32729,32538,29177
32728,32519,29152
32768,32497,29124
32793,32477,29116
32800,32484,29100
32752,32500,29079
32780,32509,29065
32824,32533,29047
32805,32548,29030
32712,32545,29006
32680,32528,28988
32688,32494,28972
32740,32473,28956
32784,32460,28944
32748,32460,28928
32793,32452,28910
32845,32493,28900
32812,32514,28881
32790,32526,28866
32796,32518,28850
32729,32516,28825
32688,32481,28815
32688,32454,28799
32733,32449,28789
32792,32441,28788
32800,32450,28773
32680,32480,28765
32745,32500,28736
32800,32514,28734
32836,32512,28743
32852,32487,28713
32832,32446,28686
32860,32436,28655
32884,32430,28662
32888,32423,28661
32888,32437,28671
32864,32455,28695
32880,32481,28679
32852,32498,28668
32712,32495,28674
32654,32481,28670
32684,32437,28668
32748,32427,28668
32792,32417,28662
32716,32413,28668
32728,32428,28679
32724,32454,28680
32704,32466,28700
32768,32477,28679
32770,32469,28679
32812,32452,28692
32849,32432,28702
32858,32404,28724
32816,32401,28728
32720,32396,28733
32736,32409,28729
32773,32428,28796
32728,32453,28821
32728,32458,28841
32793,32455,28846
32832,32447,28876
32837,32421,28904
32860,32401,28885
32848,32388,28901
32770,32385,28918
32768,32389,28934
32760,32406,29000
32832,32437,29052
32852,32452,29072
32880,32450,29111
32864,32432,29141
32840,32415,29167
32776,32391,29209
32759,32356,29246
32804,32372,29242
32840,32389,29287
32760,32415,29348
32756,32424,29404
32744,32449,29428
32784,32441,29470
32785,32425,29506
32808,32393,29547
32844,32372,29604
32888,32354,29604
32904,32362,29650
32840,32385,29764
32768,32415,29804
32800,32423,29864
32780,32440,29903
32696,32436,29956
32696,32430,30001
32768,32399,30065
32764,32382,30087
32760,32367,30100
32816,32356,30215
32852,32377,30311
32864,32393,30348
32852,32416,30412
32864,32425,30465
32756,32432,30525
32690,32420,30605
32724,32400,30672
32644,32361,30716
32672,32364,30814
32713,32357,30761
32724,32378,30834
32748,32396,30884
32778,32423,30957
32796,32433,31055
32824,32423,31145
32836,32401,31276
32848,32390,31335
32804,32367,31397
32732,32357,31469
32728,32356,31534
32688,32372,31540
32716,32403,31593
32744,32422,31625
32768,32434,31657
32760,32424,31798
32792,32409,31884
32808,32381,31928
32840,32358,31985
32868,32352,32087
32884,32359,32106
32884,32365,32171
32868,32386,32216
32880,32408,32277
32888,32421,32343
32924,32423,32388
32924,32409,32492
32920,32387,32532
32900,32356,32559
32869,32338,32636
32832,32351,32705
32848,32356,32751
32897,32385,32818
32892,32421,32864
32864,32428,32900
32855,32429,32950
32852,32408,33021
32840,32385,32978
32878,32372,33013
32832,32356,33065
32712,32348,33215
32756,32375,33199
32676,32396,33292
32640,32423,33258
32676,32433,33257
32648,32432,33309
32693,32423,33348
32656,32397,33415
32676,32378,33444
32696,32367,33520
32688,32367,33671
32688,32380,33733
32636,32407,33733
32653,32444,33813
32696,32454,33877
32728,32436,33818
32760,32431,33841
32792,32404,33952
32836,32388,34040
32852,32376,34085
32841,32376,34175
32813,32388,34085
32792,32421,34256
32812,32441,34268
32796,32461,34220
32785,32457,34413
32800,32444,34404
32774,32428,34500
32772,32400,34381
32752,32392,34597
32664,32405,34556
32648,32400,34639
32708,32441,34724
32661,32460,34633
32646,32473,34672
32684,32483,34744
32632,32456,34921
32644,32447,34876
32608,32428,34980
32608,32413,34897
32648,32423,35018
32704,32443,35108
32728,32457,35116
32676,32485,35207
32644,32493,35108
32696,32497,35266
32700,32484,35345
32644,32471,35334
32680,32444,35408
32686,32437,35309
32676,32436,35440
32752,32454,35548
32780,32479,35552
32768,32504,35463
32783,32504,35551
32812,32519,35708
32852,32512,35653
32760,32477,35759
32688,32474,35800
32672,32445,35839
32724,32456,35760
32744,32468,35750
32772,32506,35784
32760,32530,35927
32784,32548,36013
32775,32533,36024
32784,32538,36012
32814,32513,36059
32796,32492,36111
32740,32485,36009
32804,32495,36013
32800,32505,36036
32792,32537,36096
32828,32561,36093
32817,32573,36137
32792,32579,36284
32829,32572,36348
32828,32548,36383
32824,32519,36405
32854,32512,36432
32788,32518,36388
32776,32540,36404
32796,32553,36469
32836,32581,36344
32861,32600,36482
32897,32610,36564
32916,32594,36589
32892,32583,36612
32776,32556,36534
32780,32549,36576
32841,32553,36636
32840,32579,36650
32872,32600,36666
32909,32628,36677
32904,32641,36532
32834,32645,36564
32748,32633,36570
32780,32598,36601
32800,32593,36703
32804,32588,36781
32750,32596,36768
32784,32613,36676
32816,32639,36720
32853,32656,36743
32824,32677,36788
32764,32685,36637
32820,32668,36626
32876,32654,36646
32880,32620,36742
32912,32629,36764
32916,32629,36705
32909,32655,36763
32840,32679,36652
32756,32699,36656
32792,32721,36644
32808,32721,36775
32830,32707,36820
32854,32686,36732
32908,32668,36820
32932,32662,36796
32904,32676,36796
32846,32684,36784
32756,32701,36785
32756,32749,36773
32764,32760,36700
32736,32772,36668
32744,32751,36676
32760,32742,36684
32828,32713,36693
32836,32708,36671
32860,32704,36503
32864,32730,36501
32857,32748,36541
32840,32783,36583
32829,32807,36633
32800,32804,36615
32780,32800,36561
32772,32775,36549
32752,32773,36511
32668,32759,36521
32632,32761,36548
32676,32782,36523
32660,32807,36516
32701,32836,36340
32728,32852,36341
32700,32862,36436
32756,32848,36444
32808,32828,36455
32844,32808,36377
32824,32792,36325
32792,32808,36349
32768,32815,36333
32764,32853,36336
32700,32886,36332
32732,32908,36332
32760,32910,36332
32752,32903,36334
32712,32879,36327
32708,32844,36311
32748,32854,36156
32804,32855,36140
32820,32879,36151
32808,32908,36151
32764,32937,36125
32758,32945,36116
32760,32956,36111
32757,32942,36101
32780,32926,36103
32776,32917,36084
32748,32903,36081
32756,32910,36068
32756,32938,36086
32800,32948,36103
32848,32966,36167
32833,32999,36200
32832,33004,36159
32868,32996,36060
32865,32972,36015
32864,32962,35996
32832,32953,35988
32736,32957,35968
32804,32974,35974
32836,32999,35951
32852,33031,35936
32868,33052,35916
32868,33052,35913
32852,33053,35901
32856,33029,35874
32856,33012,35869
32780,32999,35847
32820,33014,35831
32824,33031,35813
32708,33062,35868
32668,33088,35928
32692,33100,35847
32672,33107,35864
32652,33103,35861
32712,33086,35839
32700,33065,35820
32692,33060,35645
32684,33063,35687
32677,33084,35647
32756,33113,35629
32737,33140,35689
32766,33159,35684
32848,33159,35633
32890,33145,35573
32912,33120,35596
32808,33108,35431
32836,33109,35394
32876,33116,35402
32832,33137,35380
32832,33159,35341
32796,33188,35310
32840,33206,35416
32868,33212,35412
32904,33204,35316
32832,33167,35295
32828,33159,35308
32876,33148,35280
32852,33167,35252
32876,33189,35159
32797,33214,35124
32768,33237,35088
32792,33261,35129
32776,33252,35076
32828,33252,35021
32860,33236,35062
32822,33216,35044
32764,33216,35000
32772,33229,34844
32796,33231,34967
32836,33268,34932
32852,33301,34852
32862,33308,34903
32800,33316,34903
32824,33306,34844
32864,33287,34840
32876,33268,34814
32876,33255,34801
32800,33265,34756
32772,33301,34732
32762,33327,34596
32788,33354,34583
32820,33364,34688
32861,33372,34620
32854,33356,34600
32824,33332,34596
32844,33326,34567
32864,33321,34541
32880,33320,34517
32888,33340,34557
32880,33365,34548
32864,33376,34417
32768,33423,34404
32748,33418,34495
32812,33415,34404
32804,33385,34424
32846,33376,34437
32876,33356,34389
32860,33364,34273
32812,33397,34247
32752,33415,34372
32789,33444,34348
32800,33463,34284
32804,33457,34245
32784,33461,34244
32748,33452,34296
32760,33413,34230
32792,33414,34089
32800,33414,34084
32849,33428,34213
32784,33468,34173
32774,33487,34141
32836,33511,34102
32776,33516,34093
32813,33503,34073
32846,33478,34047
32824,33465,34036
32729,33460,34088
32789,33454,34045
32816,33487,33908
32844,33513,33941
32852,33543,34007
32876,33549,33957
32880,33552,33932
32820,33550,34002
32768,33540,33900
32746,33509,33815
32736,33511,33941
32800,33503,33893
32828,33520,33916
32850,33552,33775
32792,33580,33781
32756,33609,33872
32748,33604,33852
32804,33580,33799
32752,33574,33843
32776,33555,33734
32832,33551,33656
32800,33555,33657
32808,33567,33681
32832,33598,33654
32844,33622,33649
32832,33640,33741
32708,33627,33700
32697,33633,33696
32756,33596,33657
32798,33602,33633
32812,33588,33645
32861,33596,33628
32748,33616,33620
32732,33647,33503
32762,33671,33452
32772,33685,33430
32805,33687,33412
32842,33665,33513
32844,33655,33500
32836,33620,33479
32840,33637,33456
32852,33636,33415
32756,33660,33385
32732,33671,33357
32717,33708,33397
32696,33725,33345
32736,33739,33348
32776,33719,33293
32812,33689,33170
32828,33678,33193
32844,33671,33188
32848,33679,33255
32732,33703,33238
32704,33732,33133
32788,33743,33094
32816,33742,33044
32778,33760,33109
32792,33758,33108
32784,33724,33128
32789,33719,33068
32768,33715,33047
32804,33719,33028
32788,33714,33065
32756,33758,33004
32776,33788,32996
32736,33799,32965
32680,33799,32956
32700,33799,32982
32704,33787,32969
32740,33756,32848
32744,33757,32797
32748,33754,32781
32776,33769,32793
32752,33795,32876
32796,33813,32849
32848,33844,32782
32901,33836,32781
32888,33829,32741
32836,33813,32696
32842,33790,32694
32860,33782,32708
32852,33788,32661
32864,33783,32616
32876,33829,32614
32888,33854,32598
32892,33868,32620
32868,33872,32683
32864,33863,32654
32868,33826,32653
32848,33824,32592
32830,33821,32524
32773,33799,32559
32790,33836,32558
32806,33838,32620
32828,33887,32612
32858,33902,32576
32896,33910,32548
32904,33890,32549
32860,33868,32564
32860,33860,32556
32864,33842,32550
32780,33849,32548
32728,33869,32539
32724,33903,32412
32664,33920,32388
32609,33937,32400
32609,33941,32472
32636,33927,32471
32692,33912,32427
32661,33886,32381
32641,33881,32364
32672,33876,32424
32700,33900,32444
32656,33916,32392
32690,33949,32405
32644,33964,32405
32669,33959,32408
32720,33953,32402
32760,33928,32284
32790,33914,32255
32804,33908,32247
32797,33903,32268
32736,33925,32236
32728,33957,32236
32753,33979,32262
32796,33988,32287
32836,33989,32341
32808,33989,32301
32724,33974,32298
32752,33943,32249
32748,33936,32182
32793,33932,32181
32808,33958,32217
32824,33981,32292
32836,34020,32270
32841,34017,32253
32860,34020,32252
32769,34004,32257
32708,33988,32262
32736,33968,32252
32716,33957,32141
32741,33971,32108
32736,33980,32156
32792,33994,32223
32836,34028,32180
32856,34048,32198
32836,34055,32120
32848,34029,32071
32888,34017,32102
32848,33995,32144
32736,33994,32125
32708,33990,32108
32796,34004,32103
32796,34032,32129
32780,34057,32094
32828,34076,32069
32800,34073,32058
32796,34068,32083
32848,34047,32034
32848,34025,32060
32864,34020,31996
32877,34000,31996
32881,34047,32005
32776,34071,31978
32728,34096,31958
32716,34109,31984
32688,34112,31913
32704,34100,31855
32760,34089,31935
32744,34066,31895
32776,34055,31876
32804,34061,31887
32828,34064,31879
32852,34105,31772
32884,34111,31776
32864,34145,31840
32772,34148,31813
32740,34140,31807
32804,34113,31769
32788,34105,31748
32752,34091,31751
32780,34087,31652
32820,34109,31732
32808,34135,31680
32762,34164,31671
32752,34183,31681
32732,34191,31558
32736,34178,31609
32789,34153,31629
32800,34116,31593
32820,34127,31588
32852,34128,31596
32836,34148,31492
32804,34172,31469
32716,34196,31525
32696,34222,31532
32676,34220,31525
32676,34212,31517
32680,34191,31449
32728,34177,31388
32820,34167,31367
32832,34172,31357
32852,34189,31352
32852,34212,31348
32869,34238,31412
32846,34260,31412
32745,34268,31399
32740,34253,31380
32780,34231,31391
32832,34212,31335
32848,34206,31368
32848,34212,31380
32724,34231,31336
32696,34257,31268
32764,34284,31261
32812,34303,31237
32829,34300,31253
32752,34293,31248
32788,34276,31260
32804,34262,31284
32745,34254,31270
32784,34255,31272
32852,34269,31265
32840,34295,31264
32740,34332,31321
32752,34357,31260
32788,34341,31247
32808,34340,31220
32848,34316,31192
32860,34295,31217
32824,34295,31205
32789,34289,31204
32764,34311,31269
32800,34351,31269
32812,34340,31250
32780,34388,31239
32692,34366,31232
32729,34384,31239
32725,34366,31239
32776,34351,31232
32785,34341,31222
32824,34336,31207
32820,34364,31194
32804,34386,31184
32828,34404,31186
32808,34428,31199
32760,34439,31152
32704,34435,31096
32748,34408,31103
32748,34400,31138
32680,34383,31135
32680,34386,31140
32728,34406,31165
32772,34431,31133
32762,34463,31124
32804,34461,31140
32793,34480,31134
32806,34469,31144
32840,34461,31111
32825,34436,31103
32824,34417,31103
32832,34439,31101
32825,34458,31088
32704,34482,31096
32712,34506,31085
32756,34504,31091
32780,34535,31026
32808,34518,31053
32804,34474,31029
32792,34492,31012
32748,34486,31044
32736,34492,31023
32716,34505,31007
32754,34537,31020
32740,34552,31095
32742,34583,31086
32696,34580,31064
32693,34567,31064
32672,34556,31092
32640,34535,31041
32700,34531,31039
32676,34527,31078
32708,34561,31027
32660,34589,31068
32672,34606,31066
32712,34633,31024
32656,34644,30978
32672,34631,30996
32753,34617,31004
32780,34584,30999
32808,34565,30977
32776,34567,30960
32817,34594,30976
32828,34607,30999
32821,34649,31045
32740,34647,31038
32681,34664,30999
32743,34649,30996
32772,34631,30985
32864,34618,30984
32896,34592,30997
32832,34604,31030
32732,34625,31024
32768,34649,31031
32836,34647,30988
32864,34684,31028
32844,34695,31028
32768,34682,31017
32724,34668,31009
32768,34636,31007
32808,34637,31016
32808,34630,30952
32840,34655,30977
32855,34692,30968
32800,34708,30933
32704,34708,30957
32772,34722,30957
32832,34725,30933
32848,34695,30938
32832,34684,30940
32816,34649,30940
32808,34684,30936
32712,34705,30948
32752,34735,30967
32768,34761,30948
32799,34752,30980
32800,34789,31033
32728,34768,31036
32772,34748,31045
32768,34733,31033
32808,34705,30997
32856,34733,31020
32868,34751,31012
32850,34772,31048
32864,34780,31029
32864,34814,31037
32836,34823,31038
32748,34820,31031
32812,34799,31031
32856,34780,31031
32869,34776,31034
32848,34781,31028
32752,34807,31036
32781,34823,31044
32788,34863,31032
32736,34876,31040
32784,34886,30983
32797,34864,30976
32852,34852,30976
32876,34833,30990
32888,34823,30980
32852,34824,30959
32828,34853,30961
32868,34884,31004
32828,34908,31012
32757,34933,31002
32744,34933,30986
32696,34927,30964
32656,34910,30946
32684,34864,30953
32740,34876,31000
32752,34876,30981
32788,34909,30972
32784,34933,30980
32805,34959,30990
32848,34973,30945
32748,34988,30932
32696,34972,30918
32724,34956,30908
32768,34943,30916
32776,34941,30916
32660,34951,30902
32672,34964,30902
32744,34991,30896
32764,35014,30910
32792,35036,30898
32808,35042,30908
32788,35028,30894
32784,35006,30877
32836,34997,30874
32832,34983,30876
32821,34999,30884
32844,35012,30919
32836,35036,30920
32836,35065,30916
32844,35086,30877
32832,35096,30852
32788,35093,30845
32706,35069,30882
32696,35049,30911
32664,35020,30877
32680,35053,30882
32708,35062,30893
32676,35095,30889
32684,35134,30876
32736,35141,30845
32737,35149,30860
32668,35141,30863
32712,35124,30793
32732,35108,30780
32768,35105,30774
32800,35101,30775
32820,35125,30756
32824,35133,30748
32756,35168,30797
32776,35189,30812
32784,35197,30813
32800,35193,30789
32808,35180,30780
32708,35156,30790
32729,35156,30756
32757,35167,30721
32782,35180,30700
32777,35204,30697
32800,35232,30716
32848,35246,30726
32860,35261,30693
32892,35248,30687
32797,35237,30692
32704,35208,30712
32688,35206,30727
32768,35207,30692
32848,35231,30700
32804,35231,30701
32840,35286,30693
32834,35303,30681
32868,35314,30668
32840,35308,30661
32856,35285,30660
32848,35268,30661
32865,35264,30656
32858,35236,30652
32750,35297,30639
32728,35317,30628
32724,35342,30622
32732,35355,30613
32840,35369,30588
32892,35349,30584
32920,35321,30586
32904,35318,30594
32896,35285,30580
32932,35324,30569
32948,35333,30573
32940,35365,30569
32924,35394,30557
32912,35408,30556
32900,35412,30559
32900,35398,30549
32892,35394,30546
32897,35381,30549
32892,35364,30540
32908,35367,30502
32900,35389,30505
32878,35412,30500
32885,35444,30505
32904,35463,30527
32816,35472,30516
32773,35460,30516
32736,35445,30508
32716,35429,30508
32700,35415,30496
32692,35424,30496
32676,35425,30495
32684,35471,30500
32641,35495,30488
32652,35516,30489
32612,35518,30495
32663,35518,30491
32748,35494,30465
32796,35477,30466
32828,35468,30462
32884,35473,30448
32840,35489,30482
32832,35525,30470
32722,35548,30462
32770,35570,30465
32776,35567,30471
32780,35559,30463
32833,35540,30445
32824,35524,30420
32836,35525,30417
32788,35520,30405
32736,35541,30404
32744,35575,30401
32733,35590,30404
32732,35623,30388
32768,35623,30391
32776,35621,30374
32798,35565,30387
32764,35580,30382
32804,35564,30380
32840,35572,30396
32828,35601,30396
32780,35628,30373
32820,35647,30372
32828,35671,30374
32844,35668,30365
32816,35656,30361
32800,35649,30356
32756,35628,30346
32726,35623,30340
32768,35621,30345
32820,35621,30343
32820,35668,30340
32836,35700,30320
32824,35705,30296
32832,35724,30294
32836,35709,30300
32768,35696,30312
32736,35677,30326
32769,35660,30332
32816,35668,30325
32817,35685,30322
32732,35719,30321
32776,35743,30335
32820,35762,30329
32856,35772,30327
32812,35758,30329
32760,35745,30332
32760,35695,30341
32792,35719,30348
32840,35724,30356
32856,35735,30325
32828,35772,30319
32816,35794,30325
32804,35820,30321
32796,35820,30327
32705,35802,30329
32748,35799,30351
32800,35780,30372
32792,35767,30340
32800,35772,30351
32732,35799,30343
32756,35820,30356
32828,35829,30353
32756,35860,30391
32792,35868,30377
32840,35856,30392
32860,35845,30345
32844,35821,30366
32784,35814,30375
32820,35823,30400
32852,35838,30360
32840,35872,30361
32848,35902,30368
32760,35916,30393
32780,35916,30396
32832,35916,30388
32848,35896,30402
32772,35876,30397
32789,35870,30396
32808,35869,30382
32824,35885,30380
32861,35913,30405
32870,35949,30404
32848,35962,30416
32832,35970,30404
32824,35956,30402
32760,35951,30424
32736,35925,30428
32796,35904,30446
32821,35924,30434
32816,35951,30450
32776,35960,30457
32764,35997,30468
32796,36012,30477
32836,36021,30449
32872,36004,30484
32869,35975,30496
32856,35973,30508
32828,35965,30508
32756,35969,30532
32736,35991,30504
32796,36014,30522
32840,36017,30546
32840,36063,30551
32762,36077,30564
32780,36058,30564
32860,36037,30566
32880,36013,30572
32844,36020,30580
32781,36029,30580
32804,36036,30588
32820,36068,30570
32868,36101,30567
32848,36095,30590
32760,36127,30596
32712,36093,30601
32665,36093,30592
32714,36087,30592
32772,36071,30610
32788,36079,30598
32842,36086,30596
32864,36116,30572
32865,36148,30564
32888,36167,30572
32832,36144,30588
32752,36171,30588
32769,36156,30580
32760,36136,30596
32744,36126,30596
32749,36113,30574
32798,36140,30560
32837,36172,30551
32820,36213,30573
32868,36222,30564
32884,36231,30564
32916,36204,30576
32884,36204,30576
32772,36194,30556
32788,36183,30532
32800,36191,30533
32736,36207,30538
32760,36229,30536
32748,36264,30553
32716,36278,30550
32764,36292,30551
32776,36244,30551
32824,36261,30541
32876,36248,30544
32880,36228,30530
32896,36238,30551
32882,36252,30534
32888,36286,30541
32877,36300,30536
32854,36329,30540
32864,36333,30528
32864,36319,30504
32876,36308,30496
32893,36280,30492
32872,36282,30497
32856,36295,30492
32848,36306,30493
32848,36339,30497
32832,36372,30502
32828,36359,30500
32828,36384,30500
32840,36377,30487
32860,36335,30452
32784,36358,30455
32728,36344,30455
32804,36346,30468
32792,36369,30465
32708,36392,30476
32716,36420,30463
32664,36444,30453
32724,36452,30447
32749,36445,30440
32756,36428,30426
32669,36412,30407
32680,36397,30404
32668,36412,30404
32654,36425,30395
32661,36460,30391
32641,36487,30360
32704,36497,30367
32778,36501,30356
32800,36481,30345
32820,36476,30334
32752,36468,30332
32744,36468,30301
32756,36435,30296
32789,36477,30303
32825,36509,30281
32821,36501,30278
32820,36567,30269
32840,36567,30256
32880,36541,30248
32801,36540,30246
32762,36532,30230
32780,36512,30224
32736,36526,30212
32724,36548,30199
32732,36580,30172
32744,36604,30170
32801,36620,30166
32812,36622,30160
32824,36621,30136
32864,36600,30111
32886,36584,30119
32860,36580,30113
32768,36596,30108
32737,36612,30106
32684,36644,30085
32736,36668,30072
32729,36689,30061
32748,36687,30055
32762,36684,30050
32793,36667,30036
32828,36644,30034
32836,36637,30036
32817,36649,30021
32804,36656,30020
32720,36696,30014
32760,36732,29992
32804,36743,29968
32844,36750,29980
32844,36743,29975
32828,36713,29974
32792,36725,29975
32780,36710,29967
32752,36716,29957
32761,36736,29948
32752,36751,29933
32756,36796,29940
32748,36792,29943
32740,36816,29936
32740,36804,29940
32744,36798,29924
32656,36780,29924
32672,36733,29922
32665,36780,29913
32660,36788,29909
32612,36820,29900
32712,36848,29896
32772,36871,29844
32804,36871,29892
32828,36871,29881
32808,36841,29893
32793,36840,29896
32704,36836,29882
32680,36853,29877
32736,36863,29869
32673,36889,29864
32708,36916,29857
32772,36940,29849
32792,36933,29869
32812,36932,29864
32821,36910,29844
32808,36880,29847
32782,36892,29847
32708,36900,29837
32712,36921,29825
32752,36951,29824
32788,36953,29836
32796,36999,29838
32752,36975,29825
32681,36996,29813
32660,36984,29801
32677,36973,29796
32620,36967,29798
32692,36972,29790
32764,36999,29780
32796,37021,29790
32808,37049,29796
32732,37069,29804
32744,37078,29788
32780,37065,29772
32769,37060,29769
32676,37041,29768
32768,37026,29773
32780,37024,29773
32781,37056,29772
32784,37092,29765
32800,37108,29764
32761,37134,29758
32696,37142,29749
32708,37127,29781
32752,37080,29789
32764,37100,29786
32792,37108,29774
32708,37106,29788
32736,37125,29784
32750,37156,29766
32741,37188,29764
32780,37176,29757
32812,37207,29755
32850,37196,29748
32828,37159,29750
32836,37164,29756
32860,37175,29754
32776,37162,29761
32708,37200,29749
32720,37223,29756
32712,37255,29756
32662,37268,29754
32673,37276,29754
32652,37265,29755
32692,37256,29764
32776,37233,29766
32696,37222,29758
32696,37236,29760
32725,37259,29772
32784,37295,29764
32820,37324,29754
32824,37329,29760
32840,37348,29766
32832,37337,29756
32852,37320,29780
32772,37309,29778
32736,37309,29775
32728,37284,29768
32702,37326,29784
32724,37357,29799
32712,37392,29780
32796,37409,29783
32848,37420,29776
32860,37397,29774
32898,37392,29776
32928,37372,29776
32928,37378,29774
32836,37356,29764
32836,37402,29778
32873,37418,29804
32904,37460,29816
32904,37476,29813
32948,37471,29816
32974,37469,29816
32956,37460,29807
32932,37461,29802
32948,37444,29812
32952,37453,29804
32924,37466,29792
32872,37493,29797
32846,37517,29784
32884,37513,29792
32896,37557,29794
32908,37551,29783
32984,37526,29796
33020,37511,29795
32976,37510,29799
32932,37516,29790
32904,37519,29790
32942,37572,29798
32856,37598,29801
32800,37613,29796
32784,37629,29793
32724,37620,29799
32720,37612,29791
32725,37586,29824
32690,37589,29829
32688,37597,29808
32700,37613,29820
32684,37639,29822
32708,37678,29855
32756,37696,29809
32712,37711,29854
32728,37700,29852
32781,37676,29885
32824,37665,29892
32792,37656,29900
32820,37647,29888
32861,37681,29902
32784,37709,29884
32797,37747,29911
32804,37773,29920
32821,37767,29911
32864,37759,29925
32862,37712,29939
32892,37727,29945
32912,37724,29959
32860,37735,29964
32848,37767,29976
32869,37788,29981
32868,37809,29989
32887,37842,29996
32856,37839,30032
32829,37836,29997
32812,37789,30013
32716,37813,30028
32701,37772,30031
32761,37815,30048
32772,37845,30064
32772,37848,30062
32712,37893,30073
32672,37914,30084
32692,37923,30092
32744,37912,30127
32776,37895,30140
32846,37880,30147
32793,37880,30149
32788,37876,30172
32800,37900,30168
32728,37932,30172
32680,37973,30194
32732,37985,30220
32716,37985,30248
32720,37964,30252
32773,37958,30276
32788,37917,30292
32804,37945,30333
32796,37953,30364
32804,37965,30388
32780,37984,30380
32708,38025,30401
32721,38048,30438
32760,38055,30477
32824,38048,30516
32844,38031,30493
32824,38017,30524
32814,37976,30553
32792,38023,30580
32828,38055,30599
32856,38064,30628
32862,38111,30644
32869,38124,30672
32852,38125,30692
32832,38116,30708
32704,38108,30743
32712,38092,30764
32789,38092,30784
32742,38064,30806
32760,38109,30825
32745,38140,30825
32768,38180,30849
32780,38188,30873
32796,38196,30884
32804,38173,30908
32796,38177,30932
32749,38173,30948
32737,38156,30964
32724,38161,30966
32740,38181,30983
32788,38215,31001
32817,38241,31026
32792,38220,31048
32720,38269,31075
32736,38269,31072
32798,38216,31084
32824,38239,31100
32808,38239,31124
32832,38236,31140
32844,38256,31158
32808,38287,31177
32756,38319,31196
32768,38343,31216
32748,38332,31240
32781,38343,31246
32766,38324,31266
32792,38301,31286
32812,38301,31300
32796,38314,31332
32828,38333,31346
32852,38352,31365
32848,38389,31364
32832,38396,31385
32784,38407,31413
32764,38400,31447
32812,38397,31455
32832,38356,31455
32860,38372,31479
32816,38376,31500
32828,38400,31521
32862,38428,31546
32869,38465,31541
32872,38489,31552
32848,38484,31569
32830,38472,31583
32840,38465,31599
32764,38457,31598
32785,38428,31614
32788,38452,31617
32784,38479,31594
32756,38508,31637
32780,38535,31652
32821,38543,31658
32860,38564,31664
32868,38548,31672
32877,38535,31678
32885,38524,31696
32868,38508,31698
32792,38521,31705
32776,38508,31705
32812,38564,31708
32876,38596,31710
32752,38624,31711
32752,38631,31697
32736,38605,31707
32798,38611,31705
32820,38567,31709
32833,38589,31712
32868,38596,31708
32876,38615,31708
32901,38604,31709
32836,38668,31706
32776,38695,31688
32784,38670,31682
32792,38700,31684
32760,38684,31678
32776,38660,31679
32812,38662,31671
32844,38663,31664
32860,38684,31670
32852,38723,31660
32860,38748,31664
32860,38759,31642
32864,38772,31645
32876,38764,31641
32892,38751,31644
32892,38724,31652
32900,38728,31639
32892,38728,31622
32864,38753,31620
32869,38791,31614
32892,38789,31623
32880,38824,31623
32892,38837,31623
32886,38804,31626
32892,38817,31623
32900,38796,31616
32929,38813,31605
32912,38818,31608
32896,38829,31620
32864,38861,31612
32844,38892,31597
32833,38908,31603
32768,38919,31604
32812,38909,31604
32828,38895,31598
32848,38884,31588
32885,38868,31581
32897,38884,31591
32868,38906,31594
32788,38892,31580
32776,38961,31577
32812,38982,31577
32826,38980,31590
32844,38988,31568
32884,38945,31564
32896,38952,31588
32892,38948,31564
32876,38959,31552
32872,38982,31562
32904,38972,31559
32918,39032,31570
32880,39063,31568
32856,39031,31570
32724,39060,31565
32708,39047,31556
32672,39045,31481
32636,39028,31529
32673,39041,31528
32624,39068,31532
32624,39088,31534
32604,39119,31517
32632,39134,31511
32661,39149,31508
32640,39140,31511
32640,39116,31514
32648,39125,31508
32640,39093,31517
32684,39112,31537
32644,39140,31521
32656,39173,31492
32668,39164,31503
32632,39231,31493
32687,39228,31500
32772,39188,31517
32808,39217,31518
32756,39199,31516
32728,39152,31516
32668,39200,31492
32672,39224,31495
32760,39261,31508
32805,39289,31502
32788,39302,31495
32832,39319,31524
32854,39271,31517
32836,39300,31509
32752,39276,31527
32724,39262,31520
32800,39291,31540
32836,39313,31549
32757,39332,31479
32744,39341,31547
32720,39397,31540
32748,39357,31556
32800,39399,31556
32824,39388,31568
32848,39370,31576
32740,39367,31582
32756,39380,31588
32800,39401,31613
32852,39431,31618
32836,39447,31605
32752,39479,31629
32652,39488,31652
32680,39486,31659
32736,39469,31668
32789,39456,31665
32812,39443,31699
32844,39462,31711
32864,39494,31708
32860,39492,31709
32872,39548,31724
32769,39572,31736
32728,39583,31745
32752,39582,31760
32708,39564,31785
32740,39543,31792
32744,39553,31812
32758,39551,31828
32764,39577,31828
32800,39596,31854
32808,39639,31872
32848,39637,31876
32865,39660,31903
32820,39641,31903
32740,39653,31914
32716,39637,31951
32744,39588,31974
32694,39652,31986
32644,39679,31997
32716,39704,32013
32748,39732,32023
32768,39724,32029
32800,39756,32024
32752,39766,32030
32764,39744,32061
32752,39732,32056
32788,39728,32087
32832,39741,32103
32860,39756,32109
32784,39796,32121
32720,39831,32141
32752,39855,32139
32746,39856,32151
32740,39857,32164
32780,39846,32152
32816,39830,32135
32800,39831,32177
32812,39831,32197
32869,39860,32196
32852,39890,32204
32766,39916,32203
32720,39901,32213
32776,39943,32224
32684,39913,32222
32720,39933,32231
32798,39919,32236
32836,39924,32246
32848,39928,32253
32848,39943,32263
32876,39982,32276
32796,40013,32284
32708,40013,32277
32730,40044,32284
32717,40044,32295
32688,40039,32292
32744,40023,32302
32784,39980,32313
32752,40041,32322
32764,40065,32294
32788,40046,32307
32832,40116,32324
32757,40141,32317
32768,40151,32327
32748,40133,32340
32788,40128,32334
32832,40121,32348
32877,40113,32352
32880,40132,32364
32864,40153,32377
32900,40183,32381
32816,40215,32377
32725,40244,32383
32712,40246,32376
32774,40244,32367
32852,40225,32383
32832,40188,32372
32844,40223,32377
32824,40237,32381
32844,40254,32381
32869,40282,32380
32864,40318,32384
32893,40337,32404
32876,40343,32409
32788,40333,32393
32746,40324,32410
32796,40284,32383
32839,40311,32412
32893,40327,32416
32928,40342,32440
32896,40381,32441
32876,40413,32441
32858,40428,32452
32868,40434,32449
32904,40442,32461
32940,40392,32461
32932,40420,32468
32924,40423,32460
32900,40421,32452
32872,40411,32437
32864,40479,32465
32884,40504,32468
32884,40529,32484
32864,40551,32476
32854,40540,32481
32864,40489,32482
32856,40516,32480
32836,40483,32474
32770,40516,32490
32676,40557,32493
32704,40583,32488
32668,40620,32492
32641,40615,32501
32688,40654,32508
32660,40637,32516
32661,40632,32510
32668,40623,32528
32671,40609,32550
32717,40631,32548
32768,40646,32516
32772,40684,32504
32724,40719,32524
32692,40742,32529
32740,40737,32533
32749,40742,32532
32776,40729,32528
32824,40711,32548
32812,40710,32567
32744,40718,32561
32720,40752,32528
32772,40780,32528
32804,40815,32542
32768,40839,32536
32788,40844,32540
32740,40839,32533
32772,40828,32537
32749,40790,32557
32793,40808,32557
32812,40828,32555
32848,40822,32570
32817,40880,32552
32776,40909,32562
32760,40921,32560
32804,40932,32559
32852,40936,32543
32844,40917,32514
32780,40909,32518
32792,40916,32530
32738,40916,32513
32736,40940,32516
32705,40973,32551
32736,40967,32525
32800,41033,32519
32796,41039,32483
32716,41044,32485
32664,41023,32482
32712,41012,32484
32743,41012,32478
32696,41018,32512
32712,41038,32513
32644,41070,32464
32644,41100,32430
32660,41095,32413
32692,41135,32404
32636,41133,32400
32720,41120,32404
32767,41111,32388
32812,41101,32373
32764,41108,32384
32734,41140,32356
32768,41162,32345
32672,41189,32316
32708,41214,32342
32768,41190,32342
32796,41223,32335
32790,41197,32329
32772,41201,32279
32740,41204,32225
32756,41213,32228
32748,41196,32197
32740,41244,32245
32737,41300,32136
32744,41302,32135
32672,41312,32135
32645,41265,32117
32697,41304,32105
32716,41285,32085
32660,41295,32054
32724,41287,32024
32780,41324,32017
32808,41348,32002
32808,41335,31981
32704,41414,31988
32728,41406,31974
32712,41409,31921
32768,41389,31892
32740,41389,31884
32680,41391,31857
32720,41388,31842
32788,41415,31818
32817,41441,31802
32820,41477,31782
32816,41479,31751
32817,41503,31724
32780,41497,31696
32712,41479,31677
32704,41473,31636
32756,41440,31677
32764,41476,31661
32807,41507,31674
32780,41535,31667
32708,41565,31653
32716,41567,31623
32760,41593,31608
32800,41588,31556
32840,41552,31534
32868,41560,31450
32826,41564,31445
32728,41572,31391
32808,41592,31396
32844,41616,31375
32852,41659,31365
32880,41652,31346
32924,41675,31320
32942,41637,31345
32828,41661,31361
32752,41623,31372
32748,41646,31364
32772,41635,31341
32792,41679,31257
32820,41709,31239
32860,41740,31212
32865,41765,31273
32856,41764,31287
32864,41767,31172
32924,41753,31168
32900,41733,31193
32784,41688,31182
32792,41749,31224
32792,41716,31207
32784,41800,31148
32728,41837,31175
32729,41852,31140
32784,41852,31204
32812,41812,31233
32860,41833,31129
32860,41824,31180
32876,41772,31181
32884,41836,31233
32908,41848,31159
32776,41884,31183
32776,41916,31215
32820,41926,31212
32849,41904,31212
32912,41927,31214
32948,41920,31278
32966,41908,31345
32952,41916,31360
32924,41916,31380
32944,41940,31404
32904,41964,31428
32908,42000,31452
32912,42017,31482
32892,42030,31468
32801,42004,31411
32756,42001,31476
32724,41991,31480
32696,41967,31589
32640,42007,31620
32677,42020,31600
32689,42052,31645
32724,42078,31657
32740,42069,31779
32788,42100,31684
32808,42100,31783
32776,42085,31816
32736,42033,31924
32724,42076,31857
32716,42076,31937
32708,42110,31967
32712,42141,32058
32732,42161,32121
32681,42189,32067
32704,42188,32125
32748,42182,32167
32729,42173,32204
32704,42158,32308
32704,42157,32316
32716,42164,32348
32744,42182,32384
32792,42218,32413
32816,42239,32468
32836,42262,32564
32840,42271,32516
32856,42261,32580
32820,42245,32629
32716,42228,32668
32642,42234,32701
32644,42188,32805
32660,42265,32744
32632,42285,32828
32620,42333,32853
32600,42319,32959
32621,42358,32924
32724,42333,32989
32788,42329,33016
32748,42266,33098
32696,42309,33098
32704,42319,33134
32720,42353,33159
32784,42368,33196
32836,42393,33230
32864,42420,33262
32800,42424,33332
32725,42428,33364
32776,42393,33415
32820,42389,33402
32832,42382,33435
32844,42401,33473
32848,42424,33508
32768,42455,33580
32760,42478,33588
32756,42502,33610
32792,42501,33646
32804,42490,33679
32840,42432,33714
32780,42476,33780
32732,42471,33812
32752,42484,33805
32804,42488,33848
32808,42527,33888
32836,42548,33921
32810,42580,33983
32732,42591,34014
32730,42572,34041
32760,42503,34028
32816,42549,34078
32846,42536,34118
32868,42559,34133
32836,42580,34199
32796,42607,34220
32797,42628,34252
32878,42632,34242
32788,42597,34300
32816,42638,34329
32804,42629,34372
32852,42622,34388
32868,42612,34424
32877,42622,34457
32892,42644,34479
32900,42676,34518
32936,42652,34540
32816,42711,34575
32796,42668,34596
32829,42709,34628
32864,42704,34668
32796,42685,34700
32808,42695,34708
32848,42697,34732
32864,42717,34764
32856,42706,34793
32872,42767,34833
32872,42796,34872
32817,42789,34901
32776,42789,34928
32772,42766,34951
32812,42732,34983
32860,42748,34992
32896,42711,35021
32909,42784,35060
32920,42810,35088
32936,42827,35114
32804,42852,35141
32806,42862,35169
32852,42852,35199
32872,42783,35232
32908,42831,35245
32782,42823,35256
32768,42838,35304
32817,42863,35324
32796,42884,35357
32793,42903,35396
32856,42924,35416
32864,42918,35441
32844,42927,35444
32873,42917,35468
32900,42897,35504
32908,42887,35536
32908,42857,35559
32928,42918,35582
32912,42954,35609
32824,42973,35652
32764,43013,35652
32729,42997,35676
32800,42983,35693
32813,42980,35736
32888,42924,35753
32932,42961,35797
32940,42972,35788
32908,42991,35817
32908,43015,35854
32904,43055,35887
32921,43064,35908
32937,43069,35948
32924,43068,35959
32929,43057,35969
32885,43040,36008
32808,42980,36030
32740,43044,36060
32736,43029,36088
32760,43094,36109
32704,43119,36113
32724,43141,36144
32708,43140,36171
32680,43136,36181
32728,43123,36207
32788,43101,36192
32832,43093,36272
32841,43044,36287
32868,43132,36306
32896,43116,36321
32936,43180,36346
32784,43210,36375
32772,43212,36392
32768,43196,36396
32694,43188,36404
32756,43172,36421
32812,43169,36424
32832,43133,36462
32836,43207,36485
32816,43237,36489
32804,43260,36496
32844,43271,36529
32764,43232,36540
32748,43271,36528
32808,43268,36537
32852,43246,36572
32868,43236,36581
32885,43249,36583
32872,43268,36593
32868,43303,36596
32789,43293,36588
32760,43356,36584
32756,43352,36613
32804,43324,36612
32820,43341,36608
32732,43317,36621
32772,43316,36582
32805,43271,36606
32798,43336,36608
32788,43375,36596
32756,43399,36590
32781,43372,36593
32736,43428,36576
32777,43423,36576
32752,43397,36568
32782,43381,36549
32772,43397,36523
32760,43389,36520
32776,43415,36508
32760,43433,36494
32748,43479,36479
32772,43476,36476
32764,43509,36452
32780,43500,36425
32752,43487,36378
32740,43477,36337
32696,43457,36367
32728,43476,36342
32796,43500,36316
32784,43527,36293
32800,43556,36278
32868,43572,36253
32877,43580,36213
32884,43559,36189
32876,43544,36156
32864,43527,36104
32840,43540,36095
32724,43552,36061
32620,43581,36025
32624,43604,35996
32632,43624,35967
32696,43655,35924
32644,43599,35908
32680,43631,35864
32772,43589,35838
32806,43616,35797
32800,43565,35762
32832,43616,35733
32844,43588,35696
32748,43669,35676
32744,43676,35640
32736,43719,35606
32809,43712,35556
32852,43728,35516
32832,43712,35479
32828,43703,35446
32864,43689,35424
32908,43703,35380
32884,43716,35352
32760,43695,35324
32816,43772,35308
32840,43750,35236
32766,43807,35205
32784,43791,35188
32785,43782,35160
32824,43772,35148
32790,43764,35081
32728,43775,35056
32740,43804,35016
32793,43824,35020
32796,43800,34945
32816,43872,34932
32776,43835,34912
32792,43865,34890
32804,43869,34838
32760,43846,34808
32724,43839,34796
32761,43796,34740
32808,43864,34719
32832,43892,34695
32844,43924,34655
32860,43933,34637
32868,43893,34655
32792,43927,34604
32781,43920,34543
32773,43899,34527
32816,43890,34500
32844,43916,34461
32868,43940,34452
32857,43966,34457
32764,43992,34431
32748,44017,34341
32796,44012,34345
32797,44004,34306
32812,43935,34330
32736,43985,34252
32761,43969,34246
32776,43976,34247
32820,44001,34164
32836,44033,34172
32832,44068,34200
32752,44072,34114
32772,44086,34092
32812,44068,34100
32780,44060,34064
32808,44036,34036
32798,44030,34017
32820,44039,33999
32736,44017,33957
32725,44096,34016
32782,44068,33977
32785,44140,33949
32800,44148,33885
32744,44143,33890
32708,44061,33868
32792,44109,33887
32772,44100,33868
32828,44061,33813
32828,44121,33840
32820,44109,33799
32812,44184,33872
32831,44204,33861
32880,44215,33772
32809,44189,33807
32724,44156,33784
32754,44167,33862
32756,44158,33799
32672,44167,33764
32700,44184,33756
32728,44220,33780
32760,44240,33759
32808,44212,33844
32836,44277,33744
32852,44257,33773
32845,44233,33743
32836,44164,33746
32858,44222,33776
32852,44221,33745
32860,44192,33828
32864,44277,33799
32868,44295,33743
32878,44260,33735
32876,44320,33758
32736,44309,33829
32684,44310,33788
32648,44288,33702
32641,44277,33716
32689,44286,33729
32680,44317,33703
32664,44330,33732
32701,44357,33685
32780,44320,33668
32768,44380,33748
32684,44320,33741
32713,44351,33680
32736,44295,33638
32756,44325,33645
32784,44349,33616
32780,44357,33703
32788,44337,33602
32804,44408,33596
32760,44434,33676
32700,44441,33573
32712,44423,33556
32745,44383,33601
32761,44399,33628
32700,44396,33588
32704,44397,33509
32720,44372,33500
32776,44438,33567
32805,44423,33525
32816,44473,33469
32732,44490,33484
32720,44480,33448
32740,44460,33528
32768,44399,33404
32820,44439,33421
32849,44449,33389
32791,44428,33473
32756,44509,33355
32792,44526,33351
32836,44496,33338
32824,44532,33409
32832,44532,33310
32736,44518,33284
32752,44506,33260
32792,44491,33248
32804,44492,33268
32820,44528,33285
32808,44546,33165
32800,44572,33180
32780,44597,33161
32720,44598,33210
32736,44565,33221
32780,44573,33117
32824,44544,33093
32844,44541,33166
32832,44501,33101
32838,44564,33025
32782,44564,33037
32786,44612,33039
32780,44599,32990
32768,44642,32993
32792,44636,33011
32792,44559,32952
32800,44592,32921
32808,44588,33041
32860,44540,32936
32884,44615,32869
32920,44636,32854
32904,44668,32903
32860,44630,32871
32836,44676,32848
32820,44661,32830
32824,44655,32888
32816,44645,32873
32809,44644,32772
32804,44646,32806
32716,44660,32796
32760,44688,32806
32736,44711,32852
32740,44724,32814
32788,44739,32718
32706,44711,32733
32644,44671,32708
32604,44676,32820
32636,44671,32753
32628,44633,32648
32654,44697,32646
32588,44669,32658
32608,44744,32668
32696,44730,32616
32668,44762,32726
32680,44692,32657
32774,44725,32564
32772,44673,32573
32684,44700,32597
32704,44724,32551
32716,44734,32613
32760,44757,32657
32796,44720,32551
32784,44795,32495
32820,44797,32524
32804,44780,32486
32824,44768,32605
32764,44764,32513
32704,44751,32430
32700,44767,32445
32668,44765,32465
32672,44801,32444
32688,44812,32400
32736,44814,32396
32756,44837,32393
32800,44828,32452
32821,44807,32500
32840,44791,32341
32840,44785,32329
32753,44776,32366
32648,44801,32354
32638,44833,32327
32688,44847,32432
32724,44869,32420
32716,44869,32394
32776,44852,32333
32784,44855,32208
32812,44775,32260
32817,44804,32223
32820,44820,32257
32864,44832,32317
32880,44806,32289
32848,44876,32132
32852,44848,32148
32888,44892,32112
32884,44871,32089
32796,44876,32078
32846,44857,32084
32868,44847,32058
32796,44850,32034
32768,44872,32183
32796,44892,32100
32732,44919,32036
32784,44935,32020
32844,44924,31983
32824,44927,32135
32829,44900,32092
32860,44836,32096
32848,44880,32021
32797,44888,32084
32832,44892,32066
32840,44903,31940
32864,44949,31951
32908,44965,31940
32928,44965,31893
32948,44941,31844
32844,44935,31892
32792,44908,31972
32784,44845,31956
32772,44904,31854
32833,44924,31870
32844,44952,31817
32868,44964,31851
32784,44973,31960
32760,44980,31832
32820,44989,31788
32852,44964,31816
32844,44930,31734
32848,44876,31869
32764,44927,31895
32748,44941,31853
32748,44968,31860
32804,44997,31760
32808,45011,31781
32832,45006,31737
32836,44992,31700
32852,44977,31717
32856,44969,31720
32752,44964,31654
32700,44967,31672
32645,44957,31804
32704,44943,31693
32724,45018,31694
32789,45037,31622
32816,45016,31634
32852,45016,31629
32860,44999,31597
32844,44980,31548
32830,44975,31735
32768,44989,31653
32768,44996,31582
32800,45008,31540
32768,45041,31549
32712,45015,31554
32708,45056,31521
32768,44988,31536
32780,45020,31492
32784,44964,31461
32788,45006,31625
32753,45000,31502
32768,44988,31485
32741,45013,31396
32696,45063,31500
32684,45063,31457
32692,45062,31375
32744,45071,31520
32772,45050,31404
32696,44972,31421
32676,45029,31425
32712,45028,31485
32728,45040,31364
32768,45028,31381
32768,45092,31361
32748,45111,31374
32748,45095,31300
32784,45036,31413
32724,45060,31463
32688,45037,31422
32761,45044,31302
32774,45036,31277
32773,45063,31437
32692,45079,31416
32756,45112,31367
32780,45108,31332
32797,45125,31261
32828,45108,31262
32804,45093,31205
32780,45074,31191
32684,45056,31302
32724,45028,31361
32708,45076,31228
32768,45084,31228
32776,45120,31239
32768,45157,31168
32732,45140,31205
32736,45132,31317
32756,45104,31240
32829,45087,31212
32788,45024,31170
32740,45077,31134
32748,45100,31285
32784,45063,31140
32796,45136,31139
32800,45110,31144
32772,45151,31152
32772,45140,31135
32749,45124,31084
32760,45110,31058
32772,45100,31058
32796,45088,31052
32797,45108,31049
32768,45119,31031
32800,45146,31036
32833,45116,31124
32853,45167,31070
32860,45152,31199
32897,45144,31215
32880,45124,31209
32916,45110,31204
32956,45111,31196
32948,45092,31135
32920,45144,31076
32900,45172,31005
32873,45184,31038
32796,45191,31043
32804,45180,30967
32772,45140,30924
32698,45137,30917
32672,45127,30908
32644,45063,30936
32692,45150,31077
32697,45164,30983
32696,45189,30918
32776,45196,30924
32788,45199,30914
32772,45189,30919
32796,45153,30876
32824,45140,30854
32848,45124,31030
32772,45128,30983
32825,45164,30932
32832,45177,30882
32760,45191,30840
32772,45205,30817
32788,45221,30852
32832,45191,30816
32892,45161,30736
32900,45137,30930
32892,45146,30948
32924,45154,30937
32916,45172,30924
32828,45183,30812
32788,45213,30817
32800,45228,30852
32726,45213,30885
32752,45184,30892
32812,45189,30828
32852,45181,30743
32876,45148,30734
32880,45159,30753
32844,45149,30711
32840,45188,30720
32780,45217,30662
32796,45220,30647
32844,45228,30626
32856,45165,30728
32862,45191,30824
32904,45161,30688
32896,45124,30692
32900,45148,30693
32892,45180,30705
32768,45207,30700
32785,45229,30596
32872,45172,30740
32906,45231,30782
32932,45208,30715
32949,45191,30749
32952,45181,30692
32956,45173,30632
32936,45156,30625
32917,45116,30620
32908,45191,30605
32920,45176,30630
32948,45229,30633
32908,45241,30629
32832,45220,30621
32756,45207,30620
32735,45176,30596
32712,45177,30609
32764,45183,30572
32693,45183,30517
32714,45198,30463
32792,45222,30692
32724,45244,30546
32768,45188,30554
32848,45228,30444
32840,45204,30604
32800,45148,30561
32828,45172,30477
32858,45173,30500
32808,45191,30436
32752,45213,30393
32792,45228,30477
32832,45236,30424
32876,45236,30446
32892,45220,30380
32884,45207,30323
32888,45184,30405
32776,45157,30536
32712,45112,30452
32708,45191,30524
32744,45220,30420
32812,45188,30342
32840,45240,30335
32780,45228,30352
32760,45228,30247
32740,45209,30361
32780,45191,30445
32816,45178,30393
32844,45180,30272
32734,45134,30248
32748,45220,30248
32741,45228,30269
32779,45240,30266
32796,45248,30221
32800,45224,30138
32809,45201,30285
32712,45136,30358
32748,45176,30293
32804,45128,30316
32864,45191,30229
32876,45196,30160
32876,45237,30161
32896,45199,30160
32828,45256,30140
32749,45236,30128
32780,45207,30152
32832,45140,30134
32740,45186,30103
32744,45134,30125
32716,45204,30108
32787,45188,30032
32804,45248,30033
32820,45256,30142
32840,45264,30173
32864,45263,30101
32848,45228,30052
32780,45207,30061
32762,45140,30056
32780,45199,29959
32752,45220,30156
32756,45196,30135
32784,45258,30031
32810,45270,30037
32844,45268,30000
32884,45255,30065
32844,45236,30006
32808,45226,30031
32832,45212,29956
32816,45207,29924
32816,45223,30065
32770,45244,30005
32812,45271,30001
32788,45272,29982
32702,45221,29920
32716,45266,29902
32716,45249,29997
32788,45225,30029
32782,45228,29972
32816,45212,30020
32800,45241,29935
32740,45262,29921
32775,45272,29896
32760,45295,29980
32744,45280,30058
32800,45268,30008
32828,45184,30001
32824,45236,29935
32780,45233,29957
32736,45229,30150
32732,45237,30010
32772,45268,30016
32765,45286,29942
32728,45292,29956
32752,45269,30116
32797,45274,30148
32828,45205,30068
32776,45237,29996
32748,45225,29992
32744,45229,30012
32796,45253,29942
32808,45270,29909
32799,45292,29997
32788,45310,30103
32768,45316,30052
32768,45301,30025
32768,45265,30036
32780,45252,30032
32781,45196,29940
32768,45253,30188
32760,45263,30085
32792,45217,30036
32800,45300,30030
32836,45319,29994
32868,45310,29977
32868,45303,30024
32894,45282,29980
32870,45252,30060
32869,45247,30215
32868,45261,30078
32894,45256,30100
32916,45264,30086
32833,45316,30080
32788,45324,30212
32828,45332,30116
32748,45305,30133
32708,45265,30103
32804,45260,30105
32832,45212,30108
32796,45261,30086
32700,45277,30215
32724,45308,30321
32724,45319,30278
32704,45340,30215
32716,45332,30228
32720,45260,30202
32705,45292,30276
32748,45289,30328
32764,45272,30304
32700,45276,30328
32688,45262,30280
32741,45312,30269
32784,45335,30519
32842,45349,30380
32773,45358,30420
32736,45334,30334
32744,45319,30513
32772,45276,30436
32833,45277,30468
32854,45296,30485
32845,45305,30417
32848,45332,30489
32864,45364,30664
32840,45373,30558
32760,45382,30575
32752,45362,30503
32740,45342,30720
32704,45326,30628
32740,45319,30620
32768,45319,30640
32812,45343,30684
32828,45368,30628
32844,45396,30644
32864,45415,30646
32856,45409,30786
32860,45392,30815
32776,45385,30764
32733,45356,30842
32748,45309,30791
32704,45359,30790
32710,45348,30892
32768,45392,31031
32823,45429,30976
32844,45439,30956
32798,45447,30954
32820,45377,31128
32768,45420,31071
32796,45397,31064
32752,45396,31112
32812,45397,31165
32840,45412,31121
32856,45439,31337
32865,45467,31261
32856,45492,31301
32816,45473,31295
32797,45470,31285
32813,45436,31369
32856,45414,31528
32877,45424,31470
32893,45428,31461
32897,45460,31537
32892,45468,31520
32784,45447,31544
32724,45524,31649
32788,45516,31744
32808,45519,31672
32752,45437,31750
32760,45479,31805
32820,45413,31845
32796,45465,31887
32801,45463,31877
32825,45520,32041
32854,45548,32092
32784,45527,32000
32764,45565,32074
32804,45559,32060
32816,45541,32200
32828,45517,32200
32852,45471,32207
32848,45513,32297
32829,45480,32291
32758,45567,32438
32712,45560,32519
32704,45600,32492
32757,45608,32463
32799,45601,32517
32808,45586,32569
32760,45568,32578
32709,45561,32737
32741,45575,32741
32780,45589,32716
32736,45560,32790
32784,45636,32821
32720,45664,32829
32668,45677,32957
32692,45661,33070
32728,45647,33093
32772,45627,33087
32824,45620,33154
32844,45614,33224
32764,45591,33208
32772,45665,33261
32752,45660,33222
32812,45717,33268
32844,45716,33317
32840,45716,33385
32780,45684,33398
32788,45681,33412
32804,45612,33537
32832,45681,33630
32840,45703,33661
32832,45668,33647
32840,45740,33709
32834,45768,33773
32736,45772,33759
32656,45781,33823
32648,45765,33846
32672,45741,33920
32624,45743,33981
32689,45740,33976
32720,45773,33957
32752,45796,34028
32801,45813,34049
32813,45830,34063
32801,45831,34086
32848,45830,34269
32864,45813,34238
32816,45796,34249
32748,45802,34278
32724,45805,34287
32666,45821,34377
32685,45861,34497
32692,45888,34436
32736,45895,34460
32728,45844,34520
32745,45900,34572
32764,45889,34596
32766,45871,34640
32791,45812,34664
32834,45862,34724
32812,45857,34767
32712,45924,34797
32644,45956,34819
32672,45967,34841
32712,45968,34926
32780,45911,34977
32792,45958,34961
32809,45892,35000
32824,45941,35045
32848,45903,35088
32823,45973,35132
32854,45941,35197
32864,46013,35236
32864,45997,35284
32848,46044,35314
32832,45988,35367
32760,46020,35389
32826,45956,35429
32856,46016,35473
32880,45995,35520
32860,46045,35543
32829,46080,35580
32828,46105,35613
32832,46137,35648
32820,46077,35748
32848,46117,35820
32845,46060,35837
32856,46087,35844
32780,46045,35850
32732,46117,35898
32660,46084,35948
32620,46152,35975
32660,46143,36009
32716,46207,36038
32808,46160,36081
32847,46197,36120
32860,46200,36165
32929,46181,36200
32932,46174,36228
32932,46191,36252
32944,46204,36303
32928,46176,36321
32904,46275,36372
32892,46288,36410
32884,46303,36418
32868,46289,36503
32780,46276,36552
32780,46256,36588
32812,46261,36608
32812,46214,36629
32880,46308,36640
32876,46325,36666
32788,46357,36692
32714,46380,36713
32692,46388,36756
32664,46381,36762
32660,46380,36812
32696,46356,36863
32692,46357,36900
32687,46367,36920
32768,46397,36926
32716,46402,36974
32700,46449,36988
32717,46444,37028
32790,46407,37041
32820,46461,37062
32856,46380,37084
32856,46425,37110
32760,46438,37138
32785,46446,37140
32776,46468,37175
32792,46500,37173
32776,46508,37198
32796,46555,37213
32748,46516,37232
32760,46548,37276
32772,46541,37312
32816,46464,37320
32844,46520,37341
32856,46527,37348
32868,46557,37368
32848,46599,37392
32841,46623,37420
32764,46639,37439
32756,46569,37437
32780,46631,37508
32712,46631,37493
32736,46566,37505
32797,46599,37519
32812,46599,37525
32818,46639,37543
32805,46669,37604
32844,46656,37597
32888,46716,37606
32804,46720,37612
32736,46660,37613
32753,46711,37660
32720,46688,37676
32712,46682,37685
32717,46692,37692
32744,46668,37711
32772,46742,37708
32756,46743,37708
32760,46797,37727
32749,46804,37733
32736,46804,37721
32672,46788,37712
32696,46717,37708
32756,46781,37720
32756,46785,37712
32784,46809,37708
32781,46831,37730
32780,46856,37739
32812,46870,37743
32812,46885,37708
32801,46820,37696
32714,46864,37709
32676,46855,37705
32621,46852,37696
32696,46855,37684
32748,46829,37671
32780,46919,37662
32792,46936,37669
32812,46972,37673
32816,46896,37648
32808,46964,37638
32820,46949,37588
32800,46943,37637
32712,46940,37657
32700,46948,37639
32704,46964,37628
32696,46956,37604
32744,47021,37572
32780,46991,37572
32744,47058,37560
32772,47038,37555
32793,46981,37532
32752,47012,37529
32732,46951,37512
32732,47025,37500
32736,46983,37484
32760,47056,37476
32773,47061,37465
32772,47132,37440
32776,47143,37415
32813,47111,37405
32756,47108,37380
32724,47092,37356
32762,47097,37337
32784,47104,37318
32797,47124,37348
32724,47158,37348
32676,47176,37338
32728,47156,37268
32780,47204,37253
32832,47212,37236
32848,47191,37207
32804,47189,37196
32721,47174,37170
32704,47177,37127
32728,47154,37165
32696,47239,37149
32774,47261,37085
32805,47228,37040
32840,47285,37046
32841,47273,36994
32812,47220,36959
32852,47260,36988
32844,47261,36964
32828,47260,36988
32794,47292,36960
32768,47304,36909
32820,47292,36892
32864,47357,36821
32869,47332,36821
32856,47364,36772
32892,47354,36752
32876,47335,36733
32912,47314,36730
32850,47348,36700
32752,47340,36763
32688,47391,36653
32760,47412,36659
32800,47396,36615
32812,47432,36549
32845,47431,36645
32868,47367,36632
32848,47407,36580
32868,47399,36557
32794,47358,36551
32756,47430,36524
32772,47399,36480
32741,47484,36474
32748,47495,36428
32784,47509,36421
32856,47453,36464
32868,47480,36468
32892,47412,36429
32868,47461,36428
32897,47476,36348
32916,47494,36344
32917,47456,36357
32948,47551,36356
32932,47582,36323
32908,47576,36269
32888,47567,36207
32868,47552,36212
32872,47549,36196
32884,47532,36141
32884,47541,36228
32892,47568,36204
32876,47604,36204
32900,47623,36073
32888,47578,36092
32828,47623,36068
32820,47599,36045
32868,47619,36036
32892,47616,36005
32892,47592,36000
32892,47616,35956
32880,47623,36020
32888,47653,36033
32885,47678,35921
32888,47703,35939
32869,47638,35868
32741,47692,35921
32748,47680,35840
32776,47679,35813
32708,47661,35813
32700,47671,35808
32668,47693,35774
32672,47716,35792
32697,47724,35871
32696,47741,35852
32728,47751,35847
32676,47741,35734
32664,47725,35697
32676,47726,35676
32632,47719,35704
32605,47719,35679
32655,47732,35668
32728,47740,35645
32780,47758,35583
32804,47812,35559
32808,47742,35632
32824,47804,35625
32856,47751,35660
32820,47775,35646
32736,47767,35633
32740,47769,35609
32728,47801,35580
32813,47822,35592
32856,47840,35576
32868,47848,35460
32788,47855,35447
32744,47845,35452
32796,47824,35409
32840,47824,35383
32872,47812,35369
32868,47820,35404
32884,47788,35344
32873,47857,35320
32824,47868,35381
32752,47900,35376
32692,47847,35348
32696,47892,35323
32670,47816,35271
32764,47860,35255
32820,47789,35246
32820,47853,35225
32832,47871,35301
32869,47903,35364
32844,47932,35310
32760,47943,35335
32728,47944,35290
32782,47928,35216
32764,47920,35169
32752,47904,35198
32772,47868,35168
32820,47900,35149
32836,47927,35127
32744,47937,35108
32744,47952,35086
32796,47962,35124
32832,47932,35108
32824,47975,35173
32724,47940,35156
32732,47936,35207
32778,47929,35117
32832,47932,35065
32864,47950,35055
32797,47981,35047
32844,48000,34998
32736,48001,35156
32708,47964,35076
32728,48004,34989
32784,47964,35010
32836,47937,35041
32816,47955,35044
32749,47951,34975
32720,47991,34967
32774,47950,35015
32766,48020,35079
32732,48040,34964
32748,48046,34966
32774,48032,34924
32764,48007,34919
32820,47985,35054
32832,47990,34904
32824,47991,34895
32828,48004,35017
32824,48036,34889
32808,48007,34908
32728,48065,34844
32754,48070,34924
32816,48064,34980
32858,48040,34852
32773,48024,34878
32737,47980,34868
32764,47996,34861
32736,48039,34830
32716,48044,34780
32724,48025,34924
32760,48087,34888
32821,48058,34772
32828,48077,34802
32776,48048,34734
32785,48044,34816
32792,48036,34797
32740,48032,34877
32740,47984,34892
32752,48079,34816
32774,48041,34789
32756,48104,34727
32772,48040,34713
32756,48096,34727
32772,48025,34701
32773,48060,34751
32780,48060,34757
32792,48016,34679
32836,48052,34709
32784,48065,34679
32725,48109,34624
32760,48080,34677
32698,48128,34781
32648,48125,34745
32676,48092,34633
32743,48068,34629
32704,48076,34645
32716,48076,34605
32772,48096,34576
32816,48096,34577
32832,48124,34639
32842,48135,34632
32876,48076,34630
32884,48125,34677
32920,48052,34705
32896,48088,34646
32884,48089,34541
32872,48080,34580
32864,48103,34528
32868,48120,34496
32866,48144,34604
32908,48108,34596
32896,48148,34519
32801,48098,34524
32732,48119,34471
32668,48099,34628
32644,48029,34556
32692,48088,34501
32666,48116,34474
32640,48124,34553
32704,48135,34485
32752,48165,34504
32789,48096,34585
32808,48152,34476
32809,48120,34487
32832,48116,34496
32824,48100,34537
32830,48093,34463
32856,48061,34480
32872,48117,34471
32880,48135,34415
32872,48168,34567
32920,48172,34599
32872,48161,34473
32860,48132,34426
32892,48068,34432
32904,48108,34404
32816,48119,34423
32823,48056,34541
32856,48135,34401
32892,48162,34404
32896,48180,34456
32888,48111,34517
32900,48171,34452
32877,48088,34503
32872,48108,34384
32888,48114,34369
32912,48116,34400
32884,48127,34400
32856,48154,34372
32800,48164,34393
32844,48135,34396
32854,48168,34350
32828,48116,34310
32856,48135,34350
32872,48132,34480
32860,48116,34484
32728,48120,34495
32624,48108,34472
32600,48135,34461
32662,48160,34326
32644,48193,34285
32688,48172,34328
32665,48132,34348
32664,48148,34328
32676,48132,34300
32652,48116,34301
32682,48109,34333
32645,48133,34423
32648,48160,34428
32692,48172,34332
32660,48148,34400
32668,48172,34412
32716,48112,34305
32680,48129,34252
32708,48124,34260
32760,48036,34290
32809,48117,34240
32777,48116,34292
32741,48151,34328
32752,48167,34385
32796,48168,34318
32812,48175,34183
32836,48168,34205
32864,48133,34230
32848,48121,34200
32860,48117,34202
32804,48104,34197
32716,48116,34189
32676,48134,34288
32696,48163,34124
32764,48167,34136
32836,48167,34108
32828,48125,34132
32824,48135,34160
32840,48097,34118
32738,48104,34141
32720,48100,34167
32720,48108,34228
32704,48135,34232
32710,48159,34076
32708,48181,34108
32768,48165,34014
32796,48149,34084
32784,48079,34070
32840,48109,34041
32848,48048,34070
32848,48089,34047
32832,48039,34068
32732,48132,34031
32740,48153,34017
32728,48164,34049
32700,48165,34082
32748,48159,34069
32748,48124,34071
32773,48103,34100
32800,48084,34132
32841,48037,33998
32852,48096,34005
32880,48116,33959
32820,48124,34002
32680,48161,33984
32696,48159,33975
32688,48148,33940
32669,48108,33945
32672,48104,34004
32736,48096,34049
32740,48077,33984
32740,48028,33862
32784,48124,33892
32780,48135,33916
32780,48148,33933
32820,48135,33932
32865,48135,34012
32756,48109,33937
32708,48079,33888
32740,48007,33904
32680,48084,33865
32692,48087,33860
32728,48036,33929
32732,48135,33965
32756,48135,33952
32768,48078,33795
32788,48119,33847
32801,48096,33878
32804,48080,33863
32792,48063,33821
32808,48065,33906
32820,48071,33896
32792,48089,33919
32786,48111,33927
32736,48135,33948
32656,48132,33972
32652,48096,33968
32644,48004,33949
32628,48061,33940
32620,47989,33940
32626,48040,33864
32677,48044,33841
32714,48068,33889
32758,48032,33860
32788,48093,33821
32768,48090,33828
32772,48096,33848
32760,48071,33901
32660,47968,33927
32640,48031,33945
32692,48032,33920
32764,48052,33839
32824,48053,33750
32788,48025,33780
32716,48100,33828
32708,48084,33792
32756,48058,33820
32689,48036,33877
32720,47958,33940
32780,48022,33917
32832,48007,33927
32832,48033,33910
32788,48044,33927
32808,48020,33880
32832,48052,33935
32804,48065,33815
32784,48053,33776
32817,47985,33764
32820,48004,33772
32844,48000,33764
32871,47996,33812
32866,48014,33908
32864,48033,33855
32864,47983,33781
32872,48057,33712
32832,48056,33741
32776,47980,33759
32836,48024,33742
32816,47996,33767
32760,47974,33737
32776,47975,33724
32844,48000,33668
32864,48024,33681
32898,48024,33652
32872,48007,33650
32877,48026,33700
32852,48020,33692
32796,48012,33677
32780,47981,33685
32760,47980,33684
32784,47968,33671
32840,47989,33653
32833,48007,33593
32814,48020,33559
32816,48037,33565
32832,48039,33532
32812,47973,33616
32809,47988,33524
32820,47980,33527
32861,47973,33529
32897,47952,33501
32856,47955,33532
32844,47982,33528
32852,48013,33540
32868,47984,33507
32908,48007,33501
32920,48007,33498
32892,47999,33468
32892,47967,33465
32904,47958,33481
32900,47948,33477
32910,47974,33471
32940,47977,33436
32949,47996,33415
32929,48007,33348
32924,47941,33428
32900,47996,33552
32920,47942,33528
32940,47952,33455
32912,47948,33487
32772,47943,33434
32700,47960,33380
32774,47983,33325
32817,47993,33325
32840,48000,33319
32745,48004,33308
32736,47999,33320
32736,47969,33312
32696,47949,33301
32692,47941,33260
32640,47932,33252
32633,47954,33177
32640,47964,33175
32668,47995,33177
32704,48004,33172
32660,47997,33158
32704,47980,33132
32768,47965,33135
32732,47940,33106
32770,47916,33141
32788,47888,33164
32784,47940,33196
32716,47960,33280
32716,47972,33188
32732,47992,33165
32764,47991,33096
32804,47980,33111
32812,47949,33133
32816,47933,33076
32801,47918,33023
32856,47924,33004
32728,47927,33153
32734,47965,33182
32676,47970,33180
32712,47988,33110
32740,47985,33034
32759,47968,33015
32796,47951,33047
32748,47939,32975
32781,47908,32934
32788,47912,32968
32764,47938,32901
32788,47956,32897
32840,47964,33047
32856,47989,33108
32768,47985,33089
32741,47972,32996
32688,47940,32919
32696,47896,32932
32736,47912,32897
32772,47927,32864
32812,47916,32813
32808,47941,32848
32796,47964,32871
32756,47991,33018
32684,47976,32992
32694,47892,32965
32732,47933,32949
32780,47922,32989
32804,47911,32984
32816,47903,32937
32796,47940,32885
32716,47945,32869
32672,47916,32924
32733,47974,32902
32785,47972,32775
32805,47956,32732
32848,47940,32792
32752,47927,32810
32714,47911,32788
32752,47917,32758
32800,47912,32775
32820,47944,32801
32868,47983,32796
32873,47978,32876
32900,47976,32695
32888,47964,32738
32808,47954,32748
32780,47921,32716
32768,47913,32702
32748,47908,32738
32780,47914,32744
32805,47941,32743
32860,47969,32725
32872,47990,32725
32904,47976,32687
32908,47959,32640
32904,47868,32623
32908,47916,32687
32892,47905,32846
32908,47912,32808
32880,47937,32757
32888,47957,32736
32900,47976,32741
32904,47986,32734
32933,47989,32743
32824,47964,32740
32772,47956,32817
32760,47926,32752
32728,47861,32604
32769,47927,32672
32736,47940,32700
32729,47972,32660
32780,47981,32684
32740,47988,32714
32752,47981,32672
32820,47927,32663
32824,47956,32697
32776,47927,32689
32796,47921,32652
32820,47860,32668
32821,47949,32696
32737,47957,32685
32800,47988,32693
32830,47980,32679
32830,47999,32661
32809,47984,32655
32808,47951,32697
32804,47869,32692
32732,47924,32663
32732,47925,32669
32760,47941,32677
32832,47967,32764
32856,47992,32756
32865,47991,32815
32800,48007,32712
32760,47980,32797
32796,47972,32667
32737,47948,32671
32709,47860,32669
32792,47938,32652
32825,47948,32612
32877,47980,32628
32872,47996,32612
32836,47997,32525
32820,48000,32553
32756,48000,32538
32800,47980,32569
32860,47952,32567
32864,47911,32560
32773,47961,32596
32776,47960,32582
32789,47980,32556
32840,48007,32536
32844,47957,32503
32740,48024,32519
32780,48016,32574
32784,47988,32616
32840,47964,32628
32824,47968,32454
32828,47892,32501
32794,47962,32492
32754,47959,32472
32800,48012,32460
32733,47973,32416
32753,48028,32436
32740,48013,32421
32789,48005,32444
32788,47983,32494
32800,47973,32487
32753,47988,32485
32748,48007,32484
32749,48017,32476
32788,48020,32473
32820,48036,32441
32868,48000,32444
32888,48028,32445
32920,47959,32452
32924,47996,32415
32909,47989,32398
32888,47956,32390
32900,48007,32372
32892,48028,32407
32880,48053,32440
32884,48076,32436
32893,48053,32526
32909,48037,32292
32920,48028,32284
32928,47953,32287
32842,47980,32284
32778,48001,32332
32752,48030,32324
32756,48041,32302
32688,48068,32300
32684,48077,32304
32637,48079,32310
32704,48064,32285
32705,48044,32260
32696,48023,32255
32740,48016,32258
32686,48020,32240
32728,48038,32245
32760,48048,32253
32796,48080,32319
32816,48092,32348
32841,48057,32374
32844,48059,32351
32780,47993,32382
32728,48029,32384
32756,48017,32433
32778,48028,32476
32788,48036,32429
32732,48060,32423
32744,48089,32378
32736,48101,32360
32812,48090,32366
32848,48079,32331
32903,48056,32301
32896,48036,32343
32908,48020,32324
32816,48039,32303
32708,48045,32228
32692,48068,32214
32756,48088,32260
32768,48101,32204
32752,48105,32332
32773,48080,32372
32813,48057,32351
32836,48039,32327
32832,48032,32285
32869,48037,32276
32888,48046,32311
32784,48079,32263
32740,48088,32252
32752,48100,32245
32744,48086,32329
32733,48080,32384
32724,48072,32436
32756,48054,32348
32804,48044,32308
32820,48041,32292
32844,47989,32365
32841,48076,32309
32873,48093,32289
32884,48113,32287
32740,48103,32311
32737,48052,32309
32788,48066,32256
32808,47975,32261
32800,48025,32254
32832,48044,32263
32708,48069,32260
32672,48076,32263
32708,48098,32263
32672,48103,32285
32700,48119,32288
32740,48081,32277
32780,48029,32288
32800,48054,32229
32740,48012,32256
32769,48016,32263
32780,48060,32246
32821,48080,32263
32724,48107,32276
32724,48117,32344
32720,48086,32409
32772,48096,32412
32812,48019,32321
32832,48052,32311
32732,48041,32349
32740,47997,32399
32761,48065,32400
32732,48047,32396
32744,48101,32394
32764,48125,32333
32752,48120,32401
32728,48097,32384
32800,48081,32367
32844,48053,32300
32813,48023,32312
32804,48039,32384
32804,47997,32368
32796,48092,32399
32728,48109,32372
32752,48124,32300
32768,48112,32255
32756,48080,32149
32809,48057,32142
32834,48005,32174
32736,48040,32150
32760,48048,32161
32748,48073,32196
32788,48077,32220
32820,48036,32261
32820,48125,32214
32740,48116,32224
32776,48040,32227
32780,48084,32252
32801,48041,32319
32828,48040,32325
32842,48044,32232
32836,48048,32135
32796,48030,32146
32784,48096,32196
32736,48116,32137
32734,48116,32202
32792,48094,32229
32804,48068,32252
32704,48044,32252
32774,47968,32253
32808,48028,32250
32832,47995,32256
32820,48072,32248
32812,48046,32249
32800,48089,32248
32748,48072,32244
32740,48057,32255
32729,48070,32264
32788,48036,32381
32832,48033,32253
32844,48012,32143
32844,48028,32212
32753,48068,32247
32668,48060,32233
32692,48092,32244
32708,48061,32316
32760,48063,32392
32720,48056,32200
32740,47967,32210
32760,48028,32244
32800,48029,32217
32820,48052,32262
32840,48064,32258
32788,48056,32248
32744,48085,32228
32768,48088,32222
32808,48060,32229
32768,48007,32226
32813,48024,32228
32848,48014,32270
32760,47948,32308
32800,48029,32247
32864,48056,32220
32896,48060,32216
32856,48076,32213
32856,48068,32204
32832,48056,32210
32752,48028,32252
32764,47990,32320
32768,47988,32261
32816,47927,32101
32836,48016,32186
32884,48036,32229
32900,47985,32192
32905,48056,32184
32900,48066,32206
32900,48025,32223
32873,47942,32196
32932,47988,32196
32988,47969,32216
32960,47991,32196
32904,48005,32199
32856,48020,32217
32872,48032,32162
32888,48031,32201
32896,48016,32224
32932,48033,32219
32945,48004,32222
32932,47980,32199
32916,47967,32208
32900,47937,32148
32916,47980,32212
32924,47996,32220
32920,48007,32212
32916,48028,32206
32900,47972,32212
32892,48004,32222
32805,47932,32191
32788,47975,32184
32708,47945,32204
32656,47952,32263
32652,47956,32340
32656,47933,32228
32677,48012,32127
32720,48007,32223
32676,48005,32174
32716,47988,32189
32724,47972,32170
32696,47958,32212
32714,47932,32244
32716,47925,32248
32704,47941,32317
32776,47912,32317
32788,47977,32236
32828,47993,32185
32789,47989,32091
32820,47967,32085
32812,47879,32076
32680,47945,32081
32708,47912,32088
32720,47916,32133
32772,47913,32164
32745,47947,32164
32768,47971,32119
32784,47983,32117
32696,47961,32161
32652,47952,32164
32676,47940,32125
32724,47908,32132
32780,47831,32156
32712,47904,32116
32672,47911,32074
32732,47933,32088
32784,47936,32098
32800,47958,32039
32829,47940,31957
32812,47934,32140
32832,47909,32164
32836,47892,32128
32832,47876,32065
32832,47869,32026
32824,47902,32002
32828,47909,31924
32848,47928,31900
32868,47936,31900
32864,47924,31885
32725,47879,31872
32672,47879,31852
32668,47812,32017
32652,47840,32095
32682,47828,31989
32756,47864,31948
32720,47800,31897
32677,47900,31911
32684,47852,31878
32676,47916,31879
32692,47900,31844
32732,47876,31850
32788,47838,31837
32820,47813,31847
32812,47824,31838
32820,47836,31782
32864,47864,31721
32884,47838,31776
32749,47886,31711
32669,47892,31706
32672,47879,31689
32724,47852,31700
32732,47816,31748
32756,47801,31767
32780,47817,31719
32804,47807,31791
32838,47841,31845
32836,47869,31763
32861,47816,31617
32868,47863,31622
32776,47797,31600
32756,47829,31688
32812,47801,31717
32767,47793,31700
32776,47792,31685
32784,47812,31679
32844,47828,31676
32856,47863,31647
32884,47855,31649
32864,47852,31569
32906,47824,31577
32929,47806,31548
32884,47789,31552
32784,47775,31559
32760,47776,31634
32800,47791,31624
32820,47757,31519
32840,47797,31520
32828,47828,31532
32746,47824,31526
32748,47800,31598
32780,47784,31516
32824,47756,31481
32840,47743,31577
32736,47741,31696
32800,47727,31557
32860,47773,31548
32801,47772,31556
32768,47796,31556
32804,47799,31605
32770,47781,31541
32741,47743,31439
32764,47732,31517
32792,47650,31548
32812,47717,31508
32836,47719,31485
32852,47751,31543
32764,47756,31645
32816,47765,31596
32848,47743,31536
32776,47749,31468
32796,47713,31452
32856,47691,31447
32740,47623,31441
32760,47677,31472
32796,47692,31509
32832,47701,31548
32840,47711,31519
32832,47733,31554
32832,47727,31477
32788,47644,31385
32748,47683,31364
32764,47589,31367
32788,47623,31354
32796,47584,31352
32828,47641,31377
32852,47623,31329
32812,47689,31300
32730,47648,31238
32757,47685,31194
32800,47606,31282
32834,47644,31412
32828,47577,31414
32808,47584,31397
32754,47606,31260
32653,47622,31305
32696,47636,31360
32720,47649,31314
32792,47660,31268
32808,47591,31316
32728,47646,31389
32760,47598,31311
32728,47589,31383
32768,47558,31295
32813,47580,31309
32820,47596,31232
32769,47605,31185
32720,47593,31184
32712,47621,31159
32704,47558,31167
32736,47604,31146
32756,47496,31132
32760,47544,31117
32768,47533,31112
32744,47544,31111
32753,47558,31102
32756,47559,31116
32728,47596,31153
32736,47604,31204
32793,47525,31064
32821,47568,30965
32836,47542,31011
32741,47517,31068
32789,47505,31051
32804,47500,31043
32822,47492,31028
32824,47530,31026
32832,47488,31012
32849,47559,31020
32868,47542,31012
32860,47520,31012
32869,47501,31000
32896,47495,31012
32908,47468,31005
32804,47476,31031
32756,47484,31011
32672,47511,31022
32600,47515,31024
32568,47489,31001
32588,47504,30980
32665,47448,30980
32660,47469,30983
32668,47447,30996
32640,47444,31014
32644,47432,30991
32700,47455,30972
32668,47464,30989
32672,47491,30981
32728,47492,30942
32672,47492,30881
32708,47447,30838
32770,47432,30844
32792,47420,30857
32766,47401,30828
32776,47396,30816
32812,47409,30972
32844,47433,30984
32829,47440,31034
32788,47455,30996
32836,47444,30973
32856,47423,31051
32856,47389,30936
32908,47367,30965
32897,47366,30952
32816,47356,30941
32820,47367,30881
32869,47389,30869
32868,47325,30853
32900,47404,30836
32880,47401,30817
32908,47389,30829
32872,47340,30847
32792,47301,30829
32704,47320,30953
32756,47312,30949
32808,47335,30856
32742,47348,30850
32761,47348,30831
32840,47364,30759
32884,47355,30746
32904,47332,30759
32908,47308,30844
32936,47246,30889
32940,47278,30804
32868,47274,30837
32816,47293,30776
32833,47308,30828
32821,47328,30808
32761,47328,30855
32788,47252,30716
32840,47304,30568
32816,47276,30565
32844,47268,30557
32848,47228,30560
32884,47172,30560
32796,47244,30552
32792,47206,30573
32816,47276,30565
32896,47284,30500
32864,47253,30495
32856,47268,30510
32868,47233,30513
32880,47185,30517
32869,47196,30517
32864,47196,30574
32838,47215,30529
32772,47222,30549
32701,47252,30505
32688,47239,30516
32752,47172,30498
32793,47227,30537
32832,47204,30511
32828,47172,30439
32824,47165,30392
32836,47157,30367
32816,47167,30361
32777,47135,30422
32794,47201,30406
32780,47207,30341
32788,47199,30343
32704,47172,30341
32632,47125,30321
32684,47141,30373
32720,47084,30420
32716,47111,30505
32768,47079,30552
32804,47140,30477
32844,47164,30496
32758,47172,30446
32748,47149,30420
32805,47079,30424
32816,47111,30417
32832,47084,30487
32788,47020,30548
32764,47072,30540
32740,47037,30458
32676,47100,30508
32770,47108,30435
32760,47111,30400
32700,47098,30248
32721,47077,30286
32742,47062,30252
32804,47039,30340
32812,47015,30472
32852,47034,30420
32828,47028,30329
32816,47040,30325
32796,47061,30316
32725,47023,30311
32696,47057,30309
32742,46980,30335
32788,47004,30292
32820,46966,30207
32758,46975,30184
32788,46975,30248
32804,46983,30429
32852,46934,30408
32864,47008,30304
32853,47020,30271
32816,47000,30258
32760,46976,30277
32772,46965,30261
32764,46944,30229
32808,46916,30239
32812,46919,30191
32799,46933,30145
32736,46951,30157
32752,46916,30116
32752,46956,30104
32774,46948,30215
32828,46920,30349
32864,46911,30244
32836,46823,30193
32836,46855,30148
32876,46870,30085
32868,46879,30073
32785,46828,30068
32752,46893,30223
32740,46925,30255
32745,46844,30144
32792,46881,30102
32832,46855,30053
32900,46828,30024
32884,46808,30187
32896,46816,30236
32860,46828,30132
32768,46845,30125
32768,46847,30065
32776,46796,29989
32801,46852,29983
32821,46822,29981
32748,46773,30020
32777,46764,29947
32844,46772,30212
32877,46777,30173
32880,46788,30157
32896,46788,30028
32860,46776,30000
32862,46820,30010
32896,46809,29984
32876,46788,29895
32876,46772,29860
32852,46751,29968
32856,46732,30085
32864,46705,29925
32816,46740,29900
32772,46756,29799
32800,46772,29879
32804,46716,29965
32832,46775,30034
32849,46761,30028
32852,46732,29948
32900,46702,29988
32852,46652,29924
32830,46689,29888
32832,46709,29900
32840,46724,29884
32852,46743,29916
32880,46750,29904
32864,46743,29818
32758,46727,29797
32741,46700,29776
32776,46672,29788
32796,46663,29785
32829,46660,29738
32836,46669,29652
32828,46696,29639
32824,46696,29601
32868,46716,29659
32868,46678,29820
32876,46684,29813
32876,46669,29671
32812,46645,29652
32736,46639,29654
32712,46620,29652
32741,46644,29657
32704,46654,29532
32700,46687,29500
32656,46657,29535
32624,46669,29466
32637,46624,29464
32692,46633,29481
32636,46574,29452
32636,46593,29430
32653,46584,29415
32649,46612,29407
32712,46620,29415
32680,46647,29391
32688,46632,29396
32700,46645,29344
32676,46621,29476
32640,46588,29490
32737,46560,29304
32800,46559,29315
32836,46500,29314
32820,46568,29349
32760,46580,29380
32780,46580,29380
32793,46599,29373
32820,46594,29372
32841,46569,29287
32850,46484,29224
32838,46519,29217
32776,46465,29240
32788,46508,29286
32820,46525,29452
32854,46548,29437
32840,46564,29428
32892,46568,29220
32900,46536,29145
32792,46532,29120
32768,46447,29108
32788,46476,29097
32768,46471,29116
32688,46471,29130
32688,46471,29172
32737,46428,29181
32788,46511,29105
32800,46487,29040
32826,46501,29037
32852,46495,29067
32868,46428,29124
32848,46432,29084
32752,46432,29068
32756,46404,29045
32760,46380,29061
32710,46445,29025
32720,46476,29024
32724,46436,29096
32762,46471,28956
32780,46436,28879
32812,46420,28968
32861,46361,28930
32848,46373,28973
32852,46380,28964
32736,46396,28935
32708,46420,28921
32768,46406,28943
32744,46422,28997
32760,46389,29009
32744,46397,28914
32816,46381,28882
32840,46300,28855
32844,46340,28831
32849,46316,28836
32878,46343,28828
32880,46372,28808
32825,46389,28764
32768,46398,28757
32768,46399,28737
32829,46359,28775
32872,46276,28812
32880,46318,28868
32872,46309,28868
32752,46304,28692
32729,46309,28567
32724,46343,28606
32740,46356,28676
32772,46359,28692
32724,46313,28668
32756,46335,28650
32800,46303,28636
32736,46281,28639
32770,46267,28673
32856,46220,28605
32817,46279,28508
32732,46300,28548
32756,46310,28516
32780,46322,28441
32804,46276,28477
32853,46296,28528
32862,46275,28521
32868,46245,28557
32860,46230,28527
32812,46236,28519
32740,46244,28551
32749,46255,28612
32696,46237,28628
32740,46280,28396
32780,46279,28360
32792,46253,28433
32796,46228,28444
32800,46212,28440
32824,46196,28453
32860,46180,28496
32848,46158,28591
32881,46220,28527
32816,46252,28580
32748,46255,28568
32728,46236,28576
32652,46227,28574
32712,46189,28564
32788,46164,28512
32837,46150,28384
32856,46156,28388
32772,46172,28389
32796,46181,28412
32704,46204,28399
32764,46208,28317
32797,46204,28248
32836,46167,28257
32832,46160,28368
32852,46140,28244
32896,46060,28296
32828,46119,28377
32792,46116,28363
32816,46127,28373
32832,46158,28384
32825,46175,28388
32756,46164,28396
32704,46117,28356
32716,46116,28396
32784,46084,28360
32766,46087,28341
32780,46085,28296
32812,46097,28273
32809,46109,28249
32848,46127,28380
32864,46131,28537
32848,46134,28487
32860,46092,28428
32856,46081,28431
32870,46063,28415
32852,46044,28400
32860,46047,28463
32888,46060,28472
32856,46068,28423
32813,46087,28409
32716,46087,28399
32708,46086,28378
32804,46020,28404
32844,46036,28388
32828,45968,28388
32852,46004,28428
32824,45999,28429
32820,46012,28414
32828,46031,28461
32844,46048,28457
32868,46060,28392
32832,46051,28437
32820,45983,28564
32764,46007,28272
32788,45970,28380
32812,45924,28420
32764,45959,28431
32684,45972,28412
32684,45984,28438
32624,46015,28413
32620,46008,28339
32636,45945,28356
32598,45996,28520
32668,45972,28461
32616,45943,28430
32628,45919,28456
32638,45924,28340
32604,45925,28463
32664,45924,28609
32625,45916,28478
32616,45973,28484
32664,45940,28423
32640,45936,28381
32672,45892,28537
32732,45892,28628
32769,45871,28520
32780,45889,28520
32748,45900,28431
32765,45888,28447
32704,45925,28452
32772,45869,28521
32856,45927,28678
32852,45916,28765
32821,45876,28761
32828,45860,28734
32869,45825,28716
32840,45831,28676
32836,45866,28724
32813,45871,28724
32808,45892,28848
32754,45892,28801
32752,45846,28831
32800,45868,28836
32828,45840,28878
32752,45820,28828
32760,45807,28848
32782,45761,28876
32736,45814,28944
32768,45839,28903
32828,45864,28934
32848,45860,28948
32836,45860,28978
32808,45831,29086
32836,45792,29282
32884,45768,29298
32864,45774,29318
32768,45764,29318
32788,45780,29344
32804,45750,29412
32817,45817,29434
32856,45822,29444
32812,45821,29524
32804,45783,29584
32784,45766,29615
32744,45700,29591
32704,45724,29630
32696,45694,29680
32694,45744,29750
32780,45711,29801
32820,45780,29920
32804,45796,30032
32832,45785,30123
32870,45765,30268
32860,45745,30304
32756,45668,30316
32756,45710,30353
32784,45719,30364
32816,45716,30413
32812,45743,30569
32832,45764,30565
32804,45717,30660
32804,45768,30685
32828,45736,30732
32832,45716,30764
32758,45702,30806
32704,45692,30817
32708,45686,30813
32740,45709,30901
32728,45721,30928
32736,45732,30885
32728,45711,30838
32808,45737,30848
32852,45705,30868
32804,45661,30889
32799,45648,30903
32764,45671,30924
32740,45668,30931
32652,45676,30879
32641,45696,30948
32708,45665,31101
32740,45716,31087
32704,45692,31122
32696,45700,31056
32726,45649,30988
32756,45650,30977
32792,45655,31001
32761,45628,30984
32741,45652,30990
32764,45676,30975
32688,45700,31010
32720,45701,31012
32704,45629,30996
32756,45671,30981
32792,45652,30999
32844,45637,30932
32824,45618,30894
32749,45624,30869
32788,45628,30951
32784,45661,30849
32724,45677,30888
32712,45687,30905
32692,45685,30892
32704,45652,30806
32708,45636,31016
32768,45612,30996
32800,45601,30921
32812,45596,30933
32718,45597,30913
32712,45641,30949
32756,45657,30845
32817,45671,30780
32854,45648,30884
32860,45644,30893
32852,45622,30855
32860,45598,30868
32900,45525,30854
32876,45590,30825
32864,45597,30772
32864,45596,30816
32876,45636,30807
32900,45589,30788
32864,45636,30625
32897,45620,30664
32832,45589,30744
32796,45509,30596
32704,45551,30593
32752,45514,30609
32688,45566,30551
32685,45588,30489
32692,45605,30590
32648,45623,30664
32680,45609,30538
32656,45588,30544
32676,45560,30608
32749,45529,30533
32800,45524,30476
32816,45517,30465
32850,45530,30470
32884,45559,30462
32926,45570,30422
32932,45575,30436
32800,45568,30378
32838,45559,30313
32894,45520,30373
32906,45496,30357
32956,45492,30372
32976,45472,30327
32948,45504,30333
32940,45532,30280
32926,45542,30328
32912,45543,30273
32916,45544,30276
32933,45516,30309
32916,45492,30344
32924,45412,30340
32936,45446,30353
32948,45425,30356
32912,45468,30304
32908,45489,30212
32908,45500,30100
32924,45509,30127
32924,45504,30159
32888,45481,30103
32816,45404,30072
32868,45439,30076
32845,45383,30060
32820,45421,30055
32740,45391,30044
32768,45455,30084
32716,45477,30108
32728,45494,30109
32728,45476,30125
32700,45464,30135
32753,45444,30124
32697,45412,30103
32732,45396,30087
32732,45410,30124
32696,45423,30172
32728,45444,30208
32796,45444,30197
32808,45452,30234
32844,45461,30080
32868,45439,30020
32864,45348,30106
32812,45380,30105
32746,45376,30076
32754,45388,30087
32716,45401,30112
32664,45425,30112
32660,45439,30127
32720,45444,30142
32780,45444,30148
32836,45408,30108
32856,45328,30087
32868,45372,30097
32880,45356,30117
32900,45368,30148
32900,45373,30196
32780,45407,30255
32816,45422,30270
32823,45423,30245
32740,45416,30216
32736,45400,30172
32736,45385,30105
32772,45356,30113
32812,45349,30112
32820,45358,30132
32828,45370,30144
32832,45388,30146
32800,45405,30129
32800,45342,30151
32748,45396,30145
32748,45332,30121
32740,45365,30124
32794,45308,30144
32740,45324,30137
32744,45313,30101
32761,45349,30028
32784,45370,30160
32800,45324,30204
32820,45380,30201
32832,45377,30129
32804,45356,30096
32796,45332,30132
32697,45319,30113
32696,45308,30087
32732,45308,30116
32677,45319,30073
32732,45340,30055
32776,45352,30014
32836,45300,30116
32824,45362,30180
32857,45340,30126
32832,45304,30088
32778,45295,30067
32736,45279,30093
32760,45280,30085
32800,45292,30052
32788,45300,29992
32784,45284,29996
32809,45332,30182
32850,45319,30184
32812,45300,30122
32764,45277,30136
32792,45249,30164
32832,45237,30142
32804,45237,30111
32816,45252,30042
32720,45273,29981
32716,45272,29975
32760,45281,29957
32748,45284,29892
32752,45256,29859
32765,45230,29861
32728,45215,29836
32728,45191,29952
32794,45191,29980
32856,45204,29959
32868,45223,30012
32868,45238,29944
32868,45240,29885
32824,45232,29952
32820,45172,29845
32725,45188,29820
32736,45165,29836
32782,45148,29969
32768,45144,29825
32700,45159,29820
32728,45181,29762
32757,45188,29796
32780,45188,29884
32805,45145,29884
32832,45164,29841
32788,45149,29725
32784,45112,29692
32824,45100,29664
32836,45100,29644
32824,45124,29637
32820,45128,29620
32828,45156,29625
32800,45148,29604
32718,45151,29518
32732,45128,29484
32645,45097,29700
32729,45053,29644
32816,45056,29586
32888,45031,29592
32840,45063,29551
32800,45033,29508
32824,45113,29518
32833,45108,29540
32776,45112,29488
32756,45095,29477
32816,45062,29497
32860,45047,29434
32860,45028,29388
32852,45025,29372
32884,45024,29437
32888,45060,29615
32760,45077,29516
32752,45089,29469
32761,45090,29452
32692,45063,29463
32764,45028,29481
32778,45020,29508
32816,45007,29516
32832,45006,29528
32776,45020,29502
32816,45044,29515
32864,45050,29508
32780,45033,29527
32696,45062,29529
32712,45047,29560
32788,44980,29582
32836,44996,29576
32864,44935,29596
32856,44983,29671
32860,44948,29664
32776,45028,29622
32736,44984,29671
32792,45048,29663
32844,45044,29694
32848,45028,29716
32852,45000,29663
32892,44989,29684
32916,44921,29764
32916,44980,29767
32904,44994,29778
32908,45022,29818
32900,45037,29840
32894,44993,29828
32896,45044,29914
32912,45017,30001
32912,45012,30005
32872,44977,30045
32856,44967,30057
32840,44965,29886
32888,44991,29964
32820,45014,30033
32768,45020,30024
32748,45037,30117
32737,45049,30183
32756,45020,30256
32770,44959,30145
32756,44974,30181
32760,44969,30095
32788,44975,30136
32800,44972,30191
32732,44942,30272
32704,45031,30237
32696,45036,30299
32672,45036,30301
32684,45012,30340
32704,44996,30505
32684,44964,30433
32712,44924,30493
32646,44964,30425
32624,44964,30436
32632,45000,30604
32720,45004,30564
32685,44968,30560
32728,45009,30557
32808,45010,30615
32832,44943,30693
32860,44952,30648
32792,44902,30644
32784,44953,30709
32768,44965,30773
32704,44993,30660
32720,45008,30613
32736,44980,30705
32752,45016,30738
32748,44988,30749
32780,44972,30756
32812,44951,30769
32796,44901,30820
32792,44935,30930
32806,44949,30999
32792,44981,30853
32712,44988,30852
32669,45020,30858
32744,45008,30949
32696,44996,30988
32732,44983,30932
32704,44935,30968
32764,44935,31016
32796,44924,31081
32832,44940,31108
32816,44968,31109
32724,44993,31151
32772,45005,31262
32804,44991,31316
32780,44988,31234
32712,44964,31271
32752,44885,31226
32776,44925,31264
32772,44935,31292
32792,44964,31353
32824,44968,31340
32800,45006,31540
32736,45013,31597
32728,44992,31541
32756,44983,31592
32788,44911,31652
32824,44944,31636
32796,44876,31656
32800,44935,31680
32792,44967,31674
32748,44972,31797
32690,44996,31749
32728,44979,31724
32752,45002,31750
32808,44993,31776
32820,44967,31894
32853,44935,31924
32824,44913,31968
32800,44943,31924
32797,44967,31950
32748,44921,31864
32752,45004,31905
32832,45017,31951
32816,45012,31996
32828,44999,32025
32780,44964,32036
32794,44952,32088
32724,44940,32108
32728,44900,32125
32784,44967,32150
32828,44987,32177
32832,44992,32200
32856,45004,32193
32880,44992,32201
32880,44996,32272
32880,44968,32407
32900,44948,32405
32884,44951,32372
32880,44953,32420
32840,44964,32456
32768,44999,32517
32822,45000,32502
32876,45016,32452
32880,45023,32577
32876,44940,32584
32869,44972,32596
32888,44935,32621
32804,44943,32609
32733,44948,32668
32704,44975,32623
32724,44996,32583
32670,45012,32593
32640,45026,32625
32620,45000,32668
32620,44997,32681
32652,44985,32696
32692,44967,32722
32724,44948,32709
32764,44964,32750
32784,44982,32771
32740,45007,32788
32668,45007,32812
32624,44989,32829
32688,45031,32831
32704,45012,32844
32673,44991,32846
32704,44957,32866
32736,44948,32887
32744,44956,32908
32745,44917,32933
32760,44993,32996
32780,45027,32969
32840,45031,32999
32860,45008,33020
32862,45001,33112
32800,44920,33204
32696,44980,33255
32684,44924,33172
32728,44953,33198
32740,44993,33257
32789,45008,33284
32829,45025,33309
32825,44992,33338
32829,45025,33364
32852,45010,33400
32836,44994,33422
32752,44967,33441
32732,44896,33458
32709,44961,33492
32756,44976,33516
32796,45008,33532
32857,45024,33560
32876,45028,33604
32781,45032,33637
32776,45004,33677
32802,44990,33728
32830,44920,33744
32840,44973,33790
32832,44967,33826
32836,44932,33895
32748,45007,33927
32732,45026,33935
32752,45039,33943
32792,45028,33953
32814,45012,33903
32808,45000,33927
32792,44967,33978
32754,44973,34020
32792,44975,34012
32788,44975,34093
32772,45020,34108
32828,45024,34038
32856,45029,34089
32892,45045,34088
32904,45007,34142
32908,45000,34196
32917,44975,34172
32893,44980,34139
32908,44953,34104
32932,44998,34130
32924,45019,34144
32924,45029,34140
32936,44992,34128
32924,45047,34152
32908,45025,34140
32828,44953,34116
32868,44973,34124
32889,44968,34206
32908,44956,34076
32916,45004,34108
32932,45008,34109
32948,45044,34079
32932,45059,34076
32926,45031,34138
32928,45028,34094
32912,45004,34023
32912,45000,34021
32921,44985,34021
32932,44932,34000
32884,45015,33990
32832,45036,33969
32752,45032,33975
32712,45056,33977
32660,45063,33956
32692,45040,33956
32708,45020,33916
32684,44935,33889
32724,44996,33880
32696,44992,33897
32764,45016,33897
32736,45037,33860
32704,45052,33829
32744,45021,33818
32672,45063,33828
32644,45032,33844
32728,45022,33850
32804,44992,33825
32868,44991,33773
32864,44951,33721
32860,45000,33640
32864,45039,33628
32877,45020,33631
32805,45061,33602
32741,45060,33589
32780,45044,33557
32796,45032,33576
32816,45002,33568
32853,44989,33589
32872,44996,33576
32868,45020,33562
32888,45037,33534
32753,45050,33500
32712,45020,33436
32704,45061,33422
32712,45055,33324
32752,45029,33304
32774,44996,33287
32784,44996,33264
32798,44956,33241
32808,45028,33264
32837,45036,33216
32820,45056,33255
32817,45063,33276
32812,45063,33220
32737,45040,33183
32696,45024,33117
32720,45012,33088
32665,45000,33067
32673,44935,33047
32708,45020,33028
32732,45036,33000
32729,45016,32976
32740,45076,32976
32796,45058,32994
32824,45046,32957
32748,45028,32978
32764,44977,33042
32737,45004,33016
32738,44992,32989
32764,44952,32924
32774,45041,32884
32754,45060,32887
32760,45076,32836
32660,45063,32871
32648,45049,32821
32716,45016,32775
32716,45004,32791
32672,45004,32762
32704,44949,32761
32734,45027,32853
32764,45039,32824
32760,45001,32791
32773,45076,32721
32764,45061,32724
32765,44989,32681
32760,45036,32650
32684,44998,32673
32732,45001,32628
32764,45001,32625
32808,45012,32624
32832,45061,32664
32800,45080,32726
32712,45063,32704
32776,45063,32637
32836,45052,32557
32757,45024,32603
32756,45021,32582
32712,45012,32549
32724,45005,32544
32724,45037,32562
32776,45048,32630
32800,45056,32665
32844,45028,32645
32832,45063,32655
32732,45027,32645
32729,45012,32592
32804,45008,32519
32796,45009,32484
32728,44956,32494
32774,45020,32501
32769,45048,32490
32812,45063,32473
32824,45080,32433
32836,45037,32447
32820,45049,32447
32836,45028,32434
32862,45025,32500
32846,44997,32550
32844,45031,32560
32812,45039,32495
32760,45044,32423
32764,45072,32437
32840,45084,32399
32876,45076,32396
32760,45008,32420
32736,45040,32415
32789,45020,32399
32832,45012,32370
32844,45002,32391
32860,45033,32479
32844,45046,32463
32796,45063,32359
32724,45086,32328
32736,45073,32372
32754,45060,32356
32684,45030,32327
32736,45020,32311
32804,44989,32364
32850,45005,32342
32872,44980,32356
32868,45048,32319
32849,45063,32367
32772,45048,32361
32737,45076,32202
32804,45056,32208
32857,45002,32202
32888,45010,32203
32900,45001,32164
32808,45000,32152
32760,45024,32151
32701,45021,32142
32793,45063,32164
32852,45016,32144
32876,45069,32152
32885,45044,32142
32884,44958,32148
32916,45002,32132
32836,44996,32105
32800,45012,32097
32838,45025,32036
32760,45061,32017
32732,45063,32157
32772,45063,32122
32808,45056,32146
32836,45041,32138
32892,45031,32120
32904,44990,32092
32902,44996,32048
32908,44991,31988
32912,45027,31932
32904,45044,31944
32877,45045,31956
32848,45060,31884
32868,44996,31860
32908,45040,31992
32932,45000,32012
32920,44994,31941
32889,44989,31893
32884,44988,31836
32876,45004,31812
32852,45024,31828
32864,45045,31767
32864,45059,31740
32880,45032,31864
32876,44980,31861
32876,44989,31761
32864,44980,31728
32884,44932,31735
32828,44972,31692
32716,45000,31649
32660,45012,31799
32672,45030,31745
32664,44996,31772
32664,45034,31772
32696,45014,31759
32660,44994,31680
32716,44980,31686
32716,44967,31692
32689,44952,31700
32712,44983,31687
32660,44973,31698
32686,45016,31688
32754,45020,31682
32776,45013,31524
32800,44992,31452
32852,44964,31610
32864,44895,31623
32884,44932,31527
32828,44932,31460
32744,44965,31501
32744,44983,31590
32660,44997,31589
32684,45001,31508
32764,44992,31377
32792,44973,31364
32828,44949,31361
32820,44880,31389
32822,44908,31378
32816,44862,31335
32784,44935,31317
32685,44928,31300
32752,44964,31317
32732,44932,31296
32752,44981,31292
32732,44959,31304
32725,44917,31317
32744,44919,31318
32764,44897,31304
32782,44903,31295
32740,44927,31295
32733,44940,31269
32760,44952,31217
32776,44967,31190
32756,44952,31238
32768,44928,31252
32772,44916,31236
32813,44888,31221
32840,44878,31215
32756,44879,31164
32724,44876,31228
32700,44904,31175
32672,44935,31184
32641,44948,31173
32648,44925,31192
32696,44917,31240
32792,44880,31274
32877,44862,31102
32888,44856,31080
32872,44807,31132
32868,44879,31097
32888,44884,31100
32788,44905,31100
32832,44917,31153
32853,44917,31160
32884,44845,31212
32864,44876,31060
32768,44852,30997
32768,44831,31052
32825,44831,30980
32824,44848,30979
32860,44869,30964
32873,44908,30979
32872,44911,31002
32852,44888,31005
32876,44836,31004
32872,44855,30967
32772,44832,30952
32732,44828,30983
32820,44831,30948
32760,44844,31004
32769,44807,30992
32772,44877,30983
32824,44885,30972
32856,44889,31053
32789,44860,31005
32728,44829,30926
32754,44807,30817
32788,44807,30814
32776,44804,30800
32816,44780,30869
32848,44836,30880
32832,44807,30964
32804,44868,30911
32824,44869,30839
32832,44796,30792
32852,44807,30792
32884,44797,30861
32880,44796,30925
32884,44797,30845
32816,44783,30696
32812,44829,30705
32784,44836,30698
32776,44852,30684
32824,44806,30692
32844,44821,30733
32828,44775,30697
32734,44780,30689
32752,44729,30725
32752,44772,30682
32792,44782,30712
32832,44795,30726
32808,44828,30774
32730,44833,30714
32752,44821,30672
32796,44807,30633
32836,44783,30620
32868,44764,30625
32880,44752,30620
32869,44753,30666
32872,44769,30705
32768,44788,30756
32765,44800,30686
32676,44807,30719
32712,44805,30705
32768,44797,30572
32772,44755,30621
32812,44672,30580
32836,44724,30604
32824,44708,30682
32732,44743,30625
32748,44766,30543
32736,44788,30537
32796,44788,30553
32840,44776,30623
32864,44767,30636
32888,44716,30660
32892,44702,30646
32908,44704,30640
32876,44713,30628
32804,44741,30542
32813,44749,30535
32821,44768,30549
32752,44775,30604
32744,44723,30596
32777,44728,30503
32804,44660,30588
32756,44679,30541
32788,44679,30527
32820,44685,30542
32848,44692,30551
32841,44705,30436
32736,44724,30445
32688,44695,30332
32756,44729,30294
32792,44716,30297
32804,44679,30290
32788,44669,30293
32752,44663,30265
