ECG,EDA,RR
33040,18504,31825
33036,18496,31638
33040,18500,31735
33084,18509,31533
33160,18499,31712
33160,18504,31686
33216,18522,31662
33248,18517,31631
33256,18520,31495
33296,18524,31680
33300,18519,31604
33280,18532,31512
33300,18529,31412
33344,18516,31301
33344,18520,31257
33368,18527,31442
33412,18536,31404
33472,18533,31359
33518,18537,31232
33528,18537,31292
33532,18540,31239
33584,18532,31233
33560,18549,31226
33600,18540,31181
33656,18543,31124
33704,18535,31081
33764,18551,31033
33860,18551,31025
33868,18567,31005
33776,18550,31060
33801,18567,31040
33830,18557,31051
33797,18549,30834
33800,18549,30836
33785,18563,30864
33782,18572,30907
33832,18557,30946
33832,18567,30993
33844,18574,31020
33832,18581,30945
33824,18567,30856
33772,18565,30784
33772,18568,30884
33644,18572,30784
33664,18578,30740
33680,18582,30901
33624,18586,30820
33552,18580,30920
33472,18588,30761
33336,18597,30720
33192,18589,30892
33096,18581,30855
33028,18597,30837
33008,18594,30967
32976,18593,30951
32892,18601,30959
32800,18601,30956
32700,18612,30959
32544,18615,30948
32468,18618,30915
32436,18618,30812
32396,18607,30798
32365,18605,30741
32320,18604,30658
32304,18627,30854
32248,18619,30857
32284,18630,30830
32270,18625,30792
32160,18632,30925
32052,18628,30922
31988,18637,30813
31968,18640,30756
31928,18621,30636
31924,18632,30834
31908,18632,30788
31924,18638,30802
31956,18644,30885
32000,18656,30720
31989,18653,30666
31984,18645,30604
31952,18646,30599
31976,18653,30668
32004,18648,30588
32057,18653,30662
32046,18663,30618
31969,18665,30797
32009,18671,30686
32012,18660,30666
32120,18660,30672
32088,18665,30776
32017,18664,30784
32028,18666,30800
31944,18669,30764
31946,18664,30736
32060,18665,30652
32126,18673,30601
32148,18681,30765
32112,18695,30754
32152,18695,30748
32108,18689,30756
32116,18692,30724
32108,18702,30701
32092,18688,30660
32096,18689,30628
32081,18688,30631
32224,18703,30624
32272,18699,30692
32328,18711,30625
32304,18704,30663
32280,18704,30684
32228,18718,30630
32180,18708,30633
32160,18719,30647
32172,18706,30727
32196,18725,30757
32196,18735,30772
32204,18717,30581
32188,18724,30600
32192,18736,30632
32256,18735,30810
32280,18728,30823
32290,18733,30836
32268,18742,30838
32300,18729,30850
32300,18727,30864
32268,18746,30862
32237,18741,30869
32276,18758,30884
32244,18745,30892
32260,18762,30881
32264,18752,30714
32236,18760,30692
32240,18749,30733
32280,18756,30796
32332,18756,30804
32356,18757,30782
32344,18761,30821
32356,18761,30809
32361,18781,30828
32308,18772,30840
32300,18769,30816
32260,18783,30796
32272,18783,31024
32304,18767,31015
32308,18764,31028
32340,18784,31054
32388,18776,31078
32408,18791,31097
32430,18784,31109
32464,18799,31132
32428,18791,31147
32436,18788,31160
32450,18787,31179
32476,18784,31183
32472,18807,31212
32432,18804,31233
32392,18804,31135
32352,18810,31328
32287,18809,31172
32220,18817,31308
32186,18814,31293
32224,18820,31289
32260,18809,31349
32280,18809,31381
32344,18808,31255
32409,18812,31175
32480,18820,31396
32473,18832,31364
32420,18832,31305
32384,18842,31303
32408,18827,31314
32428,18836,31341
32480,18833,31376
32524,18829,31538
32516,18832,31471
32440,18849,31510
32418,18830,31389
32452,18845,31372
32452,18841,31343
32374,18846,31357
32348,18857,31481
32324,18847,31412
32348,18848,31376
32392,18853,31580
32492,18859,31404
32524,18852,31282
32512,18873,31516
32512,18870,31513
32524,18864,31525
32516,18863,31529
32408,18868,31524
32368,18869,31525
32300,18871,31440
32320,18874,31612
32380,18878,31458
32404,18877,31341
32477,18875,31557
32508,18875,31582
32536,18883,31597
32508,18884,31604
32440,18886,31558
32397,18885,31554
32400,18886,31681
32432,18887,31581
32352,18900,31500
32352,18898,31400
32388,18900,31616
32409,18904,31620
32420,18917,31520
32388,18904,31697
32412,18902,31580
32440,18904,31502
32469,18906,31400
32552,18918,31623
32564,18909,31601
32596,18913,31545
32620,18925,31558
32580,18921,31495
32524,18919,31631
32484,18924,31508
32440,18926,31704
32400,18929,31511
32400,18922,31622
32448,18928,31575
32480,18935,31532
32516,18932,31624
32536,18938,31628
32540,18943,31510
32532,18941,31410
32532,18956,31445
32468,18949,31608
32445,18945,31614
32452,18951,31594
32472,18948,31585
32509,18950,31576
32548,18950,31547
32570,18961,31553
32572,18960,31541
32528,18959,31541
32508,18960,31432
32528,18958,31425
32570,18962,31596
32676,18961,31553
32676,18964,31426
32676,18964,31379
32696,18975,31284
32728,18973,31444
32744,18980,31306
32740,18984,31488
32672,18985,31456
32614,18982,31420
32548,18981,31360
32552,18991,31281
32600,18991,31170
32645,18975,31065
32680,18980,31262
32680,18987,31213
32668,19007,31111
32692,18989,31228
32656,18998,31196
32624,18996,31189
32612,18999,31028
32600,19004,30973
32548,18997,30993
32564,19001,30911
32616,19011,30937
32624,19014,31053
32608,19011,30947
32632,19010,30951
32660,19011,30975
32609,19013,30854
32576,19012,30741
32584,19005,30944
32604,19014,30889
32616,19038,30872
32637,19020,30948
32660,19039,30895
32668,19026,30845
32628,19027,30689
32652,19033,30676
32684,19045,30613
32697,19036,30769
32768,19036,30709
32765,19032,30607
32772,19027,30620
32868,19033,30753
32932,19036,30572
32884,19052,30522
32812,19059,30428
32717,19046,30609
32668,19045,30604
32636,19057,30564
32644,19050,30544
32680,19046,30468
32724,19049,30616
32824,19047,30492
32925,19052,30335
32876,19058,30513
32844,19060,30506
32820,19071,30430
32748,19071,30500
32762,19080,30532
32788,19060,30549
32772,19061,30424
32832,19079,30360
32864,19078,30298
32868,19079,30495
32816,19085,30402
32796,19093,30518
32816,19098,30561
32816,19079,30358
32844,19092,30499
32896,19084,30413
32896,19092,30588
32940,19095,30524
32984,19084,30409
32952,19087,30364
32984,19085,30557
32952,19089,30572
32936,19101,30573
32973,19094,30594
32976,19089,30592
32940,19092,30598
32960,19099,30508
32984,19103,30557
33036,19105,30711
33020,19109,30523
32996,19118,30662
33000,19120,30674
32960,19119,30617
32928,19133,30683
32968,19108,30564
32972,19114,30503
33008,19113,30706
32996,19122,30625
33052,19117,30781
33028,19123,30592
33032,19129,30722
32928,19129,30724
32897,19139,30697
32924,19136,30642
32904,19129,30772
32964,19125,30577
32976,19140,30556
33056,19149,30709
33100,19140,30685
33068,19144,30714
33016,19144,30640
32964,19141,30532
32892,19140,30671
32896,19156,30660
32924,19150,30759
32980,19149,30536
32994,19148,30669
32992,19151,30623
32992,19155,30591
33032,19165,30693
33049,19156,30508
33044,19163,30640
33074,19172,30647
32992,19173,30639
32988,19163,30487
33032,19160,30455
33084,19176,30622
33060,19171,30604
33036,19179,30564
32988,19191,30674
32950,19172,30569
32984,19183,30532
32964,19175,30485
33012,19194,30468
33057,19181,30412
33080,19183,30616
33084,19196,30624
33068,19181,30613
33088,19183,30576
33000,19186,30522
32929,19198,30586
32956,19200,30604
32928,19204,30489
32868,19194,30449
32836,19212,30663
32816,19201,30652
32816,19205,30556
32836,19204,30638
32884,19207,30711
32940,19207,30630
32924,19220,30565
32876,19217,30576
32900,19214,30535
32932,19220,30723
32928,19212,30660
32906,19226,30808
32960,19222,30610
33016,19228,30561
33013,19229,30761
32980,19224,30757
32956,19229,30750
32844,19235,30694
32740,19237,30655
32612,19244,30845
32568,19246,30668
32588,19232,30652
32584,19234,30582
32652,19231,30610
32760,19239,30770
32836,19260,30584
32808,19255,30802
32788,19247,30804
32729,19245,30790
32708,19251,30681
32712,19252,30743
32736,19250,30725
32760,19246,30740
32764,19260,30694
32832,19257,30768
32812,19261,30788
32712,19265,30766
32704,19277,30724
32681,19272,30715
32644,19269,30805
32653,19264,30861
32621,19269,30888
32624,19264,30868
32630,19272,30772
32648,19276,30780
32676,19287,30709
32660,19271,30756
32613,19278,30775
32648,19277,30757
32712,19280,30788
32760,19277,30823
32736,19274,30822
32760,19276,30816
32800,19276,30748
32876,19295,30813
33024,19293,30608
33229,19295,30639
33560,19303,30822
33908,19294,30829
34312,19292,30816
34756,19288,30828
35276,19292,30828
35820,19292,30820
36348,19292,30826
36892,19294,30724
37344,19304,30845
37793,19313,30848
38192,19316,30895
38388,19325,30927
38528,19323,30872
38588,19300,30933
38468,19303,30928
38192,19304,30889
37440,19310,30856
35996,19334,30772
34420,19333,30750
33264,19330,30727
32456,19331,30687
31808,19328,30894
31230,19338,30902
30617,19332,30921
30213,19334,30908
30085,19340,30896
30188,19340,30887
30369,19344,30893
30580,19348,30917
30888,19348,30911
31024,19341,30926
31192,19343,31009
31313,19340,31016
31392,19340,31015
31544,19338,30842
31680,19338,30844
31740,19357,30933
31828,19348,30943
31884,19350,30921
31960,19349,30912
31972,19350,30917
31936,19357,31007
31976,19349,30860
32056,19352,30799
32104,19357,30778
32164,19348,30984
32208,19352,30964
32246,19356,30864
32288,19369,31064
32348,19367,31005
32320,19375,31062
32306,19365,31057
32260,19364,31040
32208,19365,30897
32264,19373,30805
32304,19373,31012
32348,19371,30972
32376,19373,31008
32348,19372,31050
32340,19375,30908
32352,19376,30913
32352,19372,30860
32333,19378,31048
32344,19377,31068
32396,19377,30951
32432,19384,31156
32452,19376,31170
32480,19381,31017
32476,19398,30983
32508,19383,30935
32516,19389,30913
32440,19397,31130
32421,19398,31088
32480,19389,31048
32448,19402,30994
32500,19396,31150
32528,19390,31111
32552,19394,30992
32608,19410,30945
32692,19404,30921
32616,19398,30895
32616,19402,30826
32628,19404,31014
32572,19407,30953
32600,19402,30969
32672,19400,30989
32708,19400,30927
32710,19421,30772
32688,19414,30663
32760,19415,30847
32752,19428,30839
32762,19424,30798
32788,19426,30763
32852,19412,30668
32928,19412,30808
32968,19417,30692
32972,19428,30576
33088,19426,30528
33088,19436,30543
33077,19424,30445
33092,19426,30626
33096,19440,30608
33080,19433,30591
33040,19437,30568
33024,19436,30536
33124,19431,30508
33204,19428,30474
33228,19432,30437
33204,19441,30516
33201,19444,30343
33228,19446,30292
33248,19443,30245
33288,19444,30428
33280,19443,30396
33264,19439,30272
33288,19438,30357
33404,19437,30373
33440,19444,30388
33472,19457,30277
33520,19462,30145
33552,19464,30060
33524,19462,30215
33553,19455,30192
33560,19447,30135
33600,19442,30124
33636,19440,30169
33700,19448,30015
33752,19453,29892
33816,19455,30062
33816,19469,30023
33813,19463,30041
33740,19471,29945
33704,19471,29824
33776,19457,29941
33908,19456,29913
34020,19452,29949
34068,19457,29924
34100,19472,29732
34164,19471,29668
34140,19468,29669
34137,19469,29655
34112,19470,29625
34144,19482,29666
34120,19476,29656
34128,19477,29737
34104,19471,29837
34148,19477,29801
34176,19470,29674
34180,19481,29664
34188,19480,29654
34184,19495,29684
34184,19488,29750
34160,19491,29764
34088,19484,29788
34096,19489,29790
34136,19500,29804
34168,19483,29800
34184,19481,29661
34176,19485,29646
34172,19488,29840
33980,19488,29855
33900,19494,29875
33825,19489,29881
33744,19497,29897
33696,19492,29912
33641,19494,29928
33552,19493,29939
33472,19513,29936
33372,19497,29957
33288,19516,29957
33216,19510,29976
33124,19502,29982
32988,19503,29934
32900,19511,30018
32844,19501,29949
32764,19514,29972
32728,19504,29973
32684,19511,29972
32652,19517,29992
32584,19508,30149
32444,19526,30169
32428,19518,30150
32392,19515,30148
32308,19511,30190
32264,19520,30244
32268,19515,30248
32249,19524,30231
32236,19526,30276
32220,19530,30202
32208,19533,30118
32188,19532,30113
32164,19535,30076
32148,19533,30285
32116,19526,30140
32076,19534,30305
32028,19521,30324
32057,19529,30147
32064,19530,30161
32058,19528,30184
32056,19545,30373
32128,19539,30394
32164,19541,30406
32092,19537,30432
32076,19543,30447
32092,19543,30467
32164,19540,30441
32164,19548,30388
32173,19551,30549
32160,19548,30485
32140,19543,30391
32141,19549,30539
32168,19556,30549
32156,19549,30526
32196,19549,30490
32220,19544,30656
32316,19543,30564
32356,19559,30496
32334,19544,30454
32296,19551,30644
32268,19560,30674
32272,19560,30633
32240,19561,30620
32160,19561,30621
32144,19557,30669
32168,19562,30652
32192,19560,30696
32268,19555,30685
32284,19557,30828
32392,19556,30836
32416,19575,30857
32360,19570,30876
32298,19564,30895
32294,19561,30914
32286,19570,30932
32316,19573,30951
32330,19557,30964
32325,19565,30980
32304,19565,30821
32276,19579,30861
32264,19573,30892
32316,19569,30854
32320,19566,31065
32304,19587,31077
32300,19572,31097
32340,19564,31117
32360,19582,31136
32432,19572,31140
32508,19577,31151
32584,19586,31175
32592,19577,31117
32560,19576,31103
32528,19583,31204
32488,19577,31194
32460,19578,31257
32452,19580,31197
32380,19583,31239
32432,19575,31252
32476,19593,31364
32452,19588,31399
32428,19589,31429
32464,19591,31485
32456,19587,31448
32444,19582,31530
32473,19588,31450
32460,19599,31570
32465,19581,31572
32504,19588,31601
32532,19589,31545
32500,19588,31448
32500,19591,31472
32493,19600,31495
32448,19598,31607
32428,19591,31622
32412,19599,31548
32409,19591,31574
32416,19589,31654
32432,19599,31647
32432,19607,31611
32468,19599,31536
32449,19609,31751
32401,19601,31769
32341,19596,31781
32308,19600,31799
32316,19605,31788
32368,19599,31696
32384,19594,31695
32429,19601,31710
32448,19608,31873
32448,19604,31913
32400,19604,31817
32336,19607,31761
32320,19614,31761
32296,19605,31700
32281,19605,31863
32308,19602,31870
32320,19613,31860
32360,19608,31871
32448,19620,31845
32481,19609,31751
32480,19628,31840
32464,19621,31922
32420,19622,31892
32352,19617,31929
32316,19613,31884
32272,19609,31757
32280,19610,31862
32320,19628,31888
32368,19616,31881
32365,19633,31852
32324,19619,31936
32200,19620,31844
32108,19624,31729
32070,19628,31885
32097,19618,31939
32128,19617,31855
32220,19613,31829
32256,19617,31802
32285,19627,31958
32276,19620,31961
32264,19620,31960
32168,19628,31944
32124,19629,31884
32084,19628,31916
32068,19631,31960
32076,19619,32007
32096,19622,31939
32120,19615,31941
32164,19625,31919
32160,19623,32097
32144,19629,32100
32096,19638,31972
32060,19630,31948
32056,19625,31950
32096,19624,32080
32100,19624,32095
32120,19639,32071
32184,19632,32007
32248,19631,32143
32332,19639,32197
32281,19631,32144
32256,19634,32029
32240,19644,32008
32237,19640,32161
32220,19629,32151
32224,19633,32056
32288,19630,32061
32352,19629,32206
32372,19632,32278
32340,19634,32189
32364,19641,32084
32380,19646,32036
32352,19636,31996
32320,19646,32224
32248,19636,32164
32249,19629,32240
32261,19634,32241
32284,19636,32141
32336,19650,32028
32349,19646,32270
32316,19652,32263
32272,19646,32280
32264,19644,32258
32217,19648,32172
32224,19644,32289
32256,19644,32327
32268,19649,32345
32292,19645,32256
32356,19652,32214
32396,19643,32159
32396,19644,32138
32324,19645,32342
32256,19661,32330
32224,19654,32244
32196,19641,32289
32264,19655,32264
32324,19653,32263
32352,19640,32308
32377,19652,32285
32388,19650,32324
32428,19652,32309
32436,19654,32409
32428,19648,32485
32386,19645,32508
32366,19644,32343
32368,19653,32348
32424,19653,32362
32484,19647,32448
32484,19644,32566
32485,19658,32557
32512,19665,32591
32492,19652,32587
32506,19648,32613
32504,19657,32598
32568,19651,32535
32621,19649,32531
32697,19657,32568
32832,19649,32621
32840,19654,32513
32772,19664,32485
32672,19652,32470
32596,19658,32560
32548,19666,32566
32525,19662,32516
32512,19655,32562
32440,19652,32654
32400,19648,32625
32380,19650,32663
32404,19657,32648
32384,19652,32679
32404,19660,32696
32408,19663,32679
32408,19662,32685
32404,19664,32693
32388,19652,32708
32404,19661,32657
32416,19653,32536
32508,19650,32604
32544,19666,32601
32560,19669,32546
32625,19667,32480
32620,19669,32473
32553,19659,32467
32516,19657,32647
32560,19660,32581
32576,19661,32465
32588,19665,32348
32616,19664,32565
32620,19671,32446
32581,19664,32621
32584,19668,32452
32508,19668,32440
32436,19665,32325
32448,19675,32541
32464,19661,32528
32488,19678,32480
32493,19668,32450
32492,19656,32365
32517,19658,32496
32524,19665,32391
32533,19672,32439
32502,19684,32412
32484,19669,32316
32484,19660,32324
32448,19660,32361
32432,19663,32352
32532,19656,32421
32628,19658,32440
32656,19660,32444
32652,19663,32374
32628,19664,32303
32596,19666,32284
32568,19664,32252
32528,19666,32380
32432,19672,32309
32392,19672,32356
32404,19669,32220
32492,19667,32133
32558,19681,32196
32561,19668,32176
32608,19669,32182
32632,19673,32103
32660,19682,32251
32688,19683,32172
32752,19665,32141
32782,19677,32040
32780,19667,31989
32768,19668,31925
32724,19673,31888
32752,19674,31889
32789,19672,31852
32772,19679,31792
32745,19683,31996
32728,19676,31987
32728,19675,31967
32704,19669,31948
32684,19667,31849
32692,19682,31837
32693,19676,31879
32669,19673,31673
32656,19675,31812
32664,19685,31908
32708,19677,31689
32764,19671,31605
32740,19677,31756
32698,19680,31792
32688,19681,31696
32712,19673,31600
32740,19672,31575
32766,19674,31660
32800,19687,31604
32760,19683,31584
32668,19688,31472
32560,19671,31589
32504,19676,31509
32498,19676,31605
32560,19682,31381
32570,19672,31287
32628,19672,31465
32629,19684,31400
32618,19677,31368
32561,19684,31381
32516,19681,31228
32432,19679,31343
32328,19677,31192
32328,19688,31337
32360,19682,31152
32409,19674,31224
32480,19685,31261
32544,19689,31040
32560,19680,30951
32484,19683,31120
32480,19680,31129
32500,19685,30936
32452,19685,30832
32388,19685,30986
32352,19676,30952
32340,19678,31015
32364,19677,30786
32356,19684,30872
32388,19681,30776
32448,19684,30775
32492,19680,30613
32564,19682,30756
32652,19687,30695
32720,19677,30785
32728,19679,30557
32752,19680,30481
32688,19684,30652
32669,19686,30536
32652,19689,30644
32596,19682,30428
32560,19680,30549
32493,19681,30428
32480,19684,30558
32524,19686,30398
32584,19686,30278
32720,19672,30357
32856,19685,30420
33032,19683,30205
33232,19687,30376
33424,19684,30160
33692,19684,30364
34028,19681,30168
34428,19680,30300
34860,19683,30236
35464,19680,30253
36117,19679,30108
36676,19679,30060
37164,19681,30215
37600,19678,30161
37932,19676,30142
38177,19679,30222
38256,19691,30210
38260,19684,30078
38140,19677,29942
37876,19680,30100
37276,19678,30086
36036,19698,30045
34360,19697,29933
33092,19695,30085
32348,19703,30081
31912,19692,30059
31496,19689,29903
31016,19698,29833
30552,19695,29796
30396,19692,29948
30428,19689,29830
30584,19685,29969
30828,19689,29786
31152,19695,29704
31384,19689,29868
31528,19685,29748
31720,19685,29777
31776,19691,29732
31844,19689,29812
31940,19680,29856
31980,19684,29661
32012,19689,29796
32088,19692,29687
32164,19697,29833
32216,19686,29664
32272,19684,29588
32276,19684,29753
32296,19685,29681
32300,19683,29763
32304,19676,29803
32295,19681,29628
32324,19687,29781
32358,19683,29685
32352,19684,29862
32340,19685,29711
32384,19687,29640
32392,19685,29836
32360,19684,29855
32324,19672,29908
32324,19676,29935
32388,19677,29756
32484,19685,29913
32576,19680,29921
32552,19680,30022
32532,19686,29863
32508,19681,29836
32432,19675,30052
32344,19685,30163
32324,19681,30023
32384,19687,29997
32544,19672,30192
32724,19690,30316
32820,19676,30162
32890,19685,30337
32904,19680,30452
32784,19685,30230
32708,19692,30468
32697,19682,30390
32688,19678,30509
32676,19669,30432
32728,19685,30396
32768,19684,30628
32724,19677,30612
32680,19677,30612
32660,19680,30688
32664,19687,30564
32700,19684,30754
32718,19681,30788
32816,19672,30713
32952,19681,30828
33072,19672,30921
33124,19670,30879
33088,19684,30793
33012,19684,30757
32925,19678,30973
32858,19673,30970
32780,19669,31005
32796,19680,30890
32896,19669,31063
33004,19668,31181
33089,19670,31029
33140,19671,31204
33108,19684,31169
33124,19684,31246
33153,19684,31120
33108,19668,31312
33108,19671,31377
33100,19676,31302
33100,19666,31462
33100,19679,31386
33068,19668,31502
33012,19670,31415
33004,19677,31623
33016,19681,31582
33072,19680,31763
33192,19675,31546
33248,19672,31737
33304,19673,31876
33364,19662,31665
33340,19665,31822
33292,19680,31854
33272,19673,32013
33292,19671,31997
33296,19669,32168
33270,19671,31989
33256,19681,32164
33228,19665,32276
33216,19668,32045
33313,19669,32285
33404,19658,32324
33540,19668,32305
33648,19671,32434
33680,19672,32440
33648,19681,32562
33676,19669,32340
33836,19660,32601
34000,19658,32567
34089,19656,32791
34117,19663,32648
34124,19660,32581
34096,19676,32839
34036,19662,32876
33972,19663,33012
33956,19669,32817
33953,19672,33068
33920,19670,32999
33872,19670,33200
33848,19657,33031
33900,19655,33260
34016,19660,33432
34132,19656,33300
34248,19669,33444
34240,19660,33580
34224,19658,33472
34280,19656,33622
34388,19657,33753
34388,19663,33572
34256,19656,33838
34124,19655,34009
33948,19648,33880
33832,19652,34042
33900,19660,34009
33948,19662,34245
33928,19665,34012
33832,19665,34256
33748,19671,34423
33678,19649,34457
33624,19663,34528
33460,19650,34481
33340,19647,34743
33352,19649,34660
33304,19650,34818
33236,19655,34769
33188,19663,34880
33198,19652,35025
33101,19653,35096
32952,19652,35194
32760,19648,35117
32636,19650,35381
32504,19644,35378
32442,19652,35398
32392,19653,35484
32376,19647,35620
32360,19649,35719
32304,19658,35670
32240,19651,35869
32185,19645,35788
32176,19652,36097
32220,19651,35989
32218,19642,36140
32196,19645,36181
32160,19652,36396
32132,19644,36220
32088,19652,36444
32072,19648,36374
32096,19651,36677
32124,19648,36613
32142,19650,36724
32108,19640,36740
32056,19631,36940
31940,19638,36666
31952,19652,36986
32084,19641,36988
32068,19649,37206
32024,19644,37198
31956,19652,37145
31908,19641,37331
31940,19637,37373
31944,19632,37500
31948,19645,37193
31936,19640,37562
31940,19639,37628
31930,19636,37719
31938,19648,37572
31976,19636,37510
31936,19638,37895
31968,19631,37836
31976,19646,38052
31948,19633,37956
31973,19631,38150
31968,19635,38178
31944,19629,38189
32060,19630,38420
32208,19632,38066
32460,19636,38396
32576,19636,38480
32520,19643,38586
32456,19640,38756
32389,19638,38625
32288,19642,38756
32276,19630,38965
32320,19630,38828
32288,19630,38597
32224,19628,38998
32104,19624,38983
32008,19637,39143
32008,19628,38889
32096,19635,38872
32212,19620,39236
32224,19623,39244
32144,19636,39296
32044,19627,39303
32056,19635,39404
32084,19632,39431
32096,19630,39356
32204,19624,39620
32308,19630,39484
32480,19633,39633
32644,19629,39580
32672,19618,39801
32664,19613,39534
32656,19620,39777
32608,19625,39785
32584,19620,39805
32504,19621,39920
32380,19618,39892
32324,19620,39956
32356,19628,40084
32420,19620,40012
32504,19616,40045
32556,19627,40004
32528,19615,39765
32415,19620,40151
32404,19627,40109
32476,19615,40057
32576,19620,40333
32608,19621,40206
32612,19620,39883
32577,19612,40257
32608,19604,40241
32604,19607,40166
32620,19607,40356
32588,19610,40372
32612,19616,40268
32636,19615,40344
32696,19615,40367
32676,19618,40337
32632,19612,40340
32632,19621,40455
32644,19604,40046
32668,19603,40384
32568,19606,40388
32692,19608,40377
32832,19613,40313
32792,19606,40248
32636,19614,40240
32444,19605,40325
32328,19604,40469
32284,19599,40455
32329,19601,40404
32436,19603,40249
32508,19605,39957
32544,19612,40303
32548,19608,40256
32533,19605,40160
32492,19604,40308
32504,19607,40240
32564,19596,40160
32657,19602,39820
32729,19596,40188
32716,19604,40114
32768,19598,40144
32872,19615,40241
32812,19601,40034
32652,19604,40066
32592,19604,40068
32524,19596,39993
32516,19608,39889
32516,19588,39898
32532,19588,39980
32560,19597,39871
32672,19604,39905
32752,19604,39896
32772,19605,39868
32736,19607,39830
32645,19602,39648
32540,19596,39882
32444,19593,39759
32448,19589,39636
32464,19591,39384
32519,19604,39645
32476,19600,39616
32420,19591,39559
32528,19607,39508
32504,19597,39588
32452,19588,39280
32468,19589,39479
32512,19588,39327
32584,19588,39509
32692,19592,39394
32777,19593,39153
32828,19597,39302
32820,19596,39153
32805,19601,39333
32760,19600,39224
32732,19591,38884
32744,19591,39077
32796,19588,39205
32836,19591,39110
32696,19583,38968
32572,19581,38976
32632,19588,38941
32744,19592,38870
32760,19591,38748
32642,19590,38830
32608,19589,38884
32568,19593,38728
32536,19589,38538
32596,19585,38729
32668,19583,38631
32769,19585,38780
32872,19583,38609
32856,19582,38596
32804,19581,38463
32780,19589,38628
32740,19596,38440
32728,19588,38372
32712,19581,38135
32752,19581,38041
32792,19572,38321
32760,19591,38306
32728,19585,38269
32680,19585,38183
32645,19585,38085
32680,19583,38016
32592,19591,38012
32521,19579,38088
32532,19591,38069
32616,19577,37964
32748,19572,37663
32901,19589,37658
32900,19589,37895
32796,19581,37864
32716,19585,37768
32620,19583,37700
32416,19578,37628
32496,19580,37637
32596,19583,37584
32720,19570,37557
32812,19570,37665
32864,19583,37685
32797,19586,37552
32804,19573,37487
32845,19580,37460
32840,19583,37401
32854,19583,37376
32900,19580,37316
32812,19571,37426
32768,19567,37300
32761,19567,36993
32720,19575,37220
32732,19569,37156
32740,19581,37068
32732,19579,37033
32748,19573,37008
32772,19573,36980
32740,19572,37120
32712,19566,37053
32661,19569,36896
32672,19564,36869
32680,19572,36880
32712,19562,36895
32764,19558,36808
32860,19566,36802
32880,19564,36724
32860,19572,36654
32784,19574,36537
32700,19572,36364
32752,19560,36615
32728,19556,36552
32764,19574,36460
32840,19567,36633
32816,19561,36477
32752,19565,36231
32776,19558,36428
32784,19575,36508
32708,19561,36349
32624,19557,36094
32496,19559,36327
32424,19561,36249
32456,19556,36151
32484,19556,36320
32466,19557,36157
32524,19563,36065
32740,19565,36121
32908,19566,36068
32924,19562,35912
32901,19561,36009
32900,19556,36060
32893,19556,35860
32840,19565,35893
32796,19564,35869
32789,19565,35780
32704,19561,35661
32672,19560,35841
32684,19559,35776
32706,19555,35736
32736,19559,35653
32832,19553,35500
32864,19550,35290
32788,19565,35236
32716,19557,35470
32752,19554,35440
32744,19559,35350
32741,19556,35348
32760,19565,35309
32792,19563,35286
32724,19555,35250
32612,19555,35199
32552,19556,35111
32516,19555,35100
32504,19550,35001
32516,19554,34932
32544,19558,35079
32580,19557,35076
32680,19558,34957
32768,19549,34797
32800,19550,34740
32852,19549,34559
32900,19543,34529
32924,19547,34736
32878,19547,34578
32808,19549,34756
32808,19549,34533
32744,19553,34607
32644,19548,34476
32600,19542,34525
32664,19543,34585
32760,19540,34436
32776,19541,34332
32789,19543,34372
32828,19539,34336
32892,19551,34233
32952,19545,34381
32968,19545,34320
32988,19546,34005
33064,19542,34192
33184,19549,34161
33380,19549,34101
33684,19553,33960
34033,19547,33940
34424,19544,33900
34888,19548,34093
35356,19545,34044
35844,19536,33979
36328,19551,33820
36772,19537,33772
37244,19532,33738
37820,19545,33828
38304,19538,33864
38720,19532,33760
39096,19554,33766
39200,19540,33660
39140,19542,33543
38829,19545,33553
38192,19542,33484
36892,19557,33391
35068,19555,33287
33744,19554,33284
32928,19546,33235
32240,19557,33295
31700,19548,33176
31205,19549,33150
30828,19548,33364
30732,19548,33340
30848,19552,33312
30956,19548,33257
31136,19546,33205
31297,19540,33081
31324,19541,33116
31316,19547,33221
31372,19543,33166
31460,19543,33027
31585,19538,32925
31676,19551,32744
31796,19540,32943
31780,19544,32858
31816,19540,32823
31896,19530,32812
31918,19534,32684
31936,19532,32588
31988,19532,32717
31989,19543,32676
32004,19538,32647
31984,19540,32615
31997,19541,32576
32057,19536,32556
32128,19534,32335
32184,19525,32477
32224,19530,32453
32252,19540,32429
32205,19530,32420
32237,19536,32407
32236,19540,32364
32208,19532,32448
32176,19535,32461
32120,19539,32423
32112,19524,32384
32200,19526,32340
32208,19538,32438
32212,19527,32388
32336,19524,32244
32384,19540,32236
32344,19540,32340
32376,19544,32334
32448,19527,32309
32576,19524,32333
32608,19538,32304
32572,19526,32285
32572,19530,32263
32568,19524,32209
32612,19525,32295
32608,19528,32359
32508,19528,32361
32505,19534,32324
32496,19527,32132
32465,19534,32212
32480,19526,32200
32516,19530,32181
32528,19531,32156
32576,19526,32024
32668,19527,32161
32784,19532,32068
32812,19524,31860
32780,19533,32018
32772,19528,31998
32712,19524,32024
32734,19524,31791
32817,19521,31944
32952,19521,31876
33064,19524,31917
33028,19522,31899
32956,19525,31802
32976,19524,31634
33060,19530,31771
33060,19524,31768
33096,19517,31717
33132,19521,31614
33092,19518,31740
33049,19521,31688
32984,19522,31517
32960,19524,31398
32928,19530,31373
32904,19528,31570
32988,19531,31513
33093,19525,31414
33216,19521,31564
33300,19525,31375
33388,19526,31266
33430,19524,31413
33464,19524,31383
33540,19524,31304
33556,19528,31401
33552,19531,31245
33540,19529,31097
33500,19517,31292
33440,19519,31178
33497,19513,31331
33556,19509,31100
33600,19512,31076
33620,19512,30972
33520,19509,31172
33460,19519,31128
33464,19516,31001
33508,19514,31168
33552,19516,30988
33608,19513,30921
33676,19508,30828
33640,19504,31006
33593,19504,30944
33556,19517,30844
33660,19527,30996
33688,19519,30964
33728,19516,30833
33748,19527,30702
33772,19535,30617
33824,19511,30780
33908,19518,30764
34008,19515,30702
34124,19517,30572
34216,19517,30669
34252,19524,30613
34280,19512,30688
34272,19514,30444
34244,19515,30565
34236,19510,30501
34096,19525,30445
34012,19513,30524
33984,19507,30329
33920,19506,30296
33904,19520,30233
33980,19510,30392
34064,19512,30392
34092,19524,30152
34072,19523,30298
33996,19508,30332
33920,19509,30108
33908,19500,30188
33892,19515,30316
33852,19508,30047
33812,19502,30189
33672,19513,30272
33472,19509,30031
33288,19508,30182
33129,19515,30162
32992,19510,30202
32892,19500,30068
32824,19501,29994
32796,19508,30105
32788,19500,30079
32824,19502,30004
32740,19508,29932
32644,19508,30076
32616,19503,30140
32632,19506,29940
32560,19502,30071
32504,19508,29966
32416,19500,30042
32340,19500,29882
32292,19500,30013
32312,19492,30094
32260,19502,29877
32232,19501,30027
32140,19508,29921
32112,19513,30054
32084,19516,29816
32042,19492,30000
32020,19494,29911
32008,19504,29839
31988,19502,29943
32008,19508,29919
32096,19497,29946
32140,19503,29844
32168,19497,29948
32141,19502,29759
32100,19501,29904
32064,19490,29885
32000,19494,29788
31980,19496,29728
31996,19501,29892
32056,19507,29932
32104,19503,29737
32136,19495,29885
32188,19500,29770
32204,19494,29912
32168,19493,29756
32192,19497,29672
32208,19496,29864
32240,19489,29780
32340,19490,29860
32416,19497,29723
32468,19495,29860
32444,19493,29924
32342,19493,29875
32221,19496,29792
32076,19490,29828
31988,19495,29756
31960,19488,29877
32002,19484,29868
32084,19492,29736
32140,19484,29894
32250,19487,29967
32284,19490,29724
32308,19504,29892
32264,19492,29856
32284,19494,29801
32260,19483,29889
32276,19481,29783
32334,19490,29957
32404,19488,29838
32444,19489,29709
32466,19496,29896
32440,19495,29804
32356,19495,29897
32256,19497,29865
32168,19493,29732
32118,19493,29924
32160,19490,29813
32212,19495,29888
32193,19489,29761
32144,19497,29957
32140,19496,29938
32160,19485,29848
32180,19498,29998
32232,19495,29893
32276,19478,30021
32281,19489,29860
32204,19488,30003
32232,19492,29999
32236,19491,30040
32180,19477,30079
32228,19495,29956
32212,19487,30109
32145,19488,30098
32141,19482,30092
32160,19484,30150
32132,19488,30022
32126,19489,29985
32160,19477,30188
32124,19475,30200
32168,19481,30095
32196,19486,30249
32204,19478,30109
32176,19485,30255
32180,19481,30244
32088,19478,30180
32000,19487,30236
31956,19470,30332
31944,19476,30204
31944,19480,30145
31944,19479,30337
31936,19481,30313
31968,19490,30320
31984,19479,30372
32086,19480,30380
32108,19477,30298
32052,19478,30172
32004,19471,30360
31956,19469,30373
31952,19474,30408
31988,19472,30181
32007,19481,30334
31992,19480,30390
31944,19477,30196
31968,19480,30360
32020,19480,30263
32052,19471,30332
32120,19478,30180
32160,19472,30341
32225,19462,30417
32212,19473,30214
32160,19480,30185
32108,19472,30335
32041,19471,30308
32060,19478,30306
32080,19478,30128
32088,19467,30308
32124,19463,30245
32156,19463,30381
32136,19460,30220
32144,19463,30136
32180,19468,30319
32156,19466,30310
32128,19469,30264
32124,19477,30202
32148,19468,30342
32192,19463,30246
32212,19476,30150
32204,19478,30128
32224,19463,30068
32232,19468,30142
32269,19464,30229
32276,19466,30142
32236,19467,30185
32212,19465,30178
32224,19471,30062
32278,19463,29998
32381,19462,30160
32433,19477,30130
32484,19456,30084
32500,19463,30191
32500,19463,30108
32428,19463,29959
32424,19468,29892
32404,19463,29918
32392,19463,29858
32332,19468,29856
32332,19452,30023
32392,19452,30000
32420,19456,29985
32416,19460,29972
32440,19463,29948
32488,19473,29926
32504,19461,29919
32552,19471,29905
32544,19460,29894
32548,19453,29834
32536,19456,29781
32525,19463,29766
32528,19463,29900
32580,19447,29816
32664,19458,29820
32714,19473,29772
32784,19469,29650
32800,19463,29648
32796,19461,29651
32784,19448,29662
32768,19463,29632
32749,19467,29608
32692,19460,29764
32702,19455,29756
32692,19464,29745
32696,19468,29660
32756,19460,29810
32800,19457,29772
32800,19460,29608
32820,19455,29620
32804,19451,29607
32848,19468,29604
32908,19461,29766
32936,19463,29724
32964,19457,29689
32896,19456,29809
32832,19452,29784
32824,19452,29824
32788,19463,29757
32820,19460,29676
32869,19461,29629
32920,19455,29573
32944,19457,29623
32980,19456,29766
32968,19454,29768
32956,19449,29787
32940,19456,29752
32940,19463,29708
32904,19457,29789
32896,19453,29838
32924,19447,29825
32980,19447,29734
32944,19458,29680
32920,19453,29620
32924,19455,29766
33028,19457,29780
33068,19455,29788
33052,19460,29784
33020,19455,29754
33064,19452,29769
33056,19454,29769
33092,19455,29665
33129,19459,29795
33160,19457,29793
33164,19457,29732
33116,19463,29864
33164,19461,29798
33092,19457,29677
33072,19453,29660
33112,19454,29820
33166,19449,29828
33156,19457,29809
33192,19453,29724
33204,19453,29892
33177,19456,29780
33128,19455,29690
33132,19454,29661
33108,19458,29821
33072,19444,29732
33120,19444,29897
33128,19446,29734
33124,19439,29664
33109,19437,29856
33112,19445,29780
33072,19450,29828
32996,19444,29688
32900,19449,29847
32916,19452,29736
32980,19455,29906
33052,19445,29853
33112,19432,29775
33156,19433,29788
33148,19444,29713
33148,19441,29703
33100,19447,29854
33064,19448,29830
33064,19445,29756
33084,19444,29896
33076,19440,29703
33056,19455,29828
33068,19438,29759
33068,19436,29870
33072,19438,29812
33068,19441,29660
32992,19442,29633
32900,19447,29792
32836,19440,29753
32813,19453,29815
32800,19446,29756
32820,19449,29616
32916,19429,29738
32996,19429,29737
33018,19440,29660
33044,19433,29804
33056,19438,29604
33052,19439,29746
33044,19445,29737
33020,19432,29640
33016,19436,29785
32992,19452,29751
32972,19434,29689
32956,19434,29808
32976,19432,29745
32984,19445,29628
32961,19430,29604
33001,19449,29612
32988,19435,29598
32953,19437,29793
32912,19434,29776
32944,19439,29693
32980,19433,29866
32984,19426,29655
33014,19434,29622
33008,19430,29816
33020,19428,29796
33028,19438,29709
33164,19436,29836
33388,19432,29701
33665,19432,29641
34040,19432,29820
34536,19436,29860
35024,19438,29752
35508,19416,29646
36108,19414,29844
36752,19416,29791
37284,19420,29864
37712,19425,29856
38148,19426,29720
38564,19432,29843
38858,19439,29860
39064,19425,29814
39196,19436,29868
39164,19426,29733
38900,19429,29703
38250,19440,29885
36892,19428,29932
35196,19428,29775
33905,19440,29732
33072,19446,29932
32420,19429,29845
31788,19433,29907
31204,19426,29788
30732,19421,29982
30565,19423,29876
30596,19424,30004
30728,19425,30069
30816,19429,29901
30976,19436,29949
31052,19425,30066
31176,19428,30009
31260,19416,30144
31448,19424,29966
31716,19420,29959
31937,19425,29969
32032,19414,30125
32080,19425,30119
32084,19424,30041
32048,19419,30226
32060,19424,30050
32100,19427,30177
32069,19410,30236
32112,19419,30080
32132,19423,30077
32180,19412,30212
32208,19436,30229
32249,19424,30153
32312,19409,30303
32392,19413,30228
32460,19416,30149
32440,19418,30304
32468,19404,30188
32520,19414,30369
32520,19412,30193
32552,19408,30361
32604,19420,30244
32664,19407,30385
32620,19420,30455
32588,19409,30456
32568,19413,30329
32592,19404,30312
32632,19405,30260
32668,19401,30480
32688,19412,30497
32692,19401,30412
32728,19413,30594
32800,19414,30608
32828,19419,30437
32768,19405,30598
32776,19401,30619
32800,19400,30620
32796,19401,30600
32845,19399,30525
32924,19402,30705
32884,19397,30608
32944,19404,30532
32976,19407,30636
32988,19420,30644
32996,19401,30540
33004,19400,30697
32984,19402,30607
32960,19395,30471
32912,19401,30632
32896,19407,30541
32901,19413,30607
32936,19412,30644
32952,19412,30527
32956,19401,30452
33012,19396,30553
33050,19402,30360
33112,19405,30356
33148,19396,30340
33128,19386,30352
33112,19394,30349
33048,19398,30500
33060,19405,30476
33088,19402,30469
33020,19408,30431
32964,19402,30398
33004,19405,30372
33068,19401,30400
33076,19399,30428
33101,19396,30277
33100,19398,30208
33132,19389,30160
33176,19396,30207
33249,19395,30276
33296,19397,30260
33320,19399,30241
33312,19397,30200
33304,19396,30160
33320,19404,30084
33348,19388,30206
33388,19385,29992
33388,19393,29916
33452,19399,30084
33532,19404,30042
33552,19396,30101
33570,19399,29865
33530,19399,29796
33544,19385,29960
33608,19388,29855
33641,19395,29972
33668,19396,29896
33652,19404,29901
33676,19395,29703
33649,19405,29616
33585,19402,29792
33568,19388,29644
33600,19402,29796
33616,19394,29700
33673,19401,29540
33773,19385,29680
33884,19386,29576
33984,19397,29678
34040,19391,29564
33992,19390,29470
33908,19396,29399
33933,19391,29565
33942,19385,29527
33928,19391,29456
33940,19394,29537
33960,19394,29348
33988,19392,29349
34008,19397,29504
34040,19401,29477
34056,19393,29496
34040,19394,29384
34053,19390,29540
34072,19388,29336
34044,19401,29322
34000,19386,29300
33956,19383,29476
33920,19381,29452
33884,19390,29535
33840,19396,29345
33772,19407,29488
33700,19392,29415
33676,19396,29548
33616,19398,29375
33501,19393,29536
33390,19397,29477
33296,19383,29556
33248,19385,29388
33201,19389,29566
33105,19387,29476
32996,19401,29636
32816,19403,29437
32721,19397,29622
32672,19389,29532
32528,19388,29700
32486,19393,29624
32432,19386,29529
32377,19388,29676
32384,19395,29676
32348,19396,29588
32284,19408,29716
32188,19397,29575
32096,19391,29712
31984,19391,29732
31884,19385,29717
31848,19389,29628
31856,19388,29780
31885,19389,29673
31950,19391,29574
31976,19389,29602
31976,19392,29772
31976,19397,29786
32008,19400,29785
32008,19397,29764
32052,19398,29776
32065,19390,29831
32072,19388,29695
32032,19396,29645
32032,19402,29812
32056,19396,29781
32088,19401,29876
32052,19400,29773
31956,19400,29657
31876,19397,29839
31832,19397,29840
31800,19390,29740
31884,19397,29924
31884,19390,29806
31936,19414,29680
31988,19408,29874
32056,19401,29769
32080,19405,29904
32112,19411,29708
32160,19413,29884
32204,19404,29828
32258,19409,29879
32316,19392,29956
32332,19401,29948
32336,19397,29780
32309,19404,29769
32276,19412,29914
32296,19402,29860
32225,19396,30017
32244,19411,29998
32252,19398,30047
32252,19413,29980
32260,19402,29873
32288,19406,29855
32332,19404,30029
32340,19398,30052
32348,19420,30064
32344,19408,29952
32380,19412,29905
32416,19405,30104
32444,19406,30073
32392,19408,30176
32436,19401,29996
32456,19402,29969
32472,19408,30157
32485,19417,30120
32480,19408,30132
32476,19412,30196
32476,19412,30253
32472,19424,30252
32470,19416,30250
32520,19415,30258
32568,19413,30295
32601,19415,30284
32697,19413,30324
32752,19423,30321
32720,19428,30320
32680,19428,30356
32592,19424,30349
32540,19425,30233
32488,19431,30228
32444,19416,30319
32464,19414,30392
32468,19414,30428
32484,19424,30325
32542,19431,30289
32588,19431,30373
32606,19436,30471
32608,19428,30384
32596,19429,30376
32532,19422,30428
32516,19416,30425
32528,19433,30421
32640,19421,30454
32700,19413,30479
32708,19428,30489
32621,19425,30520
32572,19440,30526
32540,19433,30348
32524,19432,30350
32484,19423,30404
32484,19428,30414
32548,19420,30428
32556,19425,30433
32548,19431,30440
32526,19427,30404
32568,19436,30383
32522,19444,30412
32476,19441,30589
32480,19431,30602
32428,19431,30596
32408,19436,30607
32388,19433,30430
32392,19433,30423
32480,19441,30417
32524,19439,30425
32568,19452,30634
32552,19437,30623
32444,19433,30645
32388,19436,30651
32392,19435,30644
32460,19432,30548
32548,19433,30660
32488,19431,30749
32345,19441,30640
32228,19444,30565
32156,19448,30574
32176,19444,30549
32197,19444,30508
32216,19461,30703
32256,19452,30700
32292,19441,30605
32300,19455,30645
32272,19460,30626
32296,19455,30640
32364,19457,30620
32412,19463,30726
32456,19463,30700
32416,19465,30612
32440,19470,30517
32440,19454,30437
32432,19448,30412
32420,19448,30460
32520,19453,30437
32596,19452,30493
32568,19452,30428
32524,19460,30365
32464,19462,30260
32396,19462,30431
32396,19461,30420
32336,19457,30388
32272,19458,30343
32336,19461,30308
32448,19463,30201
32488,19477,30204
32576,19477,30258
32673,19479,30177
32668,19478,30257
32588,19477,30232
32532,19478,30156
32516,19473,29999
32528,19472,29949
32460,19474,29897
32480,19474,29861
32604,19484,29842
32696,19479,29868
32816,19477,29838
32832,19486,29847
32736,19480,29928
32556,19485,29826
32452,19488,29767
32341,19481,29774
32260,19478,29853
32244,19480,29823
32272,19490,29664
32316,19492,29552
32396,19495,29710
32432,19497,29684
32468,19500,29573
32508,19497,29529
32536,19497,29578
32528,19493,29575
32592,19489,29564
32614,19506,29544
32660,19503,29509
32692,19492,29503
32656,19493,29492
32684,19496,29372
32717,19500,29501
32716,19502,29299
32720,19509,29260
32696,19493,29420
32664,19505,29369
32696,19500,29296
32748,19511,29444
32717,19500,29338
32656,19506,29202
32552,19518,29368
32476,19505,29384
32448,19524,29271
32468,19506,29181
32482,19500,29182
32506,19517,29356
32544,19509,29325
32620,19527,29234
32648,19513,29282
32628,19513,29340
32636,19522,29413
32592,19525,29349
32564,19520,29239
32628,19520,29224
32696,19516,29204
32744,19521,29216
32744,19528,29391
32776,19520,29415
32672,19530,29388
32562,19535,29413
32520,19536,29501
32576,19527,29484
32608,19526,29428
32580,19521,29367
32560,19531,29324
32580,19532,29304
32601,19540,29315
32608,19525,29502
32652,19534,29508
32641,19541,29533
32652,19551,29539
32676,19540,29548
32652,19537,29564
32672,19542,29572
32768,19548,29572
32853,19530,29556
32952,19529,29514
33020,19556,29596
32948,19544,29654
32848,19553,29609
32808,19550,29556
32824,19551,29588
32893,19549,29644
32902,19548,29646
32865,19553,29504
32808,19548,29504
32777,19553,29527
32824,19556,29543
32836,19557,29625
32896,19561,29689
32920,19560,29745
32844,19561,29776
32748,19566,29764
32722,19563,29793
32656,19562,29787
32589,19553,29703
32584,19565,29636
32609,19562,29703
32660,19564,29823
32728,19567,29831
32766,19567,29830
32728,19578,29745
32720,19570,29677
32684,19581,29701
32612,19572,29825
32580,19575,29812
32559,19568,29821
32580,19582,29820
32568,19579,29883
32648,19573,29828
32668,19577,29770
32577,19578,29847
32513,19593,29853
32432,19576,29702
32350,19572,29676
32296,19572,29703
32316,19589,29697
32404,19585,29780
32520,19585,29912
32621,19587,29958
32624,19589,29905
32532,19591,29804
32480,19598,29844
32432,19591,29852
32444,19591,29956
32532,19588,30018
32572,19589,30020
32540,19591,29956
32536,19597,29977
32584,19593,30020
32512,19615,30039
32476,19611,30052
32500,19597,30063
32560,19614,29917
32612,19598,29951
32600,19610,29972
32628,19596,30024
32672,19610,30228
32624,19613,30241
32600,19615,30150
32656,19605,30130
32709,19609,30145
32680,19621,30252
32720,19609,30298
32776,19610,30333
32768,19621,30357
32756,19607,30388
32764,19612,30423
32768,19627,30433
32798,19624,30453
32880,19623,30486
33040,19623,30330
33228,19615,30348
33476,19625,30444
33920,19620,30468
34400,19628,30604
34912,19613,30552
35480,19621,30628
36061,19636,30705
36612,19632,30751
37116,19641,30766
37612,19621,30601
38070,19639,30696
38496,19625,30761
38776,19628,30904
38932,19621,30916
38954,19623,31012
38784,19629,30972
38392,19637,30947
37516,19654,30981
35908,19659,30948
34464,19654,31036
33516,19653,31022
32800,19661,31141
32156,19653,31160
31572,19645,31118
31044,19652,31146
30642,19655,31296
30444,19654,31333
30504,19660,31172
30604,19660,31189
30820,19666,31361
31012,19664,31468
31172,19662,31388
31356,19657,31432
31552,19657,31487
31676,19659,31529
31841,19660,31626
31946,19660,31690
31948,19673,31528
31888,19668,31671
31844,19666,31482
31820,19675,31589
31848,19665,31726
31936,19663,31836
32040,19661,31864
32088,19679,31888
32140,19676,31745
32192,19677,31869
32168,19672,31895
32128,19678,31893
32084,19680,31898
32060,19682,31933
32154,19676,32046
32276,19685,32068
32356,19687,32086
32428,19678,32135
32464,19678,32165
32476,19679,32186
32532,19681,31997
32465,19683,32036
32316,19689,32290
32201,19702,32128
32248,19686,32161
32357,19682,32263
32388,19685,32340
32356,19689,32428
32376,19694,32429
32405,19705,32493
32469,19708,32501
32530,19695,32556
32520,19695,32608
32457,19692,32718
32488,19707,32716
32596,19692,32892
32644,19701,32844
32620,19696,32748
32568,19702,32773
32532,19708,32810
32554,19715,32894
32608,19717,33048
32644,19709,33064
32588,19707,33072
32508,19706,33134
32494,19706,33109
32552,19700,32998
32600,19709,33127
32740,19714,33136
32825,19722,33071
32784,19726,33088
32724,19726,33156
32580,19717,33149
32452,19717,33100
32484,19720,33052
32532,19714,33081
32620,19725,33158
32741,19725,33124
32892,19726,33183
33004,19721,33305
32977,19727,33324
32880,19730,33342
32780,19730,33365
32752,19733,33381
32808,19724,33393
32864,19736,33300
32876,19732,33561
32952,19741,33580
33052,19729,33516
33065,19729,33639
33012,19743,33700
32864,19741,33652
32832,19757,33745
32888,19751,33768
33016,19755,33657
33148,19747,33658
33228,19745,33560
33233,19740,33574
33294,19743,33616
33340,19758,33876
33284,19759,33880
33156,19747,33932
33084,19755,33940
33104,19749,33968
33168,19754,33988
33236,19752,34021
33424,19753,34020
33560,19750,33889
33600,19767,33969
33480,19761,34049
33400,19762,34047
33352,19760,34153
33276,19765,34196
33287,19772,34266
33421,19756,34297
33544,19764,34329
33596,19754,34329
33632,19770,34272
33740,19771,34176
33728,19763,34263
33633,19772,34324
33600,19783,34342
33688,19783,34332
33752,19779,34282
33864,19780,34308
34012,19775,34407
34096,19777,34361
34128,19779,34482
34104,19781,34524
34052,19784,34412
34080,19783,34492
34125,19786,34640
34080,19780,34724
34020,19779,34670
34156,19781,34706
34268,19775,34732
34240,19772,34658
34192,19783,34564
34176,19785,34766
34068,19788,34812
33912,19790,34704
33840,19794,34984
33796,19786,34951
33732,19804,35151
33704,19793,35168
33665,19794,35224
33588,19797,35289
33520,19802,35328
33497,19799,35292
33472,19804,35300
33480,19814,35220
33400,19798,35420
33124,19797,35492
32848,19801,35556
32700,19792,35535
32698,19796,35559
32632,19803,35505
32616,19807,35421
32620,19804,35658
32656,19801,35719
32704,19820,35714
32672,19812,35653
32568,19821,35743
32404,19807,35812
32360,19807,35973
32368,19814,35817
32504,19822,35856
32588,19810,35862
32476,19813,35996
32380,19821,35906
32352,19825,36079
32236,19830,36000
32180,19831,36071
32176,19823,36069
32216,19817,36150
32326,19828,36196
32420,19812,36326
32492,19821,36256
32524,19821,36324
32450,19830,36388
32322,19836,36473
32280,19824,36476
32220,19830,36439
32048,19838,36404
31892,19826,36416
31876,19828,36476
31856,19830,36492
31936,19835,36564
32060,19845,36601
32132,19836,36536
32224,19845,36521
32284,19838,36473
32256,19847,36422
32340,19846,36438
32396,19847,36468
32368,19837,36488
32324,19837,36813
32356,19839,36791
32341,19840,36805
32220,19855,36824
32184,19855,36865
32148,19853,37017
32168,19852,37093
32184,19860,37068
32244,19845,37136
32332,19841,37192
32364,19842,37178
32414,19855,37192
32464,19859,37063
32592,19857,37084
32714,19860,37162
32725,19850,37024
32644,19868,36964
32568,19866,37239
32576,19864,37228
32648,19860,37214
32640,19853,37144
32572,19855,37284
32488,19850,37420
32524,19861,37408
32556,19861,37367
32560,19865,37406
32653,19865,37288
32724,19860,37108
32748,19856,37405
32704,19858,37413
32676,19858,37397
32744,19862,37400
32788,19865,37338
32656,19865,37454
32485,19868,37524
32340,19872,37484
32268,19878,37420
32252,19885,37359
32276,19877,37431
32472,19874,37349
32696,19874,37324
32792,19873,37232
32832,19876,37284
32764,19874,37264
32580,19874,37289
32404,19877,37446
32332,19874,37239
32408,19876,37549
32424,19873,37564
32424,19875,37502
32416,19880,37420
32492,19883,37543
32540,19879,37662
32568,19881,37652
32648,19889,37589
32620,19888,37601
32528,19895,37620
32480,19894,37607
32400,19893,37488
32312,19888,37463
32336,19893,37223
32416,19888,37508
32484,19896,37508
32600,19903,37511
32688,19894,37492
32713,19894,37460
32664,19900,37461
32560,19889,37324
32365,19896,37548
32273,19893,37472
32280,19893,37383
32368,19896,37341
32457,19900,37308
32516,19913,37240
32520,19917,37068
32560,19907,37057
32514,19899,37076
32378,19910,37220
32320,19896,37223
32328,19896,37263
32384,19907,37236
32344,19907,37156
32384,19911,37025
32520,19913,37060
32556,19917,37116
32620,19925,36904
32620,19910,36869
32524,19910,37025
32476,19908,36997
32476,19915,37040
32548,19916,36959
32524,19917,36968
32564,19913,37023
32620,19914,37029
32652,19916,37060
32648,19917,37018
32560,19916,36965
32452,19927,36933
32396,19922,36964
32352,19918,36815
32428,19918,36735
32448,19921,36761
32524,19931,36828
32644,19923,36775
32696,19924,36573
32716,19931,36647
32756,19924,36644
32772,19922,36641
32768,19927,36615
32912,19927,36560
32924,19925,36576
32796,19927,36505
32753,19940,36220
32696,19943,36469
32585,19935,36168
32440,19941,36140
32344,19938,36324
32244,19938,36298
32330,19937,36271
32552,19933,36384
32688,19943,36324
32732,19942,36287
32704,19935,36220
32584,19940,36205
32513,19953,36321
32442,19944,36173
32360,19941,36193
32300,19934,36165
32349,19936,35970
32404,19937,35982
32444,19947,35948
32538,19940,35976
32676,19948,35988
32813,19951,35942
32900,19947,35876
32824,19952,35824
32724,19950,35901
32660,19955,35797
32696,19953,35782
32692,19946,35787
32680,19959,35684
32696,19959,35774
32688,19960,35740
32656,19966,35733
32628,19967,35736
32652,19965,35682
32684,19958,35679
32692,19957,35653
32702,19956,35640
32620,19952,35581
32592,19964,35650
32720,19967,35662
32840,19962,35606
32836,19969,35367
32840,19974,35281
32796,19963,35264
32712,19963,35276
32649,19970,35484
32672,19967,35460
32720,19962,35202
32788,19970,35308
32820,19959,35177
32864,19962,35342
32884,19964,35119
32876,19972,35109
32872,19976,35079
32852,19973,35175
32824,19974,35216
32808,19971,35181
32924,19968,35175
32960,19968,35182
32962,19976,35266
33044,19975,35258
32960,19981,35119
32924,19975,35042
32980,19989,35044
32928,19984,35112
32896,19974,35087
32901,19976,35088
32876,19970,35049
32896,19975,35038
32896,19975,34959
32900,19983,34967
32972,19980,34939
32928,19985,34933
32864,19987,34865
32805,19982,34879
32844,19996,34845
32796,19992,34806
32740,19989,34782
32728,19984,34736
32733,19984,34609
32852,19986,34565
32964,20005,34536
33076,19994,34624
33172,19985,34505
33120,19990,34528
33021,19994,34560
32960,19991,34502
32872,19989,34364
32901,19992,34415
32904,19988,34402
32848,19993,34396
32864,20006,34407
32960,20002,34372
33056,20005,34204
33128,20004,34401
33145,20004,34285
33100,19997,34228
33088,19989,34204
33040,19992,34196
33012,19996,34152
32992,20001,34159
32876,20004,34208
32788,20007,34207
32832,20009,34193
32780,20004,34069
32740,20006,33953
32778,20008,33980
32824,20004,33948
32860,20009,33949
32916,20004,33866
32984,20004,33695
33020,20008,33796
33064,20010,33830
33108,20027,33841
33168,20012,33880
33108,20009,33924
33000,20012,33862
32896,20010,33712
32848,20012,33664
32920,20020,33623
33076,20015,33671
33124,20016,33765
33080,20020,33668
33056,20015,33524
33032,20023,33388
32944,20012,33596
32856,20018,33556
32829,20022,33452
32908,20008,33561
32992,20007,33551
33092,20024,33523
33316,20030,33508
33536,20022,33437
33824,20023,33468
34176,20028,33415
34708,20022,33366
35236,20013,33268
35748,20012,33184
36324,20012,33156
36828,20009,33092
37360,20016,33057
37925,20020,33041
38436,20021,33005
38940,20023,32958
39312,20039,32957
39604,20014,32993
39816,20017,33094
39700,20020,32945
39360,20033,32887
38684,20032,32929
37316,20038,32881
35584,20042,32876
34292,20045,32842
33424,20056,32824
32692,20046,32805
31984,20032,32758
31244,20037,32668
30672,20043,32680
30520,20032,32608
30576,20037,32556
30768,20039,32560
31037,20044,32580
31368,20040,32508
31500,20037,32468
31504,20038,32505
31436,20039,32444
31424,20039,32452
31585,20036,32464
31772,20036,32454
31904,20038,32421
31944,20041,32405
31999,20044,32372
32148,20050,32348
32332,20044,32092
32452,20042,32184
32412,20039,32152
32320,20041,32212
32248,20048,32260
32136,20053,32266
32076,20045,32217
32136,20047,32225
32164,20056,32255
32308,20058,32239
32380,20054,32064
32392,20050,32120
32396,20052,32127
32368,20055,31897
32308,20047,31972
32340,20044,31956
32376,20055,31861
32420,20056,31871
32456,20055,31926
32528,20052,31908
32484,20052,31921
32464,20058,31906
32512,20046,31915
32600,20051,31892
32580,20067,31888
32584,20063,31887
32592,20053,31878
32608,20057,31865
32668,20053,31860
32708,20062,31856
32772,20068,31844
32833,20062,31820
32789,20064,31869
32756,20061,31960
32692,20071,31964
32568,20060,31919
32500,20052,31911
32496,20064,31812
32552,20064,31808
32527,20063,31782
32516,20068,31580
32584,20071,31616
32584,20067,31588
32641,20069,31646
32692,20060,31604
32660,20061,31557
32673,20061,31584
32724,20074,31689
32716,20076,31656
32672,20073,31657
32640,20081,31605
32578,20076,31529
32620,20079,31356
32676,20073,31309
32792,20079,31321
32848,20074,31269
32841,20079,31239
32824,20074,31281
32832,20076,31286
32872,20079,31231
32812,20086,31205
32748,20081,31351
32716,20085,31341
32590,20080,31317
32624,20079,31271
32764,20074,31162
32925,20076,31303
33056,20077,31239
33132,20076,31239
33124,20081,31239
33089,20085,31055
33036,20084,31014
33028,20087,31044
33060,20080,31076
33120,20081,31049
33146,20086,30956
33225,20081,30876
33266,20087,30824
33309,20085,30993
33236,20093,30945
33212,20092,30932
33160,20085,31009
33120,20088,30944
33072,20082,30952
33080,20089,30884
33128,20081,30864
33312,20088,30761
33464,20092,30670
33496,20092,30577
33476,20095,30724
33524,20098,30693
33540,20108,30680
33532,20104,30661
33456,20094,30625
33380,20094,30565
33368,20102,30532
33397,20093,30588
33548,20092,30469
33661,20109,30378
33708,20103,30468
33720,20112,30453
33700,20107,30356
33664,20105,30356
33668,20104,30376
33636,20095,30296
33648,20101,30223
33760,20101,30337
33876,20100,30336
33912,20100,30239
33889,20100,30244
33728,20104,30367
33680,20111,30309
33560,20116,30214
33456,20112,30134
33380,20109,30100
33396,20110,30268
33512,20113,30141
33512,20109,30277
33436,20115,30134
33356,20118,30078
33320,20118,30244
33300,20117,30222
33276,20108,30151
33068,20119,30130
32900,20116,30284
32764,20108,30278
32668,20112,30113
32588,20117,30080
32489,20118,30064
32368,20121,30068
32318,20120,30074
32252,20125,30257
32104,20111,30274
32012,20122,30268
31996,20112,30266
32008,20110,30264
32048,20117,30132
32088,20125,30129
32096,20124,30088
32164,20118,30281
32036,20124,30204
31924,20120,30332
31813,20121,30272
31708,20125,30212
31624,20121,30251
31604,20122,30183
31640,20125,30141
31684,20129,30204
31664,20128,30284
31704,20129,30276
31764,20133,30148
31681,20125,30231
31572,20125,30151
31465,20121,30249
31472,20131,30332
31500,20127,30342
31544,20136,30244
31576,20140,30341
31684,20136,30321
31776,20125,30337
31832,20126,30279
31840,20128,30308
31808,20135,30196
31756,20125,30260
31681,20129,30252
31588,20133,30260
31577,20132,30257
31592,20135,30052
31576,20135,30100
31568,20140,30110
31548,20132,30111
31560,20135,30109
31609,20127,30252
31702,20133,30248
31732,20132,30236
31732,20133,30236
31812,20135,30244
31764,20141,30187
31804,20139,30236
31804,20146,30209
31808,20138,30130
31824,20140,30192
31832,20136,30228
31868,20132,30078
31897,20135,30004
31892,20136,30153
31944,20140,30127
31932,20143,30144
31852,20143,30148
31828,20140,29983
31844,20143,29936
31824,20142,30108
31764,20156,30076
31773,20137,30076
31804,20146,30067
31880,20140,30053
31964,20141,29958
32008,20140,30023
32036,20140,29946
32068,20140,29980
32132,20149,30032
32156,20148,29996
32114,20144,30022
32112,20157,30072
32152,20143,30130
32212,20133,30138
32188,20144,30096
32200,20155,30108
32232,20148,30103
32301,20145,30001
32288,20145,30069
32196,20145,30078
32152,20145,30100
32220,20140,30056
32300,20153,30104
32352,20150,30076
32492,20146,30087
32520,20148,30068
32484,20153,30273
32388,20159,30308
32328,20156,30308
32276,20153,30335
32250,20159,30343
32288,20148,30363
32324,20144,30392
32376,20150,30312
32392,20149,30508
32448,20152,30438
32488,20161,30380
32472,20152,30417
32472,20154,30433
32452,20161,30520
32480,20148,30552
32556,20157,30561
32552,20150,30404
32520,20161,30440
32476,20160,30452
32380,20153,30536
32372,20153,30536
32408,20157,30587
32460,20159,30564
32472,20155,30536
32530,20157,30519
32536,20146,30536
32488,20148,30540
32456,20157,30493
32392,20153,30692
32352,20159,30703
32344,20165,30668
32380,20160,30606
32388,20167,30615
32372,20162,30637
32324,20154,30626
32357,20158,30709
32500,20151,30805
32564,20148,30817
32600,20166,30805
32557,20164,30833
32476,20160,30804
32388,20159,30833
32356,20165,30661
32344,20164,30665
32324,20157,30816
32332,20149,30820
32396,20149,30837
32428,20161,30853
32417,20156,30844
32436,20161,30862
32532,20156,30873
32528,20170,30863
32480,20172,30881
32420,20158,30855
32376,20161,30885
32356,20152,30727
32344,20157,30751
32372,20152,30893
32408,20156,30908
32448,20156,30908
32516,20176,30893
32628,20165,30797
32628,20164,30871
32592,20166,30864
32672,20168,30852
32736,20164,30875
32756,20160,30887
32728,20154,30889
32588,20160,30916
32520,20172,30720
32460,20165,30736
32368,20168,30760
32352,20171,30808
32336,20165,30871
32404,20166,30914
32553,20158,30838
32608,20162,30844
32688,20169,30868
32688,20161,30692
32672,20160,30713
32532,20169,30776
32436,20164,30780
32396,20164,30837
32369,20168,30796
32412,20161,30845
32480,20164,30761
32532,20165,30709
32628,20163,30734
32681,20160,30765
32712,20161,30610
32744,20169,30565
32748,20165,30560
32660,20169,30557
32608,20167,30614
32580,20160,30769
32584,20165,30724
32664,20173,30625
32705,20166,30708
32677,20168,30748
32704,20169,30621
32740,20166,30573
32772,20167,30586
32788,20164,30580
32757,20166,30534
32688,20173,30628
32636,20170,30657
32620,20170,30557
32660,20163,30517
32644,20164,30501
32672,20166,30498
32732,20174,30544
32857,20173,30632
32860,20168,30536
32904,20168,30492
32888,20166,30529
32812,20162,30549
32820,20176,30584
32868,20168,30632
32836,20168,30607
32772,20172,30616
32620,20178,30575
32508,20176,30443
32492,20164,30444
32540,20175,30492
32536,20168,30441
32584,20160,30444
32664,20169,30420
32764,20163,30449
32860,20170,30452
32816,20165,30549
32784,20176,30565
32792,20165,30530
32812,20165,30460
32836,20156,30432
32840,20160,30460
32800,20171,30432
32762,20172,30440
32800,20168,30437
32784,20163,30481
32784,20160,30532
32828,20165,30637
32888,20169,30632
32864,20169,30466
32852,20161,30471
32792,20165,30471
32736,20161,30485
32744,20164,30530
32784,20156,30500
32792,20159,30510
32796,20160,30582
32828,20160,30755
32833,20164,30793
32840,20170,30621
32850,20165,30654
32808,20162,30727
32832,20160,30770
32888,20153,30578
32948,20165,30679
32928,20165,30772
32917,20165,30858
32876,20169,30853
32876,20167,30885
32784,20165,30840
32712,20164,30885
32700,20163,30916
32728,20156,30776
32752,20162,30768
32828,20156,30884
32871,20158,30909
32864,20160,30921
32820,20170,30945
32748,20162,30959
32708,20164,30972
32688,20166,30820
32646,20160,30845
32696,20172,30881
32760,20161,30896
32788,20168,30917
32856,20152,30994
32836,20161,31044
32760,20162,31068
32700,20169,31078
32680,20167,31164
32628,20171,31100
32620,20166,31148
32576,20165,31181
32610,20156,31135
32648,20158,31124
32676,20153,31220
32700,20156,31256
32732,20161,31104
32820,20168,31124
32848,20164,31156
32824,20166,31196
32812,20156,31368
32772,20153,31397
32800,20158,31421
32852,20156,31421
32896,20166,31370
32904,20156,31312
32884,20154,31300
32869,20156,31391
32848,20159,31388
32856,20159,31431
32792,20163,31428
32816,20158,31236
32872,20150,31280
32900,20150,31340
32944,20150,31337
32996,20164,31405
32948,20167,31535
32824,20154,31533
32760,20155,31548
32760,20162,31532
32769,20160,31572
32924,20145,31568
33109,20145,31570
33372,20163,31580
33720,20157,31516
34180,20154,31492
34676,20164,31577
35148,20149,31525
35560,20150,31541
36068,20162,31533
36576,20157,31599
37156,20141,31623
37709,20144,31606
38260,20140,31509
38812,20152,31540
39212,20152,31591
39452,20164,31645
39576,20149,31574
39456,20148,31529
39080,20149,31477
38316,20150,31487
36848,20153,31504
35136,20151,31685
33840,20155,31703
32956,20148,31716
32256,20156,31708
31580,20162,31703
31029,20172,31648
30429,20167,31556
30184,20164,31628
30176,20162,31708
30340,20165,31728
30560,20159,31765
30836,20148,31718
31022,20162,31748
31152,20150,31812
31280,20153,31751
31344,20159,31764
31460,20160,31821
31592,20159,31721
31640,20151,31708
31632,20148,31685
31640,20148,31676
31752,20156,31671
31860,20150,31572
31884,20157,31780
31960,20153,31788
32020,20156,31808
32008,20148,31824
32008,20148,31823
31952,20145,31849
32044,20144,31856
32111,20144,31872
32108,20144,31861
32188,20145,31860
32196,20160,31781
32216,20148,31938
32202,20150,31955
32160,20153,31945
32096,20148,31863
32080,20144,31725
32192,20145,31948
32257,20141,31852
32356,20136,31934
32344,20140,31932
32316,20145,31920
32332,20149,31953
32344,20151,31992
32312,20145,32096
32292,20148,32093
32228,20148,32053
32181,20144,32053
32156,20145,32132
32180,20135,32190
32208,20139,32284
32200,20143,32121
32236,20145,32110
32256,20156,32109
32300,20142,32164
32276,20141,32205
32240,20140,32188
32228,20143,32292
32340,20147,32380
32432,20134,32389
32500,20137,32324
32569,20143,32220
32648,20143,32253
32660,20143,32278
32684,20143,32346
32624,20138,32398
32576,20141,32359
32632,20140,32355
32725,20133,32253
32788,20140,32212
32832,20132,32165
32841,20135,32335
32808,20153,32332
32796,20141,32213
32768,20150,32244
32792,20133,32260
32784,20133,32312
32760,20138,32269
32768,20135,32188
32764,20133,32184
32824,20145,32177
32804,20130,32207
32820,20140,32228
32893,20132,32324
33020,20134,32278
33088,20139,32306
33052,20135,32306
33044,20141,32294
33057,20135,32305
33028,20127,32263
33020,20141,32268
33000,20134,32248
33084,20128,32039
33076,20137,32135
33080,20135,32105
33076,20147,32096
33092,20134,32093
33124,20125,32068
33172,20136,32057
33184,20127,32032
33160,20132,32007
33188,20132,31784
33208,20133,31957
33270,20130,31936
33380,20132,31888
33384,20133,31871
33412,20133,31848
33408,20126,31852
33412,20133,31816
33480,20134,31796
33508,20124,31776
33568,20124,31743
33552,20130,31715
33533,20130,31704
33532,20143,31669
33516,20128,31655
33524,20133,31628
33548,20127,31611
33541,20124,31581
33584,20133,31552
33656,20134,31405
33716,20136,31500
33748,20139,31294
33788,20140,31300
33769,20133,31341
33700,20133,31412
33676,20122,31505
33640,20132,31472
33656,20116,31398
33652,20116,31436
33688,20133,31422
33652,20132,31432
33580,20129,31407
33532,20123,31270
33553,20122,31248
33628,20133,31248
33676,20116,31236
33632,20109,31231
33624,20117,31224
33628,20123,31231
33605,20118,31276
33476,20121,31336
33384,20119,31345
33246,20126,31252
33120,20117,31234
33026,20121,31200
32900,20108,31188
32816,20117,31111
32760,20115,31301
32728,20111,31310
32621,20116,31292
32520,20117,31125
32448,20116,31300
32272,20135,31290
32185,20113,31096
32124,20127,31116
32100,20116,31168
32093,20104,31338
32068,20114,31162
32088,20119,31239
32092,20110,31074
32092,20110,31112
32100,20122,31231
32010,20114,31316
31876,20116,31296
31784,20112,31266
31700,20106,31133
31704,20111,31208
31732,20110,31224
31776,20116,31100
31845,20098,31215
31888,20119,31286
31864,20112,31188
31828,20111,31229
31777,20109,31229
31820,20109,31216
31800,20108,31052
31792,20108,31053
31840,20108,31044
31884,20094,31223
32000,20096,31040
32092,20107,31095
32168,20100,31023
32160,20116,31216
32140,20106,31219
32097,20111,31222
32076,20108,31207
32048,20094,31216
32028,20098,31217
32040,20093,31196
32090,20103,31192
32088,20105,31213
32140,20105,31007
32156,20107,31081
32156,20108,31079
32164,20100,31074
32152,20094,31084
32120,20095,31088
32120,20102,31078
32056,20094,31135
32048,20090,31168
32148,20102,31293
32153,20103,31314
32072,20108,31317
32000,20100,31289
31992,20099,31252
32040,20093,31308
32184,20097,31215
32234,20089,31276
32252,20084,31300
32276,20100,31316
32244,20095,31336
32284,20104,31169
32240,20092,31180
32260,20100,31158
32368,20101,31375
32492,20089,31377
32530,20093,31292
32528,20099,31372
32548,20089,31417
32548,20093,31520
32608,20096,31488
32592,20092,31361
32572,20090,31367
32592,20086,31312
32636,20103,31544
32688,20096,31563
32734,20080,31583
32688,20085,31593
32680,20093,31401
32604,20089,31511
32528,20093,31624
32513,20095,31708
32536,20095,31780
32572,20094,31719
32660,20093,31632
32700,20085,31772
32712,20092,31793
32692,20081,31781
32744,20078,31765
32793,20086,31869
32790,20088,31938
32720,20094,31885
32756,20087,31788
32720,20082,31751
32700,20084,31930
32732,20085,31973
32768,20077,31982
32856,20074,31984
32876,20071,31922
32792,20089,31944
32762,20084,32040
32712,20082,32032
32640,20082,32052
32584,20089,32064
32544,20087,32064
32576,20077,32076
32648,20070,32085
32701,20077,32084
32736,20083,32100
32804,20081,31917
32812,20076,32103
32724,20080,32112
32596,20093,32112
32516,20079,32109
32508,20072,32129
32476,20069,32128
32420,20071,32114
32408,20068,32072
32472,20068,32201
32516,20070,32064
32528,20068,31977
32494,20085,32156
32524,20070,32048
32576,20077,32228
32472,20073,32134
32396,20077,32058
32392,20076,32224
32464,20068,32236
32520,20068,32238
32480,20072,32158
32480,20074,32343
32480,20079,32340
32452,20070,32303
32392,20077,32287
32384,20070,32197
32356,20068,32297
32369,20063,32226
32364,20062,32239
32448,20065,32301
32500,20069,32348
32548,20074,32420
32608,20066,32462
32640,20061,32460
32660,20065,32352
32516,20057,32293
32496,20060,32345
32536,20055,32324
32516,20055,32416
32653,20059,32444
32692,20061,32424
32680,20065,32212
32609,20064,32237
32656,20076,32315
32644,20056,32242
32541,20057,32323
32440,20060,32344
32456,20049,32431
32497,20052,32336
32592,20051,32341
32660,20052,32284
32692,20060,32343
32692,20064,32344
32636,20056,32457
32604,20071,32527
32596,20051,32544
32660,20048,32500
32704,20058,32448
32824,20052,32492
32876,20049,32416
32864,20045,32352
32900,20061,32420
32880,20060,32336
32784,20055,32357
32644,20052,32393
32576,20048,32519
32564,20044,32551
32573,20049,32568
32584,20049,32485
32608,20051,32415
32684,20046,32540
32756,20048,32432
32784,20051,32400
32684,20048,32385
32628,20058,32384
32636,20057,32302
32576,20039,32300
32528,20037,32519
32520,20036,32538
32488,20042,32517
32592,20036,32513
32709,20036,32489
32688,20046,32453
32620,20044,32460
32560,20048,32457
32564,20041,32472
32572,20044,32536
32580,20034,32640
32640,20037,32676
32744,20033,32615
32796,20032,32549
32797,20051,32539
32880,20038,32510
32864,20042,32428
32808,20037,32434
32772,20042,32436
32740,20036,32673
32752,20029,32636
32764,20031,32645
32760,20030,32681
32744,20039,32647
32772,20029,32592
32772,20028,32604
32740,20037,32660
32784,20042,32633
32780,20038,32525
32749,20036,32756
32720,20031,32642
32740,20023,32553
32736,20028,32557
32720,20026,32798
32754,20031,32790
32724,20032,32813
32648,20031,32804
32596,20035,32797
32604,20033,32815
32588,20023,32758
32615,20018,32775
32704,20016,32897
32792,20019,32887
32892,20028,32767
32888,20031,32665
32892,20032,32719
32868,20031,32677
32828,20036,32893
32829,20032,32901
32848,20026,32903
32940,20017,32916
32924,20017,32898
32864,20014,32809
32828,20019,32884
32820,20022,32909
32828,20016,32830
32768,20033,32817
32720,20016,32887
32704,20014,32895
32728,20009,32984
32760,20008,32987
32788,20009,32979
32801,20012,32866
32840,20007,32764
32828,20012,32775
32888,20028,32768
32956,20021,32781
32937,20018,32788
32937,20013,33016
32980,20017,33004
32996,20017,32941
33044,20007,33052
33100,20004,33116
33140,20006,33087
33128,20005,32956
33088,20009,32879
33022,20012,32895
32920,20007,32864
32936,20007,33094
32888,20006,33068
32900,20002,32983
32928,20004,33112
32961,20008,33157
33020,20014,33148
33058,20008,33192
33040,20006,33135
33004,20007,33137
32974,20007,33184
32956,20006,33247
32888,20009,33256
32864,20004,33232
32820,19995,33112
32828,19999,33072
32848,19999,33181
32876,20005,33204
32924,20007,33192
32868,19999,33110
32820,20015,33104
32748,20007,33252
32668,20004,33300
32680,19995,33182
32708,19989,33159
32770,19992,33205
32780,19993,33159
32820,19997,33253
32784,20004,33253
32676,20012,33248
32660,20001,33248
32680,19994,33268
32656,19991,33308
32728,19989,33304
32705,19990,33097
32640,19984,33222
32596,19986,33364
32644,19996,33337
32652,20005,33354
32588,19996,33376
32564,19999,33360
32580,19996,33293
32562,19987,33253
32608,19988,33282
32676,19978,33264
32720,19983,33284
32684,19984,33245
32689,19989,33156
32744,19991,33156
32828,19989,33197
32801,20001,33400
32748,19989,33220
32680,20001,33244
32592,19975,33193
32564,19978,33205
32536,19989,33282
32512,19988,33231
32568,19991,33450
32600,19984,33431
32684,19982,33247
32736,19985,33345
32804,19998,33392
32812,19983,33396
32720,19972,33493
32685,19972,33445
32600,19975,33454
32564,19989,33368
32656,19990,33384
32748,19986,33404
32780,19988,33455
32788,19981,33428
32812,19983,33468
32828,19978,33452
32908,19975,33469
32980,19987,33440
33180,19972,33342
33396,19980,33409
33708,19975,33538
34072,19982,33481
34524,19973,33349
34976,19981,33412
35529,19972,33415
36204,19971,33461
36892,19960,33462
37476,19957,33453
38012,19969,33448
38508,19965,33436
38980,19980,33352
39325,19978,33325
39476,19972,33303
39536,19975,33336
39392,19964,33316
39060,19962,33303
38208,19969,33491
36600,19981,33477
34980,19981,33437
33696,19981,33268
32853,19978,33292
32140,19981,33218
31476,19983,33140
30784,19980,33294
30248,19988,33280
30060,19973,33261
30120,19972,33240
30316,19969,33223
30569,19964,33113
30888,19965,33183
31092,19965,33193
31148,19975,33165
31220,19977,33196
31345,19975,33196
31508,19982,33188
31669,19968,33116
31772,19967,33012
31876,19960,32956
31992,19961,32820
32072,19961,32757
32100,19973,32780
32112,19968,32967
32116,19975,32940
32072,19965,32930
32080,19966,32895
32060,19969,32770
32104,19964,32916
32157,19966,32937
32168,19956,32877
32132,19970,32749
32120,19957,32667
32136,19971,32775
32136,19964,32769
32124,19964,32690
32097,19965,32632
32120,19961,32761
32140,19962,32732
32198,19964,32628
32296,19964,32604
32320,19952,32549
32376,19961,32431
32344,19965,32644
32288,19964,32620
32201,19961,32582
32148,19965,32504
32120,19956,32644
32160,19954,32680
32244,19957,32679
32352,19951,32619
32404,19956,32663
32360,19953,32669
32372,19965,32573
32356,19964,32557
32385,19956,32457
32424,19960,32406
32316,19955,32420
32269,19949,32376
32261,19960,32349
32332,19958,32396
32388,19957,32420
32460,19954,32304
32472,19965,32392
32500,19957,32456
32524,19968,32412
32560,19967,32309
32632,19961,32225
32673,19950,32176
32716,19951,32148
32760,19952,32125
32752,19963,32020
32736,19951,32211
32656,19956,32168
32560,19965,32164
32548,19961,32144
32524,19959,32135
32480,19948,32108
32500,19954,32098
32536,19956,32073
32596,19950,32040
32612,19959,32006
32604,19964,31986
32628,19967,31968
32652,19958,31950
32640,19953,31928
32704,19967,31880
32829,19958,31857
32812,19957,31836
32784,19962,31810
32828,19951,31692
32812,19948,31685
32865,19957,31700
32948,19962,31672
32992,19956,31775
33044,19967,31704
32976,19966,31674
33000,19949,31562
33020,19955,31464
33080,19967,31442
33076,19956,31341
33088,19965,31288
33126,19954,31286
33192,19956,31446
33248,19975,31416
33276,19960,31392
33304,19964,31367
33304,19962,31332
33328,19964,31309
33436,19952,31269
33492,19949,31246
33512,19952,31136
33544,19972,31173
33572,19964,30996
33608,19967,30924
33536,19965,30916
33473,19967,30856
33460,19963,31045
33504,19959,31012
33604,19961,30797
33700,19957,30771
33776,19961,30812
33840,19975,30764
33928,19964,30769
33944,19972,30736
33892,19965,30680
33848,19966,30684
33860,19962,30669
33772,19962,30644
33720,19964,30636
33661,19956,30623
33644,19964,30585
33673,19963,30532
33748,19962,30464
33776,19968,30455
33736,19964,30438
33712,19961,30420
33722,19958,30398
33664,19964,30568
33605,19975,30548
33624,19970,30545
33512,19964,30506
33320,19974,30400
33228,19975,30416
33108,19975,30404
32988,19981,30404
32868,19965,30468
32736,19967,30462
32628,19973,30433
32596,19967,30425
32488,19967,30368
32472,19970,30428
32494,19983,30420
32464,19982,30405
32400,19983,30211
32352,19978,30245
32302,19988,30256
32204,19975,30254
32172,19975,30300
32164,19975,30333
32160,19975,30332
32065,19975,30278
32020,19976,30262
31940,19989,30293
31796,19981,30333
31676,19982,30167
31576,19983,30168
31584,19985,30273
31618,19975,30310
31684,19980,30268
31744,19977,30245
31788,19980,30125
31784,19983,30068
31752,19986,30052
31704,19987,30062
31648,19997,30185
31636,19991,30128
31640,19989,30084
31689,19989,30071
31792,19992,30052
31844,19992,30049
31946,19993,30173
32012,19984,30160
31972,20005,30128
31849,20005,29954
31833,19998,29917
31812,19995,29909
31802,19992,29901
31832,19993,29918
31880,20006,29905
31940,19992,29878
31952,19998,29900
31940,20005,29895
31932,19999,29925
31968,20000,30047
31996,20004,29993
31996,19999,29919
31976,20004,29873
31996,19996,29868
32064,19998,29867
32108,20004,29873
32101,20012,29857
32104,20010,29895
32120,20014,29886
32144,20008,29890
31976,20009,29894
31900,20009,29900
31924,20005,29908
32004,20012,29912
32084,20013,29921
32124,20004,29904
32097,20005,29925
32156,20005,30098
32120,20008,30105
32028,20015,30107
31972,20021,30111
31980,20020,30095
32036,20020,30052
32088,20025,30087
32136,20015,30120
32236,20012,30068
32304,20012,30072
32328,20016,30165
32312,20033,30172
32212,20024,30245
32160,20024,30277
32124,20023,30172
32108,20020,30124
32116,20036,30142
32140,20028,30116
32240,20031,30310
32252,20036,30343
32280,20037,30311
32288,20029,30359
32316,20041,30422
32296,20047,30453
32252,20041,30468
32204,20039,30478
32164,20037,30364
32144,20036,30351
32128,20037,30373
32176,20037,30330
32149,20044,30534
32076,20048,30557
32036,20049,30575
32040,20040,30592
32077,20044,30569
32056,20052,30493
32008,20042,30692
32008,20036,30577
32060,20038,30556
32100,20055,30521
32072,20054,30466
32008,20056,30471
31972,20053,30484
31932,20057,30690
31881,20050,30640
31905,20046,30644
31901,20057,30573
31968,20056,30590
32028,20049,30759
32096,20065,30646
32088,20061,30560
32004,20061,30568
31912,20057,30513
31853,20069,30700
31780,20073,30676
31772,20060,30615
31797,20064,30701
31864,20060,30623
32016,20073,30744
32132,20061,30740
32144,20074,30641
32092,20077,30672
31976,20084,30570
31908,20076,30533
31816,20073,30507
31760,20072,30510
31758,20082,30511
31780,20079,30532
31780,20079,30710
31780,20081,30599
31793,20085,30779
31816,20088,30674
31840,20086,30528
31836,20093,30708
31844,20088,30712
31824,20085,30608
31860,20077,30662
31936,20093,30624
31960,20081,30629
32045,20082,30628
32048,20089,30672
32064,20102,30773
32080,20092,30752
32052,20102,30742
32012,20101,30649
31958,20103,30714
31932,20092,30767
31908,20094,30752
31936,20093,30751
31936,20092,30702
31940,20093,30697
31972,20105,30756
32088,20104,30669
32108,20106,30592
32072,20101,30639
31956,20100,30564
31968,20103,30548
31996,20101,30496
32048,20103,30540
32092,20111,30684
32101,20112,30681
32132,20111,30668
32140,20119,30605
32108,20125,30596
32040,20120,30710
32016,20126,30532
32020,20117,30529
32028,20113,30452
32033,20118,30644
32072,20121,30644
32096,20127,30540
32124,20130,30556
32176,20127,30632
32156,20135,30657
32132,20126,30527
32152,20132,30463
32212,20124,30439
32244,20123,30628
32257,20133,30633
32260,20121,30618
32272,20127,30633
32312,20133,30604
32244,20133,30600
32208,20130,30533
32202,20135,30624
32212,20128,30687
32256,20140,30589
32312,20135,30471
32320,20133,30468
32308,20134,30452
32286,20133,30584
32232,20135,30607
32216,20137,30617
32232,20137,30612
32236,20143,30599
32224,20143,30500
32232,20146,30533
32280,20144,30668
32396,20145,30636
32392,20142,30537
32432,20145,30590
32457,20149,30645
32444,20166,30490
32433,20162,30501
32324,20159,30492
32364,20156,30476
32368,20158,30452
32334,20153,30448
32384,20152,30657
32452,20152,30664
32448,20172,30645
32380,20163,30564
32332,20168,30705
32358,20157,30542
32348,20167,30485
32324,20161,30672
32348,20160,30685
32388,20174,30645
32380,20173,30624
32384,20168,30767
32424,20170,30712
32388,20173,30573
32404,20185,30704
32448,20176,30693
32472,20178,30709
32464,20183,30716
32444,20167,30577
32428,20168,30709
32444,20175,30676
32448,20195,30623
32444,20178,30768
32456,20176,30697
32428,20180,30625
32384,20183,30560
32388,20184,30504
32364,20185,30695
32428,20182,30696
32500,20188,30596
32548,20189,30628
32592,20195,30735
32588,20199,30570
32532,20192,30502
32504,20194,30676
32432,20199,30652
32356,20193,30693
32368,20192,30709
32420,20201,30511
32416,20204,30712
32420,20207,30700
32410,20196,30719
32440,20196,30693
32464,20204,30607
32468,20211,30560
32492,20212,30584
32504,20204,30757
32457,20199,30777
32376,20203,30781
32320,20199,30765
32316,20202,30814
32356,20201,30829
32432,20210,30761
32468,20212,30672
32484,20217,30641
32473,20214,30855
32464,20227,30837
32408,20221,30748
32377,20221,30892
32404,20222,30888
32448,20216,30757
32456,20225,30765
32524,20231,30917
32524,20224,30889
32472,20221,30953
32388,20235,30876
32384,20223,30772
32441,20241,30948
32464,20224,30903
32512,20234,31024
32548,20223,30878
32593,20229,30835
32680,20246,31009
32686,20231,30982
32616,20237,31104
32560,20238,31026
32556,20239,30932
32524,20236,30886
32569,20238,31103
32625,20239,31088
32632,20245,31067
32644,20252,31076
32702,20237,30993
32692,20244,31141
32600,20251,31268
32576,20256,31087
32529,20251,31247
32546,20253,31180
32542,20248,31351
32552,20255,31173
32608,20245,31325
32676,20252,31344
32748,20261,31257
32784,20253,31460
32788,20252,31408
32764,20262,31245
32809,20267,31441
32872,20254,31463
32872,20267,31546
32856,20257,31391
32876,20257,31330
32912,20261,31525
32940,20264,31653
32920,20261,31433
32872,20287,31620
32856,20268,31525
32808,20276,31633
32744,20263,31604
32680,20268,31511
32664,20273,31692
32696,20279,31600
32736,20269,31751
32744,20286,31745
32740,20287,31618
32672,20273,31744
32636,20285,31750
32632,20287,31653
32692,20288,31718
32790,20286,31748
32869,20284,31797
32869,20292,31672
32849,20280,31613
32824,20280,31797
32744,20283,31716
32716,20288,31886
32684,20289,31680
32680,20285,31628
32684,20300,31811
32670,20288,31733
32688,20289,31876
32728,20285,31791
32772,20291,31648
32816,20300,31801
32800,20301,31805
32764,20304,31806
32728,20303,31748
32732,20297,31866
32688,20293,31676
32684,20311,31609
32712,20297,31782
32724,20299,31772
32740,20295,31741
32752,20305,31824
32756,20307,31747
32720,20315,31660
32698,20302,31609
32668,20302,31796
32624,20310,31780
32616,20314,31764
32692,20301,31676
32676,20317,31860
32661,20314,31760
32672,20322,31652
32656,20313,31788
32600,20319,31693
32608,20320,31764
32697,20322,31623
32788,20316,31776
32816,20311,31764
32756,20314,31781
32704,20325,31607
32716,20325,31805
32688,20322,31776
32704,20324,31871
32700,20327,31693
32688,20325,31649
32752,20330,31807
32872,20337,31695
32964,20327,31813
33072,20321,31840
33228,20319,31668
33492,20325,31604
33844,20337,31816
34256,20325,31773
34764,20346,31716
35256,20332,31698
35844,20333,31684
36420,20324,31829
36992,20321,31808
37504,20324,31676
37968,20332,31682
38364,20342,31655
38768,20333,31792
38919,20338,31812
38992,20348,31685
38892,20364,31879
38732,20335,31733
38304,20340,31589
37408,20357,31798
35904,20349,31682
34460,20356,31842
33404,20364,31662
32624,20359,31790
31876,20362,31736
31216,20369,31676
30636,20364,31858
30228,20364,31780
30124,20359,31636
30332,20359,31769
30556,20360,31756
30844,20359,31680
31160,20361,31734
31428,20361,31749
31537,20364,31605
31585,20360,31517
31704,20375,31718
31864,20366,31668
32004,20366,31576
32096,20357,31656
32156,20364,31690
32236,20360,31540
32316,20365,31525
32332,20373,31510
32300,20370,31458
32280,20367,31420
32232,20371,31472
32216,20376,31390
32232,20373,31380
32285,20369,31568
32324,20374,31569
32416,20373,31543
32448,20373,31529
32468,20368,31511
32492,20377,31412
32516,20385,31437
32592,20378,31495
32549,20384,31526
32480,20377,31327
32484,20372,31311
32492,20373,31310
32532,20373,31372
32597,20382,31332
32676,20393,31263
32668,20385,31247
32632,20388,31239
32616,20397,31180
32600,20389,31335
32572,20388,31333
32508,20397,31287
32528,20383,31178
32592,20399,31200
32632,20395,31321
32700,20399,31204
32700,20391,31076
32652,20412,31045
32616,20400,31143
32640,20396,31100
32700,20402,31023
32784,20402,31106
32868,20406,31032
32952,20408,30892
32988,20412,30797
32985,20405,30873
32924,20402,30838
32868,20407,30714
32785,20400,30732
32737,20405,30783
32728,20407,30726
32764,20406,30513
32772,20400,30464
32773,20399,30409
32800,20409,30524
32824,20410,30478
32932,20414,30409
33068,20420,30330
33132,20418,30402
33096,20422,30392
33056,20415,30352
33120,20410,30286
33156,20413,30188
33136,20416,30073
33140,20418,29981
33156,20421,29974
33092,20420,29920
33096,20416,29901
33112,20423,29859
33120,20429,29826
33136,20412,29988
33117,20427,29868
33092,20420,29869
33080,20421,29868
33136,20431,29817
33228,20436,29824
33304,20424,29766
33317,20428,29742
33304,20431,29634
33316,20430,29768
33384,20433,29687
33484,20443,29506
33556,20437,29468
33580,20430,29600
33620,20432,29540
33629,20430,29440
33696,20440,29397
33744,20439,29445
33744,20437,29360
33728,20444,29357
33744,20444,29332
33772,20436,29317
33824,20431,29385
33876,20440,29268
33900,20436,29132
33908,20447,29116
33888,20438,29075
33816,20439,29060
33712,20444,29023
33724,20443,29004
33764,20445,28978
33832,20447,28980
33880,20452,28928
33920,20444,28932
33957,20448,28909
33957,20461,28889
33924,20447,28852
33932,20462,28994
33996,20452,28993
33936,20453,28933
33842,20449,28857
33836,20447,28972
33880,20446,28807
33952,20446,28768
34021,20460,28753
34044,20461,28916
33984,20453,28896
33924,20454,28885
33849,20460,28880
33732,20473,28879
33680,20459,28861
33676,20467,28781
33672,20455,28807
33700,20454,28870
33748,20466,28884
33684,20473,28772
33544,20465,28807
33494,20468,28754
33380,20471,28745
33249,20470,28781
33130,20461,28924
32996,20464,28812
32844,20463,28937
32700,20474,28932
32648,20478,28933
32576,20468,28954
32584,20475,28980
32613,20469,28881
32596,20472,28905
32476,20472,28861
32356,20484,29008
32316,20468,28879
32308,20474,28868
32332,20476,28902
32392,20475,29060
32388,20469,29064
32364,20490,29053
32316,20476,29049
32236,20487,28984
32156,20487,29103
32104,20487,29124
32032,20477,28977
32018,20477,28966
31988,20480,29159
32016,20486,29141
31988,20491,29084
31969,20485,29076
31956,20495,29229
31976,20494,29116
32036,20493,29054
32036,20487,29212
32004,20487,29217
32004,20500,29127
32052,20490,29274
32080,20501,29181
32104,20501,29113
32160,20507,29181
32192,20505,29262
32236,20506,29301
32244,20501,29272
32160,20501,29343
32096,20500,29364
32136,20496,29376
32204,20496,29382
32260,20498,29396
32300,20505,29412
32284,20511,29413
32252,20513,29436
32164,20508,29417
32092,20516,29425
32116,20502,29284
32208,20503,29302
32286,20500,29308
32368,20504,29496
32426,20506,29506
32488,20505,29433
32560,20519,29521
32548,20506,29598
32484,20508,29673
32357,20509,29651
32308,20508,29526
32254,20510,29700
32228,20509,29713
32230,20513,29645
32256,20516,29680
32284,20518,29850
32277,20525,29718
32314,20516,29668
32352,20516,29868
32392,20516,29900
32528,20519,29821
32692,20517,29968
32832,20514,29843
32912,20519,29824
32848,20514,30022
32808,20519,29976
32716,20520,30048
32616,20518,30160
32544,20520,29988
32448,20525,30012
32449,20527,30080
32438,20520,30264
32492,20522,30280
32608,20524,30214
32704,20535,30288
32712,20534,30401
32692,20536,30476
32664,20524,30333
32676,20535,30525
32724,20541,30540
32820,20528,30498
32912,20532,30636
32984,20525,30763
32988,20529,30681
32906,20540,30632
32776,20540,30629
32613,20536,30871
32560,20539,30908
32500,20535,30954
32520,20535,30969
32640,20533,31020
32752,20540,31077
32840,20544,31121
32948,20539,31140
33072,20543,31110
33120,20541,31238
33100,20538,31303
33036,20538,31372
32972,20543,31312
32932,20541,31254
32896,20549,31216
32832,20551,31442
32780,20540,31477
32768,20537,31521
32760,20545,31469
32796,20548,31461
32876,20551,31605
32884,20557,31724
32862,20544,31629
32780,20544,31556
32708,20549,31748
32661,20548,31760
32608,20550,31808
32580,20543,31815
32604,20548,31816
32640,20563,31893
32616,20556,31996
32640,20558,32065
32788,20550,32082
32836,20556,32173
32796,20557,32152
32684,20548,32116
32652,20553,32114
32708,20565,32312
32772,20556,32364
32696,20558,32412
32556,20558,32444
32560,20564,32513
32640,20566,32559
32796,20563,32604
32992,20561,32641
33108,20552,32585
33132,20553,32641
33052,20552,32708
32964,20570,32864
32892,20569,32961
32820,20570,33009
32864,20570,33057
32948,20572,33104
32948,20564,33031
32876,20564,33093
32768,20562,33133
32612,20561,33209
32572,20567,33263
32676,20564,33301
32720,20573,33352
32716,20569,33396
32668,20570,33416
32772,20568,33265
32856,20565,33384
32888,20566,33396
32880,20564,33415
32868,20569,33415
32976,20572,33449
33072,20574,33541
33120,20576,33703
33108,20575,33693
33064,20575,33741
33032,20573,33922
32948,20581,34013
32796,20575,33958
32784,20572,33896
32809,20571,33996
32812,20571,33982
32864,20573,34111
32933,20580,34148
32912,20581,34148
32896,20582,34147
32872,20581,34256
32821,20580,34407
32829,20577,34420
32868,20573,34380
32944,20570,34366
33004,20575,34388
32972,20579,34429
32936,20596,34540
32960,20580,34661
32980,20583,34673
32888,20589,34756
32856,20588,34756
32916,20584,34648
33005,20580,34689
33086,20582,34714
33160,20583,34639
33184,20581,34904
33120,20585,34933
33031,20584,34902
32932,20584,35024
32868,20590,35004
32862,20583,34951
32960,20585,34846
33058,20596,35148
33045,20578,35140
32996,20580,35092
32940,20586,35332
32872,20596,35252
32782,20596,35216
32780,20593,35193
32800,20596,35133
32901,20585,35422
32968,20586,35463
32964,20585,35423
32968,20588,35461
32980,20596,35452
32912,20591,35596
32926,20585,35588
32992,20591,35573
32960,20597,35556
32992,20592,35497
33040,20601,35462
33040,20596,35749
33064,20584,35785
33125,20588,35772
33072,20591,35743
33028,20599,35812
33004,20597,35901
32948,20597,36009
32968,20594,35933
32948,20599,35874
32928,20592,35808
32888,20602,36008
32868,20598,36044
32940,20599,36072
32944,20595,36072
32956,20592,36100
32960,20600,36150
32888,20597,36164
32809,20600,36196
32768,20608,36204
32748,20607,36209
32784,20600,36151
32800,20596,36166
32904,20596,36286
33076,20597,36353
33196,20604,36393
33212,20612,36439
33152,20615,36377
33004,20620,36272
32928,20612,36388
32840,20614,36396
32820,20607,36376
32860,20607,36495
32908,20612,36548
32884,20605,36473
32868,20601,36418
32936,20604,36308
32960,20616,36260
32992,20617,36564
33052,20612,36569
33112,20612,36556
33100,20612,36672
33112,20613,36624
33108,20613,36421
33048,20613,36647
33048,20615,36688
33004,20612,36421
33012,20625,36706
33041,20621,36743
33048,20613,36766
33104,20610,36750
33200,20608,36689
33252,20612,36665
33208,20607,36854
33172,20608,36928
33141,20609,36948
33056,20616,36956
32960,20621,36868
32916,20628,36820
32876,20610,36628
32888,20613,36932
32928,20615,36877
33036,20617,36944
33080,20611,37060
33152,20615,36953
33252,20616,36822
33368,20625,37021
33356,20624,37012
33344,20616,36953
33340,20633,37064
33232,20620,37164
33204,20621,37203
33216,20625,37116
33285,20616,37092
33340,20630,36998
33308,20626,37130
33252,20629,36885
33172,20624,37187
33108,20621,37205
33088,20628,37140
33168,20639,37133
33196,20624,37216
33136,20636,37244
33080,20624,37360
33072,20625,37288
33160,20622,37279
33252,20628,37284
33246,20632,37344
33202,20644,37428
33208,20629,37442
33212,20631,37358
33164,20634,37296
33188,20624,37374
33136,20624,37424
33072,20624,37481
33028,20631,37340
32988,20629,37272
33048,20632,37156
33106,20641,37412
33164,20636,37423
33244,20643,37454
33264,20628,37457
33260,20628,37452
33244,20625,37332
33228,20624,37413
33180,20632,37434
33140,20630,37407
33078,20642,37543
32980,20636,37479
32932,20638,37420
32920,20637,37256
32920,20624,37501
32920,20636,37503
32910,20629,37525
32960,20638,37501
33000,20636,37408
33113,20644,37540
33184,20636,37438
33220,20639,37433
33172,20644,37521
33065,20642,37561
33024,20633,37620
33040,20635,37540
33000,20639,37480
32988,20646,37440
33036,20634,37417
33136,20645,37253
33168,20642,37233
33253,20645,37364
33184,20647,37229
33148,20640,37516
33108,20633,37534
33048,20637,37540
33028,20633,37543
33076,20636,37537
33117,20646,37445
33140,20634,37400
33104,20640,37462
33101,20644,37511
33169,20645,37508
33188,20640,37533
33232,20647,37508
33360,20637,37487
33616,20640,37412
33920,20632,37601
34260,20636,37557
34660,20639,37591
35132,20655,37596
35700,20645,37456
36336,20644,37583
36908,20636,37540
37416,20629,37433
37876,20629,37548
38360,20628,37498
38832,20640,37457
39136,20636,37500
39364,20638,37348
39568,20635,37297
39512,20649,37255
39184,20644,37330
38452,20648,37318
37028,20652,37302
35356,20654,37284
34160,20644,37279
33444,20647,37040
32824,20652,37220
32196,20654,37225
31548,20653,37209
31024,20657,37136
30784,20652,37056
30809,20659,37044
30988,20657,37029
31200,20649,37028
31416,20640,36925
31516,20647,37023
31572,20649,37023
31624,20650,36860
31692,20654,36910
31768,20655,36857
31821,20654,36813
31980,20648,36983
32032,20647,36934
32032,20647,36756
32072,20645,36615
32164,20644,36653
32296,20638,36480
32396,20655,36748
32452,20654,36652
32428,20655,36569
32404,20655,36740
32384,20652,36662
32404,20646,36664
32413,20644,36548
32448,20645,36445
32493,20645,36325
32496,20637,36580
32492,20645,36585
32472,20658,36509
32469,20645,36447
32484,20657,36646
32508,20644,36455
32448,20644,36273
32496,20640,36536
32596,20637,36511
32748,20640,36389
32812,20642,36527
32760,20645,36615
32726,20645,36576
32704,20645,36452
32640,20647,36501
32624,20641,36493
32592,20646,36372
32616,20644,36548
32632,20644,36575
32688,20637,36430
32669,20644,36402
32676,20658,36428
32572,20651,36172
32484,20653,36168
32524,20653,36410
32604,20640,36404
32616,20644,36328
32605,20643,36231
32632,20641,36412
32673,20645,36294
32700,20648,36220
32720,20644,36178
32756,20647,35972
32760,20644,36230
32812,20654,36175
32908,20644,36173
32960,20643,36127
33004,20642,36111
33024,20645,36039
32957,20639,35975
32920,20645,36021
32837,20645,36004
32760,20653,35936
32744,20653,35893
32748,20640,35805
32816,20639,35834
32848,20638,35724
32948,20644,35751
32996,20640,35794
33012,20644,35782
33060,20645,35616
33104,20651,35660
33125,20642,35636
33084,20644,35573
33012,20645,35576
32972,20644,35572
32932,20639,35562
32972,20636,35295
33072,20639,35276
33096,20632,35493
33120,20637,35436
33144,20642,35393
33172,20645,35357
33188,20650,35305
33204,20653,35305
33248,20644,35320
33276,20644,35040
33380,20642,35017
33452,20642,34973
33452,20632,35207
33428,20633,35181
33396,20639,35145
33364,20650,35112
33400,20645,34812
33492,20653,34823
33552,20641,34777
33628,20639,34724
33740,20640,34804
33864,20643,34782
33856,20647,34756
33912,20645,34733
33916,20636,34804
33888,20638,34856
33822,20637,34807
33732,20647,34652
33689,20636,34582
33704,20635,34629
33728,20640,34551
33788,20633,34510
33872,20636,34524
33944,20650,34497
34000,20645,34368
34008,20648,34335
34012,20637,34286
33996,20649,34215
34016,20634,34197
33992,20637,34220
33964,20637,34183
33932,20639,34152
33924,20628,34121
33924,20644,34042
33953,20637,33980
33992,20644,34162
34024,20637,34144
33964,20635,34084
33913,20634,34039
33852,20639,33971
33792,20634,33984
33716,20628,34007
33612,20631,33972
33504,20631,33958
33396,20641,33885
33357,20639,33865
33374,20639,33865
33372,20636,33796
33260,20640,33757
33132,20628,33772
33060,20623,33712
32992,20636,33784
32884,20629,33681
32716,20634,33757
32644,20637,33760
32520,20645,33733
32429,20625,33741
32381,20631,33730
32352,20625,33554
32304,20625,33632
32276,20624,33713
32272,20628,33733
32304,20625,33685
32309,20624,33702
32272,20631,33500
32164,20629,33445
32036,20628,33352
31982,20635,33550
31893,20633,33524
31892,20622,33413
31940,20620,33477
31960,20630,33541
32032,20626,33364
32034,20632,33236
31988,20628,33445
31980,20633,33392
31992,20625,33341
31932,20632,33441
31892,20627,33457
31940,20636,33397
31972,20626,33391
31916,20618,33381
31940,20618,33217
31884,20620,33311
31868,20628,33302
31884,20634,33205
31916,20626,33250
31960,20620,33231
32024,20625,33253
32076,20616,33243
32120,20626,33142
32173,20614,33164
32228,20620,33306
32240,20615,33252
32216,20616,33287
32142,20629,33256
32080,20626,33303
32024,20627,33188
32016,20622,33064
32000,20616,33239
32052,20614,33120
32144,20615,33287
32248,20613,33109
32308,20617,33245
32302,20621,33253
32256,20626,33180
32208,20620,33197
32193,20617,33141
32192,20609,33304
32242,20613,33292
32305,20610,33095
32324,20612,33012
32396,20616,32967
32524,20620,33182
32564,20618,33166
32560,20614,33114
32532,20613,33237
32500,20614,33134
32500,20621,33006
32500,20613,32932
32448,20607,32892
32432,20612,32927
32444,20605,33112
32448,20612,33097
32444,20617,33092
32404,20610,33085
32332,20612,33100
32276,20620,32989
32240,20608,33136
32296,20617,33057
32376,20610,32889
32452,20601,33097
32522,20607,32989
32580,20619,33175
32644,20603,32980
32688,20608,32965
32696,20612,32906
32656,20614,33108
32600,20614,33081
32488,20599,33056
32456,20608,33156
32484,20607,32989
32504,20610,32940
32504,20606,33112
32576,20612,33044
32584,20610,33173
32600,20615,32992
32612,20605,32868
32621,20602,33071
32641,20604,33116
32668,20597,33133
32696,20597,33017
32648,20606,32954
32672,20605,32864
32648,20600,33045
32604,20602,33014
32512,20606,32893
32420,20610,33000
32396,20608,33080
32352,20600,32914
32344,20596,32876
32440,20592,32941
32520,20596,32820
32520,20604,32708
32548,20604,32916
32512,20600,32903
32519,20599,32876
32476,20604,32816
32488,20606,32770
32508,20602,32852
32528,20591,32852
32580,20593,32876
32640,20596,32853
32696,20590,32788
32752,20601,32694
32768,20602,32615
32756,20596,32511
32720,20596,32460
32668,20597,32678
32640,20590,32645
32660,20589,32637
32692,20600,32590
32752,20596,32484
32784,20604,32660
32764,20593,32437
32744,20599,32333
32664,20602,32537
32660,20588,32416
32676,20588,32506
32708,20590,32569
32740,20597,32552
32820,20581,32440
32880,20584,32320
32716,20589,32225
32669,20591,32420
32608,20593,32409
32636,20597,32373
32680,20588,32378
32716,20587,32360
32668,20590,32343
32716,20578,32324
32784,20588,32317
32836,20578,32299
32884,20588,32288
32876,20596,32176
32840,20592,32340
32800,20584,32132
32801,20586,32180
32816,20587,32105
32840,20583,32105
32881,20580,32088
32924,20585,32040
32892,20577,32204
32876,20592,32185
32852,20584,32173
32820,20589,32085
32772,20580,32236
32741,20583,32076
32780,20577,31972
32828,20573,32164
32868,20583,32149
32904,20572,31950
32926,20580,31968
32904,20584,31957
32860,20581,32144
32828,20580,32160
32760,20577,32133
32746,20577,32068
32769,20580,32225
32808,20574,32082
32880,20576,32020
32928,20564,31943
32980,20580,32165
32956,20572,32158
32920,20577,32133
32868,20582,32140
32832,20568,32079
32800,20577,32212
32780,20568,32146
32768,20572,32007
32789,20577,32172
32868,20563,32095
32872,20564,32136
32825,20564,32240
32820,20568,32057
32824,20566,32017
32760,20568,32004
32704,20572,32202
32704,20567,32149
32732,20575,32236
32754,20564,32094
32776,20562,32231
32812,20564,32206
32845,20569,32240
32864,20568,32293
32860,20570,32224
32884,20572,32100
32940,20569,32020
32964,20567,32020
32980,20564,32229
32948,20558,32212
32916,20567,32148
32858,20564,32139
32906,20570,32228
32864,20567,32263
32808,20564,32167
32881,20567,32068
32896,20564,32007
32868,20560,32220
32896,20552,32212
32948,20552,32171
32944,20554,32171
32856,20560,32087
32820,20556,32248
32780,20565,32172
32732,20557,32092
32745,20564,32195
32752,20556,32157
32748,20552,32076
32752,20550,32101
32784,20553,32232
32812,20563,32042
32864,20549,31949
32886,20550,32165
32905,20551,32036
32884,20561,32229
32856,20556,32062
32828,20551,31928
32804,20551,32132
32800,20551,32020
32748,20545,32191
32736,20544,32052
32777,20546,31911
32820,20557,32068
32832,20548,32193
32858,20560,32002
32892,20551,32101
32884,20550,32093
32800,20543,32038
32720,20549,32153
32692,20540,32044
32692,20545,31968
32688,20542,31884
32704,20537,32071
32712,20544,32027
32708,20550,32160
32700,20553,31961
32668,20544,31916
32645,20537,32093
32664,20541,32024
32672,20533,32135
32692,20529,32007
32760,20548,31916
32820,20540,32101
32816,20547,32078
32812,20544,32045
32756,20532,32151
32716,20534,32016
32640,20543,31896
32592,20532,32100
32688,20540,31987
32696,20530,32100
32740,20536,31900
32784,20541,32082
32776,20529,32160
32736,20548,32076
32768,20540,31924
32792,20532,32079
32788,20528,32193
32812,20530,32073
32864,20521,31994
32904,20524,31916
32848,20524,32136
32808,20529,32037
32797,20529,32116
32724,20532,32148
32676,20537,32053
32640,20529,32113
32632,20527,32172
32612,20525,32230
32592,20527,31965
32644,20527,32172
32592,20525,32177
32538,20525,32116
32548,20526,32118
32596,20533,32007
32608,20527,32229
32600,20525,32167
32604,20517,32165
32580,20524,32196
32568,20514,32037
32609,20525,32263
32620,20522,32180
32648,20521,32326
32640,20521,32232
32584,20517,32284
32556,20522,32173
32576,20513,32292
32584,20517,32108
32636,20525,32298
32688,20513,32334
32712,20511,32299
32720,20519,32196
32748,20506,32178
32672,20518,32121
32576,20518,32343
32472,20525,32260
32412,20514,32412
32329,20516,32225
32285,20509,32354
32324,20515,32329
32368,20504,32424
32436,20506,32263
32512,20513,32384
32572,20507,32391
32596,20512,32263
32596,20506,32402
32544,20508,32292
32480,20507,32429
32476,20497,32292
32440,20496,32412
32424,20509,32304
32444,20498,32441
32529,20507,32220
32556,20501,32440
32629,20512,32413
32677,20500,32327
32664,20503,32428
32616,20501,32534
32572,20494,32328
32600,20493,32450
32616,20493,32369
32616,20497,32459
32652,20497,32481
32740,20500,32429
32781,20501,32463
32826,20507,32261
32840,20487,32453
32788,20490,32555
32760,20488,32292
32852,20487,32481
33001,20496,32544
33224,20484,32252
33488,20489,32408
33788,20487,32449
34148,20492,32268
34614,20481,32432
35052,20481,32413
35688,20487,32288
36344,20471,32372
36973,20473,32421
37548,20469,32492
38116,20492,32432
38548,20484,32420
38852,20487,32484
38993,20487,32472
39080,20495,32531
39012,20478,32311
38816,20487,32500
38241,20474,32516
37076,20484,32466
35448,20497,32276
34124,20496,32476
33153,20486,32564
32440,20485,32457
31792,20487,32263
31096,20492,32417
30500,20493,32493
30140,20487,32360
30112,20477,32481
30253,20480,32462
30428,20478,32532
30712,20484,32350
30936,20487,32444
31097,20484,32374
31172,20476,32312
31268,20485,32437
31372,20479,32517
31484,20480,32296
31656,20465,32433
31764,20477,32410
31852,20466,32416
31932,20473,32196
31977,20464,32367
32050,20463,32420
32084,20469,32196
32128,20469,32404
32128,20476,32297
32160,20471,32464
32188,20460,32285
32236,20457,32208
32340,20456,32425
32412,20460,32409
32460,20458,32425
32444,20458,32428
32396,20468,32396
32384,20466,32320
32345,20464,32381
32290,20464,32353
32280,20455,32365
32336,20452,32484
32396,20456,32273
32440,20453,32469
32444,20453,32481
32488,20452,32497
32516,20457,32484
32521,20463,32420
32492,20455,32596
32500,20453,32484
32544,20452,32342
32548,20449,32567
32592,20455,32639
32620,20452,32578
32648,20448,32480
32696,20453,32617
32730,20449,32590
32736,20447,32689
32704,20452,32577
32660,20448,32501
32648,20454,32376
32632,20444,32606
32616,20438,32492
32608,20437,32532
32640,20460,32612
32664,20447,32624
32676,20457,32593
32660,20447,32442
32660,20445,32378
32652,20436,32285
32612,20440,32472
32640,20443,32421
32644,20431,32519
32636,20430,32396
32696,20436,32288
32736,20439,32172
32696,20441,32391
32712,20453,32346
32708,20437,32231
32640,20431,32292
32684,20427,32385
32748,20431,32205
32864,20438,32067
32952,20431,32257
33076,20433,32193
33080,20433,32285
33038,20431,32064
33040,20428,31953
33008,20432,32125
32992,20434,32040
32924,20432,32124
32944,20428,32026
32984,20427,31943
32992,20430,31976
33000,20425,31892
33032,20433,31919
33028,20431,31854
33000,20423,31814
32928,20438,31751
32980,20425,31890
33044,20432,31751
33096,20418,31893
33208,20421,31673
33300,20431,31556
33336,20423,31746
33372,20428,31692
33392,20420,31645
33380,20420,31548
33336,20418,31596
33364,20411,31628
33392,20412,31441
33420,20412,31329
33432,20420,31280
33418,20420,31449
33456,20420,31416
33505,20416,31176
33504,20416,31166
33469,20415,31340
33432,20419,31181
33408,20410,31296
33448,20404,31232
33500,20407,31073
33600,20401,30991
33694,20408,31160
33764,20412,31046
33856,20406,31184
33804,20425,30965
33760,20417,31080
33748,20409,31048
33708,20402,31046
33760,20403,30956
33808,20413,30980
33912,20398,30928
33874,20406,30793
33864,20405,30787
33868,20397,30990
33881,20404,30918
33880,20401,30861
33852,20408,30949
33812,20397,31018
33812,20392,31024
33753,20389,30997
33662,20392,30952
33616,20392,30836
33524,20393,30888
33376,20396,30892
33282,20397,30885
33240,20396,30863
33148,20396,30812
33032,20400,30845
32948,20386,31004
32892,20389,30959
32789,20395,30954
32676,20400,30967
32620,20396,30885
32569,20398,31008
32492,20396,31025
32404,20392,31018
32330,20389,31019
32276,20389,30942
32304,20386,30949
32272,20388,31060
32248,20401,30936
32180,20398,30864
32148,20385,30791
32120,20397,30988
32052,20386,30983
32016,20391,30945
32004,20388,30920
31980,20387,30940
32020,20387,30936
31998,20378,30844
31960,20388,30896
31960,20386,30983
31900,20378,30850
31836,20388,30790
31812,20382,30763
31793,20385,30816
31806,20380,30780
31836,20375,30839
31893,20374,30820
31924,20372,30676
31924,20374,30680
31968,20368,30656
31924,20372,30693
31936,20378,30628
31928,20373,30588
31888,20377,30753
31888,20380,30701
31872,20374,30740
31952,20372,30644
32040,20362,30562
32132,20364,30677
32224,20368,30656
32244,20377,30640
32192,20367,30636
32156,20389,30549
32060,20375,30464
32012,20374,30487
32020,20364,30628
32100,20367,30592
32165,20361,30540
32134,20361,30610
32144,20364,30479
32140,20369,30606
32102,20359,30607
32088,20371,30468
32096,20368,30598
32076,20363,30606
32036,20364,30666
32040,20358,30549
32116,20361,30509
32196,20358,30471
32264,20359,30637
32308,20352,30628
32312,20356,30573
32285,20354,30620
32212,20357,30612
32248,20364,30606
32216,20357,30551
32236,20349,30524
32244,20353,30551
32260,20342,30616
32289,20355,30688
32288,20354,30684
32268,20359,30541
32304,20362,30492
32280,20353,30501
32280,20348,30463
32316,20345,30479
32368,20348,30661
32461,20342,30630
32484,20347,30628
32532,20353,30740
32598,20351,30557
32628,20348,30529
32616,20347,30727
32672,20343,30757
32704,20359,30750
32700,20338,30748
32700,20338,30772
32696,20344,30708
32762,20343,30836
32776,20337,30941
32748,20353,30852
32680,20344,30805
32628,20337,30788
32604,20337,30780
32580,20335,30815
32536,20335,31009
32536,20345,31044
32600,20329,31071
32652,20329,30990
32692,20328,31111
32716,20334,31197
32676,20333,31060
32692,20340,30982
32736,20336,30978
32756,20330,31196
32784,20333,31208
32752,20326,31218
32800,20324,31239
32876,20324,31238
32844,20325,31060
32820,20327,31068
32796,20325,31066
32744,20335,31096
32772,20334,31096
32797,20325,31289
32796,20324,31130
32789,20321,31205
32856,20326,31303
32857,20322,31137
32824,20324,31111
32780,20330,31132
32748,20323,31184
32700,20321,31180
32636,20321,31215
32616,20314,31285
32592,20324,31281
32604,20311,31278
32648,20308,31300
32636,20316,31189
32660,20324,31189
32668,20324,31114
32676,20318,31315
32624,20315,31324
32608,20320,31308
32640,20317,31197
32672,20316,31355
32636,20304,31192
32680,20310,31119
32701,20308,31321
32724,20310,31292
32740,20322,31249
32730,20321,31193
32676,20308,31231
32664,20304,31344
32628,20320,31268
32576,20308,31176
32533,20305,31175
32536,20310,31094
32596,20308,31300
32672,20304,31236
32724,20303,31181
32758,20301,31160
32720,20301,31205
32684,20310,31334
32644,20314,31306
32652,20301,31108
32673,20301,31105
32728,20296,31097
32772,20300,31095
32772,20297,31054
32809,20305,30986
32781,20294,31187
32788,20296,31157
32768,20313,31084
32736,20294,31046
32704,20297,31047
32680,20298,31016
32680,20301,31030
32732,20285,31164
32760,20296,31004
32784,20293,30956
32813,20296,30876
32769,20302,30868
32704,20295,31052
32688,20289,31024
32772,20282,30940
32840,20285,30916
32808,20280,30912
32796,20296,31040
32790,20292,31043
32772,20292,31044
32729,20296,31030
32704,20286,30983
32696,20287,30822
32708,20288,30831
32676,20290,30800
32740,20285,30740
32752,20280,30941
32698,20279,30929
32664,20281,30877
32580,20278,30896
32548,20292,30839
32500,20289,30821
32452,20278,30793
32436,20281,30916
32484,20276,30935
32520,20268,30936
32524,20271,30854
32568,20272,30783
32592,20277,30745
32604,20278,30724
32612,20277,30737
32628,20274,30921
32616,20270,30869
32594,20271,30912
32644,20268,30842
32652,20269,30817
32728,20264,30828
32804,20262,30984
32796,20264,30936
32768,20265,30945
32768,20271,31004
32768,20269,31030
32744,20265,31034
32704,20265,30997
32636,20259,30927
32608,20255,30879
32584,20256,30844
32596,20253,30808
32576,20258,30791
32552,20267,30825
32554,20267,30841
32564,20271,30842
32492,20264,30853
32512,20263,30832
32544,20258,30781
32585,20250,30828
32644,20254,31001
32692,20256,30989
32692,20261,30997
32692,20263,30991
32668,20257,30981
32540,20256,30966
32484,20257,30904
32485,20253,31028
32476,20252,31065
32512,20248,31033
32588,20248,30938
32664,20256,30911
32726,20255,30953
32760,20255,31041
32748,20257,30976
32800,20261,31078
32784,20259,30900
32740,20252,30919
32688,20253,30911
32656,20246,30852
32593,20245,31062
32584,20242,31033
32584,20240,31028
32584,20247,31044
32641,20245,31044
32616,20244,30999
32612,20243,31048
32624,20251,31103
32576,20236,31000
32552,20236,31039
32540,20238,30978
32572,20237,30956
32556,20240,30960
32576,20240,30930
32616,20250,31120
32564,20237,31129
32536,20235,31065
32488,20230,31031
32465,20247,31079
32484,20231,31128
32484,20231,31216
32500,20238,31156
32548,20244,31044
32604,20231,30976
32640,20245,31183
32668,20238,31162
32600,20238,31079
32600,20231,31265
32580,20228,31236
32528,20225,31216
32578,20234,31141
32620,20222,31273
32684,20231,31247
32708,20243,31186
32668,20236,31081
32604,20231,31004
32516,20239,31040
32497,20212,31220
32556,20221,31200
32644,20229,31184
32716,20222,31145
32776,20221,31212
32788,20226,31264
32812,20230,31268
32760,20224,31220
32684,20224,31161
32632,20230,31228
32572,20223,31270
32564,20216,31204
32592,20221,31206
32632,20213,31148
32680,20213,31172
32729,20225,31200
32768,20225,31191
32780,20225,31156
32684,20217,31137
32660,20221,31150
32700,20213,31119
32704,20221,31116
32696,20217,31116
32716,20206,31101
32669,20221,31105
32696,20208,31121
32784,20207,31140
32780,20223,31128
32740,20217,31135
32744,20220,31141
32724,20217,31148
32648,20218,31149
32692,20204,31151
32725,20205,31111
32832,20201,31203
32908,20217,31353
32940,20215,31190
32868,20217,31257
32765,20216,31236
32736,20215,31358
32696,20208,31276
32680,20202,31292
32728,20204,31258
32776,20195,31220
32832,20199,31272
32824,20215,31317
32778,20203,31400
32772,20205,31404
32732,20197,31361
32692,20197,31312
32640,20201,31344
32564,20197,31449
32512,20197,31372
32524,20192,31341
32560,20195,31487
32592,20193,31450
32586,20199,31397
32576,20205,31424
32520,20207,31432
32449,20205,31397
32396,20192,31317
32388,20188,31332
32416,20190,31339
32452,20190,31344
32464,20200,31353
32500,20188,31332
32472,20204,31360
32380,20205,31468
32380,20204,31572
32400,20201,31512
32408,20200,31469
32381,20190,31588
32396,20189,31576
32440,20191,31436
32420,20194,31425
32428,20190,31467
32460,20192,31516
32444,20184,31377
32456,20186,31389
32428,20186,31441
32416,20180,31488
32474,20177,31497
32568,20180,31593
32608,20184,31644
32600,20179,31684
32632,20180,31666
32669,20182,31676
32652,20185,31596
32516,20184,31594
32460,20183,31718
32532,20182,31698
32708,20185,31584
32972,20174,31541
33252,20174,31719
33592,20174,31732
34060,20169,31632
34576,20167,31790
35116,20168,31836
35720,20168,31816
36321,20182,31796
36880,20172,31742
37384,20173,31800
37912,20162,31848
38300,20169,31828
38576,20178,31717
38728,20185,31645
38796,20167,31790
38636,20166,31801
38336,20168,31653
37596,20172,31612
36172,20183,31644
34540,20170,31718
33316,20175,31735
32549,20176,31717
31960,20185,31718
31392,20174,31850
30836,20172,31666
30344,20181,31652
30144,20180,31694
30145,20177,31740
30276,20175,31679
30446,20169,31903
30740,20168,31895
30988,20166,31886
31172,20160,31833
31358,20164,31812
31572,20164,31835
31736,20172,31901
31784,20164,31824
31860,20164,31912
31912,20170,31940
31981,20165,31951
32024,20154,31983
32116,20158,31760
32160,20160,31862
32144,20153,31804
32140,20161,31812
32184,20162,31816
32208,20165,31928
32224,20164,31941
32240,20156,31986
32280,20165,32024
32320,20152,32043
32348,20148,32101
32408,20158,32204
32452,20152,32228
32396,20165,32060
32384,20151,32070
32344,20153,32150
32320,20161,32181
32369,20156,32193
32432,20152,32208
32496,20150,32178
32533,20148,32308
32544,20148,32354
32532,20160,32357
32540,20143,32232
32576,20158,32239
32570,20159,32200
32524,20152,32401
32514,20150,32424
32576,20141,32441
32584,20150,32470
32585,20148,32457
32638,20144,32361
32680,20142,32476
32720,20152,32438
32740,20148,32579
32692,20150,32399
32624,20144,32396
32616,20146,32388
32628,20136,32428
32668,20140,32514
32692,20140,32533
32700,20136,32519
32752,20140,32548
32729,20153,32526
32740,20146,32487
32760,20140,32460
32764,20140,32495
32800,20137,32482
32788,20149,32417
32820,20134,32442
32864,20134,32316
32828,20140,32352
32900,20132,32295
32892,20136,32257
32896,20127,32151
32920,20142,32095
32914,20143,32076
32896,20144,32075
32893,20131,32045
32888,20126,32076
32917,20132,32245
32952,20129,32228
32989,20134,32205
33032,20135,32185
33076,20143,32164
33080,20135,32124
33104,20126,32153
33116,20128,32158
33164,20126,32129
33180,20120,31922
33200,20133,32113
33220,20132,32108
33264,20133,32085
33301,20133,32047
33320,20137,32023
33268,20139,32070
33252,20135,31956
33262,20133,31879
33260,20131,31857
33320,20124,31793
33372,20129,31772
33440,20127,31724
33472,20125,31909
33492,20131,31855
33540,20124,31839
33560,20130,31756
33594,20129,31713
33641,20136,31692
33624,20129,31668
33652,20125,31645
33704,20129,31632
33700,20117,31660
33708,20132,31704
33808,20127,31684
33860,20121,31535
33888,20132,31532
33896,20135,31532
33901,20126,31453
33908,20121,31453
33920,20114,31477
34004,20117,31562
34076,20124,31521
34112,20120,31453
34088,20127,31445
34056,20129,31362
34028,20133,31398
34016,20133,31348
34000,20117,31344
33996,20116,31546
34004,20116,31559
34028,20124,31364
34048,20109,31541
34060,20120,31544
34072,20126,31533
34044,20114,31493
33980,20116,31502
33949,20111,31479
33928,20113,31468
33872,20113,31484
33784,20108,31656
33712,20113,31677
33655,20117,31581
33576,20123,31684
33488,20116,31730
33384,20117,31696
33256,20114,31648
33221,20117,31724
33216,20116,31726
33133,20102,31744
33044,20111,31736
33024,20101,31833
32924,20111,31839
32856,20107,31837
32824,20109,31879
32720,20109,31895
32628,20109,31860
32452,20110,31913
32356,20111,31961
32313,20109,31904
32276,20115,31860
32312,20105,31913
32248,20100,31884
32165,20113,32045
32101,20112,32069
32052,20115,32060
32024,20108,32052
31960,20108,32089
31982,20109,32045
32008,20105,32004
32000,20103,32020
32000,20103,32048
32052,20108,32035
32116,20101,32046
32128,20100,32060
32168,20108,32101
32216,20116,32088
32196,20105,32103
32160,20103,32237
32128,20101,32245
32116,20097,32270
32120,20103,32278
32101,20097,32282
32108,20096,32292
32124,20102,32316
32164,20100,32324
32160,20101,32328
32136,20104,32349
32136,20103,32333
32144,20097,32319
32160,20094,32317
32164,20097,32328
32125,20094,32330
32120,20101,32308
32124,20096,32284
32113,20112,32280
32120,20095,32304
32104,20103,32447
32084,20100,32464
32058,20092,32457
32086,20090,32496
32136,20099,32358
32156,20086,32420
32180,20092,32441
32200,20100,32465
32213,20088,32263
32224,20095,32341
32224,20096,32260
32209,20103,32263
32202,20094,32504
32217,20091,32504
32248,20085,32516
32252,20085,32398
32252,20084,32536
32292,20086,32580
32308,20096,32517
32360,20096,32405
32200,20092,32519
32176,20090,32534
32220,20089,32504
32268,20080,32415
32332,20098,32516
32388,20084,32544
32428,20077,32544
32372,20093,32352
32376,20088,32549
32348,20092,32576
32310,20083,32629
32352,20078,32661
32344,20072,32624
32348,20077,32566
32376,20078,32495
32436,20077,32586
32444,20080,32684
32462,20078,32615
32476,20084,32600
32425,20092,32597
32400,20088,32620
32432,20090,32606
32432,20077,32620
32408,20087,32485
32436,20076,32687
32520,20072,32677
32521,20073,32497
32540,20078,32492
32524,20076,32572
32416,20076,32613
32388,20077,32670
32368,20083,32823
32396,20073,32641
32430,20084,32736
32438,20068,32757
32460,20069,32752
32460,20076,32662
32468,20077,32844
32424,20076,32689
32416,20081,32807
32408,20077,32577
32432,20069,32678
32448,20084,32720
32428,20076,32804
32452,20073,32864
32448,20069,32879
32528,20078,32924
32609,20071,32801
32608,20077,32868
32448,20073,32911
32436,20068,32705
32448,20068,32837
32473,20070,32911
32464,20068,32856
32484,20070,32928
32493,20064,33020
32508,20069,33068
32532,20077,32893
32532,20073,33029
32468,20079,32927
32512,20069,32967
32480,20065,33159
32504,20066,33004
32532,20062,33092
32568,20070,33005
32548,20057,33167
32516,20064,33231
32516,20060,33211
32524,20072,33156
32552,20068,33068
32528,20061,33169
32485,20064,33219
32504,20068,33229
32490,20058,33256
32461,20057,33249
32492,20053,33061
32532,20066,33060
32500,20065,33172
32464,20068,33265
32424,20065,33369
32456,20069,33399
32420,20061,33300
32440,20073,33380
32452,20057,33388
32536,20058,33296
32592,20059,33333
32654,20055,33516
32692,20066,33392
32672,20066,33337
32664,20068,33532
32624,20068,33511
32560,20063,33400
32524,20055,33305
32468,20044,33293
32452,20053,33526
32432,20054,33317
32432,20055,33376
32504,20055,33437
32528,20055,33420
32508,20057,33514
32472,20053,33601
32429,20056,33701
32420,20060,33574
32428,20046,33564
32452,20055,33671
32504,20050,33700
32548,20048,33723
32652,20060,33728
32665,20061,33732
32660,20058,33740
32676,20052,33519
32644,20057,33684
32604,20058,33780
32580,20044,33874
32581,20050,33784
32592,20052,33788
32584,20048,33712
32604,20050,33776
32628,20052,33850
32580,20064,33604
32540,20063,33749
32568,20053,33771
32628,20047,33761
32670,20046,33781
32676,20044,33954
32732,20038,33798
32800,20047,33932
32726,20060,33935
32720,20055,33916
32744,20058,33927
32724,20046,33984
32668,20042,33997
32636,20046,33994
32648,20045,34004
32645,20041,33991
32612,20043,34023
32676,20040,34032
32652,20041,34041
32648,20049,34031
32632,20048,34037
32576,20049,33869
32580,20049,33976
32564,20044,34167
32580,20042,34093
32612,20039,34092
32644,20041,34125
32684,20037,34149
32684,20038,34177
32648,20042,34061
32672,20052,34092
32692,20044,34119
32728,20036,34005
32752,20036,34028
32756,20038,34028
32764,20045,34093
32776,20047,34146
32768,20042,34244
32768,20044,34244
32760,20040,34212
32728,20045,34064
32712,20038,34050
32736,20039,34148
32712,20049,34172
32696,20031,34183
32676,20032,34183
32668,20039,34168
32692,20038,34073
32684,20038,34117
32736,20043,34276
32748,20036,34158
32756,20047,34156
32784,20038,34210
32788,20037,34180
32764,20036,34204
32668,20031,34112
32628,20037,34204
32596,20038,33977
32656,20045,34136
32652,20037,34300
32616,20036,34159
32584,20044,34188
32548,20043,34242
32532,20036,34255
32564,20032,34054
32616,20030,34173
32677,20035,34357
32688,20028,34277
32684,20034,34157
32652,20032,34396
32648,20037,34276
32636,20044,34092
32609,20029,34340
32608,20028,34429
32629,20028,34288
32648,20038,34301
32664,20025,34314
32704,20036,34352
32748,20034,34376
32732,20032,34373
32752,20024,34308
32700,20036,34472
32644,20031,34370
32628,20029,34306
32632,20030,34400
32652,20020,34439
32644,20036,34345
32661,20029,34524
32672,20027,34348
32736,20028,34464
32761,20042,34482
32748,20032,34269
32688,20021,34518
32648,20038,34582
32684,20022,34580
32688,20019,34368
32684,20026,34500
32700,20027,34511
32700,20032,34260
32680,20036,34297
32720,20025,34420
32704,20032,34404
32661,20033,34416
32660,20027,34413
32677,20021,34420
32700,20025,34405
32736,20020,34417
32820,20022,34412
32848,20020,34404
32864,20023,34288
32880,20028,34355
32892,20029,34380
32876,20020,34408
32880,20018,34421
32872,20020,34487
32940,20017,34607
32968,20016,34412
32984,20023,34389
32972,20029,34364
32952,20031,34461
32992,20021,34423
32957,20033,34561
32928,20025,34572
32933,20013,34477
32956,20015,34354
33008,20016,34335
33012,20020,34413
33004,20011,34417
32992,20026,34407
32984,20028,34249
32984,20018,34119
33002,20029,34101
32996,20021,34159
32912,20015,34198
32900,20015,34199
32892,20016,34240
32888,20026,34252
32869,20029,34261
32902,20021,34228
32868,20031,34180
32848,20014,34115
32820,20022,34193
32852,20009,34232
32836,20031,34104
32868,20010,34068
32916,20020,34071
32912,20014,34055
32928,20015,34078
32960,20021,34076
32924,20017,34055
32884,20015,33807
32837,20016,33808
32776,20012,33775
32740,20022,33858
32732,20015,33924
32728,20011,34004
32696,20016,34001
32700,20009,34048
32716,20010,33988
32718,20008,33812
32704,20014,34012
32704,20008,34005
32736,20010,33996
32768,20008,33892
32776,20005,33945
32828,20004,33917
32888,20005,33888
32980,20005,33732
33001,20004,33736
32972,20009,33639
32936,20009,33664
32916,20007,33504
32876,20005,33709
32820,20010,33701
32800,20017,33671
32808,20006,33543
32848,20008,33692
32904,20019,33524
32886,20008,33493
32805,20004,33334
32768,20009,33292
32733,20010,33274
32720,20021,33465
32740,20013,33415
32776,20007,33376
32856,19999,33351
32976,19999,33328
33180,20006,33198
33423,20008,33189
33685,20018,33125
34016,20001,33204
34424,20006,33191
34816,19999,33028
35316,20002,32928
35864,20001,32911
36436,19992,32809
37012,20010,33004
37472,19999,32969
37876,20021,32933
38240,20007,32889
38422,20004,32856
38500,19999,32789
38468,20008,32740
38364,20007,32628
38060,20015,32756
37308,19994,32681
35864,20020,32716
34404,20010,32588
33320,20014,32632
32620,20019,32469
31968,20015,32424
31324,20012,32436
30752,20013,32489
30296,20022,32369
30113,20006,32248
30220,20006,32192
30424,20013,32080
30660,20010,32257
31008,20011,32202
31236,20012,32079
31398,20009,32058
31504,20009,32076
31612,20007,31986
31760,20002,31953
31852,19999,31901
31908,19996,31968
31980,20000,31886
32033,20004,31899
32088,20005,31964
32120,20009,31962
32172,20008,31786
32192,20005,31655
32220,20002,31606
32252,19994,31764
32302,19999,31720
32344,19991,31685
32400,19998,31623
32448,20007,31556
32460,20005,31556
32480,20004,31513
32468,20012,31460
32464,19996,31495
32432,19993,31488
32473,19997,31424
32488,19988,31380
32522,19990,31337
32472,19999,31356
32440,19993,31396
32398,19995,31441
32348,19994,31345
32364,19997,31230
32372,19996,31156
32472,19991,31308
32576,19994,31278
32648,19991,31348
32712,19988,31152
32752,19995,31267
32756,19994,31239
32740,19996,31285
32672,19994,31121
32636,19996,31024
32620,20001,31190
32600,19999,31172
32560,19991,31160
32540,19988,31141
32568,19991,31125
32612,19997,31074
32660,19993,31029
32736,19995,30941
32784,20002,30936
32772,19990,30866
32772,19988,30908
32768,20005,30807
32760,19989,30782
32768,19989,30732
32772,20000,30741
32800,19992,30700
32808,19985,30812
32804,19996,30704
32836,19986,30551
32912,19991,30492
32933,19998,30620
32904,19991,30501
32904,19986,30621
32852,19988,30573
32832,19981,30428
32836,19988,30285
32796,19996,30304
32801,20000,30431
32824,19987,30388
32772,19999,30357
32712,19991,30342
32700,19989,30208
32740,19988,30244
32852,19983,30286
32944,19987,30324
33016,19986,30185
33044,19996,30082
33028,19982,30044
33024,20001,30037
33052,19997,30177
33072,19987,30158
33092,19984,30053
33096,19981,30017
33124,19990,29997
33116,19983,30075
33064,19980,29993
33036,19992,30016
33060,19986,29923
33104,19988,30028
33160,19988,30001
33240,19999,29805
33264,19988,29797
33305,19985,29831
33400,19982,29924
33476,19989,29928
33528,19975,29932
33540,19989,29790
33512,19984,29713
33512,19997,29650
33500,19988,29828
