ECG,EDA,RR
32736,19114,29428
32864,19119,29580
32992,19133,29489
33080,19117,29401
33040,19140,29423
33088,19133,29632
33136,19127,29460
33024,19126,29425
32960,19130,29423
33025,19137,29584
33080,19141,29626
33176,19133,29444
33244,19141,29375
33316,19142,29436
33380,19156,29556
33352,19158,29605
33380,19152,29436
33276,19143,29550
33279,19150,29392
33284,19144,29559
33360,19156,29518
33452,19145,29504
33560,19157,29556
33673,19154,29536
33708,19156,29390
33704,19166,29436
33636,19168,29596
33608,19158,29566
33560,19156,29512
33581,19158,29576
33512,19162,29394
33508,19169,29508
33672,19176,29659
33768,19169,29495
33802,19178,29612
33636,19190,29432
33488,19188,29653
33596,19178,29615
33576,19180,29476
33620,19184,29642
33652,19186,29652
33741,19181,29575
33840,19188,29672
33908,19192,29508
33933,19197,29754
33844,19197,29604
33769,19200,29528
33576,19199,29712
33256,19198,29600
33084,19198,29517
33133,19197,29720
33216,19205,29674
33260,19214,29610
33116,19199,29676
33084,19220,29700
32996,19213,29519
32952,19217,29510
32828,19207,29541
32777,19206,29712
32744,19203,29620
32660,19209,29551
32696,19218,29621
32792,19228,29645
32852,19217,29436
32792,19223,29533
32629,19223,29678
32468,19227,29565
32328,19229,29568
32260,19237,29526
32169,19239,29548
32100,19223,29549
32248,19229,29405
32344,19245,29493
32413,19237,29587
32480,19247,29444
32416,19238,29510
32436,19232,29343
32457,19252,29352
32424,19235,29474
32224,19241,29536
32221,19239,29496
32192,19249,29353
32192,19260,29477
32192,19254,29284
32245,19263,29400
32206,19268,29452
32184,19269,29442
32176,19255,29271
32108,19249,29399
32132,19252,29314
32288,19257,29432
32312,19270,29292
32372,19273,29478
32412,19268,29372
32444,19275,29421
32421,19274,29236
32437,19279,29456
32356,19277,29404
32232,19278,29216
32160,19277,29388
32200,19273,29397
32424,19280,29244
32540,19285,29360
32668,19291,29280
32680,19295,29396
32608,19288,29249
32530,19297,29457
32632,19303,29284
32508,19283,29393
32316,19286,29205
32224,19303,29270
32376,19297,29425
32510,19303,29417
32532,19302,29384
32572,19310,29374
32528,19302,29412
32508,19313,29264
32560,19308,29468
32512,19311,29384
32549,19312,29240
32648,19321,29343
32728,19306,29406
32677,19309,29425
32692,19324,29316
32772,19323,29286
32772,19325,29470
32736,19329,29429
32641,19316,29414
32696,19313,29260
32652,19312,29357
32660,19329,29404
32708,19324,29338
32852,19335,29432
32953,19334,29306
32940,19335,29485
32952,19342,29412
32892,19345,29405
32729,19332,29270
32548,19345,29446
32498,19340,29300
32517,19336,29380
32608,19355,29256
32652,19348,29230
32760,19348,29425
32828,19361,29298
32676,19364,29357
32858,19347,29164
32852,19349,29280
32744,19347,29286
32616,19345,29381
32641,19357,29319
32704,19353,29188
32740,19356,29153
32652,19369,29369
32528,19364,29230
32660,19386,29304
32616,19376,29302
32452,19364,29310
32428,19364,29167
32592,19380,29240
32729,19367,29311
32704,19370,29287
32704,19386,29093
32784,19377,29200
32864,19385,29324
32790,19383,29313
32728,19388,29196
32733,19392,29253
32760,19381,29247
32776,19391,29082
32712,19396,29092
32800,19386,29260
32778,19388,29293
32840,19406,29191
32892,19399,29229
32840,19400,29036
32840,19410,29137
32781,19392,29260
32788,19396,29182
32788,19401,29017
32724,19409,29156
32574,19400,29078
32686,19400,29188
32804,19416,29039
32600,19420,29208
32684,19417,29100
32788,19412,29163
32688,19414,28989
32704,19418,29191
32768,19425,29053
32750,19408,28965
32784,19429,28969
32897,19429,29149
32928,19424,29056
32884,19423,28940
32741,19432,29096
32634,19436,29000
32620,19424,28916
32596,19426,29138
32548,19431,29049
32660,19432,28892
32660,19433,29006
32684,19444,29124
32724,19454,29012
32753,19445,29066
32756,19457,28932
32720,19449,28996
32688,19453,29073
32720,19455,28929
32641,19444,29112
32580,19449,28959
32712,19458,29086
32640,19455,28905
32596,19457,29092
32600,19463,29063
32692,19463,28942
32664,19471,29132
32669,19458,29046
32596,19456,28935
32632,19457,28968
32716,19476,29156
32704,19462,29084
32840,19474,28971
32821,19482,28967
32840,19476,29129
32740,19480,29012
32640,19477,28946
32605,19472,29119
32680,19473,29078
32632,19473,28975
32697,19473,28980
32724,19492,29122
32775,19482,29048
32864,19487,29141
32848,19493,28964
32736,19499,29084
32852,19488,29068
32904,19505,29141
32860,19495,29160
32844,19483,29031
32900,19500,29020
32940,19499,29157
32896,19516,29156
32808,19502,29137
32608,19517,29047
32536,19505,29199
32612,19516,29085
32716,19503,29208
32684,19498,29066
32636,19515,29274
32792,19511,29158
32940,19511,29232
32888,19521,29057
32976,19520,29137
32868,19513,29196
32756,19523,29252
32636,19522,29110
32588,19520,29287
32564,19517,29199
32588,19521,29128
32612,19518,29262
32660,19526,29268
32772,19523,29149
32772,19533,29121
32825,19529,29314
32832,19537,29272
32804,19547,29292
32776,19532,29266
32736,19528,29227
32636,19530,29292
32700,19532,29224
32784,19548,29332
32820,19545,29172
32864,19556,29212
32876,19545,29428
32868,19548,29300
32869,19553,29412
32828,19541,29273
32740,19554,29444
32756,19554,29357
32768,19556,29456
32804,19554,29329
32740,19557,29524
32884,19564,29412
32925,19556,29504
32912,19573,29361
32864,19561,29540
32680,19567,29400
32600,19558,29520
32553,19556,29381
32544,19564,29508
32652,19569,29425
32780,19568,29540
32952,19572,29383
32876,19573,29402
32868,19587,29486
32812,19569,29612
32797,19575,29447
32668,19581,29555
32733,19572,29571
32744,19585,29391
32692,19588,29414
32736,19576,29455
32748,19591,29525
32686,19585,29593
32645,19592,29556
32692,19594,29517
32653,19581,29588
32544,19581,29425
32616,19592,29487
32724,19591,29548
32760,19591,29652
32808,19603,29624
32844,19607,29537
32793,19598,29590
32756,19597,29440
32842,19596,29456
32700,19613,29505
32644,19598,29665
32816,19594,29513
32864,19599,29620
32812,19608,29580
33016,19604,29550
33076,19608,29492
33096,19609,29529
33100,19622,29654
32852,19626,29654
32508,19616,29508
32324,19616,29596
32444,19612,29753
32576,19617,29602
32708,19622,29722
32694,19616,29729
32724,19614,29565
32812,19624,29663
32821,19629,29729
32738,19626,29778
32616,19623,29640
32641,19621,29828
32648,19620,29820
32672,19628,29654
32536,19625,29853
32860,19626,29764
32900,19628,29729
32913,19652,29944
32852,19648,29855
32790,19645,29742
32712,19649,29936
32726,19638,29888
32677,19637,29761
32728,19634,30016
32804,19643,29940
32901,19642,29970
32920,19648,30008
32940,19648,29986
32976,19654,29874
32960,19649,30037
32777,19645,30056
32781,19644,29917
32636,19646,30081
32800,19647,30076
32889,19649,30076
33032,19648,30078
33165,19656,30116
33236,19677,30141
33140,19664,29972
33104,19662,30048
33060,19668,30230
32933,19677,30151
32804,19659,30168
32797,19658,30204
32748,19664,30026
32904,19670,30109
32944,19666,30244
32912,19669,30230
32881,19672,30100
32804,19686,30266
32900,19677,30227
32928,19675,30212
32892,19665,30121
32981,19686,30116
32958,19680,30260
33036,19685,30182
32984,19679,30277
32904,19692,30132
32800,19686,30320
32624,19699,30229
32368,19685,30292
32320,19687,30131
32400,19685,30352
32516,19682,30191
32640,19692,30308
32688,19691,30164
32684,19706,30188
32708,19700,30296
32808,19696,30117
32732,19707,30182
32692,19704,30388
32664,19701,30230
32562,19703,30179
32644,19702,30368
32784,19697,30277
32729,19703,30179
32849,19701,30412
32804,19706,30358
32732,19719,30256
32685,19716,30343
32720,19704,30376
32572,19720,30286
32550,19709,30286
32632,19708,30396
32660,19719,30356
32712,19714,30311
32816,19708,30236
32712,19721,30470
32784,19721,30404
32780,19726,30449
32629,19729,30327
32616,19713,30524
32444,19714,30484
32684,19717,30343
32692,19717,30566
32660,19719,30494
32752,19725,30522
32797,19746,30338
32854,19730,30528
32832,19732,30448
32752,19739,30544
32740,19737,30424
32760,19735,30624
32728,19741,30527
32760,19735,30556
32972,19726,30440
33208,19737,30579
33400,19747,30556
33536,19745,30562
33924,19740,30572
34192,19737,30528
34412,19740,30508
34608,19740,30412
34924,19729,30676
35332,19740,30614
35776,19736,30503
36184,19745,30660
36496,19748,30612
36700,19752,30422
36692,19770,30493
36656,19761,30606
36552,19768,30684
36364,19775,30633
35928,19753,30508
35076,19757,30668
33764,19765,30525
32644,19768,30640
31880,19777,30509
31278,19776,30649
31086,19776,30661
30861,19767,30580
30696,19771,30644
30588,19776,30517
30580,19772,30750
30720,19780,30692
30908,19780,30569
31100,19781,30668
31422,19780,30660
31532,19781,30710
31660,19776,30592
31680,19785,30660
31780,19773,30807
31956,19777,30629
32060,19782,30725
32180,19782,30642
32277,19790,30821
32412,19793,30758
32496,19796,30655
32428,19788,30771
32416,19792,30807
32384,19788,30829
32328,19788,30802
32348,19785,30721
32336,19784,30843
32364,19789,30869
32436,19790,30754
32552,19803,30964
32568,19807,30876
32520,19813,30745
32560,19796,30797
32656,19799,30983
32613,19801,30911
32500,19800,30932
32436,19796,30833
32620,19806,30990
32712,19801,30944
32776,19813,30974
32688,19812,30853
32520,19810,31000
32476,19820,30949
32448,19813,31045
32524,19804,30932
32576,19811,31126
32638,19810,31088
32665,19815,30985
32616,19814,31202
32584,19816,31135
32536,19822,30983
32540,19823,31248
32556,19825,31217
32512,19813,31100
32540,19817,31252
32564,19820,31172
32648,19817,31076
32788,19818,31239
32844,19822,31295
32876,19823,31355
32872,19826,31233
32868,19847,31368
32856,19832,31412
32665,19838,31309
32360,19820,31525
32344,19828,31479
32416,19828,31372
32514,19833,31518
32628,19841,31557
32777,19840,31562
32844,19839,31614
32856,19832,31516
32856,19837,31669
32893,19829,31702
32912,19837,31623
32832,19839,31636
32764,19844,31592
32780,19844,31884
32840,19846,31854
32944,19840,31839
32892,19845,31825
32884,19855,31796
32868,19843,32087
32770,19847,32040
32762,19849,31868
32764,19832,32036
32864,19844,32176
32912,19852,32212
33080,19860,32084
33164,19852,32295
33144,19844,32189
33080,19859,32308
33020,19854,32128
32949,19847,32287
32812,19841,32296
32640,19847,32430
32632,19839,32336
32716,19852,32536
32816,19864,32443
32900,19858,32482
32996,19861,32514
32996,19865,32440
33020,19865,32528
33024,19863,32576
33040,19858,32477
33040,19863,32676
33070,19863,32565
33128,19862,32391
33148,19873,32502
33228,19875,32705
33292,19865,32519
33324,19863,32647
33296,19880,32591
33300,19873,32561
33228,19876,32663
33120,19860,32544
33084,19856,32601
33144,19868,32625
33280,19876,32732
33380,19877,32784
33480,19876,32580
33520,19885,32700
33429,19876,32702
33369,19871,32490
33397,19879,32616
33486,19875,32732
33508,19866,32813
33421,19877,32838
33440,19873,32685
33464,19892,32710
33543,19896,32677
33584,19890,32770
33508,19891,32716
33416,19884,32692
33396,19879,32768
33372,19874,32820
33404,19886,32607
33444,19876,32848
33488,19882,32913
33488,19887,32768
33394,19905,32810
33328,19886,32893
33212,19892,32669
33072,19892,32680
32980,19887,32808
32920,19883,32865
32904,19895,32889
32928,19896,32932
32988,19893,32995
32920,19902,32828
32852,19888,32935
32744,19897,33108
32500,19894,33119
32372,19889,33093
32317,19886,32892
32225,19893,33140
32165,19888,33021
32206,19894,32941
32300,19893,33081
32348,19900,33282
32356,19901,33141
32360,19905,33231
32248,19898,33084
32117,19897,33332
32052,19900,33260
31952,19898,33258
31892,19903,33380
31916,19906,33329
31882,19909,33384
31900,19919,33296
31988,19911,33495
31936,19917,33444
31880,19912,33396
31856,19908,33462
31872,19908,33510
31904,19910,33425
31984,19900,33580
32060,19915,33548
32140,19922,33471
32180,19915,33524
32176,19916,33727
32180,19916,33540
32120,19913,33631
32048,19917,33708
32069,19916,33624
31928,19911,33780
31912,19922,33839
31964,19915,33788
32064,19919,33653
32148,19916,33815
32220,19924,33940
32224,19928,33780
32266,19921,33910
32356,19922,33940
32388,19918,33717
32372,19914,33905
32301,19911,34092
32260,19914,34012
32261,19919,34066
32208,19929,33840
32069,19924,34069
32104,19925,34028
32188,19921,34164
32228,19927,33953
32216,19923,34124
32164,19917,34256
32228,19924,34252
32264,19934,34297
32316,19939,34216
32464,19940,34293
32572,19934,34311
32528,19941,34348
32452,19928,34149
32260,19926,34469
32360,19930,34469
32340,19929,34344
32260,19935,34421
32164,19927,34492
32220,19948,34489
32356,19937,34540
32480,19945,34590
32560,19932,34594
32544,19938,34549
32516,19933,34647
32472,19930,34766
32472,19937,34710
32432,19933,34701
32436,19935,34495
32524,19936,34676
32629,19939,34690
32644,19952,34852
32624,19944,34695
32560,19951,34820
32496,19936,34716
32460,19937,34932
32440,19933,34916
32452,19949,34892
32516,19933,34789
32616,19948,34920
32688,19954,35012
32721,19948,34911
32768,19943,34685
32656,19942,34998
32644,19935,34924
32636,19941,34969
32580,19940,34748
32600,19940,35047
32608,19941,35125
32648,19948,34951
32712,19946,34799
32700,19945,34986
32656,19955,35065
32596,19956,35072
32704,19948,35069
32712,19948,35099
32724,19949,35042
32744,19951,35206
32808,19941,35161
32844,19941,35088
32784,19964,35152
32644,19950,35216
32493,19953,35140
32416,19953,35344
32356,19949,35204
32444,19945,35047
32392,19961,35085
32480,19956,35332
32597,19949,35273
32620,19950,35216
32588,19948,35444
32558,19950,35349
32584,19960,35138
32622,19961,35462
32536,19965,35276
32464,19959,35409
32438,19961,35329
32492,19954,35524
32652,19948,35324
32609,19954,35477
32536,19955,35212
32604,19962,35549
32662,19975,35364
32632,19969,35520
32552,19965,35467
32420,19957,35633
32476,19956,35479
32500,19952,35617
32485,19956,35512
32626,19958,35740
32808,19967,35645
32828,19958,35431
32816,19961,35812
32856,19967,35740
32804,19959,35712
32762,19956,35752
32856,19962,35817
32816,19965,35765
32832,19966,35916
32832,19960,35837
32780,19962,35692
32849,19965,35956
32780,19964,35892
32704,19975,36002
32636,19970,36029
32536,19967,36004
32468,19967,36084
32556,19961,35828
32604,19962,36079
32644,19960,36252
32716,19966,36132
32736,19966,35929
32760,19962,36127
32717,19965,36276
32672,19975,36304
32652,19968,36193
32596,19963,36282
32568,19953,36231
32600,19966,36410
32720,19967,36278
32784,19968,36216
32748,19972,36347
32688,19970,36376
32788,19975,36348
32848,19959,36473
32820,19975,36295
32736,19964,36420
32736,19959,36468
32776,19975,36358
32829,19965,36602
32748,19975,36504
32676,19968,36534
32708,19966,36311
32696,19975,36604
32676,19967,36590
32656,19965,36613
32680,19959,36594
32764,19973,36564
32800,19965,36784
32896,19975,36806
32972,19968,36824
32960,19975,36821
32896,19983,36644
32764,19968,36735
32773,19972,36805
32812,19971,36548
32788,19961,36637
32768,19964,36743
32782,19974,36812
32872,19975,36871
32926,19981,36946
32736,19985,37053
32600,19983,36934
32654,19969,36899
32730,19964,36975
32740,19972,37001
32805,19972,37029
32666,19966,36765
32636,19975,36807
32637,19974,37127
32721,19980,37116
32776,19974,37024
32856,19967,37127
32940,19974,37097
32952,19983,37159
32906,19965,37177
32884,19966,36967
32860,19961,37117
32858,19980,37164
32816,19972,37121
32920,19975,37220
32956,19983,37236
32953,19972,37415
32940,19973,37424
32916,19968,37449
32804,19970,37472
32813,19965,37374
32800,19981,37345
32924,19972,37383
33048,19983,37220
33108,19975,37356
33112,19975,37444
33104,19975,37511
33038,19991,37565
32940,19973,37522
32764,19972,37383
32676,19974,37344
32732,19975,37436
32800,19981,37493
32840,19981,37472
32900,19982,37486
32972,19981,37367
32993,19981,37508
32957,19977,37568
32932,19975,37548
32900,19974,37500
32892,19982,37533
32896,19964,37337
32936,19969,37521
33044,19969,37656
33112,19972,37509
33120,19975,37487
33048,19991,37556
32976,19972,37241
32924,19983,37484
32892,19968,37488
32788,19966,37636
32820,19969,37492
32868,19983,37572
32856,19975,37314
32868,19973,37504
32980,19991,37564
33104,19981,37708
33024,19974,37686
33040,19975,37570
33080,19980,37612
33200,19983,37632
33160,19974,37488
33056,19965,37392
32864,19978,37428
32900,19972,37702
33036,19983,37818
33080,19981,37736
33021,19970,37671
32976,19973,37763
32916,19969,37767
32820,19968,37616
32732,19975,37877
32716,19960,37975
32748,19975,37868
32728,19973,37780
32728,19975,37884
32596,19980,37956
32572,19972,37711
32596,19975,37986
32684,19967,37999
32754,19962,38150
32801,19962,38047
32804,19969,38100
32892,19968,37840
33029,19980,38125
33076,19980,38156
33096,19974,38244
33060,19972,38423
33008,19972,38240
32980,19964,38432
32932,19975,38429
32876,19961,38368
32812,19964,38468
32820,19972,38364
32848,19981,38625
32896,19970,38471
32848,19969,38604
32756,19975,38305
32688,19964,38644
32728,19978,38820
32772,19973,38695
32824,19967,38800
32857,19961,38589
32892,19975,38821
32888,19975,38949
33020,19972,39056
32880,19972,38832
32876,19972,38876
32900,19964,38996
32848,19962,39072
32848,19959,39124
32846,19962,39140
32828,19963,38848
32808,19977,39157
32796,19975,39300
32804,19963,39404
32784,19969,39449
32692,19975,39367
32624,19964,39272
32592,19969,39384
32640,19962,39476
32572,19963,39141
32452,19962,39317
32548,19966,39569
32740,19962,39600
32876,19967,39572
32928,19963,39628
32988,19972,39673
32856,19968,39716
32696,19957,39363
32656,19954,39695
32628,19960,39716
32632,19956,39924
32572,19960,39790
32558,19968,39724
32548,19964,39896
32612,19961,39829
32636,19964,39864
32600,19957,40059
32496,19948,39852
32512,19959,39997
32612,19964,40015
32700,19956,39928
32768,19958,40132
32872,19959,40053
32872,19970,40108
32868,19957,40076
32796,19959,40238
32714,19962,40199
32680,19957,40198
32716,19952,40233
32788,19949,40213
32892,19960,40361
33104,19953,40274
33414,19949,40287
33696,19955,40174
33836,19949,40400
34036,19969,40537
34369,19956,40487
34704,19957,40420
35064,19955,40478
35536,19961,40431
35936,19945,40665
36308,19941,40455
36720,19949,40165
37020,19959,40553
37264,19953,40711
37480,19956,40476
37438,19967,40583
37312,19950,40628
37115,19951,40367
36748,19956,40598
35964,19955,40701
34612,19956,40783
33576,19971,40740
32956,19972,40615
32468,19956,40652
31984,19953,40365
31490,19964,40566
31152,19955,40497
31076,19956,40607
31092,19949,40684
31252,19948,40748
31444,19953,40776
31741,19955,40808
31952,19953,40525
31984,19948,40620
31796,19961,40664
31784,19944,40636
31840,19946,40548
31892,19948,40632
32012,19951,40756
32060,19943,40724
32104,19949,40649
32193,19944,40583
32280,19945,40629
32408,19945,40644
32484,19946,40244
32580,19941,40552
32636,19934,40692
32528,19939,40772
32576,19943,40748
32580,19940,40775
32656,19948,40507
32756,19942,40604
32728,19944,40641
32476,19953,40556
32212,19940,40620
32070,19940,40681
32072,19936,40784
32048,19932,40571
32069,19943,40588
32192,19934,40640
32256,19941,40652
32376,19942,40648
32500,19936,40268
32536,19937,40581
32532,19935,40692
32496,19937,40759
32448,19939,40647
32396,19924,40502
32448,19932,40540
32540,19924,40632
32644,19930,40229
32760,19932,40668
32904,19936,40470
32948,19943,40596
32913,19929,40237
32828,19925,40486
32720,19935,40637
32736,19920,40468
32681,19922,40441
32576,19924,40481
32572,19926,40101
32664,19929,40301
32731,19929,40476
32821,19926,40533
32828,19932,40276
32700,19922,40325
32620,19926,40347
32500,19924,39943
32236,19932,40270
32280,19925,40365
32452,19913,40141
32604,19926,40233
32720,19932,40166
32808,19921,40236
32752,19922,40165
32644,19920,39861
32532,19920,40212
32520,19920,40154
32492,19914,40084
32556,19910,39996
32708,19912,40160
32916,19910,40004
33064,19918,40026
33088,19913,39968
32996,19914,40154
32844,19924,39876
32692,19921,39624
32668,19917,40053
32670,19906,39924
32756,19912,39704
32876,19916,39936
32980,19908,39922
33052,19917,39820
33070,19910,39904
33008,19922,39572
32944,19916,39860
32844,19904,39964
32760,19917,39740
32832,19901,39873
32944,19901,39697
32932,19901,39972
32921,19904,39716
32909,19906,39748
32848,19905,39792
32864,19908,39783
32980,19904,39714
33112,19907,39800
33180,19911,39708
33165,19895,39544
33236,19904,39820
33284,19893,39576
33384,19902,39661
33385,19901,39591
33356,19911,39705
33332,19911,39577
33264,19894,39572
33248,19888,39516
33288,19901,39535
33318,19892,39540
33432,19897,39524
33528,19888,39360
33640,19904,39525
33608,19912,39328
33464,19910,39449
33392,19897,39428
33500,19899,39319
33492,19891,39396
33476,19883,39453
33480,19896,39372
33508,19890,39367
33544,19880,39378
33636,19894,39160
33692,19894,39464
33748,19887,39232
33796,19895,39085
33816,19897,39412
33676,19888,39335
33504,19877,39118
33428,19878,39461
33292,19876,39280
33348,19881,39046
33404,19878,39426
33452,19882,39204
33424,19884,39314
33328,19879,39252
33240,19877,39369
33137,19874,39284
33096,19866,38965
33076,19871,39327
33116,19868,39191
33060,19871,39285
33084,19872,39260
33048,19885,39316
32952,19876,39172
32840,19874,39264
32648,19877,39196
32620,19870,39268
32492,19872,39228
32288,19877,39288
32180,19881,39080
32092,19866,39168
32172,19868,39207
32228,19866,39269
32180,19864,39136
32010,19865,38980
31892,19863,39261
31840,19860,39108
31832,19860,38909
31908,19860,39047
31916,19863,39216
31980,19853,39031
32092,19868,39052
32232,19858,38980
32328,19866,39150
32280,19866,39025
32196,19865,39047
32048,19848,38916
32012,19849,38637
31936,19844,39047
31736,19848,38918
31769,19851,38847
31928,19848,38834
32000,19852,38862
32040,19853,38860
32093,19850,38696
32080,19850,38720
32040,19856,38756
32017,19844,38752
32048,19849,38524
32100,19847,38772
32117,19853,38616
32125,19860,38652
32117,19863,38344
32132,19863,38732
32132,19847,38498
32204,19845,38604
32248,19840,38600
32264,19833,38449
32248,19837,38535
32172,19835,38355
32168,19844,38541
32160,19843,38441
32176,19847,38207
32220,19850,38535
32317,19842,38376
32304,19847,38132
32292,19844,38450
32296,19833,38189
32304,19837,38284
32353,19833,38182
32404,19830,38204
32426,19831,37881
32428,19839,38273
32432,19840,38084
32416,19845,37760
32280,19837,38056
32204,19828,37920
32176,19833,37713
32240,19833,37902
32332,19833,37945
32408,19822,37916
32576,19826,37728
32676,19830,37988
32622,19840,37796
32602,19833,37790
32448,19828,37698
32192,19824,37816
32220,19820,37829
32396,19820,37624
32488,19819,37672
32584,19822,37566
32724,19820,37665
32708,19819,37449
32624,19813,37573
32429,19817,37463
32310,19813,37613
32288,19808,37495
32376,19817,37541
32432,19820,37378
32408,19812,37166
32472,19821,37364
32512,19812,37228
32528,19815,37341
32510,19819,37237
32420,19812,37380
32440,19808,37261
32420,19812,37126
32476,19812,37316
32492,19807,37169
32485,19807,36908
32580,19812,37158
32600,19810,36953
32568,19813,37062
32404,19817,37008
32369,19812,36857
32348,19812,36713
32333,19809,37044
32300,19788,36828
32302,19804,36860
32304,19793,36742
32392,19800,36871
32460,19798,36625
32484,19796,36653
32572,19797,36664
32584,19797,36601
32480,19800,36428
32462,19790,36436
32448,19788,36480
32432,19780,36436
32433,19783,36348
32397,19789,36031
32504,19791,36374
32546,19790,36196
32586,19807,35889
32612,19785,36167
32500,19788,35940
32452,19784,36004
32436,19782,35708
32420,19781,35988
32589,19788,35719
32692,19786,35786
32720,19797,35629
32801,19796,35716
32724,19781,35511
32468,19782,35550
32276,19782,35424
32136,19780,35418
32044,19773,35367
31980,19770,35233
32128,19777,35109
32364,19784,35184
32568,19778,35021
32736,19785,35168
32848,19781,34883
32868,19782,34933
32849,19778,34860
32620,19781,34816
32532,19769,34788
32364,19764,34638
32196,19767,34601
32308,19767,34373
32436,19785,34613
32472,19778,34416
32496,19781,34449
32556,19775,34295
32544,19770,34285
32500,19758,34031
32492,19760,34264
32500,19770,34132
32520,19765,33964
32568,19764,33972
32663,19775,33869
32656,19766,33726
32632,19757,33968
32688,19769,33828
32652,19765,33749
32616,19764,33632
32632,19753,33593
32616,19773,33652
32677,19754,33462
32736,19757,33284
32744,19749,33513
32785,19757,33380
32832,19751,33159
32762,19749,33351
32724,19764,33243
32624,19759,32974
32496,19751,33231
32444,19748,33108
32500,19745,32948
32556,19749,33102
32716,19751,32864
32756,19767,32889
32740,19751,32879
32800,19761,32788
32760,19754,32540
32724,19751,32736
32788,19744,32621
32856,19745,32480
32948,19737,32648
33040,19748,32532
32960,19737,32359
32840,19743,32326
32736,19753,32177
32528,19748,32357
32401,19749,32207
32264,19745,32244
32300,19736,31990
32468,19740,32167
32448,19730,32141
32510,19728,32057
32692,19729,31877
32812,19728,31944
32888,19732,31854
32956,19737,31936
32956,19725,31780
32896,19731,31845
32848,19725,31830
32824,19729,31673
32820,19739,31617
32828,19718,31500
32876,19720,31751
32900,19727,31600
32930,19733,31444
32884,19735,31495
32820,19718,31536
32780,19718,31513
32824,19724,31444
32828,19716,31326
32844,19727,31388
33009,19709,31303
33020,19725,31300
33052,19727,31307
33044,19732,31266
32928,19717,31207
32852,19722,31116
32756,19721,31028
32705,19710,31222
32784,19716,31069
32873,19704,31103
32948,19725,30936
33028,19709,31105
32972,19721,31009
33045,19705,30847
32992,19711,30885
32788,19712,30930
32804,19714,30839
32836,19703,30809
32936,19700,30710
32988,19698,30721
33064,19712,30613
33144,19707,30773
33176,19703,30717
33104,19701,30573
33028,19703,30592
32928,19709,30489
32864,19706,30645
32812,19698,30415
32848,19697,30577
32812,19698,30561
32776,19691,30364
32672,19712,30580
32680,19693,30492
32776,19706,30516
32824,19698,30272
32884,19689,30456
32836,19685,30365
32684,19689,30215
32532,19689,30392
32480,19693,30336
32504,19686,30343
32596,19684,30215
32636,19697,30388
32736,19696,30272
32680,19684,30292
32632,19695,30192
32620,19674,30178
32612,19683,30260
32592,19676,30258
32628,19689,30242
32712,19687,30084
32700,19685,30096
32728,19695,29992
32652,19681,30241
32704,19678,30168
32628,19673,30093
32741,19687,30023
32768,19674,30133
32800,19673,29981
32824,19673,29990
32896,19664,30066
32908,19676,30032
32948,19684,30039
32884,19682,29892
32828,19669,29959
32724,19668,29852
32672,19669,29896
32624,19664,29836
32684,19664,29909
32772,19662,29958
32788,19662,29934
32764,19668,29914
32924,19668,29959
32862,19673,29898
32910,19672,29824
33056,19669,29816
33265,19677,29716
33418,19659,29764
33696,19657,29687
34088,19650,29893
34496,19655,29818
34896,19654,29764
35266,19660,29685
35684,19660,29609
36152,19653,29857
36596,19655,29774
37000,19656,29602
37308,19644,29769
37504,19642,29648
37608,19642,29608
37640,19655,29748
37600,19661,29750
37288,19663,29646
36596,19664,29617
35284,19662,29721
33912,19665,29554
33008,19655,29717
32336,19652,29638
31880,19655,29703
31577,19661,29523
31376,19664,29586
31217,19656,29638
31136,19652,29695
31276,19648,29527
31320,19649,29598
31412,19652,29649
31460,19642,29712
31588,19642,29631
31709,19649,29444
31796,19637,29672
31897,19633,29588
32026,19637,29416
32228,19638,29469
32336,19639,29460
32380,19636,29549
32552,19638,29496
32416,19644,29530
32484,19631,29532
32496,19630,29543
32384,19631,29507
32352,19636,29404
32452,19636,29412
32540,19632,29311
32685,19644,29543
32572,19631,29485
32576,19628,29514
32620,19639,29472
32648,19631,29319
32684,19629,29396
32692,19622,29301
32741,19620,29407
32780,19629,29448
32604,19624,29462
32428,19624,29473
32480,19619,29332
32453,19616,29382
32408,19628,29476
32448,19619,29533
32488,19616,29489
32556,19612,29443
32660,19612,29465
32720,19628,29353
32832,19621,29559
32916,19625,29508
32884,19622,29511
32812,19610,29492
32741,19615,29340
32696,19620,29573
32608,19610,29520
32600,19605,29380
32700,19622,29564
32756,19610,29525
32797,19610,29380
32788,19613,29524
32764,19605,29412
32692,19607,29526
32684,19603,29324
32744,19599,29455
32801,19598,29468
32817,19605,29498
32848,19602,29348
32868,19613,29349
32812,19609,29484
32700,19608,29503
32604,19601,29337
32628,19608,29381
32632,19601,29308
32652,19602,29508
32664,19594,29487
32805,19596,29533
32840,19597,29488
32988,19607,29340
33012,19596,29457
33040,19616,29312
33048,19605,29432
33092,19596,29313
32964,19602,29411
32904,19588,29448
32904,19588,29344
32936,19583,29332
33016,19587,29442
32964,19596,29274
32888,19606,29337
32932,19596,29243
32996,19604,29457
32964,19591,29380
32972,19591,29229
33065,19582,29375
33004,19580,29285
32942,19576,29376
33006,19577,29208
33088,19588,29361
33105,19589,29319
33196,19597,29159
33204,19589,29382
33173,19588,29317
33176,19587,29137
33180,19576,29282
33140,19570,29272
33260,19572,29132
33248,19582,29288
33364,19583,29281
33428,19583,29218
33408,19575,29247
33180,19580,29256
33273,19574,29174
33268,19583,29177
33236,19578,29081
33342,19572,29181
33420,19583,29249
33496,19571,29140
33548,19572,29202
33616,19572,29225
33792,19578,29084
33720,19573,29268
33765,19569,29233
33741,19580,29092
33684,19580,29276
33676,19572,29214
33684,19570,29075
33704,19570,29296
33624,19576,29263
33716,19574,29108
33732,19577,29292
33692,19570,29270
33584,19571,29140
33564,19570,29349
33564,19560,29279
33457,19563,29126
33528,19560,29361
33576,19573,29281
33536,19559,29196
33628,19563,29244
33568,19564,29191
33576,19556,29234
33528,19559,29172
33364,19559,29266
33440,19559,29204
33381,19562,29256
33292,19551,29277
33092,19556,29217
32996,19562,29407
32956,19562,29406
32952,19568,29284
32878,19562,29413
32840,19558,29312
32784,19557,29360
32704,19559,29261
32672,19556,29349
32636,19542,29464
32642,19548,29512
32729,19550,29457
32716,19549,29312
32640,19559,29532
32588,19548,29469
32480,19555,29333
32420,19549,29506
32364,19537,29485
32388,19533,29360
32464,19536,29524
32544,19538,29512
32572,19540,29556
32552,19543,29388
32508,19541,29592
32384,19547,29524
32033,19553,29412
31740,19538,29541
31676,19538,29407
31738,19540,29525
31892,19545,29541
32068,19533,29496
32164,19534,29518
32192,19533,29363
32180,19550,29446
32268,19543,29432
32184,19534,29362
32184,19536,29413
32152,19534,29493
32044,19538,29447
32112,19541,29401
32192,19528,29313
32288,19526,29522
32334,19531,29447
32416,19529,29261
32336,19533,29344
32288,19532,29330
32216,19524,29400
32262,19530,29196
32188,19525,29292
32217,19525,29353
32349,19532,29206
32404,19538,29228
32429,19539,29175
32420,19522,29331
32492,19523,29212
32384,19524,29208
32320,19522,29296
32368,19519,29210
32396,19523,29304
32372,19524,29285
32528,19524,29241
32684,19516,29144
32641,19514,29129
32772,19513,29174
32536,19532,29273
32413,19522,29120
32352,19521,29296
32220,19518,29128
32460,19504,29206
32564,19524,29220
32620,19513,29055
32676,19520,29160
32748,19518,29025
32744,19516,29232
32712,19521,29185
32676,19521,29032
32608,19513,29221
32548,19501,29094
32608,19505,29157
32640,19518,28998
32660,19504,29190
32756,19508,29136
32664,19516,28968
32648,19516,29185
32660,19517,29129
32612,19516,28967
32588,19502,29111
32612,19496,29073
32608,19492,29118
32685,19504,28960
32684,19514,29156
32712,19497,29079
32700,19506,28924
32750,19516,29150
32793,19508,29100
32644,19502,28935
32478,19495,29102
32536,19500,29159
32560,19497,29037
32648,19496,28961
32608,19497,29124
32672,19503,29028
32824,19503,29125
32756,19500,28972
32664,19505,29172
32684,19504,29069
32684,19497,28944
32584,19500,29033
32610,19489,29063
32624,19487,29125
32684,19493,28968
32836,19501,29060
32856,19503,29017
32952,19500,29124
32884,19500,28953
32808,19500,29120
32660,19490,29072
32576,19492,29117
32324,19488,28961
32300,19493,29161
32384,19479,29084
32596,19489,28937
32736,19488,29128
32716,19496,28977
32681,19484,29081
32716,19489,28934
32696,19479,28928
32616,19481,29015
32548,19471,29084
32628,19476,29084
32736,19477,28966
32640,19483,29072
32684,19492,28893
32756,19495,29052
32712,19491,28948
32696,19492,29063
32624,19489,28892
32600,19470,28908
32600,19480,29025
32608,19468,29102
32644,19482,28932
32832,19482,29044
32996,19468,28896
32828,19490,28913
32788,19473,29053
32816,19463,28980
32636,19463,29016
32469,19463,29046
32512,19473,29045
32474,19463,28877
32621,19471,28888
32696,19468,28920
32633,19473,29001
32624,19476,29108
32616,19475,29022
32592,19463,28972
32534,19457,28960
32528,19455,29095
32628,19455,29022
32592,19459,29076
32632,19456,28901
32748,19456,28933
32700,19460,29096
32732,19462,28993
32768,19463,29094
32780,19458,28933
32728,19463,28972
32672,19457,29167
32608,19461,29013
32520,19468,29093
32464,19449,29128
32492,19448,28965
32549,19452,28986
32728,19456,29191
32800,19463,29142
32712,19452,28982
32688,19442,29191
32733,19443,29072
32788,19441,29200
32840,19436,29060
32864,19447,29220
32876,19446,29117
33078,19447,29236
32952,19460,29277
32824,19457,29217
32608,19457,29084
32452,19444,29295
32489,19453,29256
32552,19435,29229
32602,19439,29302
32640,19449,29181
32740,19442,29360
32788,19441,29342
32856,19439,29285
32832,19436,29232
32804,19436,29364
32848,19448,29221
32856,19440,29348
32800,19441,29266
32928,19428,29393
32956,19431,29452
32961,19429,29393
32892,19439,29266
32796,19436,29337
32760,19438,29290
32612,19440,29412
32576,19433,29331
32636,19429,29460
32580,19427,29323
32664,19428,29424
32728,19437,29420
32788,19425,29424
32828,19429,29496
32880,19436,29360
32848,19428,29551
32772,19425,29398
32680,19429,29508
32608,19428,29366
32612,19417,29436
32656,19420,29531
32696,19426,29365
32688,19424,29415
32816,19420,29518
32860,19422,29559
32796,19416,29380
32732,19422,29562
32728,19416,29508
32628,19413,29567
32688,19408,29456
32780,19412,29484
32680,19424,29402
32844,19419,29632
32820,19423,29518
32800,19426,29450
32740,19413,29512
32672,19413,29513
32720,19412,29420
32753,19423,29648
32720,19410,29604
32742,19414,29465
32852,19410,29667
32948,19406,29598
32964,19420,29457
32944,19420,29632
32837,19417,29551
32804,19402,29598
32724,19404,29440
32564,19406,29615
32564,19394,29663
32720,19403,29495
32836,19405,29602
32818,19410,29417
32876,19412,29524
32882,19412,29484
32892,19418,29596
32960,19410,29550
32782,19396,29553
32560,19396,29618
32456,19399,29426
32496,19391,29568
32532,19397,29513
32549,19399,29436
32633,19396,29677
32688,19398,29613
32780,19397,29488
32684,19392,29521
32696,19390,29485
32724,19389,29570
32664,19382,29585
32744,19388,29492
32764,19390,29712
32858,19388,29663
32745,19406,29629
32800,19400,29640
32768,19401,29497
32712,19399,29728
32692,19401,29656
32740,19382,29500
32696,19393,29741
32736,19384,29671
32706,19396,29525
32804,19381,29728
32844,19385,29694
32876,19385,29560
32920,19390,29644
32820,19385,29720
32836,19388,29629
32820,19380,29613
32856,19385,29735
32897,19382,29557
32968,19378,29658
32977,19392,29668
32988,19380,29762
32962,19380,29611
32868,19374,29693
32816,19387,29778
32832,19376,29765
32672,19375,29688
32712,19372,29816
32832,19380,29810
32800,19381,29703
32888,19387,29756
32920,19388,29841
32872,19376,29655
32836,19372,29745
32828,19365,29832
32764,19371,29865
32740,19364,29688
32688,19367,29912
32628,19368,29790
32796,19372,29870
32829,19386,29680
32920,19385,29924
32912,19368,29848
33016,19369,29898
33012,19372,29748
33064,19369,29965
33016,19370,29789
33104,19356,29908
33180,19362,29728
33238,19360,29950
32948,19381,29824
32548,19382,29865
32368,19367,29922
32604,19374,29936
32612,19363,29807
32604,19360,29987
32564,19364,29937
32540,19352,29935
32652,19363,29792
32728,19361,29893
32792,19358,29854
32776,19360,29981
32720,19365,29820
32664,19359,29916
32648,19368,30026
32536,19363,29923
32641,19349,29996
32660,19346,29876
32608,19351,30017
32660,19341,29985
32776,19354,29948
32844,19359,29832
32866,19353,29980
32864,19367,30121
32860,19357,30017
32800,19340,30079
32808,19344,29940
32772,19343,30137
32680,19350,30072
32629,19352,29926
32636,19343,29976
32644,19351,30156
32637,19349,30022
32696,19351,30134
32644,19348,30142
32612,19344,30140
32556,19340,29980
32654,19342,30236
32648,19341,30136
32772,19336,30013
32796,19353,30118
32712,19343,30048
32754,19351,30240
32752,19352,30205
32812,19335,30037
32768,19335,30255
32808,19335,30200
33016,19339,30072
33240,19343,30310
33557,19326,30215
33856,19335,30144
34240,19332,30359
34564,19335,30256
34996,19339,30113
35386,19333,30256
35713,19324,30234
35904,19331,30328
36228,19329,30192
36524,19335,30383
36704,19344,30247
36804,19346,30327
36840,19351,30188
36648,19344,30292
36464,19335,30264
35948,19332,30340
34856,19327,30144
33544,19327,30312
32476,19329,30348
31988,19333,30335
31716,19342,30152
31452,19344,30237
31172,19334,30414
31044,19336,30319
31004,19338,30356
30928,19340,30208
31006,19333,30280
31000,19330,30229
31168,19325,30184
31476,19320,30267
31456,19327,30273
31336,19323,30340
31636,19323,30140
31676,19323,30301
31944,19326,30249
32002,19319,30325
32084,19331,30181
32124,19318,30357
32192,19316,30210
32312,19311,30320
32398,19321,30108
32480,19324,30329
32548,19316,30270
32576,19308,30108
32536,19313,30150
32489,19314,30286
32388,19319,30245
32432,19301,30108
32476,19302,30180
32580,19317,30127
32560,19308,30228
32800,19316,30087
32876,19308,30117
32856,19306,30030
32832,19310,30128
32761,19311,30032
32760,19308,30124
32712,19298,30121
32672,19298,29980
32732,19308,30144
32804,19300,30012
32832,19296,30094
32720,19302,29897
32700,19313,29904
32776,19300,29972
32712,19299,30080
32720,19297,30036
32740,19301,29861
32736,19307,30085
32700,19292,30020
32725,19293,29881
32836,19311,30078
32920,19300,30018
32877,19301,29852
32854,19308,29988
32864,19302,29964
32844,19287,29965
32800,19291,29792
32852,19292,29975
32944,19299,29834
32992,19297,29892
33036,19295,29750
32924,19301,29794
32704,19305,29806
32720,19288,29790
32788,19292,29797
32788,19300,29578
32864,19285,29596
32792,19285,29697
32852,19292,29749
32936,19284,29646
33012,19289,29646
33132,19300,29432
33112,19289,29573
33109,19298,29470
33088,19285,29554
33088,19289,29384
32956,19290,29541
32796,19277,29460
32774,19283,29306
32864,19288,29299
32936,19279,29302
33016,19295,29325
33080,19282,29364
33084,19284,29436
33016,19281,29404
33000,19278,29300
32960,19289,29208
32916,19271,29268
33000,19268,29136
33032,19285,29108
33080,19273,29292
33104,19277,29102
33148,19283,29172
33164,19284,29166
33112,19292,29008
33036,19268,28987
33124,19270,29114
33076,19272,29077
33188,19284,28984
33252,19270,29049
33340,19272,28872
33212,19274,29037
33224,19284,28903
33272,19284,28961
33332,19266,28777
33352,19280,28804
33356,19270,28884
33352,19276,28922
33384,19261,28725
33432,19276,28777
33484,19277,28917
33532,19269,28820
33512,19276,28855
33548,19275,28692
33461,19281,28817
33388,19261,28748
33424,19268,28832
33484,19271,28828
33528,19264,28676
33556,19273,28876
33688,19263,28702
33656,19286,28820
33768,19268,28679
33748,19270,28845
33704,19268,28799
33636,19263,28626
33568,19256,28858
33516,19260,28716
33480,19263,28816
33553,19264,28658
33672,19268,28813
33760,19270,28770
33757,19281,28687
33784,19261,28728
33629,19272,28724
33512,19261,28828
33468,19263,28732
33344,19261,28817
33120,19250,28854
33124,19256,28773
33140,19258,28757
33234,19260,28719
33376,19262,28742
33292,19261,28932
33136,19272,28793
32996,19245,28910
32784,19263,28769
32628,19249,28853
32540,19260,28836
32592,19252,28965
32685,19263,28822
32712,19261,29044
32704,19263,28896
32608,19255,29020
32404,19253,28869
32258,19260,28908
32228,19245,29126
32184,19260,28969
32128,19245,29105
32148,19257,28968
32244,19245,29151
32308,19263,29031
32328,19254,28985
32356,19254,29220
32356,19250,29140
32288,19239,29014
32192,19245,29071
32148,19244,29213
32204,19248,29233
32224,19241,29093
32244,19236,29301
32262,19247,29191
32260,19249,29280
32272,19254,29140
32220,19235,29357
32182,19236,29280
32152,19243,29328
32174,19252,29164
32236,19234,29236
32316,19246,29309
32420,19236,29391
32352,19249,29244
32428,19249,29461
32456,19241,29304
32404,19249,29442
32280,19236,29312
32164,19239,29468
32176,19247,29476
32192,19229,29311
32276,19229,29536
32308,19247,29513
32272,19241,29391
32284,19238,29488
32296,19243,29524
32300,19228,29601
32320,19241,29493
32316,19229,29718
32268,19235,29637
32364,19238,29528
32420,19224,29796
32396,19224,29764
32437,19231,29645
32429,19233,29813
32516,19239,29831
32516,19231,29861
32464,19225,29748
32444,19223,29900
32440,19231,29872
32448,19236,29844
32600,19220,29881
32816,19224,29984
32896,19228,30086
32840,19226,29940
32788,19233,30020
32692,19222,30144
32356,19221,30204
32000,19235,30041
32020,19228,30334
32172,19228,30297
32268,19223,30140
32400,19223,30284
32504,19223,30440
32548,19240,30327
32584,19223,30469
32540,19221,30320
32532,19231,30333
32596,19221,30448
32648,19219,30660
32628,19220,30533
32580,19215,30672
32696,19219,30565
32716,19223,30791
32564,19220,30697
32476,19222,30641
32488,19221,30904
32505,19213,30765
32424,19213,30910
32392,19204,30764
32476,19224,30839
32564,19212,31036
32600,19213,30962
32632,19223,31099
32812,19221,31004
32756,19221,31239
32702,19221,31108
32660,19218,31233
32612,19204,31145
32660,19200,31343
32700,19213,31328
32664,19212,31183
32640,19211,31484
32624,19218,31471
32592,19225,31459
32578,19222,31524
32485,19210,31476
32468,19204,31506
32424,19204,31452
32444,19199,31780
32508,19215,31700
32552,19205,31788
32608,19209,31750
32684,19212,31773
32640,19210,31740
32460,19209,31922
32357,19204,31869
32352,19199,32021
32342,19203,32070
32384,19213,32047
32500,19197,32044
32596,19205,32167
32740,19200,32218
32860,19205,32152
32884,19209,32294
32784,19213,32364
32656,19200,32342
32520,19201,32176
32460,19193,32515
32380,19199,32495
32284,19199,32573
32352,19206,32528
32548,19195,32473
32520,19198,32524
32609,19200,32417
32576,19199,32760
32584,19204,32717
32584,19195,32719
32542,19196,32719
32572,19202,32621
32560,19185,32920
32568,19206,32819
32604,19193,32773
32617,19197,32877
32633,19200,32940
32736,19196,32902
32697,19196,32911
32704,19188,32787
32668,19187,33129
32712,19181,33061
32768,19180,33134
32788,19180,33100
32736,19189,32932
32789,19200,33168
32708,19196,33208
32648,19193,33281
32672,19192,33252
32641,19193,33193
32620,19195,33185
32564,19173,33321
32604,19177,33388
32612,19188,33277
32612,19181,33415
32652,19190,33336
32688,19199,33476
32796,19197,33482
32676,19184,33532
32644,19177,33497
32580,19179,33416
32485,19173,33492
32412,19182,33359
32440,19189,33723
32484,19191,33532
32508,19196,33436
32552,19199,33807
32608,19177,33685
32636,19173,33592
32592,19175,33813
32568,19172,33540
32568,19171,33828
32676,19191,33820
32740,19175,33753
32768,19175,33799
32796,19184,33895
32784,19183,33813
32748,19180,33927
32668,19182,33940
32488,19182,34020
32452,19178,33994
32413,19172,34063
32552,19170,34001
32728,19174,34093
32840,19178,34048
32916,19180,34098
32894,19180,34092
32872,19186,34037
32660,19189,34200
32416,19169,34140
32321,19169,34104
32320,19168,34100
32376,19174,33992
32444,19168,34340
32552,19177,34188
32638,19164,34052
32620,19167,34407
32616,19167,34364
32688,19183,34289
32596,19172,34439
32624,19173,34427
32633,19169,34559
32588,19163,34492
32636,19163,34567
32720,19161,34529
32724,19169,34448
32732,19177,34615
32696,19171,34591
32660,19160,34615
32616,19159,34697
32549,19160,34669
32584,19168,34479
32608,19153,34800
32660,19156,34742
32728,19164,34797
32804,19163,34758
32797,19164,34727
32736,19172,34709
32624,19158,34628
32556,19156,34951
32546,19156,34927
32500,19150,35040
32604,19153,34695
32721,19154,34860
32820,19151,34932
32920,19160,34904
32948,19157,35044
32953,19161,35092
32944,19157,35000
32804,19157,34868
32752,19164,35264
32736,19159,35192
32588,19152,35260
32608,19156,35196
32684,19152,35021
32656,19156,35327
32624,19155,35186
32572,19162,35079
32540,19163,35460
32584,19144,35365
32589,19142,35335
32536,19144,35328
32600,19150,35196
32596,19153,35568
32644,19152,35480
32640,19164,35273
32700,19156,35672
32700,19152,35572
32629,19144,35530
32668,19144,35749
32633,19150,35684
32600,19151,35728
32612,19155,35727
32640,19144,35830
32776,19148,35799
32804,19142,35820
32792,19145,35785
32776,19141,35732
32768,19144,35772
32800,19152,35636
32616,19134,36052
32556,19141,35936
32608,19153,35828
32772,19142,36087
32964,19151,36076
32924,19152,36079
32730,19144,36029
32760,19144,36156
32724,19148,36097
32636,19136,36213
32544,19139,36249
32540,19145,36072
32544,19133,36392
32560,19134,36320
32672,19151,36181
32744,19143,36508
32740,19151,36372
32708,19150,36359
32632,19147,36396
32540,19138,36294
32428,19144,36557
32376,19129,36576
32380,19130,36576
32460,19127,36580
32608,19129,36664
32720,19138,36756
32784,19148,36704
32740,19148,36655
32720,19137,36678
32812,19133,36814
32700,19132,36909
32661,19127,36868
32704,19118,36860
32824,19128,36967
32876,19124,36935
32804,19129,36998
32664,19131,36934
32564,19128,36916
32528,19138,36999
32520,19139,36964
32568,19135,37137
32616,19121,37062
32697,19138,37117
32860,19129,37074
32904,19133,37077
32924,19143,37184
32976,19129,37260
32909,19124,37207
32876,19141,37220
32864,19135,37268
32908,19122,37229
32844,19123,37270
32792,19119,37294
32872,19122,37297
32973,19133,37181
32968,19130,37508
33014,19142,37445
33080,19142,37565
33028,19138,37455
33004,19130,37260
32961,19116,37654
32708,19114,37551
32536,19111,37501
32488,19112,37476
32536,19122,37589
32604,19128,37695
32736,19127,37604
32856,19124,37484
32716,19121,37788
32684,19127,37593
32704,19129,37712
32684,19121,37704
32668,19128,37628
32528,19117,37782
32504,19131,37721
32660,19125,37722
32744,19128,37813
32760,19122,37792
32660,19113,37928
32542,19110,37765
32596,19114,37893
32692,19115,37829
32828,19111,37966
32913,19106,37797
33008,19124,37944
33052,19114,37905
32988,19114,38106
32884,19131,37998
32708,19115,37936
32444,19109,38005
32392,19109,38036
32480,19105,37973
32544,19108,38108
32664,19119,38069
32684,19105,37910
32729,19111,38204
32756,19113,37988
32752,19119,38116
32844,19104,37848
32820,19111,38136
32796,19109,38257
32728,19104,38084
32608,19109,38157
32548,19109,38092
32544,19109,38264
32604,19097,38109
32664,19108,38189
32712,19112,37974
32608,19112,38238
32604,19111,38108
32548,19105,38206
32484,19097,38208
32516,19097,38036
32564,19092,38276
32660,19094,38082
32720,19099,38224
32708,19105,37941
32704,19100,38229
32714,19101,38272
32772,19098,38208
32712,19095,38215
32832,19098,38080
32964,19088,38223
33093,19093,38148
33362,19111,38341
33696,19099,38229
34056,19102,38224
34401,19109,38279
34824,19094,38212
35200,19085,38200
35624,19094,38073
36008,19085,37946
36424,19084,38332
36688,19094,38205
36968,19096,38044
37312,19102,38316
37480,19106,38071
37364,19093,38211
37316,19094,38144
37168,19102,38277
36736,19104,38164
35896,19087,38108
34544,19093,38193
33380,19095,38175
32768,19107,38134
32336,19113,38061
31937,19105,38080
31636,19096,38244
31340,19092,38168
31144,19092,38049
31104,19100,38164
31153,19087,38116
31304,19092,38036
31524,19089,38101
31612,19088,38076
31621,19093,38148
31694,19098,38057
31737,19091,38093
31740,19093,38012
31768,19092,37921
31776,19092,37944
31785,19077,37962
31772,19090,37812
31972,19087,37965
32124,19092,37877
32336,19088,37697
32396,19079,37952
32440,19087,37797
32436,19084,37732
32368,19087,37916
32360,19070,37732
32352,19071,37629
32389,19076,37639
32416,19089,37652
32464,19081,37831
32516,19077,37557
32572,19081,37669
32508,19080,37584
32396,19085,37750
32333,19076,37528
32280,19072,37634
32317,19072,37564
32372,19076,37748
32457,19078,37623
32561,19087,37556
32669,19076,37741
32740,19074,37590
32816,19076,37442
32809,19086,37757
32716,19069,37628
32720,19068,37444
32596,19069,37648
32622,19068,37572
32520,19073,37657
32338,19077,37576
32312,19068,37753
32529,19088,37648
32684,19081,37573
32680,19074,37570
32636,19079,37620
32648,19068,37600
32580,19060,37655
32464,19068,37620
32408,19077,37516
32416,19077,37712
32500,19070,37604
32536,19073,37628
32553,19073,37537
32564,19073,37366
32615,19071,37639
32688,19071,37481
32644,19057,37496
32688,19061,37595
32652,19058,37469
32660,19057,37421
32800,19057,37344
32772,19064,37224
32688,19064,37436
32784,19062,37447
32712,19063,37445
32572,19060,37284
32532,19054,37216
32552,19050,37508
32672,19068,37100
32781,19074,37358
32828,19070,37381
32908,19076,37342
32996,19069,37301
33036,19074,37038
32992,19065,37412
32900,19067,37249
32892,19066,37308
32916,19052,37228
32860,19064,37324
32820,19063,37391
32845,19068,37334
32850,19052,37156
32936,19076,37233
32957,19061,37260
32925,19063,37167
32964,19064,37340
33000,19052,37161
32980,19049,37208
32973,19049,37163
33012,19047,37292
33128,19068,37159
33244,19065,37156
33284,19066,37135
33260,19055,37153
33254,19060,37144
33180,19049,37040
33188,19054,37218
33132,19047,37056
33008,19052,36770
33104,19051,37080
33236,19067,37127
33236,19053,36973
33272,19054,36998
33380,19052,36716
33332,19057,36932
33344,19055,37102
33332,19049,36853
33401,19045,36968
33520,19049,36756
33689,19052,36964
33832,19060,37022
33760,19060,36785
33744,19045,36871
33748,19048,36577
33504,19042,36892
33464,19057,36788
33428,19037,36843
33488,19042,36748
33616,19038,36809
33740,19047,36900
33848,19045,36702
33864,19045,36781
33820,19048,36672
33728,19042,36865
33604,19061,36693
33496,19045,36414
33436,19044,36709
33488,19047,36660
33536,19041,36666
33445,19042,36724
33400,19041,36623
33444,19045,36525
33473,19058,36684
33376,19048,36528
33141,19050,36300
32968,19045,36440
32868,19032,36596
32804,19033,36356
32752,19045,36456
32796,19049,36356
32780,19044,36527
32768,19044,36367
32764,19046,36055
32689,19044,36256
32529,19049,36356
32428,19033,36267
32272,19028,36182
32088,19034,36197
32160,19031,36113
32284,19047,36194
32305,19050,35964
32200,19054,36052
32232,19044,35738
32200,19050,36044
32024,19034,35846
31956,19032,35912
31980,19041,35868
32048,19033,35568
32100,19044,35719
32116,19040,35719
32156,19043,35804
32192,19045,35638
32148,19043,35455
32004,19036,35724
31916,19033,35478
31880,19034,35564
31884,19035,35440
31862,19030,35560
32036,19036,35369
32128,19027,35392
32256,19029,35380
32344,19032,35108
32373,19030,35232
32392,19033,35313
32324,19028,35145
32224,19027,35207
32052,19023,35045
32008,19025,35233
32036,19022,35061
32132,19029,34864
32236,19036,35028
32300,19034,34907
32352,19039,34693
32244,19035,35029
32150,19028,34908
32100,19033,34763
32144,19020,34926
32205,19020,34727
32324,19019,34773
32492,19025,34744
32668,19037,34548
32728,19030,34751
32716,19024,34540
32552,19031,34596
32526,19024,34288
32480,19023,34487
32374,19034,34536
32184,19016,34449
32124,19021,34364
32216,19032,34102
32300,19037,34397
32320,19028,34245
32404,19030,34012
32484,19026,34116
32460,19028,34254
32352,19029,34125
32364,19014,33983
32448,19005,34141
32456,19009,33980
32432,19029,33741
32504,19017,33973
32552,19023,33877
32576,19037,33708
32600,19017,33878
32584,19017,33687
32588,19023,33752
32532,19008,33636
32632,19012,33717
32724,19008,33669
32744,19014,33444
32716,19025,33623
32644,19016,33584
32594,19019,33431
32532,19024,33484
32496,19029,33212
32520,19026,33415
32572,19007,33424
32680,19005,33234
32764,19009,33316
32860,19013,33266
32860,19023,33200
32708,19030,33296
32564,19012,33073
32512,19007,33165
32404,19018,32903
32369,19012,32980
32316,19018,33060
32372,19004,32952
32452,19000,32970
32500,19004,32980
32596,19018,32695
32592,19012,32782
32760,19008,32912
32712,19018,32789
32684,19008,32796
32668,19013,32647
32725,19010,32791
32708,19013,32692
32621,19013,32559
32448,19016,32532
32421,19014,32373
32495,19009,32519
32456,19007,32566
32452,19008,32479
32416,18998,32327
32436,19004,32487
32420,19009,32320
32428,18996,32308
32508,19016,32053
32592,19012,32182
32596,19005,32129
32636,19002,32160
32662,19008,32044
32641,19013,32044
32576,19007,31932
32492,18993,32021
32488,18994,31988
32624,18991,31772
32628,18997,31804
32748,18997,31944
32668,18998,31745
32664,19000,31830
32652,19000,31588
32609,18992,31696
32592,18996,31751
32520,19013,31689
32498,18996,31445
32620,19002,31568
32640,18988,31702
32729,19011,31533
32820,19001,31341
32761,19007,31389
32752,18996,31559
32692,19007,31332
32578,19002,31428
32464,19003,31268
32437,18988,31426
32444,19001,31320
32508,19007,31174
32520,19006,31244
32506,18992,31216
32522,18992,30989
32520,18996,31212
32566,18991,31031
32592,18988,31092
32616,19004,30908
32736,18984,31108
32796,18991,30884
32879,18996,30972
32832,18999,30814
32768,19001,30897
32708,18990,30878
32648,18990,30721
32596,18990,30780
32504,18990,30780
32564,18991,30674
32616,18992,30644
32638,18985,30703
32428,18981,30551
32412,18984,30580
32544,19004,30628
32576,18993,30464
32672,18993,30612
32604,18994,30452
32576,18982,30329
32596,18982,30440
32672,18976,30400
32744,18983,30442
32792,18988,30247
32808,18993,30256
32892,18993,30439
32864,19011,30216
32788,18996,30320
32668,18996,30276
32704,18991,30088
32672,18977,30181
32741,18973,30247
32821,18968,30073
32928,18976,30168
32952,18982,30001
32936,18988,30143
32884,18984,30085
32877,18999,30066
32784,18976,29919
32696,18984,30087
32692,18983,29949
32576,18974,29959
32620,18968,29970
32673,18986,29813
32688,18985,29901
32805,18988,29882
32828,18978,29887
32884,18976,29740
32804,18977,29882
32705,18981,29830
32708,18985,29628
32784,18964,29755
32764,18982,29660
32772,18975,29750
32828,18972,29551
32916,18992,29540
32904,18992,29511
32824,18990,29525
32824,18980,29541
32816,18969,29680
32916,18968,29501
32952,18973,29403
32948,18974,29607
33088,18975,29506
33172,18980,29529
32980,18980,29322
32797,18986,29535
32712,18975,29357
32744,18975,29442
32816,18980,29244
32780,18964,29258
32737,18960,29415
32644,18966,29264
32692,18980,29332
32820,18966,29164
32900,18973,29308
32932,18981,29167
32948,18980,29256
32940,18974,29073
32910,18961,29191
32852,18964,29158
32796,18966,29117
32748,18972,29084
32868,18957,29029
32952,18972,29068
32996,18977,29077
33076,18969,28885
33076,18968,28888
33056,18977,29076
32936,18981,28905
32801,18959,28999
32700,18962,28812
32776,18961,28927
32852,18952,28837
32858,18980,28933
32828,18975,28746
32864,18978,28736
32832,18976,28745
32768,18974,28853
32728,18968,28764
32701,18962,28865
32716,18954,28692
32672,18963,28896
32704,18964,28710
32716,18966,28806
32744,18967,28813
32600,18970,28793
32668,18972,28645
32560,18962,28741
32500,18958,28785
32504,18964,28749
32536,18958,28772
32596,18962,28588
32640,18966,28614
32644,18965,28775
32692,18956,28720
32808,18961,28712
32884,18962,28738
32888,18973,28580
32860,18961,28757
32816,18964,28605
32784,18949,28708
32705,18945,28567
32432,18948,28652
32392,18958,28678
32492,18965,28684
32696,18966,28672
32608,18967,28508
32580,18964,28674
32476,18956,28561
32460,18943,28599
32456,18948,28540
32524,18944,28487
32604,18946,28652
32676,18948,28524
32792,18950,28596
32884,18951,28452
32948,18959,28434
32933,18965,28536
32904,18948,28605
32752,18942,28452
32672,18941,28520
32632,18944,28391
32788,18951,28431
33108,18949,28341
33304,18954,28352
33672,18957,28540
34052,18945,28533
34496,18944,28456
34792,18940,28443
35212,18945,28454
35632,18934,28441
35972,18940,28263
36264,18961,28284
36604,18949,28359
37020,18954,28470
37352,18942,28350
37469,18956,28313
37520,18969,28386
37384,18941,28225
37056,18951,28233
36372,18957,28364
35192,18945,28401
33836,18951,28260
32929,18966,28320
32492,18958,28340
32120,18964,28343
31769,18965,28160
31410,18965,28174
31092,18951,28361
30876,18940,28196
30900,18940,28298
31106,18939,28124
31348,18954,28249
31520,18950,28173
31452,18954,28180
31472,18954,28252
31597,18956,28072
31660,18953,28248
31784,18940,28186
31772,18932,28112
31932,18944,28176
32152,18946,28000
32344,18930,27997
32468,18932,28011
32496,18945,28120
32388,18937,28105
32270,18945,28018
32260,18935,28039
32360,18936,28103
32400,18933,27940
32276,18937,28131
32216,18944,27981
32272,18932,28061
32308,18926,27920
32502,18944,28036
32412,18932,27966
32492,18942,28014
32404,18947,28046
32400,18927,27895
32332,18932,27964
32364,18932,28048
32466,18928,28053
32616,18930,27904
32576,18944,28072
32668,18928,28039
32688,18937,28069
32688,18928,27904
32736,18940,28009
32660,18931,28076
32616,18925,27909
32648,18937,28127
32612,18924,28079
32670,18933,27975
32768,18928,28040
32836,18926,27900
32858,18945,28094
32788,18932,28061
32808,18935,27966
32820,18936,27956
32752,18932,28049
32644,18939,27941
32580,18918,27919
32680,18924,27876
32644,18920,28069
32736,18927,28004
32884,18920,27849
32936,18925,28052
32960,18925,27966
32956,18929,27997
32852,18924,27815
32768,18925,27821
32816,18913,27993
32732,18917,27878
32564,18925,27972
32660,18920,27800
32716,18924,27861
32860,18921,27792
32821,18936,27989
32752,18927,27952
32788,18922,27780
32721,18916,27841
32768,18928,27800
32884,18916,27946
32848,18928,27905
32848,18934,27789
32956,18920,27813
33036,18939,27749
32973,18933,27886
32880,18932,27910
32708,18929,27922
32712,18924,27895
32800,18918,27732
32848,18923,27920
32932,18924,27852
33073,18927,27728
33188,18921,27836
33164,18917,27808
33176,18925,27896
33200,18919,27831
33160,18916,27893
33144,18919,27892
33272,18912,27849
33272,18916,27722
33428,18915,27920
33472,18924,27892
33468,18928,27873
33376,18933,27880
33284,18916,27735
33240,18911,27768
33148,18908,27708
33233,18921,27830
33216,18918,27772
33224,18916,27703
33486,18914,27916
33540,18914,27850
33548,18945,27692
33589,18920,27841
33572,18914,27837
33560,18915,27690
33544,18910,27758
33592,18916,27783
33692,18901,27804
33836,18908,27644
33840,18909,27725
33924,18925,27783
33992,18928,27620
33972,18916,27711
33876,18924,27768
33540,18913,27616
33540,18908,27792
33640,18903,27764
33660,18909,27600
33548,18914,27809
33532,18910,27753
33564,18905,27612
33628,18920,27802
33588,18917,27768
33564,18916,27765
33540,18905,27621
33580,18904,27748
33416,18909,27765
33484,18903,27621
33500,18908,27801
33444,18901,27666
33240,18910,27764
33445,18918,27598
33356,18916,27742
33129,18899,27728
33188,18903,27724
33120,18912,27769
33124,18896,27769
33076,18910,27608
33036,18907,27770
32916,18912,27698
32789,18905,27759
32560,18908,27600
32596,18912,27712
32432,18904,27697
32264,18899,27748
32348,18908,27576
32244,18896,27580
32213,18896,27685
32248,18901,27730
32268,18910,27564
32260,18900,27745
32396,18896,27716
32152,18902,27550
32192,18909,27625
32172,18910,27660
32216,18895,27706
32192,18890,27609
32138,18898,27536
32224,18904,27746
32224,18894,27588
32340,18893,27677
32380,18902,27528
32128,18908,27662
32320,18916,27560
32480,18903,27647
32472,18900,27661
32420,18904,27502
32152,18900,27628
32024,18896,27540
32004,18908,27636
32108,18904,27472
32028,18909,27644
32116,18904,27601
32184,18902,27432
32104,18894,27592
32064,18889,27577
32104,18888,27433
32136,18894,27456
32132,18896,27388
32201,18896,27465
32216,18898,27440
32325,18901,27365
32332,18905,27552
32328,18893,27512
32237,18888,27486
32224,18900,27404
32248,18897,27500
32268,18894,27336
32240,18888,27500
32336,18890,27485
32456,18894,27364
32440,18895,27334
32504,18894,27463
32344,18892,27488
32316,18889,27341
32352,18885,27492
32380,18883,27489
32404,18882,27321
32472,18884,27476
32572,18889,27448
32640,18898,27349
32652,18900,27340
32692,18894,27460
32656,18896,27328
32564,18886,27426
32604,18895,27327
32536,18883,27340
32396,18892,27399
32368,18889,27282
32440,18884,27296
32544,18892,27374
32532,18900,27377
32596,18888,27216
32800,18887,27417
32780,18885,27279
32724,18889,27361
32672,18877,27188
32644,18880,27369
32672,18898,27260
32636,18880,27281
32384,18888,27354
32320,18886,27357
32476,18880,27182
32500,18891,27205
32380,18892,27308
32392,18885,27366
32224,18892,27279
32312,18872,27337
32364,18870,27182
32596,18880,27228
32592,18890,27372
32628,18882,27252
32704,18886,27356
32600,18884,27192
32556,18887,27233
32488,18891,27388
32484,18882,27401
32605,18883,27356
32672,18873,27277
32752,18881,27324
32772,18884,27400
32800,18898,27241
32788,18892,27252
32716,18877,27353
32572,18882,27463
32428,18873,27340
32512,18878,27399
32544,18885,27422
32485,18865,27301
32584,18884,27272
32660,18879,27460
32696,18892,27447
32672,18888,27350
32624,18878,27425
32616,18873,27452
32588,18887,27284
32572,18872,27278
32560,18884,27375
32684,18886,27448
32716,18870,27284
32688,18883,27288
32864,18884,27480
32884,18869,27408
32768,18887,27429
32769,18880,27440
32732,18870,27304
32656,18871,27329
32669,18868,27471
32672,18880,27437
32676,18868,27462
32741,18876,27348
32812,18888,27315
32880,18876,27511
32784,18873,27448
32712,18877,27340
32584,18861,27304
32576,18876,27464
32548,18869,27511
32228,18876,27408
32404,18880,27460
32576,18868,27488
32492,18870,27316
32492,18868,27441
32556,18872,27399
32604,18863,27489
32600,18866,27508
32592,18858,27390
32573,18872,27352
32696,18881,27480
32780,18881,27493
32708,18884,27496
32860,18887,27533
32892,18868,27408
32816,18886,27377
32772,18868,27558
32732,18857,27589
32696,18857,27492
32716,18856,27557
32808,18876,27415
32832,18875,27575
32936,18869,27472
32972,18873,27593
32908,18872,27450
32848,18871,27434
32852,18868,27460
32672,18869,27584
32704,18869,27634
32664,18867,27608
32644,18861,27628
32660,18863,27477
32780,18868,27605
32812,18865,27693
32848,18868,27705
32876,18864,27559
32780,18865,27596
32684,18860,27686
32572,18857,27687
32572,18865,27544
32536,18854,27669
32816,18855,27756
32932,18857,27608
32924,18860,27728
32884,18856,27567
32800,18856,27578
32748,18872,27726
32740,18852,27738
32831,18850,27626
32836,18852,27612
32696,18848,27624
32741,18852,27816
32752,18853,27802
32844,18855,27720
32900,18852,27774
32905,18858,27836
32848,18850,27720
32760,18850,27703
32792,18868,27876
32688,18860,27929
32649,18856,27776
32748,18858,27873
32728,18860,27921
32652,18861,27752
32700,18868,27772
32640,18861,27902
32708,18850,27996
32664,18851,27858
32676,18852,27924
32740,18840,27972
32597,18849,28007
32436,18848,28007
32560,18854,28007
32568,18857,28008
32546,18853,27878
32626,18854,27884
32560,18849,27956
32532,18864,28093
32580,18855,27960
32480,18856,28058
32632,18857,27926
32716,18869,27965
32768,18851,28059
32848,18857,27948
32744,18859,27928
32732,18859,28078
32700,18846,28100
32732,18853,27975
32716,18852,27991
32756,18842,28076
32728,18846,28109
32680,18849,27944
32756,18868,27976
32736,18854,28178
32736,18863,28024
32724,18855,28132
32676,18848,28156
32600,18850,28143
32568,18854,28137
32680,18839,28156
32768,18850,28189
32832,18852,28045
32848,18854,28040
32956,18847,28110
33028,18852,28228
32884,18848,28113
32740,18845,28206
32600,18852,28228
32668,18834,28063
32636,18834,28271
32712,18854,28170
32836,18844,28263
32904,18859,28125
32956,18859,28242
32952,18856,28277
32936,18855,28188
32796,18863,28286
32820,18836,28321
32804,18837,28167
32712,18839,28211
32733,18848,28374
32768,18847,28244
32760,18853,28350
32784,18852,28265
32848,18860,28328
32884,18852,28295
32768,18836,28423
32764,18846,28294
32720,18844,28288
32781,18828,28486
32872,18852,28360
33008,18847,28467
33116,18841,28472
33164,18848,28490
33152,18848,28336
33090,18841,28327
32788,18832,28365
32668,18839,28516
32652,18847,28404
32664,18847,28525
32652,18837,28380
32780,18845,28580
32864,18838,28519
32924,18838,28392
32924,18843,28576
32800,18853,28428
32860,18836,28529
32772,18844,28565
32768,18843,28417
32832,18843,28597
32860,18828,28496
32920,18832,28596
32996,18830,28422
33016,18834,28453
33052,18853,28594
33036,18845,28516
33000,18837,28612
32918,18832,28645
32887,18836,28654
32872,18834,28511
32856,18830,28644
32902,18828,28648
32950,18835,28686
33020,18842,28516
32996,18832,28553
32956,18827,28703
32912,18828,28712
32837,18825,28548
32824,18824,28636
32864,18841,28728
32909,18825,28751
33004,18831,28588
33136,18834,28724
33113,18837,28689
33133,18836,28801
33133,18830,28679
33104,18834,28702
33096,18833,28829
33108,18828,28701
33188,18832,28858
33224,18820,28856
33204,18843,28708
33208,18831,28870
33108,18842,28868
33028,18827,28720
32928,18829,28950
33028,18825,28821
33124,18832,28755
33108,18834,28886
32988,18823,28829
33072,18823,28941
33164,18826,28797
33132,18831,28891
32928,18838,28969
32704,18822,28828
32736,18824,29032
32660,18828,28894
32720,18832,28989
32748,18820,28847
32796,18823,28966
32880,18835,28997
32952,18833,28817
32976,18821,28908
32928,18823,29070
32936,18828,28913
32832,18828,28886
32784,18829,28941
32816,18821,29071
32864,18821,29024
32896,18828,28892
32872,18817,29084
32928,18828,28935
32940,18828,29057
32877,18821,28865
32924,18821,29093
32760,18828,28936
32636,18826,29060
32480,18816,28925
32444,18826,29086
32548,18820,28962
32564,18827,28892
32680,18815,29017
32732,18821,29020
32756,18830,29088
32764,18817,28948
32720,18822,29152
32676,18825,29017
32608,18808,29117
32584,18818,28928
32648,18823,29052
32672,18815,29156
32774,18820,29119
32800,18820,28965
32820,18832,29102
32752,18817,29092
32696,18817,29036
32620,18822,29224
32569,18815,29197
32612,18818,29116
32564,18814,29137
32704,18811,29060
32704,18808,29338
32750,18812,29292
32792,18828,29333
32826,18823,29294
32684,18817,29172
32708,18812,29353
32764,18818,29280
32924,18812,29415
33133,18810,29278
33348,18813,29524
33668,18819,29378
33944,18823,29496
34324,18812,29384
34748,18806,29600
35000,18806,29565
35128,18809,29452
35501,18806,29692
35828,18802,29628
36148,18800,29696
36392,18802,29616
36560,18807,29760
36588,18810,29789
36572,18809,29676
36416,18832,29904
36252,18825,29871
35836,18809,29916
34856,18823,29808
33568,18821,30047
32505,18814,29996
31884,18813,29857
31649,18816,30004
31484,18824,30066
31292,18815,30156
30975,18812,30177
30808,18816,30244
30846,18820,30272
30912,18806,30148
30924,18806,30428
31052,18806,30380
31256,18809,30303
31558,18812,30508
31769,18802,30478
31937,18808,30353
32172,18810,30580
32288,18811,30572
32356,18799,30413
32416,18795,30722
32426,18794,30697
32192,18799,30538
32140,18809,30692
32228,18798,30828
32356,18805,30845
32480,18804,30689
32532,18820,30892
32592,18821,30909
32578,18799,31014
32576,18806,30855
32560,18796,31075
32485,18801,31056
32440,18795,31111
32524,18792,31182
32560,18805,31047
32676,18806,31196
32752,18799,31220
32728,18815,31316
32552,18797,31236
32448,18799,31353
32472,18806,31394
32512,18815,31237
32608,18804,31550
32744,18802,31495
32868,18801,31342
32948,18798,31632
32920,18812,31634
32880,18799,31545
32840,18789,31765
32656,18801,31685
32388,18795,31780
32445,18785,31629
32528,18799,31830
32586,18796,31898
32544,18810,31920
32600,18816,31745
32712,18801,32020
32732,18791,32026
32656,18798,31982
32592,18796,32105
32660,18792,31910
32792,18789,32044
32870,18788,32092
32936,18804,32228
32965,18791,32146
33032,18812,32372
32980,18804,32244
32864,18788,32334
32848,18793,32366
32828,18795,32375
32832,18783,32352
32764,18788,32450
32736,18791,32381
32776,18803,32623
32912,18791,32464
33004,18807,32585
33012,18800,32418
32952,18805,32693
32812,18786,32645
32716,18789,32697
32644,18786,32633
32684,18782,32854
32748,18785,32781
32820,18783,32713
32868,18786,32836
32960,18798,32852
32973,18803,32800
32996,18785,32844
32968,18788,32664
32928,18786,33001
32838,18791,32828
32832,18784,32972
32860,18784,32920
32940,18787,33017
32999,18785,33017
33048,18786,32948
33100,18785,33148
33060,18802,33026
32936,18783,33088
32868,18778,32853
32953,18774,33153
33040,18773,33060
33132,18777,33096
33136,18778,33031
33168,18783,33145
33136,18788,33143
33086,18793,33009
33044,18789,33219
33040,18782,33108
33108,18778,32924
33148,18783,33174
33262,18784,33264
33381,18777,33045
33420,18779,33154
33468,18784,33060
33512,18802,33169
33504,18788,33158
33448,18788,33120
33180,18788,33156
33100,18791,33049
33156,18771,33189
33240,18780,33068
33280,18791,33149
33300,18777,32962
33372,18789,33124
33408,18789,33204
33388,18783,33054
33346,18780,33111
33412,18780,33156
33452,18782,32965
33513,18781,33183
33544,18772,33193
33548,18777,33084
33572,18785,33160
33594,18783,33056
33576,18781,33116
33600,18785,33204
33648,18785,33164
33576,18780,33094
33457,18784,33210
33440,18776,33125
33292,18772,32945
33236,18783,33084
33232,18788,33305
33240,18790,33202
33250,18788,32962
33180,18781,33134
33132,18792,33101
33036,18783,32981
32952,18765,33200
32900,18772,33236
32797,18771,33247
32744,18787,33220
32770,18772,33296
32728,18773,33224
32812,18783,33261
32744,18775,33242
32588,18788,33325
32408,18773,33273
32292,18770,33316
32336,18772,33260
32240,18776,33345
32260,18776,33357
32336,18780,33265
32312,18768,33448
32350,18766,33308
32380,18770,33396
32300,18764,33429
32188,18766,33330
32141,18767,33444
32188,18761,33223
32164,18764,33520
32044,18758,33455
31944,18763,33517
32032,18775,33306
32080,18783,33509
32008,18786,33511
31937,18773,33577
31888,18773,33378
31868,18758,33543
31917,18769,33725
31964,18761,33628
32158,18774,33492
32280,18759,33748
32332,18768,33657
32316,18772,33481
32316,18781,33625
32172,18768,33756
32057,18764,33701
31968,18761,33612
31868,18756,33748
31933,18757,33628
32096,18768,33722
32220,18763,33817
32300,18763,33820
32333,18777,33729
32308,18764,33799
32236,18772,33657
32130,18773,33911
32180,18763,33799
32206,18767,33603
32248,18753,33790
32208,18756,33829
32380,18761,33855
32524,18767,33763
32526,18761,33960
32508,18767,33756
32482,18767,33903
32352,18758,33809
32308,18757,34009
32324,18756,33868
32420,18756,33933
32500,18756,33832
32572,18759,34062
32644,18760,33844
32593,18767,33956
32608,18780,33732
32461,18772,33909
32428,18764,34133
32416,18756,33948
32464,18763,33784
32502,18752,34076
32568,18763,34054
32657,18757,34072
32636,18764,34116
32684,18772,33905
32780,18756,34077
32568,18758,34269
32504,18766,34065
32516,18751,34186
32550,18765,34233
32588,18754,34111
32633,18754,34232
32748,18753,34404
32852,18757,34286
32864,18761,34353
32824,18772,34366
32744,18753,34359
32604,18751,34438
32488,18756,34412
32321,18759,34364
32332,18744,34512
32389,18753,34468
32485,18746,34452
32632,18756,34585
32740,18766,34681
32825,18756,34496
32864,18751,34644
32900,18756,34647
32928,18756,34686
33008,18753,34720
32808,18756,34822
32572,18746,34744
32468,18751,34745
32524,18748,34853
32464,18769,34877
32352,18757,34788
32329,18759,35025
32372,18764,34882
32416,18751,34980
32412,18747,34814
32404,18757,35006
32400,18741,35108
32472,18759,35012
32536,18752,35087
32512,18766,35074
32456,18752,35248
32448,18754,35044
32500,18752,35198
32408,18756,35162
32440,18757,35296
32472,18760,35268
32612,18742,35228
32780,18743,35421
32820,18748,35220
32812,18757,35372
32712,18759,35311
32626,18749,35481
32536,18744,35456
32492,18743,35408
32453,18743,35498
32420,18749,35429
32396,18753,35644
32564,18746,35504
32714,18758,35576
32724,18756,35600
32620,18752,35660
32548,18756,35609
32473,18749,35671
32445,18743,35620
32296,18741,35804
32308,18759,35606
32416,18749,35772
32500,18752,35636
32612,18760,35897
32660,18747,35684
32608,18752,35838
32600,18755,35732
32672,18765,35975
32696,18737,35823
32652,18739,35904
32636,18748,35860
32620,18745,36060
32580,18748,35828
32528,18753,35990
32588,18744,35735
32628,18748,36024
32632,18743,35906
32568,18743,36032
32500,18741,36065
32421,18738,35836
32421,18750,36004
32408,18737,36048
32464,18741,36103
32564,18744,36265
32668,18745,36116
32712,18746,36205
32677,18759,36121
32612,18740,36338
32656,18738,36136
32648,18745,36252
32660,18733,36010
32628,18741,36228
32528,18749,36388
32360,18756,36252
32432,18736,36268
32556,18748,36332
32636,18751,36177
32672,18733,36268
32672,18739,36441
32644,18736,36369
32672,18747,36204
32604,18735,36368
32536,18732,36421
32572,18737,36412
32628,18745,36508
32664,18748,36356
32652,18748,36436
32616,18735,36206
32537,18733,36386
32568,18732,36598
32572,18735,36416
32568,18733,36504
32638,18739,36228
32596,18739,36631
32604,18741,36541
32620,18746,36501
32704,18746,36524
32704,18752,36449
32768,18726,36572
32688,18724,36495
32588,18726,36589
32676,18724,36471
32712,18728,36639
32744,18735,36604
32708,18734,36615
32624,18733,36573
32520,18735,36592
32444,18726,36668
32464,18724,36534
32564,18727,36789
32630,18726,36557
32805,18727,36704
32932,18738,36480
33004,18740,36820
32964,18741,36716
32760,18743,36661
32586,18728,36844
32516,18726,36685
32588,18724,36764
32628,18720,36719
32604,18720,36655
32660,18736,36511
32741,18729,36784
32820,18728,36936
32876,18728,36772
32868,18729,36541
32824,18729,36881
32688,18729,36813
32572,18730,36852
32568,18720,36880
32552,18735,36832
32604,18729,37012
32614,18724,36793
32776,18735,36905
32800,18733,36663
32864,18744,36988
32820,18724,36831
32788,18737,36932
32744,18735,36968
32672,18724,36845
32448,18718,36944
32356,18726,37039
32552,18729,36932
32688,18737,36889
32816,18742,37117
32804,18722,36909
32816,18737,36996
32844,18725,36980
32856,18732,37156
32720,18712,36999
32764,18729,36748
32800,18724,36966
32862,18712,37125
32748,18733,36996
32640,18725,37076
32508,18726,37092
32460,18732,37168
32468,18722,36973
32596,18717,37088
32688,18712,37005
32760,18717,37201
32820,18725,37033
32832,18727,37096
32812,18725,37021
32756,18725,37220
32680,18726,37061
32644,18729,37088
32630,18729,37054
32464,18717,37216
32432,18711,36964
32472,18711,37093
32564,18720,36797
32648,18714,37020
32744,18721,37084
32812,18728,37088
32776,18727,37077
32668,18728,36972
32560,18725,37191
32540,18721,36961
32576,18720,36736
32670,18725,37085
32848,18713,37014
32908,18718,36924
32980,18721,37020
33038,18725,36980
33028,18737,36984
32896,18716,36943
32640,18717,37052
32513,18709,36825
32556,18709,36945
32788,18710,36999
32872,18724,36860
32932,18712,36615
33048,18717,37020
33076,18725,36871
33016,18734,36800
32852,18710,36816
32840,18708,36890
32888,18713,36548
32824,18717,36958
32768,18721,36808
32768,18701,36829
32752,18709,36761
32912,18721,36942
32992,18712,36785
32904,18708,36596
32864,18725,36892
32812,18708,36784
32813,18712,36727
32801,18715,36654
32820,18716,36524
32864,18704,36880
32984,18710,36663
32976,18715,36764
33068,18725,36812
33048,18717,36719
32976,18708,36685
32880,18711,36782
32780,18713,36740
32813,18718,36869
32796,18700,36766
32704,18705,36672
32724,18706,36765
32772,18714,36743
32740,18723,36792
32708,18713,36639
32624,18710,36704
32528,18713,36725
32476,18710,36594
32528,18700,36465
32576,18699,36740
32664,18713,36704
32768,18705,36775
32876,18717,36700
32856,18719,36775
32788,18725,36687
32704,18707,36772
32604,18707,36615
32548,18706,36345
32500,18700,36676
32500,18700,36511
32608,18697,36608
32668,18708,36676
32760,18708,36560
32808,18703,36474
32828,18705,36656
32848,18724,36574
32736,18719,36565
32576,18722,36416
32525,18697,36517
32592,18693,36487
32580,18694,36394
32460,18695,36180
32412,18703,36533
32592,18702,36468
32668,18710,36429
32596,18706,36282
32624,18708,36493
32556,18695,36380
32532,18692,36385
32608,18694,36389
32676,18706,36333
32772,18703,36264
32783,18698,36186
32844,18704,36005
32868,18714,36281
32917,18714,36160
32868,18705,36044
32860,18691,36344
32928,18687,36218
33112,18685,36114
33348,18695,36276
33500,18695,36102
33785,18708,36140
34040,18694,36088
34524,18697,36036
34800,18692,36073
35252,18686,36143
35676,18684,36000
35976,18681,36009
36372,18684,36048
36728,18681,35888
37136,18688,35777
37408,18693,35936
37536,18696,35956
37572,18692,36056
37520,18695,35877
37176,18697,35925
36568,18700,35806
35324,18706,35834
33912,18694,35977
33008,18708,35816
32572,18703,35591
32172,18696,35786
31768,18700,35865
31468,18713,35716
31324,18693,35761
31200,18695,35653
31208,18701,35772
31300,18684,35557
31504,18684,35652
31716,18689,35543
31668,18709,35720
31568,18694,35566
31668,18698,35372
31728,18697,35615
31856,18698,35448
31816,18686,35484
31824,18701,35372
31940,18680,35480
31993,18682,35289
32056,18684,35357
32124,18695,35237
32249,18687,35265
32364,18701,35369
32492,18709,35148
32484,18698,34981
32424,18692,35140
32432,18694,35079
32436,18680,35156
32416,18677,34857
32344,18689,35024
32348,18683,35151
32428,18693,35173
32462,18700,34917
32453,18680,34988
32448,18689,35008
32456,18684,34756
32480,18680,34916
32468,18682,34980
32524,18684,35015
32648,18679,34948
32676,18683,34816
32680,18687,34901
32732,18691,34880
32756,18690,34717
32736,18703,34808
32632,18672,34877
32608,18677,34896
32628,18683,34903
32564,18675,34748
32592,18675,34628
32584,18692,34724
32630,18684,34427
32516,18695,34591
32468,18694,34720
32548,18678,34596
32616,18679,34583
32656,18684,34290
32617,18688,34552
32684,18674,34477
32780,18679,34434
32832,18693,34404
32844,18676,34311
32841,18688,34344
32864,18684,34280
32848,18689,34156
32740,18672,34292
32772,18674,34128
32556,18686,34142
32480,18671,33840
32570,18681,33969
32632,18672,34098
32706,18676,33838
32792,18689,33920
32852,18694,33860
32920,18686,33722
32912,18673,33892
32920,18670,33614
32828,18677,33703
32753,18673,33652
32688,18681,33501
32704,18671,33564
32756,18685,33608
32780,18673,33444
32688,18694,33373
32692,18687,33398
32672,18671,33253
32676,18672,33365
32688,18680,33133
32748,18663,33212
32864,18669,33191
32932,18666,33151
33004,18668,33044
33064,18669,33161
33052,18681,32908
33068,18674,32984
33061,18680,32961
33053,18666,32789
33110,18662,32980
33128,18665,32796
33188,18681,32796
33212,18666,32665
33252,18676,32807
33184,18681,32582
33192,18685,32616
33160,18664,32602
33064,18669,32388
33092,18662,32444
33116,18665,32569
33168,18669,32396
33320,18671,32393
33388,18672,32251
33572,18675,32374
33668,18673,32240
33704,18677,32105
33568,18666,32282
33468,18661,32064
33344,18663,32095
33288,18672,32077
33208,18672,31993
33072,18665,31975
33284,18677,31725
33460,18676,31812
33592,18676,31876
33653,18678,31832
33712,18675,31708
33592,18674,31762
33593,18674,31492
33556,18669,31570
33604,18672,31677
33612,18681,31596
33596,18682,31560
33540,18661,31536
33472,18679,31513
33444,18674,31264
33432,18683,31269
33384,18660,31297
33341,18661,31367
33328,18660,31350
33352,18673,31308
33356,18660,31076
33308,18667,31151
33248,18663,31218
33184,18668,31095
33146,18668,31180
33096,18669,31028
33108,18667,31184
32992,18668,31033
32892,18666,30853
32820,18668,31092
32692,18655,30908
32716,18652,30996
32708,18660,30841
32688,18656,30885
32640,18668,30921
32604,18661,30688
32453,18660,30809
32412,18665,30920
32432,18652,30704
32376,18647,30799
32332,18655,30778
32298,18662,30631
32276,18671,30757
32276,18666,30700
32254,18667,30500
32224,18668,30678
32144,18671,30572
32176,18652,30632
32140,18652,30607
32100,18655,30461
32156,18655,30599
32208,18666,30566
32176,18653,30436
32176,18660,30481
32178,18662,30484
32156,18660,30310
32012,18658,30471
31840,18655,30288
31816,18662,30388
31887,18648,30188
31876,18646,30212
31828,18649,30276
31852,18654,30293
31896,18658,30069
31908,18664,30062
31876,18654,30076
31960,18660,30072
31944,18650,30060
31972,18645,30176
32028,18652,30194
32216,18653,30060
32264,18669,30121
32277,18655,29943
32412,18658,29953
32440,18673,30143
32380,18657,29959
32404,18660,30014
32368,18647,30026
32300,18657,29880
32312,18656,29989
32292,18640,30029
32229,18659,29957
32238,18628,29955
32276,18662,29780
32286,18660,29908
32322,18666,29911
32368,18652,29844
32412,18653,29644
32412,18655,29860
32388,18653,29795
32408,18653,29588
32544,18656,29820
32504,18650,29732
32540,18661,29565
32480,18649,29549
32496,18650,29736
32448,18650,29597
32428,18652,29633
32404,18653,29535
32476,18639,29624
32580,18649,29597
32552,18652,29440
32550,18651,29537
32544,18644,29551
32572,18659,29396
32500,18655,29464
32456,18642,29488
32441,18649,29492
32440,18648,29319
32364,18638,29502
32492,18649,29383
32568,18648,29413
32584,18648,29460
32608,18661,29405
32580,18645,29240
32520,18647,29229
32496,18640,29289
32536,18636,29319
32576,18637,29169
32588,18638,29216
32592,18644,29260
32556,18649,29288
32600,18644,29113
32717,18644,29300
32592,18655,29158
32373,18642,29264
32344,18636,29128
32460,18652,29144
32516,18649,29209
32503,18630,29029
32440,18633,29071
32494,18633,29248
32508,18639,29148
32560,18643,29071
32568,18644,29145
32584,18654,28964
32525,18635,29111
32480,18642,29022
32372,18641,29092
32400,18642,28982
32560,18645,28935
32572,18629,29001
32636,18636,29036
32660,18640,29055
32641,18645,28868
32600,18645,28919
32608,18639,28900
32592,18650,28860
32548,18631,28920
32624,18634,28844
32632,18636,28785
32664,18632,28828
32649,18642,28908
32684,18629,28892
32648,18644,28902
32576,18643,28728
32612,18650,28911
32584,18646,28857
32564,18651,28692
32560,18645,28812
32612,18636,28697
32638,18632,28805
32644,18650,28644
32668,18645,28761
32660,18641,28749
32681,18640,28636
32628,18644,28736
32536,18641,28721
32528,18626,28703
32588,18624,28552
32552,18641,28757
32692,18639,28677
32808,18646,28516
32804,18631,28564
32756,18645,28629
32732,18649,28466
32728,18628,28665
32668,18632,28567
32644,18628,28569
32669,18628,28408
32628,18633,28599
32732,18646,28528
32632,18634,28395
32588,18644,28377
32673,18632,28341
32776,18641,28428
32797,18636,28430
32628,18624,28423
32632,18638,28261
32604,18633,28277
32554,18639,28370
32528,18628,28220
32416,18633,28333
32545,18640,28329
32540,18636,28148
32592,18629,28332
32544,18632,28303
32508,18627,28135
32516,18632,28295
32532,18622,28143
32652,18629,28240
32708,18637,28061
32832,18628,28064
32856,18636,28249
32884,18630,28094
32933,18630,28191
32916,18632,28004
32836,18635,28200
32764,18621,28141
32540,18622,27992
32432,18630,27977
32500,18640,28174
32604,18625,28102
32572,18637,27952
32672,18638,28096
32628,18643,28060
32633,18628,27931
32628,18620,28133
32557,18622,28078
32548,18629,27992
32664,18629,28005
32736,18638,28062
32788,18639,28017
32928,18645,27996
32832,18639,27890
32852,18634,27929
32824,18642,28031
32712,18639,27882
32679,18620,27998
32696,18621,28020
32824,18616,27857
32892,18620,27916
32916,18625,28009
32944,18624,27929
32868,18641,27892
32856,18633,27993
32856,18634,27973
32752,18633,27908
32696,18630,27820
32688,18631,28004
32828,18632,27980
32672,18624,27817
32636,18626,27990
32629,18647,27972
32717,18638,27980
32820,18639,27952
32832,18630,27816
32774,18622,27954
32852,18631,27816
32920,18620,27931
32937,18621,27819
33004,18618,27940
32976,18621,27980
32904,18625,27876
32784,18626,27872
32736,18626,27990
32685,18638,27980
32660,18629,27985
32692,18628,27838
32748,18624,27879
32750,18622,27845
32893,18617,28044
32948,18620,27911
32904,18636,27840
32924,18643,28028
32900,18621,28012
32830,18624,27849
32784,18637,27979
32812,18623,28032
32768,18632,27936
32752,18616,27917
32832,18631,28029
32925,18633,27879
32960,18637,28030
32972,18647,28031
33016,18624,27883
33028,18630,28059
32933,18616,27929
32890,18620,28042
32884,18625,27895
32880,18618,27904
32789,18630,28112
32704,18624,27963
32688,18624,28061
32785,18630,27952
32832,18627,27933
32812,18618,28109
32833,18616,27993
32836,18620,28124
32800,18629,27989
32832,18610,28142
32937,18627,28159
33004,18624,28012
32856,18632,28231
32768,18625,28177
32888,18634,28208
32912,18617,28068
32820,18617,28223
32824,18624,28092
32868,18628,28215
32780,18623,28182
32916,18627,28224
32928,18627,28166
32856,18629,28317
32953,18631,28364
32944,18622,28234
32872,18621,28423
32884,18618,28311
32928,18625,28432
32876,18618,28311
32896,18622,28540
33020,18628,28506
33024,18630,28354
33180,18633,28591
33152,18636,28538
33164,18629,28431
33200,18629,28632
33120,18609,28510
33012,18620,28618
33046,18614,28476
33044,18624,28525
33036,18616,28642
33044,18616,28630
33084,18618,28697
32992,18618,28549
32832,18621,28807
32806,18609,28767
32812,18609,28717
32792,18606,28688
32880,18605,28806
32960,18607,28785
33016,18608,28725
33065,18621,28860
33132,18616,28730
33158,18625,28943
33061,18621,28918
32953,18613,28759
32952,18611,28851
32896,18618,28912
32792,18607,28988
32844,18603,28926
32944,18623,28999
33016,18615,28900
32980,18621,28944
32940,18612,29060
32900,18613,28992
32832,18617,29173
32780,18622,29120
32740,18606,28963
32704,18610,29156
32760,18612,29184
32868,18622,29172
32840,18610,29208
32876,18624,29049
32848,18609,29116
32832,18625,29305
32780,18620,29205
32716,18610,29292
32740,18608,29149
32736,18609,29324
32756,18616,29216
32812,18601,29351
32824,18609,29170
32876,18629,29276
32872,18614,29440
32820,18620,29280
32680,18611,29396
32756,18612,29270
32740,18609,29421
32908,18612,29385
32812,18623,29438
32892,18602,29279
32950,18601,29429
32992,18609,29447
32924,18607,29312
32871,18602,29383
32844,18601,29380
32864,18599,29492
32870,18597,29380
32980,18596,29393
33160,18596,29520
33416,18601,29517
33708,18604,29532
34124,18606,29476
34432,18620,29517
34772,18617,29397
35132,18603,29527
35480,18618,29540
35932,18608,29600
36248,18612,29536
36601,18605,29414
36956,18612,29573
37248,18617,29560
37408,18620,29384
37412,18621,29543
37216,18610,29460
37012,18605,29568
36564,18597,29632
35648,18600,29580
34272,18622,29506
33104,18607,29492
32536,18620,29421
32254,18610,29645
31908,18612,29570
31520,18616,29429
31164,18617,29654
30932,18606,29501
30912,18607,29584
30972,18608,29447
31048,18599,29648
31136,18612,29496
31340,18613,29589
31552,18597,29457
31729,18601,29644
31860,18606,29631
31960,18605,29484
31981,18603,29606
32136,18599,29636
32064,18599,29532
32192,18596,29651
32368,18596,29642
32366,18604,29541
32500,18612,29588
32596,18593,29664
32560,18597,29516
32572,18607,29574
32512,18605,29524
32564,18589,29708
32552,18589,29658
32492,18588,29529
32625,18590,29626
32728,18590,29655
32700,18615,29469
32596,18612,29703
32485,18596,29622
32552,18596,29468
32608,18596,29696
32456,18597,29631
32444,18596,29493
32393,18588,29526
32616,18591,29608
32680,18593,29556
32780,18610,29630
32780,18596,29617
32796,18600,29512
32780,18592,29488
32708,18599,29700
32700,18609,29639
32636,18605,29556
32516,18597,29543
32748,18596,29440
32816,18605,29664
32828,18600,29615
32892,18604,29479
32888,18597,29508
32808,18597,29409
32797,18589,29653
32744,18588,29578
32808,18588,29428
32808,18591,29604
32857,18583,29549
32880,18591,29407
32986,18598,29412
33129,18606,29351
33084,18592,29505
33096,18591,29494
33046,18587,29518
32952,18593,29353
32917,18580,29399
32872,18583,29337
32842,18591,29284
32904,18585,29329
32932,18600,29268
33048,18596,29318
33016,18593,29298
33060,18596,29476
33054,18589,29420
33108,18583,29274
33056,18586,29481
33128,18590,29416
33176,18587,29348
33208,18593,29416
33236,18592,29304
33093,18603,29319
32856,18592,29412
32736,18588,29416
32744,18585,29311
32716,18583,29237
32709,18580,29447
32745,18595,29412
32792,18598,29372
32944,18595,29384
32960,18597,29273
32992,18600,29289
33176,18605,29316
33120,18599,29407
33116,18598,29267
33064,18592,29359
32980,18591,29396
33104,18591,29429
33132,18577,29319
33248,18582,29377
33464,18594,29252
33416,18591,29408
33288,18585,29348
33292,18594,29184
33172,18591,29400
33116,18581,29294
33140,18583,29141
33152,18578,29341
33240,18589,29284
33368,18583,29113
33428,18582,29190
33516,18581,29168
33504,18598,29264
33388,18580,29248
33521,18580,29240
33548,18593,29080
33537,18575,29329
33516,18583,29252
33544,18588,29111
33592,18585,29217
33645,18584,29247
33652,18580,29228
33648,18586,29236
33584,18580,29149
33620,18580,29124
33588,18581,29076
33532,18589,29212
33600,18567,29177
33556,18584,29229
33641,18580,29081
33708,18596,29279
33768,18575,29210
33776,18597,29223
33704,18585,29198
33632,18580,29236
33568,18583,29095
33484,18580,29304
33336,18589,29173
33420,18588,29252
33440,18583,29151
33480,18578,29306
33372,18580,29252
33300,18572,29268
33288,18584,29116
33172,18575,29208
33144,18572,29272
33088,18568,29268
33052,18568,29085
32880,18567,29253
33048,18588,29184
32980,18589,29095
32856,18583,29141
32728,18585,29215
32576,18569,29366
32576,18575,29298
32572,18571,29255
32421,18575,29284
32388,18577,29328
32344,18565,29168
32405,18574,29232
32476,18588,29420
32552,18587,29413
32604,18587,29272
32548,18575,29356
32486,18583,29170
32329,18563,29215
32356,18574,29241
32322,18568,29351
32300,18568,29407
32272,18565,29320
32200,18565,29343
32252,18570,29180
32300,18581,29362
32340,18580,29301
32296,18577,29174
32228,18576,29421
32172,18560,29342
32232,18567,29161
32300,18564,29416
32364,18566,29337
32452,18570,29152
32488,18577,29319
32464,18577,29243
32448,18581,29340
32396,18566,29192
32256,18560,29380
32141,18565,29252
32064,18565,29232
32120,18574,29208
32272,18560,29228
32288,18574,29164
32424,18580,29335
32432,18565,29329
32440,18564,29400
32365,18567,29321
32341,18571,29336
32264,18567,29308
32261,18556,29328
32400,18557,29335
32504,18556,29333
32532,18558,29256
32504,18567,29262
32516,18561,29257
32396,18564,29304
32496,18559,29227
32476,18565,29328
32525,18557,29278
32548,18567,29458
32550,18557,29447
32620,18550,29515
32708,18556,29453
32797,18561,29327
32724,18560,29396
32612,18555,29305
32700,18556,29572
32656,18548,29512
32574,18550,29524
32476,18570,29521
32480,18560,29590
32520,18565,29538
32576,18564,29468
32640,18558,29508
32709,18558,29416
32708,18558,29583
32644,18567,29568
32628,18557,29602
32612,18548,29588
32628,18561,29632
32660,18551,29408
32702,18558,29688
32748,18550,29629
32796,18569,29645
32804,18565,29452
32732,18566,29724
32680,18564,29660
32684,18565,29491
32712,18556,29750
32764,18550,29703
32876,18551,29598
32854,18562,29607
32888,18566,29528
32848,18564,29716
32906,18553,29734
32760,18559,29789
32480,18549,29748
32388,18565,29584
32420,18546,29877
32456,18553,29807
32472,18551,29720
32540,18557,29761
32584,18564,29653
32728,18552,29935
32620,18551,29878
32845,18548,29773
32784,18546,29806
32665,18567,29924
32640,18546,29932
32645,18545,29973
32472,18553,29853
32504,18556,29915
32600,18561,29868
32664,18545,30093
32688,18551,30047
32577,18548,29876
32504,18545,30165
32452,18550,30116
32392,18553,30053
32424,18551,30084
32552,18552,30045
32640,18544,30174
32636,18542,30223
32652,18542,30224
32753,18544,30241
32712,18557,30111
32644,18549,30372
32624,18552,30308
32656,18536,30161
32672,18533,30367
32704,18543,30380
32741,18557,30361
32700,18563,30380
32652,18548,30296
32648,18551,30484
32592,18553,30282
32608,18545,30548
32576,18536,30510
32552,18548,30389
32504,18537,30521
32620,18533,30571
32681,18534,30458
32768,18537,30663
32856,18553,30629
32828,18555,30534
32728,18549,30568
32736,18549,30669
32608,18535,30712
32568,18537,30684
32476,18534,30584
32548,18532,30789
32592,18540,30748
32564,18552,30626
32616,18552,30873
32700,18548,30811
32764,18548,30628
32713,18543,30945
32672,18540,30828
32601,18534,30709
32652,18529,30999
32720,18532,30923
32668,18545,30828
32516,18537,30844
32524,18535,30988
32612,18538,30879
32628,18534,30908
32628,18539,30800
32588,18532,31056
32548,18525,31051
32556,18530,31068
32637,18536,31054
32701,18540,30916
32773,18551,31118
32888,18539,31092
32820,18530,30986
32877,18534,31166
32800,18540,31127
32622,18533,31096
32516,18541,31023
32448,18534,31152
32480,18525,31056
32572,18535,31229
32708,18532,31168
32800,18533,31092
32820,18543,31092
32832,18546,31188
32793,18535,31111
32736,18529,31140
32700,18526,31024
32652,18519,31164
32600,18521,31028
32624,18539,31238
32798,18537,31180
32840,18543,31228
32844,18538,31111
32788,18534,31269
32648,18541,31230
32692,18520,31238
32608,18519,31140
32580,18518,31245
32644,18519,31125
32744,18523,31345
32864,18527,31156
32848,18537,31278
32820,18535,31092
32764,18531,31306
32668,18525,31256
32604,18527,31095
32608,18533,31396
32670,18528,31327
32724,18524,31173
32740,18524,31410
32798,18545,31351
32884,18536,31223
32824,18525,31343
32700,18548,31168
32624,18535,31372
32576,18533,31405
32620,18530,31284
32608,18532,31483
32688,18529,31416
32756,18531,31325
32812,18530,31333
32852,18533,31453
32796,18524,31565
32796,18533,31495
32784,18519,31500
32732,18519,31468
32752,18516,31306
32732,18519,31510
32748,18518,31516
32836,18525,31561
32840,18545,31367
32856,18525,31545
32832,18528,31695
32774,18543,31604
32732,18516,31452
32708,18516,31680
32760,18516,31671
32836,18515,31479
32920,18522,31706
32809,18518,31663
32920,18517,31732
32912,18540,31824
32672,18532,31684
32692,18533,31801
32700,18530,31777
32632,18512,31846
32561,18508,31928
32504,18517,31844
32512,18520,31908
32590,18513,31688
32685,18512,31836
32740,18522,32046
32792,18522,31966
32821,18520,32007
32824,18529,31792
32864,18508,32037
32900,18512,32046
32829,18522,32052
32792,18509,32128
32800,18522,31918
32742,18518,32166
32753,18520,32165
32760,18524,32201
32688,18517,32240
32776,18518,32164
32752,18515,32392
32761,18508,32199
32808,18524,32309
32904,18520,32364
32964,18508,32263
32996,18511,32463
33044,18519,32444
32952,18520,32404
32976,18526,32465
32937,18510,32244
32892,18505,32404
32872,18503,32560
32900,18516,32628
32928,18507,32425
32948,18516,32553
32864,18518,32464
32840,18524,32554
32782,18520,32711
32836,18508,32642
32816,18513,32533
32796,18505,32653
32820,18517,32676
32805,18509,32580
32801,18517,32772
32800,18503,32676
32836,18508,32737
32824,18510,32752
32820,18524,32604
32732,18521,32737
32764,18505,32881
32680,18508,32749
32660,18511,32580
32700,18500,32829
32796,18516,32797
32856,18507,32865
32862,18512,32774
32864,18525,32943
32868,18510,32866
32872,18509,32903
32773,18509,32724
32716,18503,32981
32720,18505,32832
32744,18508,32963
32876,18512,32900
32969,18503,33023
32992,18502,33013
32900,18511,32980
32916,18524,33020
32980,18506,32967
32936,18507,33124
32824,18513,33170
32612,18516,32994
32464,18495,33102
32508,18506,32894
32609,18502,33064
32804,18508,33249
32860,18514,33124
32937,18503,33180
32904,18503,32964
32888,18505,33100
32872,18501,33144
32804,18508,33260
32825,18494,33326
32804,18500,33117
32728,18502,33238
32829,18501,33284
33009,18500,33052
33064,18514,33097
33033,18499,33209
33028,18496,33309
32956,18499,33313
32877,18512,33352
32696,18501,33311
32684,18500,33421
32704,18498,33385
32832,18498,33316
32896,18504,33402
32910,18500,33464
32917,18501,33384
32864,18508,33463
32808,18493,33598
32788,18503,33620
32780,18492,33614
32789,18498,33606
32800,18494,33542
32865,18504,33605
32857,18511,33624
32928,18513,33646
32928,18508,33656
32856,18494,33540
32808,18493,33678
32910,18491,33792
32748,18496,33790
32784,18500,33836
32892,18494,33837
32993,18502,33769
33013,18508,33780
33048,18488,33837
33048,18495,33856
33009,18494,33776
32936,18492,33989
32828,18504,33940
32764,18492,33887
32720,18491,33964
32820,18495,33720
32924,18503,33900
33096,18494,33980
33108,18492,34092
33108,18498,33988
32992,18493,34010
32932,18498,33825
32872,18497,33956
32860,18497,34121
32836,18500,34055
32948,18484,33956
33004,18486,34089
33052,18485,33980
33080,18496,34004
33100,18500,34052
33028,18500,34183
32886,18486,34025
32744,18487,34084
32856,18486,34124
32960,18493,33868
33052,18495,34173
33092,18499,34140
33032,18492,34084
33168,18495,34124
33088,18493,34077
32932,18484,34041
32660,18492,34037
32604,18490,34220
32728,18494,34092
32764,18477,34080
32828,18481,34085
32880,18493,34013
33052,18503,34154
33149,18490,33976
33044,18490,34080
32864,18494,33996
32756,18492,34156
32741,18492,34064
32732,18479,33999
32660,18479,34092
32608,18481,34052
32644,18480,33940
32814,18481,34017
32788,18485,34028
32648,18483,33771
32638,18498,33917
32704,18496,34068
32760,18481,33949
32824,18480,33999
32912,18474,33916
32989,18484,34012
33000,18493,33957
32876,18500,33950
32684,18480,33866
32602,18478,33940
32644,18474,33924
32692,18481,33815
32652,18490,34011
32624,18477,33761
32548,18486,33880
32688,18479,33606
32772,18473,33900
32796,18476,33700
32840,18484,33828
32816,18485,33693
32808,18487,33835
32812,18479,33904
32836,18476,33771
32896,18482,33692
32948,18488,33741
33004,18488,33517
33012,18476,33663
32960,18484,33744
32944,18485,33752
32908,18497,33644
32928,18476,33823
33076,18481,33736
33252,18480,33621
33536,18484,33808
33844,18469,33661
34252,18473,33705
34624,18477,33512
35060,18485,33647
35540,18472,33782
35816,18487,33607
36052,18490,33663
36232,18471,33412
36544,18471,33668
36900,18484,33692
37136,18465,33530
37240,18492,33376
37216,18487,33508
37108,18477,33637
36824,18481,33564
36136,18479,33556
34717,18493,33456
33196,18494,33624
32216,18492,33489
31873,18495,33268
31672,18477,33410
31452,18480,33541
31292,18473,33420
31124,18482,33476
31124,18477,33224
31260,18489,33359
31236,18476,33540
31328,18483,33294
31484,18479,33414
31636,18484,33246
31704,18478,33306
31832,18479,33445
31984,18469,33250
32100,18478,33326
32170,18484,33086
32192,18469,33285
32153,18479,33191
32080,18474,33268
32112,18482,33274
32228,18465,33164
32333,18468,33320
32380,18468,33125
32456,18468,33220
32516,18469,33220
32464,18473,33069
32352,18477,33260
32292,18479,33145
32260,18469,33183
32256,18476,33053
32321,18475,33264
32400,18483,33072
32540,18478,32952
32632,18476,33217
32716,18467,33287
32732,18468,33084
32736,18465,33221
32728,18468,33133
32640,18471,33332
32608,18464,33159
32572,18461,33269
32556,18469,33308
32573,18476,33284
32602,18469,33300
32652,18484,33364
32712,18466,33306
32684,18470,33488
32592,18474,33293
32556,18481,33311
32557,18461,33543
32544,18452,33479
32564,18462,33335
32608,18461,33481
32668,18468,33621
32720,18474,33440
32752,18489,33518
32800,18464,33456
32808,18469,33612
32732,18475,33569
32718,18466,33329
32732,18466,33687
32732,18476,33487
32741,18457,33622
32768,18461,33484
32776,18460,33703
32700,18465,33610
32604,18464,33685
32540,18456,33600
32558,18456,33806
32568,18458,33600
32684,18456,33733
32716,18463,33772
32816,18469,33656
32904,18474,33850
32956,18465,33772
32980,18462,33855
32956,18466,33780
32916,18477,33988
32876,18474,33872
32848,18448,33948
32817,18452,33942
32796,18457,33908
32804,18453,34042
32848,18460,33815
32992,18460,34182
33066,18463,34125
32996,18459,34028
32928,18463,34284
32936,18461,34212
32880,18464,34175
32700,18451,34276
32712,18452,34345
32840,18457,34360
33028,18468,34303
33104,18460,34468
33132,18472,34319
33184,18473,34640
33076,18476,34594
33010,18457,34414
33024,18457,34660
33060,18468,34709
33080,18449,34714
33108,18455,34596
33268,18465,34927
33352,18456,34823
33376,18461,34820
33332,18467,34856
33300,18464,34961
33232,18457,34905
33080,18450,35144
32920,18457,35008
32920,18469,35097
33036,18452,35046
33204,18464,35276
33270,18458,35096
33376,18469,35249
33416,18466,35128
33408,18453,35242
33380,18459,35279
33364,18447,35288
33432,18448,35364
33500,18468,35393
33572,18465,35488
33704,18466,35539
33826,18458,35519
33876,18452,35535
33828,18457,35584
33784,18445,35720
33768,18452,35803
33664,18445,35877
33592,18453,35675
33520,18456,35775
33440,18447,35785
33512,18455,35876
33568,18460,35952
33564,18450,35884
33552,18463,36066
33456,18444,36101
33376,18463,36042
33356,18456,36077
33368,18444,36173
33360,18444,35972
33416,18461,36166
33408,18462,36348
33380,18477,36230
33361,18458,36288
33238,18454,36064
33048,18447,36322
32856,18444,36513
32736,18444,36558
32704,18452,36468
32668,18456,36404
32588,18447,36524
32549,18466,36604
32564,18454,36637
32532,18469,36636
32489,18454,36529
32356,18458,36773
32228,18446,36730
32212,18439,36777
32224,18445,36540
32188,18438,36810
32301,18446,37004
32252,18461,36857
32176,18452,36960
32068,18451,36712
32017,18460,36928
32000,18458,36980
31968,18445,37064
31980,18439,36994
31960,18448,37020
31972,18437,37109
32073,18448,37148
32137,18445,37212
32092,18453,37207
32160,18456,37144
32136,18439,37268
32080,18438,37383
31980,18444,37423
31940,18441,37374
32052,18432,37499
32152,18439,37422
32260,18459,37432
32292,18439,37534
32310,18448,37549
32320,18446,37556
32208,18443,37608
31860,18439,37367
31676,18438,37468
31716,18439,37537
31764,18439,37244
31848,18439,37449
31956,18438,37533
32096,18451,37700
32217,18445,37757
32284,18445,37773
32308,18438,37660
32348,18436,37589
32384,18438,37719
32352,18440,37740
32296,18431,37694
32264,18428,37814
32136,18450,37935
32060,18446,37902
32076,18438,37974
32132,18439,37806
32196,18445,37839
32280,18439,37902
32284,18445,37900
32256,18424,37916
32233,18439,37947
32196,18435,37920
32204,18430,37952
32278,18445,37945
32381,18435,37961
32484,18449,37949
32529,18439,37678
32497,18448,37717
32496,18436,37829
32452,18435,37985
32404,18421,38052
32404,18433,38064
32512,18429,38087
32631,18432,37876
32704,18446,37988
32780,18432,37668
32740,18433,37929
32576,18444,38126
32504,18428,37888
32512,18431,37940
32576,18437,37999
32572,18416,37668
32577,18428,37924
32668,18443,37991
32720,18432,38085
32720,18432,37841
32673,18444,37965
32597,18439,38079
32604,18424,38038
32732,18428,37804
32804,18424,37861
32824,18428,37904
32840,18435,37581
32887,18429,37942
32796,18427,37879
32612,18441,37767
32320,18425,37871
32104,18438,37768
32088,18439,37942
32084,18425,37759
32168,18421,37799
32244,18422,37472
32248,18422,37696
32284,18423,37752
32336,18425,37751
32368,18439,37720
32364,18433,37668
32356,18428,37772
32428,18436,37508
32500,18424,37571
32560,18438,37602
32521,18437,37314
32564,18438,37511
32544,18438,37639
32488,18439,37463
32560,18430,37444
32608,18423,37143
32620,18424,37484
32512,18421,37356
32528,18425,37072
32556,18421,37353
32584,18426,37368
32600,18428,37286
32616,18424,37280
32592,18429,37181
32640,18429,37348
32576,18436,37175
32404,18439,37161
32356,18419,37080
32360,18417,37221
32364,18416,37156
32364,18424,36949
32412,18421,37063
32452,18421,36888
32412,18443,36988
32396,18428,37021
32381,18426,36925
32396,18422,36644
32400,18429,36949
32392,18415,36829
32440,18413,36782
32452,18415,36820
32504,18420,36703
32504,18426,36706
32608,18429,36826
32600,18431,36614
32640,18422,36370
32600,18432,36670
32584,18424,36711
32628,18417,36523
32669,18417,36509
32673,18415,36437
32772,18418,36581
32812,18421,36393
32780,18426,36389
32704,18424,36188
32584,18426,36431
32480,18426,36172
32532,18420,36063
32500,18415,35942
32336,18413,36236
32288,18413,36020
32392,18411,36071
32508,18423,35940
32588,18428,36100
32558,18428,35916
32588,18428,35712
32512,18412,35860
32504,18408,35713
32448,18412,35764
32520,18425,35478
32432,18409,35628
32384,18420,35743
32464,18410,35754
32488,18414,35463
32544,18425,35553
32544,18421,35516
32528,18424,35411
32500,18408,35516
32544,18404,35292
32640,18407,35380
32677,18420,35323
32728,18410,35188
32808,18419,35285
32906,18420,35260
32976,18426,35124
32936,18420,34904
32956,18423,35241
32796,18419,35000
32612,18405,35097
32596,18405,34775
32630,18404,34772
32684,18417,34908
32688,18424,34998
32688,18408,34799
32712,18415,34901
32652,18411,34788
32588,18405,34951
32596,18408,34783
32620,18408,34513
32608,18412,34717
32696,18413,34830
32874,18412,34598
32960,18407,34613
32876,18407,34648
32800,18413,34423
32756,18424,34623
32668,18411,34620
32528,18410,34504
32456,18414,34519
32484,18420,34248
32588,18400,34455
32688,18409,34469
32810,18404,34369
32841,18412,34409
32929,18406,34116
32988,18415,34269
33012,18415,34301
32960,18414,34309
32948,18400,34012
32912,18400,34266
32880,18400,34295
32736,18415,34153
32608,18415,34129
32736,18404,34134
32784,18413,34084
32832,18404,33989
32800,18409,34106
32694,18400,33993
32672,18402,33976
32660,18408,33753
32712,18400,33818
32824,18406,33921
32942,18412,33959
32996,18405,33730
33032,18412,33668
33028,18404,33696
32936,18407,33697
32784,18408,33588
32636,18398,33716
32512,18392,33708
32532,18394,33540
32652,18404,33538
32740,18404,33261
32816,18405,33377
32732,18420,33513
32656,18412,33317
32568,18404,33384
32497,18393,33218
32468,18391,33391
32496,18396,33215
32524,18413,33260
32672,18394,33113
32820,18402,33280
32940,18411,33041
32949,18415,33125
32940,18419,33004
32900,18397,33120
32884,18402,32903
32736,18397,33014
32648,18394,32815
32636,18404,32868
32677,18405,32977
32792,18415,32891
32877,18398,32789
32880,18398,32689
32980,18397,32775
32976,18392,32693
32920,18389,32677
32842,18405,32484
32924,18393,32676
32980,18387,32640
33072,18396,32657
33154,18396,32472
33228,18399,32320
33248,18399,32608
33184,18415,32476
33076,18402,32322
32756,18392,32392
32596,18390,32500
32600,18402,32313
32664,18387,32369
32792,18394,32238
32860,18394,32391
32956,18409,32244
32940,18411,32258
32960,18398,32128
32904,18394,32218
32821,18407,32090
32841,18393,32142
32760,18396,32001
32852,18396,32164
32892,18404,32055
33000,18389,32061
32976,18391,31910
32860,18398,32053
32772,18402,31908
32660,18390,31924
32596,18389,31693
32652,18396,31908
32705,18383,31824
32709,18386,31807
32764,18397,31617
32860,18390,31832
32872,18394,31625
32856,18397,31493
32732,18404,31608
32612,18391,31607
32584,18388,31573
32632,18399,31565
32741,18399,31425
32800,18403,31528
32845,18391,31436
32824,18388,31449
32776,18405,31308
32652,18396,31457
32554,18400,31264
32568,18404,31317
32596,18385,31054
32576,18384,31239
32573,18388,31143
32604,18389,31174
32676,18395,31013
32704,18398,31174
32680,18390,31052
32720,18394,30804
32768,18404,31081
32788,18399,30942
32752,18392,30808
32792,18374,30960
32828,18375,30850
32952,18381,30663
32948,18381,30764
32954,18384,30760
32912,18387,30700
32920,18387,30612
32832,18388,30468
32792,18380,30577
32808,18399,30653
32856,18382,30581
32988,18388,30436
33248,18388,30405
33572,18381,30332
33916,18388,30425
34048,18387,30224
34180,18377,30471
34536,18385,30382
35024,18392,30215
35424,18391,30215
35820,18376,30278
36172,18385,30261
36637,18372,30058
37060,18373,30176
37429,18383,30241
37625,18398,30061
37640,18389,30117
37624,18384,29909
37560,18378,30096
37176,18401,30063
36389,18390,29879
34932,18398,29972
33648,18384,29940
32997,18395,29721
32636,18396,29762
32276,18402,29814
31936,18392,29804
31561,18388,29820
31268,18386,29655
31144,18392,29809
31034,18396,29708
30958,18380,29535
31168,18385,29606
31358,18388,29702
31520,18400,29572
31724,18383,29444
31808,18398,29556
31804,18391,29425
31805,18400,29350
31820,18373,29457
31900,18385,29448
31976,18384,29248
32045,18395,29325
32152,18372,29268
32248,18387,29345
32336,18388,29268
32384,18395,29256
32400,18379,29084
32408,18380,29154
32404,18390,29241
32504,18375,29158
32584,18372,29001
32576,18379,29218
32529,18384,29148
32528,18384,28995
32472,18380,29176
32364,18386,28992
32200,18388,28933
32160,18397,29076
32176,18375,29054
32260,18373,28898
32268,18388,29063
32336,18378,29014
32485,18377,28856
32588,18379,29056
32564,18377,28923
32548,18376,28966
32480,18375,28828
32528,18378,28909
32440,18391,28956
32404,18377,28760
32440,18380,28972
32424,18375,28856
32480,18376,28765
32604,18372,28799
32616,18380,28780
32636,18382,28676
32636,18384,28799
32604,18384,28662
32596,18369,28836
32572,18370,28764
32572,18379,28583
32668,18368,28799
32744,18386,28701
32686,18381,28713
32656,18388,28549
32580,18378,28494
32585,18382,28484
32578,18374,28500
32600,18369,28660
32612,18372,28521
32661,18374,28422
32736,18381,28506
32860,18386,28434
32828,18386,28527
32872,18378,28372
32816,18381,28551
32772,18384,28396
32664,18383,28478
32485,18380,28308
32501,18380,28457
32544,18368,28352
32612,18362,28402
32724,18363,28319
32829,18372,28284
32904,18367,28360
32828,18375,28268
32800,18372,28225
32744,18373,28332
32716,18369,28167
32714,18375,28352
32784,18377,28300
32824,18361,28148
32992,18383,28218
33104,18374,28273
33052,18379,28113
33052,18373,28312
33132,18369,28235
33056,18370,28100
32844,18378,28081
32644,18361,28228
32655,18360,28224
32764,18366,28182
32977,18373,28174
33120,18380,28044
33085,18370,28234
33088,18370,28098
33132,18375,28177
33140,18380,28028
33112,18380,28159
33068,18359,28159
33132,18360,28095
33244,18376,28116
33356,18369,27954
33412,18364,28167
33376,18369,28039
33304,18373,27932
33268,18377,28005
33236,18366,27983
33236,18371,28069
33304,18368,27908
33300,18379,28100
33292,18362,27922
33420,18361,28014
33496,18373,28024
33520,18372,27860
33460,18376,27863
33493,18390,27913
33460,18364,28021
33464,18362,27983
33432,18361,27832
33489,18370,27924
33592,18357,27873
33660,18361,27988
33694,18374,27836
33773,18363,27978
33744,18373,27982
33664,18372,27922
33568,18368,27895
33477,18369,27983
33484,18377,27997
33532,18354,28021
33564,18359,27911
33544,18361,28024
33557,18368,27943
33504,18375,28053
33324,18379,27911
33196,18367,28111
33052,18373,28076
32886,18364,27937
32816,18375,27984
32732,18359,28100
32676,18361,27949
32664,18361,28008
32716,18363,28143
32728,18361,28197
32672,18364,28135
32545,18378,28036
32476,18369,28150
32392,18367,28167
32141,18355,28026
31964,18360,28197
31956,18369,28189
32156,18360,28199
32220,18373,28052
32308,18361,28180
32277,18358,28121
32228,18359,28215
32220,18359,28076
32148,18357,28229
31952,18352,28200
31896,18351,28288
31896,18368,28142
31932,18354,28248
31972,18355,28236
31968,18357,28192
31900,18366,28233
31844,18364,28141
31892,18354,28252
31916,18359,28070
31968,18367,28153
31952,18347,28295
32020,18356,28143
32044,18366,28248
32185,18362,28260
32188,18368,28104
32284,18361,28100
32244,18364,28115
32198,18348,28292
32096,18358,28268
32096,18343,28252
32100,18348,28284
32136,18344,28144
32192,18349,28120
32240,18350,28148
32332,18356,28160
32332,18364,28271
32320,18344,28246
32310,18357,28311
32228,18347,28177
32204,18363,28201
32224,18359,28265
32279,18337,28437
32324,18348,28296
32352,18350,28423
32384,18358,28294
32418,18368,28458
32368,18346,28503
32317,18344,28372
32320,18349,28482
32392,18357,28508
32496,18359,28357
32540,18356,28469
32644,18351,28490
32732,18348,28553
32680,18347,28399
32660,18357,28438
32568,18358,28652
32292,18360,28501
32149,18340,28629
32164,18341,28480
32254,18342,28713
32340,18340,28655
32416,18339,28517
32508,18342,28564
32588,18363,28748
32604,18349,28679
32644,18359,28732
32621,18358,28776
32565,18358,28648
32520,18349,28879
32592,18340,28729
32469,18340,28861
32436,18350,28676
32512,18363,28856
32584,18350,28848
32648,18356,28903
32668,18345,28748
32672,18357,28815
32550,18350,28941
32532,18356,29023
32524,18337,28945
32464,18335,29018
32524,18341,28857
32560,18353,28924
32552,18359,29096
32564,18343,28985
32568,18343,29128
32540,18345,28999
32468,18340,29240
32473,18345,29149
32436,18339,29209
32580,18342,29045
32693,18349,29101
32612,18358,29308
32660,18365,29256
32652,18350,29114
32661,18342,29329
32660,18340,29220
32665,18335,29340
32648,18341,29213
32624,18345,29353
32584,18343,29296
32592,18341,29398
32693,18348,29236
32826,18343,29476
32772,18336,29319
32732,18340,29429
32756,18340,29392
32684,18343,29436
32632,18348,29456
32605,18333,29287
32640,18336,29359
32644,18345,29548
32744,18353,29429
32813,18336,29518
32884,18341,29528
32956,18344,29412
32928,18349,29511
32876,18330,29615
32812,18329,29524
32846,18324,29377
32904,18340,29564
32736,18338,29559
32464,18349,29476
32420,18340,29573
32516,18340,29446
32448,18338,29564
32388,18340,29552
32200,18342,29628
32160,18342,29477
32332,18334,29526
32408,18326,29637
32516,18336,29669
32572,18341,29644
32616,18355,29506
32560,18336,29621
32500,18332,29619
32500,18328,29557
32532,18335,29685
32416,18339,29764
32436,18326,29782
32516,18329,29641
32576,18330,29874
32544,18343,29772
32528,18347,29831
32632,18348,29736
32620,18346,29780
32652,18344,29858
32660,18341,29928
32644,18337,29884
32492,18321,29796
32544,18329,29980
32700,18339,29848
32781,18330,29920
32878,18328,29754
32804,18336,29904
32864,18336,29831
32744,18343,29940
32716,18327,29801
32600,18335,30016
32512,18335,29841
32492,18326,29940
32592,18326,29775
32628,18332,29820
32656,18333,29959
32672,18349,29953
32641,18335,29769
32600,18334,29957
32620,18339,30041
32588,18335,29866
32600,18340,29969
32648,18321,29781
32728,18320,29923
32736,18330,29985
32772,18333,29837
32912,18338,29924
32916,18340,29956
32900,18324,29945
32972,18333,29924
32992,18330,29814
32976,18318,29796
32948,18323,29984
32868,18321,30007
32672,18328,29849
32568,18327,29820
32372,18337,29829
32352,18329,29804
32416,18330,29889
32472,18345,29916
32393,18333,29732
32452,18331,29781
32504,18322,29903
32572,18325,29905
32668,18342,29799
32840,18342,29796
32776,18340,29860
32740,18331,29850
32676,18321,29853
32692,18333,29862
32705,18317,29660
32624,18328,29719
32668,18332,29856
32792,18316,29841
32896,18341,29788
32948,18340,29816
32877,18334,29612
32892,18325,29582
32816,18324,29633
32636,18324,29693
32556,18335,29813
32560,18333,29669
32592,18322,29736
32612,18329,29582
32704,18341,29751
32669,18324,29579
32672,18340,29676
32712,18327,29487
32588,18340,29679
32656,18333,29548
32572,18313,29652
32620,18334,29511
32600,18327,29688
32776,18329,29541
32804,18318,29580
32916,18324,29615
32888,18338,29414
32700,18333,29444
32810,18332,29650
32784,18324,29514
32740,18321,29501
32652,18317,29560
32745,18319,29372
32817,18320,29471
32870,18331,29590
32916,18332,29514
32896,18340,29492
33045,18318,29484
33040,18331,29488
32925,18320,29488
32980,18325,29289
32869,18316,29392
32936,18313,29504
32964,18322,29344
32736,18327,29429
32592,18335,29432
32696,18321,29244
32780,18335,29282
32758,18319,29445
32692,18327,29348
32628,18310,29288
32612,18321,29389
32608,18327,29374
32464,18319,29276
32492,18332,29280
32572,18332,29380
32600,18339,29209
32660,18325,29389
32688,18331,29290
32668,18325,29357
32640,18330,29223
32688,18313,29356
32688,18320,29262
32652,18312,29372
32700,18325,29244
32704,18333,29424
32840,18317,29275
32740,18318,29383
32700,18335,29231
32720,18325,29256
32684,18310,29260
32672,18312,29397
32680,18316,29412
32712,18331,29324
32748,18312,29314
32844,18337,29432
32900,18328,29242
32856,18313,29348
32769,18318,29500
32740,18315,29536
32650,18314,29493
32656,18324,29468
32764,18309,29485
32804,18317,29376
32908,18312,29595
32980,18325,29461
32952,18329,29508
32848,18318,29550
32865,18321,29383
32975,18304,29381
32920,18319,29396
32992,18320,29432
33094,18320,29485
33188,18315,29617
33176,18324,29652
33160,18311,29630
33056,18313,29497
32961,18329,29533
32978,18326,29628
32752,18324,29759
32552,18304,29613
32632,18318,29718
32784,18319,29526
32880,18309,29640
32917,18309,29686
33056,18317,29749
33032,18314,29576
32960,18316,29645
32788,18319,29828
32772,18317,29727
32781,18317,29799
32736,18321,29644
32744,18303,29637
32870,18298,29871
32912,18311,29738
33052,18321,29854
33156,18317,29662
33052,18314,29824
32928,18316,29862
32948,18316,29856
32869,18316,29673
32912,18303,29836
32864,18302,29844
32816,18308,29884
32816,18308,29901
32848,18317,29900
32844,18309,29786
32868,18302,29872
32820,18309,29860
32752,18321,29932
32740,18308,29750
32784,18301,30032
32808,18313,29909
32880,18313,29796
32964,18308,29853
32948,18309,29865
32916,18312,29956
32828,18303,30049
32756,18323,29911
32738,18310,30033
32644,18300,29828
32660,18318,29919
32688,18310,30044
32732,18303,30133
32740,18305,29940
32800,18314,30056
32757,18302,29862
32844,18320,30025
32836,18309,30039
32896,18299,30028
32956,18292,29860
32944,18294,30068
32940,18292,29932
32932,18297,30036
32896,18305,29921
32784,18322,30080
32784,18315,29924
32788,18312,30032
32864,18317,29904
32860,18316,30111
32752,18292,30108
32796,18294,29934
32872,18300,30020
32953,18308,30018
32780,18320,29872
32596,18301,29922
32720,18301,30092
32756,18317,29896
32748,18318,30014
32712,18301,29799
32672,18300,29864
32908,18304,30004
33176,18291,29980
33404,18292,29892
33560,18298,30001
34040,18311,29792
34412,18296,30016
34744,18309,29928
35032,18309,29958
35364,18291,30009
35748,18289,29814
36096,18300,29905
36484,18285,30077
36812,18301,30054
37056,18297,29959
37040,18305,30053
37040,18318,29855
36828,18313,29877
36632,18300,29872
35972,18319,29922
34940,18302,29932
33637,18302,29936
32564,18308,29946
32148,18317,30105
31932,18303,30068
31628,18308,30071
31328,18311,30093
31048,18309,29908
30792,18304,29948
30632,18298,30056
30780,18292,30189
30748,18292,30012
30940,18300,30128
31176,18295,30017
31500,18300,30120
31704,18308,30112
31848,18298,30145
32012,18292,30013
32116,18300,30200
32196,18293,30057
32232,18291,30167
32292,18297,29959
32228,18292,30116
32084,18293,30199
32172,18291,30111
32360,18291,30012
32424,18300,30061
32452,18309,30068
32340,18301,30060
32384,18297,30256
32356,18286,30214
32292,18298,30112
32244,18285,30213
32314,18297,30210
32264,18289,30068
32536,18291,30281
32520,18293,30164
32590,18297,29996
32576,18289,30248
32601,18285,30172
32436,18287,30201
32416,18295,30092
32460,18279,30224
32564,18285,30116
32592,18304,30242
32572,18289,30044
32554,18298,30132
32664,18283,30333
32704,18297,30206
32644,18291,30078
32672,18285,30165
32596,18286,30340
32660,18287,30212
32720,18295,30300
32644,18284,30198
32456,18291,30376
32572,18301,30229
32693,18282,30317
32636,18297,30127
32586,18279,30379
32650,18283,30324
32713,18292,30125
32661,18297,30404
32692,18279,30247
32676,18283,30146
32636,18286,30391
32513,18290,30301
32688,18304,30176
32740,18282,30309
32544,18287,30226
32580,18293,30285
32596,18276,30087
32588,18295,30149
32732,18295,30271
32796,18279,30304
32844,18292,30215
32788,18287,30224
32856,18283,30287
32860,18285,30212
32792,18281,30031
32740,18286,30286
32620,18276,30103
32584,18284,30210
32669,18305,30039
32730,18278,30252
32716,18291,30140
32784,18297,30193
32810,18283,30016
32880,18282,30165
32828,18293,30200
32772,18272,30199
32808,18277,30033
32820,18284,30263
32864,18277,30212
32954,18279,30215
32972,18284,30201
33012,18299,30116
33032,18292,30140
32916,18276,30214
32944,18272,30262
32960,18280,30201
32897,18277,30044
32908,18284,30268
33068,18276,30233
33132,18280,30164
33136,18292,30190
33160,18288,30066
33276,18287,30190
33228,18281,30068
33194,18276,30260
33164,18269,30244
33176,18274,30100
33241,18284,30352
33368,18283,30285
33388,18285,30164
33432,18289,30372
33540,18277,30183
33516,18276,30149
33480,18273,30200
33446,18277,30112
33416,18276,30277
33417,18275,30336
33404,18277,30372
33404,18277,30367
33445,18284,30233
33488,18278,30344
33592,18284,30180
33540,18280,30471
33496,18287,30414
33560,18288,30408
33528,18272,30380
33516,18270,30448
33580,18276,30332
33684,18277,30352
33744,18272,30356
33796,18292,30388
33764,18282,30492
33588,18279,30524
33456,18266,30416
33348,18269,30596
33144,18277,30559
32976,18267,30380
33024,18280,30663
33116,18287,30544
33212,18269,30617
33208,18282,30557
33140,18281,30623
33084,18268,30628
33016,18270,30670
32937,18276,30627
32828,18281,30569
32760,18265,30716
32736,18276,30629
32732,18269,30608
32785,18284,30561
32716,18265,30801
32636,18274,30715
32624,18274,30765
32544,18265,30653
32432,18268,30818
32336,18265,30702
32292,18270,30598
32288,18260,30812
32352,18272,30769
32345,18272,30845
32352,18273,30684
32316,18269,30854
32276,18271,30880
32240,18277,30788
32216,18271,30945
32152,18270,30804
32104,18275,30921
32192,18256,30965
32176,18257,30924
32196,18269,30831
32236,18273,31015
32204,18284,30972
32104,18265,30838
32068,18268,31069
32110,18268,30997
32108,18258,30919
32046,18267,31076
32052,18256,31037
32108,18253,30868
32180,18258,31072
32196,18266,30948
32176,18264,30879
32120,18277,30981
32056,18264,31089
32040,18264,31012
32012,18262,31116
32140,18268,31005
32221,18257,31092
32296,18252,31159
32369,18253,31039
32380,18267,31252
32328,18272,31111
32164,18277,31202
32061,18274,31081
32060,18271,31236
32132,18262,31239
32172,18250,31197
32173,18257,31233
32288,18265,31299
32304,18271,31224
32288,18276,31076
32070,18263,31332
32040,18263,31252
32108,18259,31136
32196,18254,31399
32292,18254,31273
32312,18252,31412
32393,18261,31257
32452,18263,31344
32484,18271,31367
32412,18273,31584
32284,18256,31476
32241,18270,31562
32192,18260,31484
32196,18265,31628
32264,18248,31640
32312,18263,31456
32416,18256,31676
32484,18250,31741
32470,18258,31688
32492,18269,31567
32480,18262,31854
32420,18273,31788
32340,18252,31797
32284,18245,31910
32288,18259,31712
32265,18268,31970
32284,18247,32020
32392,18261,32042
32548,18271,31931
32532,18253,32124
32524,18277,32016
32452,18273,31936
32416,18265,32273
32396,18260,32249
32372,18252,32206
32325,18252,32325
32344,18252,32364
32464,18254,32284
32588,18254,32516
32600,18260,32348
32648,18255,32519
32621,18271,32448
32532,18257,32649
32500,18264,32621
32441,18243,32591
32416,18245,32807
32432,18241,32775
32460,18253,32652
32500,18258,32968
32544,18250,32884
32556,18248,32969
32582,18249,32904
32557,18253,33141
32500,18256,32988
32500,18242,33142
32528,18244,32989
32516,18250,33152
32504,18250,33415
32528,18252,33329
32544,18256,33408
32580,18256,33388
32444,18246,33558
32412,18260,33598
32368,18250,33640
32356,18232,33695
32404,18240,33688
32460,18251,33772
32657,18236,33900
32800,18236,33852
32784,18248,34013
32720,18254,33927
32736,18248,34100
32681,18238,34172
32640,18240,34087
32564,18253,34272
32304,18232,34161
32192,18238,34389
32324,18241,34520
32480,18255,34324
32558,18246,34497
32552,18244,34518
32532,18246,34565
32524,18239,34468
32492,18237,34420
32501,18231,34606
32552,18236,34759
32604,18233,34896
32680,18240,34711
32793,18236,34823
32832,18252,34655
32792,18255,34854
32764,18241,34830
32720,18235,34758
32696,18236,35028
32712,18240,35071
32680,18230,35092
32632,18232,34900
32644,18247,35140
32552,18232,35319
32516,18242,35148
32588,18252,35266
32520,18234,35244
32436,18244,35461
32486,18228,35254
32468,18236,35424
32468,18245,35472
32532,18237,35345
32656,18236,35509
32750,18237,35445
32752,18237,35628
32840,18244,35496
32812,18228,35633
32896,18235,35388
32832,18228,35711
32728,18230,35588
32696,18232,35756
32648,18222,35493
32556,18243,35868
32584,18234,35683
32668,18240,35780
32716,18244,35847
32697,18235,35708
32672,18232,35924
32604,18231,35826
32524,18234,35941
32448,18240,35676
32540,18223,35896
32632,18230,36052
32724,18235,35956
32800,18241,36037
32784,18245,35972
32765,18239,36096
32775,18242,36068
32720,18226,35894
32732,18225,36209
32720,18223,36022
32568,18222,36152
32668,18223,36177
32716,18229,36041
32797,18236,36213
32754,18244,36164
32681,18230,36342
32612,18234,36240
32568,18233,36053
32604,18232,36302
32636,18226,36270
32664,18230,36052
32688,18230,36366
32796,18224,36348
32904,18229,36269
