ECG,EDA,RR
32258,34352,23749
32284,34305,23862
32292,34268,23772
32296,34252,23749
32288,34276,23805
32228,34335,23804
32160,34375,23909
32108,34422,23824
32105,34439,23863
32120,34420,24004
32133,34369,23884
32172,34311,23924
32176,34301,24049
32232,34285,23949
32213,34311,23989
32184,34361,24114
32168,34389,24041
32132,34465,24047
32088,34463,24192
32110,34439,24124
32152,34406,24215
32176,34365,24142
32221,34307,24144
32252,34309,24161
32260,34343,24192
32228,34391,24260
32188,34438,24261
32212,34479,24271
32240,34493,24399
32292,34471,24373
32336,34422,24305
32436,34375,24375
32520,34341,24413
32628,34334,24456
32649,34365,24417
32641,34415,24417
32656,34455,24495
32681,34496,24493
32705,34511,24599
32744,34489,24492
32852,34453,24550
32913,34399,24532
32981,34365,24607
33020,34353,24669
33060,34391,24587
33068,34434,24607
33088,34485,24717
33064,34533,24644
33056,34535,24689
33104,34495,24676
33153,34468,24754
33200,34439,24733
33224,34389,24758
33248,34385,24749
33248,34417,24855
33236,34460,24796
33224,34507,24790
33142,34548,24883
33132,34566,24885
33192,34521,24865
33248,34492,24857
33316,34452,24871
33344,34393,24992
33364,34413,24997
33340,34449,24932
33294,34489,24965
33212,34549,24957
33168,34580,25069
33160,34598,24988
33182,34567,25026
33236,34535,25023
33237,34486,25117
33276,34449,25103
33292,34439,25101
33292,34463,25092
33256,34522,25193
33198,34559,25149
33164,34617,25174
33168,34618,25148
33169,34607,25260
33164,34559,25243
33188,34531,25204
33224,34476,25236
33228,34476,25240
33208,34509,25351
33160,34540,25329
33120,34612,25316
33088,34651,25313
33096,34655,25425
33096,34631,25370
33128,34599,25396
33164,34549,25442
33189,34511,25470
33184,34519,25482
33132,34548,25487
33098,34585,25607
33084,34645,25548
33034,34695,25580
33016,34695,25647
33048,34663,25724
33100,34628,25708
33100,34567,25724
33124,34536,25735
33120,34543,25828
33088,34573,25817
33025,34625,25848
32948,34684,25956
32924,34727,25908
32887,34724,25966
32924,34703,26038
32960,34669,26020
33004,34626,26061
33028,34583,26137
33068,34580,26159
33048,34615,26207
32985,34671,26232
32928,34719,26344
32852,34764,26325
32865,34769,26396
32936,34751,26437
32960,34705,26501
32988,34644,26512
32992,34626,26549
32976,34631,26590
32972,34660,26677
32896,34693,26709
32836,34761,26757
32828,34784,26785
32832,34821,26887
32838,34780,26885
32904,34749,26939
32956,34707,26987
32997,34668,27063
33006,34671,27073
32976,34709,27130
32924,34753,27164
32900,34791,27252
32876,34860,27272
32844,34858,27334
32892,34823,27360
32924,34793,27442
32989,34755,27468
33028,34717,27513
33016,34724,27599
32976,34744,27623
32942,34791,27660
32889,34852,27729
32813,34879,27797
32800,34900,27819
32812,34870,27877
32876,34837,27911
32916,34791,27965
32948,34759,28025
32932,34743,28071
32900,34804,28071
32848,34823,28180
32796,34906,28229
32732,34951,28274
32748,34951,28348
32772,34919,28391
32821,34881,28443
32900,34846,28479
32920,34811,28542
32924,34807,28600
32876,34853,28652
32877,34897,28719
32816,34951,28764
32788,34989,28821
32792,35001,28890
32812,34973,28935
32824,34933,28993
32844,34886,29044
32896,34853,29119
32912,34857,29172
32860,34888,29231
32832,34943,29282
32796,35007,29340
32760,35045,29408
32743,35030,29439
32772,35015,29532
32822,34977,29577
32848,34928,29604
32872,34895,29697
32880,34903,29743
32880,34947,29812
32844,34991,29849
32808,35053,29908
32748,35105,29997
32716,35084,30052
32736,35065,30087
32802,35020,30156
32836,34983,30215
32825,34951,30240
32828,34959,30308
32813,34990,30404
32808,35047,30460
32828,35087,30507
32816,35143,30548
32820,35117,30579
32848,35116,30676
32876,35079,30736
32880,35025,30799
32928,34997,30862
32892,34997,30886
32868,35048,30906
32852,35095,31036
32768,35116,31080
32720,35191,31150
32728,35185,31127
32752,35165,31235
32780,35125,31304
32804,35047,31295
32848,35047,31433
32856,35053,31476
32836,35095,31458
32848,35121,31596
32812,35197,31637
32768,35225,31620
32740,35239,31764
32764,35199,31816
32852,35167,31773
32855,35122,31925
32868,35092,31959
32904,35113,31988
32870,35143,32076
32788,35195,32121
32756,35250,32152
32724,35293,32162
32688,35286,32308
32716,35256,32346
32744,35214,32348
32798,35165,32396
32832,35146,32505
32820,35149,32569
32750,35196,32555
32708,35253,32642
32687,35303,32613
32656,35328,32775
32684,35328,32807
32722,35309,32800
32760,35273,32838
32792,35231,32975
32836,35188,33028
32848,35207,32969
32820,35236,33135
32788,35293,33140
32743,35363,33221
32690,35380,33169
32672,35387,33303
32721,35359,33348
32816,35313,33287
32852,35261,33463
32904,35245,33478
32916,35255,33436
32868,35296,33567
32840,35357,33639
32808,35401,33598
32773,35439,33733
32784,35434,33744
32804,35399,33793
32820,35356,33775
32839,35311,33773
32888,35289,33910
32919,35301,33948
32884,35335,34020
32848,35388,33940
32806,35436,34108
32761,35483,34119
32728,35479,34180
32749,35453,34133
32792,35399,34117
32828,35359,34221
32877,35335,34341
32900,35351,34337
32928,35388,34375
32896,35437,34343
32820,35495,34348
32768,35533,34493
32744,35531,34495
32744,35492,34564
32788,35447,34492
32832,35412,34535
32860,35382,34660
32832,35398,34637
32772,35443,34692
32724,35487,34745
32692,35545,34644
32652,35580,34709
32648,35569,34781
32648,35543,34837
32708,35501,34725
32746,35463,34848
32788,35423,34930
32784,35447,34925
32782,35453,34857
32756,35541,35017
32716,35585,35005
32668,35631,34935
32668,35623,35079
32668,35586,35063
32640,35557,35026
32700,35501,35157
32692,35463,35190
32656,35492,35161
32600,35534,35215
32565,35589,35269
32468,35645,35214
32312,35652,35287
32121,35679,35353
31920,35639,35253
31644,35604,35364
31208,35559,35431
30724,35549,35374
30264,35563,35444
29856,35615,35519
29496,35665,35463
29141,35732,35527
28880,35765,35503
28732,35771,35624
28640,35736,35668
28744,35713,35637
29028,35666,35673
29588,35644,35756
30468,35653,35708
31407,35700,35757
32492,35735,35716
33832,35792,35888
34792,35807,35903
35241,35805,35903
35165,35772,35956
34844,35727,35908
34516,35687,35975
34272,35666,35933
33968,35679,36087
33640,35719,35998
33292,35779,36140
33028,35831,36163
32864,35847,36045
32816,35847,36232
32856,35807,36264
32892,35747,36158
32928,35729,36350
32977,35700,36335
32988,35716,36284
32993,35757,36393
32956,35799,36412
32896,35869,36513
32900,35892,36422
32868,35876,36604
32912,35845,36604
32952,35783,36525
32996,35757,36694
33009,35719,36704
33016,35751,36622
32976,35799,36773
32932,35845,36820
32881,35902,36745
32820,35927,36884
32824,35887,36836
32876,35885,36902
32925,35847,36828
32976,35791,37025
32976,35772,37031
32960,35789,37062
32916,35832,37095
32884,35884,37111
32852,35943,37111
32828,35965,37050
32808,35955,37177
32860,35921,37101
32920,35885,37285
32944,35847,37247
32960,35801,37345
32948,35839,37285
32928,35885,37401
32880,35925,37313
32824,35977,37383
32784,36007,37500
32780,35996,37540
32793,35959,37447
32796,35927,37545
32796,35880,37516
32804,35858,37572
32805,35880,37714
32768,35927,37757
32740,35988,37796
32672,36019,37757
32632,36029,37865
32592,36039,37760
32600,35991,37961
32656,35969,37836
32687,35920,38023
32692,35911,37908
32680,35917,38055
32640,35975,38085
32612,36015,38004
32564,36077,38197
32532,36079,38217
32544,36085,38265
32520,36055,38255
32568,36020,38221
32582,35963,38287
32588,35957,38207
32565,35959,38407
32504,36015,38404
32448,36071,38284
32384,36113,38486
32344,36151,38436
32324,36127,38508
32356,36103,38461
32369,36052,38479
32388,36007,38432
32429,35989,38532
32392,36012,38468
32364,36063,38608
32280,36103,38524
32248,36163,38629
32228,36188,38569
32252,36177,38751
32248,36140,38749
32293,36097,38708
32284,36017,38773
32318,36036,38685
32269,36039,38900
32241,36101,38823
32213,36150,38779
32189,36204,38860
32144,36228,38791
32172,36214,38901
32172,36183,38869
32178,36148,38965
32156,36093,38895
32204,36091,39008
32172,36103,38965
32136,36145,39101
32068,36205,39095
32012,36256,39172
31968,36276,39196
31998,36263,39205
32048,36229,39104
32096,36196,39191
32177,36141,39135
32249,36129,39335
32260,36159,39175
32284,36191,39355
32289,36231,39207
32293,36279,39351
32304,36321,39256
32348,36311,39364
32384,36268,39303
32453,36231,39407
32536,36175,39332
32600,36168,39431
32604,36191,39426
32637,36231,39501
32660,36275,39415
32656,36309,39577
32629,36359,39601
32708,36337,39461
32756,36309,39669
32792,36265,39468
32869,36216,39704
32909,36175,39686
32956,36229,39708
33008,36271,39719
33020,36308,39759
33008,36359,39740
33016,36403,39784
33069,36379,39768
33120,36341,39733
33178,36311,39758
33257,36253,39655
33328,36241,39732
33313,36264,39636
33308,36306,39860
33296,36327,39831
33252,36423,39757
33228,36441,39661
33232,36423,39782
33230,36389,39853
33248,36351,39891
33292,36285,39678
33281,36284,39893
33296,36309,39839
33308,36349,39749
33288,36396,39793
33276,36447,39695
33240,36469,39912
33248,36461,39868
33324,36421,39885
33372,36359,39868
33400,36341,39732
33430,36320,39812
33404,36337,39863
33338,36391,39780
33274,36436,39837
33216,36477,39864
33172,36505,39744
33184,36473,39892
33216,36466,39798
33255,36404,39845
33336,36377,39673
33376,36359,39853
33317,36388,39805
33245,36421,39687
33221,36470,39872
33200,36535,39844
33180,36556,39733
33175,36536,39748
33192,36500,39681
33184,36455,39804
33200,36415,39823
33218,36397,39791
33208,36431,39783
33204,36479,39657
33134,36519,39801
33092,36580,39644
33072,36583,39861
33084,36575,39661
33100,36533,39844
33112,36495,39799
33100,36452,39640
33089,36432,39839
33096,36468,39797
33093,36501,39823
33036,36551,39780
32948,36612,39751
32944,36629,39711
32942,36606,39620
32985,36569,39673
33056,36532,39577
33110,36497,39676
33176,36476,39516
33200,36484,39717
33164,36555,39664
33096,36599,39516
33044,36652,39668
33012,36676,39604
32986,36665,39457
33024,36615,39576
33081,36551,39598
33076,36524,39532
33108,36516,39508
33098,36540,39559
33068,36563,39572
33028,36631,39533
32976,36703,39356
32988,36711,39535
33016,36693,39515
33053,36650,39417
33092,36599,39468
33128,36534,39476
33168,36556,39396
33156,36598,39392
33124,36596,39318
33060,36678,39412
33020,36733,39452
33008,36743,39467
33064,36732,39396
33092,36663,39273
33104,36655,39453
33152,36605,39260
33166,36599,39399
33112,36605,39264
33068,36663,39463
33024,36709,39289
32958,36742,39440
32928,36797,39397
32921,36763,39404
32941,36725,39428
32992,36691,39414
33034,36633,39271
33072,36625,39425
33016,36657,39285
32980,36681,39431
32989,36746,39403
32976,36800,39289
32964,36821,39485
32965,36797,39449
32992,36759,39455
33018,36716,39445
33048,36663,39397
33058,36659,39437
33061,36692,39317
33028,36743,39508
32952,36782,39468
32892,36845,39324
32812,36847,39519
32821,36835,39500
32880,36775,39495
32944,36759,39473
33040,36703,39398
33056,36668,39492
33024,36727,39383
32992,36772,39549
32972,36825,39543
32944,36871,39405
32902,36871,39585
32905,36869,39546
32928,36820,39418
32912,36795,39625
32960,36728,39559
32984,36732,39445
32985,36756,39525
32932,36794,39559
32892,36853,39632
32916,36913,39663
32892,36887,39632
32913,36900,39529
32937,36855,39637
32984,36780,39544
33027,36772,39735
33036,36763,39708
32972,36792,39586
32944,36837,39744
32916,36892,39746
32865,36935,39676
32808,36951,39789
32836,36917,39783
32904,36889,39687
32912,36845,39744
32925,36797,39655
32940,36794,39855
32932,36821,39781
32896,36869,39687
32864,36925,39900
32864,36965,39839
32812,36974,39719
32812,36955,39916
32820,36900,39905
32834,36871,39789
32870,36814,39844
32917,36820,39931
32872,36847,39943
32844,36888,39864
32832,36943,39788
32788,36996,40012
32740,37004,39975
32766,36983,39900
32800,36932,39959
32856,36903,39863
32904,36859,40071
32948,36835,40000
32917,36876,40050
32876,36933,39929
32832,36972,40003
32766,37031,39900
32764,37039,40116
32816,37007,40079
32872,36945,39958
32948,36927,40146
33016,36871,40084
33004,36871,39981
32944,36899,40183
32852,36956,40069
32848,36999,39992
32814,37060,40217
32800,37061,40169
32800,37031,40044
32834,36994,40222
32872,36925,40181
32908,36908,40071
32928,36903,40272
32924,36937,40199
32912,36972,40103
32892,37033,40295
32864,37073,40199
32864,37085,40108
32840,37063,40325
32822,37017,40324
32841,36953,40292
32896,36935,40165
32910,36930,40388
32897,36961,40317
32885,36999,40351
32852,37058,40284
32804,37103,40335
32800,37105,40392
32858,37082,40252
32856,37047,40429
32928,37009,40359
32940,36948,40432
32960,36959,40303
32911,36986,40503
32871,37036,40422
32844,37085,40484
32808,37127,40325
32781,37137,40432
32824,37116,40548
32832,37070,40492
32824,37031,40528
32856,36959,40437
32897,36986,40521
32904,37015,40423
32849,37063,40610
32784,37113,40583
32748,37141,40464
32728,37172,40599
32752,37140,40697
32800,37103,40660
32820,37055,40524
32842,37015,40788
32824,37015,40733
32784,37015,40662
32724,37103,40711
32644,37149,40764
32498,37199,40799
32280,37197,40617
32129,37175,40831
31818,37141,40796
31372,37089,40855
30888,37057,40745
30380,37063,40892
29884,37103,40893
29420,37159,40748
28940,37223,40934
28528,37269,40853
28280,37278,40937
28116,37253,40748
28152,37220,40799
28436,37179,40964
28918,37145,40893
29736,37136,40799
30704,37127,40906
31920,37225,40960
33392,37244,40996
34680,37302,40820
35452,37300,41031
35544,37269,41009
35284,37229,41023
34908,37193,41048
34601,37143,40877
34328,37140,41089
34000,37179,41062
33669,37223,40937
33324,37279,41085
33092,37304,41013
33020,37332,41052
33060,37285,40921
33113,37247,41008
33153,37206,40871
33221,37173,40922
33248,37172,41044
33236,37205,41076
33176,37246,40911
33116,37299,40960
33068,37337,41095
33048,37337,41105
33072,37319,41016
33094,37268,41076
33136,37223,40903
33160,37190,41095
33180,37164,41045
33164,37231,40892
33116,37255,41103
33060,37319,40999
33029,37372,41040
32980,37367,41042
32997,37341,40860
33028,37298,41076
33056,37255,40965
33056,37223,40868
33012,37228,41013
32980,37255,40997
32936,37295,40996
32896,37369,40818
32880,37403,41012
32862,37405,40908
32916,37378,40977
32948,37335,40804
33004,37286,40904
33000,37263,41015
32996,37261,40962
32932,37307,40827
32840,37349,41011
32805,37399,40960
32784,37455,40895
32798,37434,40967
32820,37416,40966
32849,37381,40852
32880,37332,40891
32900,37295,40797
32852,37276,40879
32856,37341,40761
32800,37397,40903
32764,37447,40867
32698,37491,40745
32676,37460,40945
32720,37460,40913
32736,37428,40935
32765,37383,40904
32772,37344,40875
32788,37333,40815
32724,37399,40711
32676,37453,40839
32608,37508,40861
32552,37541,40877
32532,37548,40780
32536,37519,40820
32532,37477,40664
32555,37434,40837
32553,37397,40813
32532,37414,40800
32512,37447,40647
32433,37486,40855
32396,37548,40777
32320,37591,40615
32320,37599,40763
32327,37561,40711
32333,37521,40583
32380,37477,40772
32432,37451,40566
32400,37476,40735
32368,37505,40711
32300,37565,40708
32234,37623,40561
32191,37655,40654
32176,37660,40703
32206,37628,40511
32244,37596,40659
32241,37513,40623
32248,37519,40487
32220,37526,40519
32164,37535,40591
32160,37621,40455
32128,37684,40543
32148,37714,40556
32152,37725,40426
32186,37689,40630
32177,37655,40508
32252,37613,40557
32272,37585,40416
32246,37593,40509
32216,37612,40484
32204,37689,40513
32172,37757,40332
32160,37793,40500
32136,37788,40409
32200,37767,40453
32239,37712,40295
32312,37672,40467
32352,37652,40383
32356,37639,40237
32340,37717,40273
32352,37764,40359
32344,37820,40300
32368,37829,40129
32432,37861,40228
32488,37831,40180
32596,37797,40244
32653,37748,40115
32696,37732,40134
32749,37745,39997
32796,37783,40068
32788,37840,40129
32792,37895,40060
32800,37929,40054
32844,37934,39863
32925,37895,39968
33024,37865,39895
33092,37790,39935
33156,37798,39759
33204,37815,39768
33204,37864,39878
33196,37923,39825
33200,37979,39764
33218,38004,39601
33252,38007,39669
33284,37983,39649
33336,37932,39648
33388,37895,39468
33468,37876,39444
33472,37884,39511
33444,37936,39541
33459,37996,39431
33452,38055,39300
33432,38087,39274
33428,38084,39380
33467,38055,39316
33509,38017,39156
33568,37967,39277
33564,37953,39166
33540,37975,39055
33464,38005,39175
33428,38047,39085
33412,38135,38942
33344,38169,39073
33400,38127,38985
33380,38141,38836
33392,38087,38863
33432,38045,38903
33485,37996,38820
33468,38044,38705
33428,38096,38660
33405,38151,38748
33376,38208,38692
33340,38247,38694
33344,38221,38505
33394,38219,38613
33436,38189,38526
33460,38130,38404
33452,38092,38495
33452,38143,38463
33430,38156,38308
33368,38239,38407
33321,38284,38303
33288,38336,38229
33260,38335,38244
33280,38311,38196
33292,38271,38201
33308,38190,38079
33372,38212,38070
33328,38223,37947
33229,38244,38023
33224,38332,38023
33172,38375,37859
33129,38431,37948
33128,38423,37895
33146,38397,37759
33208,38367,37767
33241,38279,37789
33312,38293,37636
33320,38321,37725
33301,38364,37679
33200,38387,37524
33156,38485,37597
33104,38516,37463
33112,38517,37527
33149,38479,37477
33204,38455,37305
33252,38405,37348
33276,38395,37218
33268,38423,37268
33248,38471,37165
33172,38514,37221
33156,38587,37174
33141,38619,37029
33164,38615,37103
33180,38563,37047
33208,38553,36889
33196,38487,36933
33220,38499,36893
33180,38519,36781
33144,38528,36841
33120,38609,36785
33068,38687,36668
33052,38716,36677
33056,38677,36524
33093,38679,36583
33124,38641,36487
33148,38564,36536
33128,38586,36484
33136,38613,36316
33108,38663,36404
33052,38721,36333
33036,38791,36208
33016,38819,36177
33008,38813,36221
33032,38780,36161
33052,38713,36151
33088,38711,35988
33120,38660,36061
33134,38705,35975
33076,38772,35892
33034,38809,35915
32965,38884,35872
32932,38916,35772
32927,38913,35778
32980,38882,35727
33040,38852,35653
33034,38799,35633
33048,38791,35615
33028,38823,35583
33008,38870,35447
32964,38919,35509
32925,38986,35452
32902,39013,35348
32960,39019,35332
32984,38986,35311
33021,38955,35207
33037,38904,35219
33076,38892,35180
33076,38919,35152
33046,38970,35055
32973,39023,35061
32948,39092,35012
32924,39117,34993
32936,39112,34877
32940,39084,34913
32997,39047,34863
33032,39011,34829
33076,38997,34728
33058,39015,34743
33000,39076,34727
32964,39127,34652
32880,39185,34629
32825,39215,34562
32880,39172,34556
32932,39183,34525
32948,39143,34452
32964,39093,34403
33008,39089,34420
32978,39121,34386
32952,39164,34319
32916,39191,34311
32880,39285,34291
32876,39293,34228
32876,39303,34228
32944,39281,34181
32968,39236,34100
32976,39204,34132
33012,39191,34087
33004,39215,34005
32942,39269,34026
32904,39325,33989
32865,39383,33960
32805,39378,33884
32820,39407,33906
32808,39375,33859
32832,39335,33837
32858,39293,33780
32892,39287,33716
32886,39311,33740
32858,39365,33711
32832,39423,33639
32796,39485,33644
32816,39516,33623
32816,39500,33589
32849,39431,33506
32877,39431,33529
32928,39380,33484
32932,39384,33457
32928,39397,33399
32885,39456,33407
32828,39511,33370
32805,39584,33347
32797,39615,33313
32809,39599,33276
32852,39569,33279
32892,39537,33233
32920,39487,33201
32996,39478,33159
32960,39514,33140
32909,39559,33132
32872,39588,33114
32856,39681,33073
32858,39709,33041
32868,39702,33037
32868,39660,33004
32884,39637,32967
32952,39584,32959
32968,39545,32942
32956,39605,32919
32932,39644,32893
32924,39711,32866
32896,39783,32849
32872,39799,32833
32917,39786,32816
32952,39759,32813
32968,39719,32797
33004,39671,32767
33012,39661,32759
33008,39660,32740
32968,39744,32716
32904,39807,32704
32884,39871,32701
32860,39886,32639
32868,39863,32680
32911,39845,32659
32964,39815,32630
32964,39772,32636
32972,39756,32620
32972,39765,32588
32953,39841,32581
32920,39903,32572
32876,39943,32564
32856,39970,32556
32866,39965,32559
32892,39933,32519
32948,39892,32532
32976,39846,32503
32972,39829,32501
32932,39831,32487
32893,39931,32476
32852,39975,32463
32808,40037,32477
32772,40021,32452
32792,40052,32444
32816,40015,32431
32856,39983,32405
32877,39936,32417
32904,39919,32399
32844,39919,32375
32776,40013,32378
32692,40069,32351
32636,40120,32352
32570,40127,32329
32528,40129,32369
32464,40087,32332
32344,40041,32328
32172,40012,32308
31856,40015,32293
31364,40044,32313
30816,40108,32287
30308,40159,32279
29910,40233,32263
29566,40199,32263
29284,40244,32255
29040,40215,32250
28844,40177,32229
28688,40141,32240
28676,40148,32231
28809,40173,32239
29056,40245,32208
29661,40261,32220
30537,40357,32199
31692,40365,32182
33104,40335,32194
34444,40295,32181
35216,40223,32184
35368,40213,32180
35116,40175,32160
34788,40232,32189
34472,40289,32150
34116,40297,32183
33756,40419,32148
33469,40393,32157
33281,40378,32142
33164,40358,32157
33112,40317,32167
33140,40267,32165
33164,40225,32166
33164,40287,32179
33164,40347,32189
33112,40370,32198
33080,40446,32232
33054,40477,32212
33060,40444,32245
33100,40407,32271
33176,40335,32276
33196,40318,32296
33238,40262,32306
33199,40343,32357
33156,40388,32372
33053,40428,32379
33017,40516,32437
32977,40518,32431
33012,40500,32428
33052,40415,32471
33056,40420,32477
33033,40364,32498
33016,40327,32553
32990,40390,32563
32910,40439,32585
32877,40493,32647
32853,40563,32656
32824,40543,32676
32856,40544,32735
32862,40505,32750
32936,40461,32773
32984,40421,32820
32992,40409,32839
32942,40444,32867
32910,40494,32921
32840,40544,32937
32812,40607,32964
32757,40625,33028
32826,40556,33029
32828,40558,33071
32852,40523,33113
32852,40477,33143
32864,40455,33156
32832,40495,33204
32812,40518,33223
32732,40604,33255
32669,40646,33287
32588,40668,33321
32604,40659,33349
32620,40613,33373
32644,40575,33391
32685,40523,33429
32684,40509,33440
32660,40538,33486
32576,40569,33503
32540,40645,33512
32518,40700,33556
32504,40732,33567
32513,40660,33586
32516,40653,33584
32540,40557,33631
32606,40567,33641
32620,40514,33631
32576,40591,33671
32533,40647,33676
32493,40694,33671
32456,40759,33678
32430,40765,33693
32420,40743,33716
32440,40655,33711
32456,40667,33720
32492,40607,33727
32496,40619,33730
32444,40635,33745
32405,40703,33744
32349,40708,33740
32334,40794,33775
32288,40767,33775
32296,40791,33769
32316,40695,33799
32352,40695,33793
32336,40651,33812
32324,40648,33812
32296,40677,33834
32204,40732,33844
32121,40799,33847
32092,40839,33852
32080,40815,33868
32088,40832,33869
32136,40761,33900
32181,40743,33905
32216,40698,33909
32222,40653,33943
32208,40733,33924
32148,40777,33960
32108,40838,33964
32048,40885,33964
32029,40853,34009
32040,40871,34001
32097,40828,34021
32140,40788,34027
32160,40745,34066
32208,40727,34076
32249,40769,34069
32196,40815,34119
32140,40869,34140
32128,40932,34138
32201,40876,34161
32292,40895,34172
32328,40809,34191
32392,40807,34229
32400,40749,34224
32456,40765,34249
32532,40796,34279
32548,40826,34271
32552,40900,34292
32616,40932,34341
32656,40956,34344
32740,40924,34363
32808,40887,34367
32900,40839,34405
33004,40772,34437
33064,40791,34437
33056,40815,34500
33042,40868,34509
33028,40911,34516
33038,40919,34542
33064,40967,34604
33088,40936,34617
33144,40897,34616
33224,40861,34669
33264,40813,34705
33320,40802,34748
33365,40834,34742
33327,40885,34815
33260,40895,34837
33302,40989,34852
33237,40988,34917
33288,40961,34957
33344,40903,34983
33428,40877,34981
33429,40815,35062
33508,40815,35089
33528,40853,35108
33461,40902,35150
33421,40943,35237
33352,40999,35271
33308,40999,35286
33328,40967,35332
33360,40931,35420
33404,40871,35462
33500,40832,35517
33520,40829,35508
33544,40871,35601
33504,40906,35679
33428,40959,35743
33408,40967,35719
33412,41015,35840
33444,40980,35893
33448,40900,35972
33468,40897,35975
33477,40831,36103
33500,40847,36135
33469,40879,36159
33445,40935,36196
33364,40946,36271
33316,41022,36349
33312,41031,36439
33332,40994,36541
33332,40956,36615
33317,40919,36652
33348,40868,36727
33362,40860,36815
33368,40895,36797
33336,40932,36903
33308,40981,37008
33232,41039,37084
33212,41045,37092
33245,41021,37169
33289,40967,37280
33320,40916,37393
33328,40879,37431
33340,40869,37544
33324,40905,37511
33268,40933,37663
33176,41004,37781
33132,41052,37844
33172,41020,37887
33168,41027,37926
33204,40983,38020
33244,40935,38204
33317,40892,38254
33364,40876,38357
33348,40868,38381
33271,40961,38444
33204,41021,38575
33188,41063,38732
33160,41065,38812
33188,41041,38933
33240,40983,38904
33270,40927,39001
33300,40903,39175
33320,40893,39308
33284,40930,39391
33196,40967,39506
33148,41017,39604
33200,41076,39600
33140,41077,39652
33140,41033,39853
33210,40989,39999
33240,40937,40046
33281,40900,40175
33284,40869,40149
33248,40935,40375
33241,40985,40445
33232,40997,40583
33188,41075,40573
33164,41068,40639
33216,41063,40901
33276,40967,41025
33344,40946,41087
33376,40903,41223
33390,40900,41238
33312,40947,41455
33184,40990,41551
33153,41044,41624
33140,41079,41721
33200,41078,41855
33232,41061,41797
33192,41009,42092
33278,40901,42137
33316,40916,42300
33280,40879,42212
33264,40956,42465
33184,40991,42625
33172,41047,42700
33156,41086,42851
33172,41078,42840
33208,41060,43090
33192,41012,43128
33292,40932,43276
33341,40931,43188
33311,40924,43503
33288,40945,43572
33230,40991,43668
33176,41053,43783
33144,41086,43861
33144,41081,43967
33176,41060,43933
33220,41018,44167
33272,40967,44242
33304,40913,44304
33349,40927,44292
33296,40944,44494
33230,40999,44580
33189,41051,44719
33100,41095,44647
33072,41081,44905
33092,41063,44929
33172,41007,45063
33208,40967,45156
33240,40918,45063
33253,40913,45231
33202,40903,45352
33172,40989,45417
33112,41031,45548
33045,41085,45575
33016,41079,45712
33024,41052,45804
33047,41003,45749
33069,40941,45925
33106,40898,45993
33109,40899,46143
33068,40895,46087
33008,40980,46269
32928,41005,46343
32857,41073,46434
32836,41071,46367
32872,41011,46588
32932,40994,46599
32996,40945,46709
33020,40886,46615
33040,40893,46748
33005,40921,46836
32908,40967,46993
32852,41022,47025
32828,41063,47064
32804,41056,47159
32840,41025,47188
32896,40945,47261
32936,40917,47301
32980,40868,47324
32989,40879,47197
32952,40872,47291
32928,40948,47481
32889,40991,47444
32888,41049,47530
32877,41045,47560
32885,41015,47468
32944,40967,47613
32992,40924,47597
33020,40877,47660
33028,40879,47492
32988,40911,47700
32954,40948,47692
32928,40985,47719
32920,41037,47574
32924,41031,47617
32956,41003,47716
33004,40940,47719
33028,40897,47703
33068,40847,47719
33036,40849,47579
32976,40878,47623
32916,40920,47687
32836,40967,47623
32800,41013,47607
32808,41017,47591
32797,40980,47549
32848,40932,47529
32893,40885,47479
32950,40844,47318
32920,40839,47416
32864,40869,47300
32776,40912,47239
32764,40961,47223
32772,41007,47152
32804,41001,46959
32781,40960,47012
32805,40876,46935
32852,40870,46885
32909,40812,46628
32894,40829,46677
32805,40849,46580
32785,40896,46541
32696,40947,46284
32646,40993,46212
32652,40984,46205
32688,40925,46215
32708,40905,46052
32772,40845,45988
32837,40812,45889
32868,40807,45639
32816,40839,45650
32800,40877,45591
32692,40935,45413
32596,40967,45332
32550,40967,45249
32512,40932,45128
32420,40884,45023
32292,40789,44743
32080,40807,44673
31680,40755,44644
31120,40839,44551
30632,40871,44428
30088,40941,44148
29676,40992,44122
29368,40991,44108
29160,40965,43968
28976,40912,43868
28828,40872,43779
28704,40839,43615
28800,40815,43527
29029,40874,43420
29460,40935,43176
30138,40973,43033
31180,41021,43104
32464,41013,43006
33837,40960,42863
34924,40905,42789
35388,40833,42628
35296,40818,42599
34932,40807,42416
34608,40839,42370
34232,40879,42119
33924,40935,42053
33493,40943,42053
33256,40967,41976
33096,40932,41894
32948,40881,41631
32981,40831,41599
33184,40758,41633
33157,40783,41543
33084,40802,41439
33048,40855,41383
33000,40901,41341
33060,40928,41095
33018,40932,41031
33042,40892,40959
33080,40827,40914
33112,40799,40957
33228,40741,40861
33248,40753,40885
33188,40777,40775
33076,40813,40775
33032,40828,40583
32936,40908,40685
32936,40900,40477
32992,40859,40615
33008,40813,40505
33012,40760,40495
33038,40711,40468
33068,40711,40285
33188,40740,40317
33144,40787,40343
33096,40838,40346
32852,40870,40266
32828,40868,40257
32804,40823,40250
32844,40789,40103
32928,40737,40159
32997,40695,40156
33008,40679,40101
32941,40721,40101
32894,40757,39943
32864,40797,39969
32776,40847,39991
32780,40829,39999
32788,40807,39997
32828,40749,39905
32852,40701,39925
32852,40655,39917
32884,40655,39783
32824,40687,39751
32783,40695,39742
32700,40789,39845
32684,40813,39777
32676,40820,39812
32640,40791,39656
32644,40739,39661
32680,40679,39724
32772,40636,39715
32748,40639,39687
32652,40668,39553
32636,40711,39622
32564,40757,39577
32528,40756,39570
32548,40788,39442
32608,40756,39396
32596,40673,39445
32576,40663,39416
32592,40612,39247
32572,40621,39349
32546,40655,39269
32524,40695,39259
32484,40741,39094
32544,40788,39023
32445,40759,39044
32396,40740,39079
32452,40688,38997
32524,40630,38919
32432,40607,38862
32364,40597,38828
32308,40639,38663
32264,40679,38597
32248,40727,38564
32224,40775,38544
32204,40758,38509
32233,40733,38448
32278,40650,38359
32352,40628,38321
32352,40551,38257
32308,40591,38105
32268,40621,38010
32176,40663,38015
32108,40719,37967
32092,40764,37895
32040,40764,37833
32072,40719,37709
32128,40676,37672
32217,40620,37621
32116,40581,37557
32093,40583,37383
31994,40613,37423
31960,40661,37317
31944,40711,37196
31932,40756,37103
31928,40750,37127
31984,40711,37023
32031,40617,36893
32116,40623,36895
32222,40574,36789
32122,40575,36742
32120,40619,36563
32116,40655,36585
32128,40711,36472
32104,40755,36368
32101,40735,36341
32216,40711,36244
32309,40661,36167
32384,40619,36097
32444,40579,35940
32519,40569,35873
32513,40573,35791
32480,40655,35723
32512,40709,35692
32540,40755,35590
32592,40756,35525
32661,40704,35388
32744,40676,35364
32828,40575,35254
32908,40575,35169
32964,40573,35045
32954,40612,34959
32968,40660,34888
32968,40711,34812
32988,40748,34722
33016,40745,34625
33056,40709,34511
33140,40669,34429
33192,40623,34358
33248,40581,34278
33285,40583,34177
33276,40573,34079
33218,40664,33995
33181,40711,33902
33180,40772,33796
33188,40703,33725
33198,40724,33625
33260,40637,33516
33340,40629,33443
33381,40583,33329
33420,40597,33225
33369,40628,33153
33282,40677,33053
33200,40700,32948
33180,40761,32858
33192,40767,32727
33255,40729,32681
33326,40677,32549
33360,40632,32457
33356,40564,32369
33368,40607,32287
33309,40652,32176
33245,40701,32047
33190,40750,31951
33144,40788,31912
33124,40751,31748
33153,40748,31668
33225,40677,31542
33236,40663,31473
33200,40599,31421
33200,40631,31259
33168,40640,31165
33108,40725,31079
33096,40783,30953
33060,40813,30852
33068,40823,30829
33068,40780,30751
33088,40743,30601
33088,40687,30471
33140,40654,30398
33112,40668,30319
33113,40703,30201
33084,40764,30135
33022,40796,30026
32968,40856,29916
32956,40867,29817
32980,40797,29847
33031,40772,29772
33068,40736,29583
33121,40695,29494
33108,40711,29405
33048,40763,29428
33008,40820,29297
32976,40871,29134
32964,40902,29095
32988,40900,28963
32988,40868,29018
33020,40837,28790
33049,40783,28756
33064,40749,28607
33044,40767,28633
32944,40813,28488
32926,40861,28426
32912,40918,28301
32882,40950,28234
32804,40962,28114
32813,40928,28199
32872,40891,28004
32928,40838,27941
32976,40815,27801
32984,40829,27869
32952,40877,27781
32912,40895,27578
32844,40991,27485
32832,41021,27469
32856,40989,27512
32900,40998,27287
32884,40963,27207
32924,40892,27134
32976,40879,27199
32970,40903,26995
32948,40919,26926
32913,41003,26810
32872,41053,26858
32846,41095,26790
32843,41095,26656
32836,41060,26607
32873,40993,26471
32936,40981,26615
33000,40958,26393
33024,40980,26375
33004,41025,26305
32892,41061,26308
32892,41141,26162
32828,41168,26083
32816,41135,25981
32873,41148,26057
32916,41119,25945
32952,41073,25853
32912,41049,25730
32932,41058,25887
32864,41117,25669
32856,41164,25549
32816,41196,25693
32813,41277,25521
32824,41270,25455
32920,41185,25530
32961,41201,25368
32980,41164,25268
33008,41137,25438
33020,41156,25253
32980,41207,25113
33000,41259,25268
33021,41317,25095
33001,41351,25020
32876,41367,25028
32872,41300,24994
32944,41311,24932
32945,41253,24964
32944,41190,24904
32996,41252,24873
32965,41257,24724
32873,41365,24865
32900,41423,24777
32828,41471,24647
32868,41463,24841
32877,41439,24684
32889,41407,24572
32861,41372,24783
32876,41345,24620
32864,41365,24501
32840,41375,24740
32788,41471,24549
32724,41519,24548
32644,41567,24430
32720,41541,24650
32748,41541,24519
32796,41469,24529
32864,41463,24443
32924,41453,24544
32968,41471,24471
32924,41527,24372
32832,41581,24526
32752,41660,24457
32693,41693,24345
32742,41684,24522
32832,41661,24410
32960,41621,24341
32956,41583,24319
32864,41547,24408
32932,41591,24377
32956,41653,24365
32948,41695,24493
32848,41769,24392
32829,41766,24340
32772,41805,24335
32788,41787,24265
32872,41735,24222
32956,41711,24487
32968,41693,24286
32980,41689,24212
32964,41766,24301
32937,41828,24288
32860,41839,24220
32776,41935,24211
32776,41895,24292
32816,41908,24239
32885,41863,24232
32888,41789,24231
32860,41807,24390
32840,41817,24236
32857,41879,24108
32757,41943,24334
32700,42017,24210
32733,42052,24103
32784,42012,24329
32820,42021,24236
32868,41986,24101
32920,41917,24313
32956,41927,24205
32948,41953,24151
32896,42015,24109
32836,42061,24349
32856,42129,24203
32796,42175,24122
32736,42167,24281
32788,42133,24263
32871,42109,24156
32832,42037,24266
32790,42045,24164
32820,42068,24306
32776,42085,24289
32744,42191,24237
32748,42211,24412
32754,42289,24335
32700,42241,24385
32740,42268,24285
32756,42207,24556
32904,42164,24418
32840,42148,24423
32844,42196,24451
32808,42228,24549
32764,42301,24528
32732,42372,24460
32604,42426,24724
32514,42413,24615
32448,42393,24642
32377,42349,24696
32233,42325,24620
31934,42269,24855
31496,42326,24806
30976,42375,24865
30416,42448,24857
29944,42519,24951
29573,42551,25007
29268,42564,24917
29128,42548,25239
29060,42503,25113
28988,42481,25211
28996,42479,25161
29268,42474,25462
29700,42567,25380
30364,42631,25445
31348,42692,25447
32556,42722,25456
33948,42714,25572
34986,42678,25701
35516,42646,25926
35452,42604,25903
35048,42575,26002
34752,42619,26061
34258,42671,26048
33960,42727,26109
33652,42733,26215
33338,42831,26405
33140,42775,26565
33056,42784,26703
33020,42706,26729
33092,42715,26788
33136,42661,26917
33108,42735,26904
33157,42788,27203
33128,42788,27207
33044,42903,27343
33052,42933,27359
32985,42937,27712
32984,42919,27650
33048,42873,27751
33108,42780,27949
33151,42815,28117
33192,42844,28221
33112,42895,28368
33081,42955,28330
33064,43015,28460
32988,43067,28471
33052,43049,28708
33100,43044,28788
33084,42994,28852
32973,42932,28965
32980,42941,29092
33012,42963,29269
33096,42987,29281
32976,43076,29436
32900,43155,29473
32972,43135,29774
32920,43172,29765
32932,43143,29856
32925,43109,30000
32976,43033,30108
33012,43055,30236
33000,43090,30327
32889,43132,30399
32912,43196,30546
32880,43271,30722
32966,43303,30879
32952,43301,30951
32788,43261,30973
32704,43237,31125
32776,43197,31207
32862,43177,31265
32849,43172,31549
32788,43267,31583
32696,43295,31672
32692,43388,31812
32612,43413,31879
32636,43423,32074
32653,43358,32220
32724,43367,32233
32800,43322,32348
32780,43297,32493
32768,43335,32655
32712,43375,32678
32684,43399,32789
32608,43514,32860
32601,43545,33062
32636,43495,33061
32640,43516,33159
32609,43493,33317
32620,43445,33349
32645,43431,33445
32628,43455,33491
32598,43506,33660
32564,43573,33663
32508,43636,33765
32468,43663,33863
32484,43676,33935
32508,43603,33964
32542,43604,34055
32584,43519,34100
32588,43554,34207
32538,43567,34247
32513,43601,34287
32425,43700,34392
32324,43759,34415
32340,43805,34465
32364,43799,34577
32392,43728,34583
32460,43741,34645
32412,43695,34645
32412,43623,34756
32360,43705,34785
32340,43769,34820
32285,43773,34884
32263,43892,34915
32208,43937,34970
32201,43887,35020
32233,43895,35032
32326,43879,35039
32352,43783,35143
32360,43812,35144
32344,43844,35155
32327,43889,35250
32300,43959,35264
32241,44026,35293
32248,44060,35375
32216,44060,35371
32258,44032,35412
32346,43988,35455
32300,43952,35471
32304,43951,35504
32312,43925,35536
32288,44030,35554
32304,44089,35600
32360,44164,35623
32365,44175,35647
32410,44191,35660
32424,44180,35712
32477,44087,35716
32524,44093,35728
32640,44071,35780
32648,44097,35805
32688,44165,35797
32740,44213,35815
32760,44255,35829
32684,44325,35877
32664,44319,35881
32704,44292,35874
32824,44255,35911
32944,44207,35909
33050,44204,35905
33124,44231,35919
33124,44284,35956
33060,44344,35944
33069,44405,35936
33072,44442,35975
33124,44443,35984
33233,44360,35973
33352,44391,35988
33360,44340,35975
33405,44320,36015
33472,44359,35997
33493,44375,35995
33372,44487,35975
33294,44548,36005
33285,44589,36000
33352,44583,36015
33396,44542,35992
33467,44519,35987
33516,44469,35981
33532,44452,35969
33528,44455,35985
33460,44550,35957
33400,44551,35953
33396,44671,35964
33292,44708,35965
33272,44711,35935
33317,44637,35890
33388,44633,35937
33405,44604,35899
33464,44540,35877
33436,44630,35857
33344,44679,35852
33324,44743,35807
33300,44800,35845
33252,44836,35788
33228,44839,35694
33308,44800,35778
33357,44775,35708
33420,44722,35701
33420,44727,35681
33374,44752,35639
33333,44805,35579
33257,44881,35578
33216,44935,35540
33172,44908,35479
33216,44967,35421
33308,44935,35417
33289,44904,35377
33276,44825,35280
33301,44850,35245
33248,44892,35228
33200,44935,35108
33116,45012,35047
33050,45063,35031
33030,45109,34933
33072,45101,34924
33121,45079,34796
33159,45044,34732
33156,45010,34712
33192,44999,34567
33145,45025,34476
33120,45093,34519
33092,45111,34357
33048,45212,34279
33012,45230,34175
32964,45241,34141
33012,45220,34109
33104,45188,34049
33132,45157,33849
33152,45137,33764
33109,45156,33709
33025,45228,33571
32944,45223,33622
32900,45371,33415
32916,45389,33335
32876,45390,33198
32916,45364,33271
32976,45335,33079
33020,45286,32964
33024,45287,32902
33012,45319,32756
32965,45380,32775
32941,45446,32716
32936,45505,32497
32920,45535,32437
32893,45533,32346
32892,45510,32235
32944,45479,32121
32980,45383,32093
32984,45423,32134
32984,45415,32036
32926,45524,31917
32876,45567,31724
32812,45668,31639
32756,45703,31548
32736,45695,31452
32814,45649,31476
32880,45589,31295
32896,45575,31181
32942,45591,31064
32909,45627,31188
32880,45671,30958
32856,45740,30893
32764,45823,30743
32760,45850,30828
32850,45781,30597
32932,45807,30471
32948,45718,30447
32932,45732,30409
32960,45695,30286
32968,45777,30100
32920,45831,30228
32856,45879,30026
32800,45972,29855
32752,45940,29989
32761,45991,29762
32788,45980,29663
32832,45916,29573
32900,45885,29583
32952,45870,29477
32900,45935,29279
32852,45965,29415
32721,46049,29226
32724,46135,29063
32740,46156,29260
32748,46159,29021
32786,46127,28891
32878,46087,28780
32909,46005,28909
32964,46061,28785
32992,46022,28614
32924,46148,28718
32838,46151,28604
32756,46280,28535
32708,46284,28443
32736,46316,28405
32728,46293,28316
32784,46255,28376
32756,46215,28245
32848,46215,28176
32796,46247,28151
32740,46311,28091
32708,46367,27910
32696,46453,28061
32704,46487,27940
32720,46471,27812
32820,46445,27928
32800,46409,27841
32836,46375,27641
32836,46381,27783
32868,46409,27695
32820,46487,27524
32776,46548,27764
32788,46639,27573
32781,46591,27407
32824,46632,27652
32877,46596,27457
32841,46592,27382
32864,46546,27427
32832,46561,27356
32864,46599,27234
32888,46585,27305
32860,46727,27268
32789,46777,27218
32772,46836,27039
32836,46829,27247
32873,46788,27124
32951,46775,27085
32984,46727,26991
32964,46734,27053
32964,46769,27015
32989,46836,26964
32864,46909,26853
32840,46983,26941
32796,47007,26885
32824,47004,26697
32884,46968,26947
32900,46945,26765
33013,46910,26613
33052,46842,26759
33080,46951,26708
33078,47015,26556
32992,47087,26751
32928,47182,26605
32968,47135,26476
32925,47179,26658
32918,47159,26556
32944,47099,26463
32984,47085,26479
33012,47111,26327
32968,47143,26559
32884,47223,26412
32865,47212,26267
32896,47343,26414
32884,47325,26369
32900,47391,26316
32964,47348,26221
33044,47319,26321
33045,47295,26236
33088,47293,26198
33028,47333,26085
32844,47411,26168
32836,47408,26063
32828,47537,26127
32837,47580,26117
32790,47565,26052
32776,47527,25957
32776,47456,26023
32752,47479,25925
32768,47495,26005
32690,47493,25928
32488,47595,25825
32244,47653,25881
31928,47728,25805
31560,47772,25848
31136,47751,25809
30692,47743,25673
30372,47623,25807
30021,47677,25645
29820,47693,25729
29500,47751,25707
29296,47765,25756
29084,47905,25660
29008,47985,25637
29192,48007,25448
29625,48007,25670
30300,47904,25553
31258,47936,25508
32304,47921,25513
33618,47919,25460
34712,47975,25312
35260,48035,25548
35284,48097,25436
34968,48177,25303
34624,48187,25428
34364,48193,25364
34128,48159,25198
33884,48125,25380
33556,48103,25299
33356,48103,25154
33200,48156,25277
33121,48227,25212
33188,48284,25199
33020,48359,25167
33000,48365,25065
33036,48367,24964
33044,48332,24943
33060,48327,25020
33174,48244,25095
33200,48293,25036
33229,48263,25012
33156,48391,24983
33082,48481,24866
33020,48549,24789
32968,48575,24996
32972,48559,24957
32978,48531,24909
33088,48500,24847
33129,48468,24698
33116,48484,24873
33069,48515,24843
32996,48597,24677
32972,48639,24897
32935,48722,24785
32892,48756,24767
32943,48745,24601
32956,48727,24855
33056,48695,24748
33164,48668,24748
33032,48613,24570
33016,48723,24757
32920,48799,24716
33104,48834,24628
33044,48935,24715
32773,48948,24711
32876,48881,24700
32876,48925,24729
32850,48889,24602
32833,48863,24804
32848,48881,24760
33008,48893,24644
33072,48999,24808
32736,49031,24829
32646,49133,24756
32712,49159,24979
32708,49159,24908
32736,49124,24959
32800,49101,24833
32896,49076,25065
32968,49084,25089
32904,49068,25122
32860,49220,25049
32756,49256,25252
32672,49351,25289
32636,49313,25338
32640,49356,25334
32736,49269,25449
32790,49284,25516
32728,49277,25585
32810,49265,25615
32788,49351,25743
32632,49408,25774
32528,49493,25726
32544,49559,25916
32520,49575,25997
32544,49575,25896
32604,49543,26149
32620,49519,26214
32616,49492,26168
32580,49519,26455
32460,49561,26474
32444,49636,26556
32452,49703,26534
32480,49749,26836
32452,49799,26820
32373,49791,26781
32364,49725,27053
32448,49733,27100
32520,49695,27204
32516,49731,27231
32400,49773,27492
32306,49844,27494
32320,49919,27462
32352,50004,27781
32185,50013,27814
32232,50005,27783
32340,49965,28102
32382,49948,28125
32460,49916,28079
32484,49942,28409
32472,50004,28461
32408,50015,28545
32416,50141,28517
32300,50140,28877
32248,50222,28929
32284,50183,28878
32409,50160,29275
32312,50165,29260
32441,50148,29253
32328,50111,29534
32305,50217,29638
32261,50252,29602
32224,50356,29921
32248,50405,29959
32316,50364,29924
32332,50431,30208
32464,50405,30235
32438,50384,30393
32468,50375,30580
32512,50372,30684
32544,50384,30700
32485,50511,30889
32448,50595,30868
32460,50644,31231
32492,50676,31221
32648,50663,31317
32630,50565,31309
32684,50588,31653
32718,50583,31649
32889,50605,31757
32737,50597,31764
32780,50705,32085
32810,50734,32057
32832,50876,32036
32846,50815,32383
32900,50883,32372
32992,50844,32435
33060,50820,32468
33188,50796,32532
33238,50767,32845
33188,50879,32810
33220,50903,32851
33204,51012,32903
33204,51021,33142
33194,51108,33173
33296,51079,33253
33285,51031,33225
33360,51024,33620
33340,50943,33550
33492,51035,33616
33348,51045,33714
33236,51159,33881
33225,51247,33935
33185,51292,33988
33204,51325,34161
33156,51303,34247
33200,51272,34205
33312,51240,34495
33368,51223,34496
33352,51247,34561
33364,51231,34735
33420,51349,34796
33272,51387,34868
33200,51527,35012
33180,51525,35133
33424,51436,35143
33250,51460,35145
33300,51459,35476
33316,51452,35423
33276,51463,35502
33220,51521,35684
33197,51588,35660
33088,51671,35674
33064,51649,35903
33116,51735,35946
33100,51697,35933
33137,51687,36222
33220,51677,36215
33252,51654,36231
33236,51677,36284
33173,51719,36372
33126,51805,36500
33192,51833,36540
33249,51940,36652
33064,51953,36655
33084,51940,36705
33073,51908,36900
33120,51868,36914
33140,51871,36896
33084,51895,36974
33084,51956,37084
33064,51949,37059
33026,52103,37085
32988,52159,37252
33041,52096,37231
33052,52100,37396
33064,52124,37397
33109,52052,37395
33152,52071,37416
33156,52061,37572
33060,52165,37596
32948,52157,37585
32917,52301,37584
32984,52348,37743
33109,52383,37834
32980,52359,37777
33024,52340,37783
33072,52293,37980
33068,52300,37922
33148,52314,37952
33036,52389,38031
33010,52445,38052
32942,52527,38079
32912,52581,38149
32920,52580,38191
32968,52569,38193
33008,52543,38151
32992,52525,38300
33060,52517,38271
33048,52532,38305
32993,52596,38335
32981,52668,38468
32908,52740,38358
32868,52775,38407
32916,52743,38372
32948,52793,38524
32952,52767,38460
33026,52736,38431
33072,52702,38564
33060,52743,38532
32985,52819,38648
32926,52885,38597
32892,52885,38556
32892,53020,38503
32869,53017,38533
32924,52975,38527
33060,52966,38604
33048,52948,38557
33000,52925,38589
33036,52956,38564
32956,53026,38579
32860,53081,38671
32806,53127,38519
32760,53225,38476
32804,53232,38631
32841,53229,38501
32888,53183,38500
32984,53148,38438
33020,53136,38495
33008,53149,38407
32932,53239,38353
32821,53245,38453
32744,53381,38311
32709,53383,38284
32712,53441,38208
32807,53425,38220
32754,53383,38209
32816,53364,38085
32852,53348,38063
32836,53381,37937
32761,53446,37862
32736,53445,38020
32704,53599,37785
32684,53639,37742
32672,53660,37703
32724,53639,37607
32793,53549,37635
32840,53567,37451
32856,53551,37340
32876,53593,37429
32788,53636,37245
32725,53727,37081
32676,53799,37201
32664,53767,36961
32668,53861,36908
32696,53831,36708
32736,53829,36751
32772,53789,36646
32752,53703,36568
32779,53812,36340
32716,53879,36455
32676,53933,36276
32660,54012,36055
32624,54063,36183
32656,54084,35975
32692,54054,35812
32728,54023,35935
32752,53991,35721
32800,53981,35604
32756,54015,35472
32712,54093,35324
32676,54143,35437
32618,54221,35268
32608,54197,35097
32632,54279,35024
32660,54191,34791
32676,54212,34897
32716,54116,34716
32748,54181,34477
32760,54220,34666
32704,54279,34439
32660,54317,34204
32653,54393,34121
32661,54423,34236
32705,54407,34028
32756,54469,33933
32792,54431,33655
32806,54407,33857
32760,54397,33669
32753,54374,33532
32756,54485,33444
32716,54564,33268
32716,54624,33167
32660,54680,33171
32652,54623,33072
32684,54663,32839
32714,54621,32838
32740,54612,32901
32744,54594,32706
32736,54644,32641
32709,54681,32477
32672,54772,32503
32613,54823,32374
32600,54879,32125
32616,54893,32247
32640,54790,32161
32672,54832,32061
32716,54791,31972
32774,54791,31949
32773,54826,31890
32732,54829,31606
32704,54959,31772
32632,55036,31697
32636,55084,31557
32672,55013,31393
32685,55047,31547
32736,55047,31492
32781,54999,31239
32817,54993,31468
32784,55037,31326
32780,55047,31308
32688,55165,31079
32632,55247,31287
32644,55279,31197
32604,55289,31197
32616,55260,31054
32668,55197,31053
32708,55188,31119
32757,55140,31092
32744,55223,31074
32705,55223,30933
32600,55354,30854
32524,55367,30811
32446,55461,31055
32380,55479,30969
32298,55453,30983
32194,55399,30792
32017,55380,31051
31712,55399,30945
31200,55375,30924
30664,55483,30935
30202,55557,30964
29796,55645,30936
29425,55608,30823
29176,55687,30927
29044,55675,30948
28960,55655,30939
28894,55615,30751
29040,55604,31040
29412,55669,30956
30024,55727,30978
30905,55747,30932
31796,55831,30775
32932,55815,31069
34092,55895,31036
34797,55879,31043
35040,55860,30916
34880,55810,30983
34580,55815,31094
34268,55847,31109
33932,55895,31149
33576,55956,31167
33216,56053,31140
32964,56007,31182
32791,56079,31223
32728,56059,31121
32712,55943,31310
32770,55989,31257
32876,55964,31296
32888,56020,31304
32868,56085,31172
32832,56068,31301
32804,56223,31381
32788,56263,31323
32799,56180,31289
32812,56226,31508
32888,56134,31439
32928,56151,31477
32933,56157,31508
32940,56165,31508
32885,56255,31417
32829,56253,31573
32782,56383,31564
32741,56429,31563
32736,56439,31427
32762,56405,31536
32800,56383,31636
32816,56325,31581
32832,56263,31607
32812,56327,31584
32788,56428,31511
32776,56455,31432
32744,56575,31693
32732,56605,31618
32760,56583,31639
32784,56581,31493
32785,56544,31657
32832,56519,31636
32888,56503,31664
32868,56551,31661
32792,56604,31658
32718,56606,31441
32700,56736,31708
32644,56764,31690
32640,56764,31724
32676,56743,31493
32720,56647,31805
32749,56663,31733
32764,56655,31764
32717,56704,31702
32668,56711,31658
32622,56836,31871
32548,56831,31829
32528,56943,31895
32536,56943,31924
32564,56927,31916
32624,56831,31791
32640,56839,32005
32652,56771,32028
32664,56817,32068
32660,56942,32056
32537,57029,32033
32489,57079,32213
32462,57095,32231
32484,57095,32239
32520,57042,32070
32568,57036,32435
32616,56925,32389
32616,56999,32444
32570,56952,32388
32542,57093,32471
32512,57127,32561
32415,57234,32601
32404,57287,32647
32412,57223,32722
32457,57253,32668
32480,57212,32839
32526,57171,32860
32546,57151,32713
32488,57205,32956
32404,57180,32949
32372,57324,33135
32328,57420,33104
32240,57436,33183
32264,57436,33196
32345,57396,33215
32340,57340,33325
32352,57249,33412
32309,57309,33481
32276,57332,33508
32232,57335,33460
32225,57493,33697
32132,57583,33695
32133,57496,33671
32192,57583,33799
32224,57565,33717
32140,57431,34001
32180,57460,34001
32316,57497,33839
32277,57427,34108
32245,57575,33973
32224,57648,34234
32276,57639,34156
32168,57733,34399
32228,57735,34409
32284,57692,34304
32269,57663,34612
32392,57607,34607
32384,57639,34690
32348,57661,34735
32428,57735,34751
32460,57799,34777
32386,57857,34912
32343,57804,34964
32416,57863,35036
32487,57757,35116
32600,57819,35183
32748,57759,35169
32712,57767,35333
32588,57802,35292
32556,57776,35277
32566,57925,35580
32584,58004,35629
32754,58028,35645
32948,58023,35755
32868,57988,35856
32812,57913,35921
32864,57855,35921
32989,57900,36103
33072,57863,36185
33040,57999,36326
32965,58087,36372
32964,58141,36324
32977,58174,36533
33054,58141,36639
33066,58119,36636
33112,58081,36900
33188,58048,36901
33265,58039,36994
33312,58060,36964
33268,58119,37067
33176,58119,37276
33136,58285,37351
33210,58287,37349
33268,58279,37489
33272,58239,37653
33246,58215,37652
33348,58100,37764
33464,58169,37924
33473,58228,37884
33328,58271,38239
33252,58333,38188
33216,58399,38420
33188,58375,38385
33218,58375,38484
33268,58280,38487
33344,58348,38772
33377,58287,38767
33369,58303,38876
33376,58343,38891
33340,58399,39087
33249,58440,39207
33142,58503,39231
33152,58540,39308
33181,58437,39427
33220,58495,39389
33208,58455,39695
33224,58412,39711
33296,58411,39783
33360,58353,39799
33236,58535,40079
33152,58532,40047
33012,58655,40124
33088,58663,40217
33164,58548,40239
33184,58607,40484
33320,58575,40405
33257,58543,40620
33264,58452,40685
33204,58568,40745
33120,58653,40815
33068,58661,40797
33117,58759,40981
33028,58797,41020
33064,58758,41333
33216,58727,41276
33252,58669,41260
33196,58631,41374
33184,58655,41414
33148,58695,41676
33124,58758,41572
33076,58813,41645
33020,58884,41624
32968,58886,41940
32984,58880,41789
32960,58829,41838
33052,58793,42093
33080,58767,42156
33128,58759,42093
33112,58804,42082
33036,58860,42149
32968,58845,42181
32908,58987,42391
32880,59013,42369
32912,58983,42309
32952,58937,42479
33005,58829,42591
33072,58845,42519
33052,58877,42499
33061,58903,42543
32972,58961,42644
32932,59031,42807
32856,59013,42652
32832,59088,42703
32833,59044,42718
32908,59045,42849
32941,59015,42965
32974,58967,42849
33064,58910,42897
33012,58931,42857
32980,59071,43076
32948,59140,42996
32936,59191,43014
32948,59199,42983
33037,59191,43196
33040,59143,43028
33060,59104,43044
33068,59064,43253
33080,59071,43138
33048,59111,43166
32952,59173,43228
32948,59157,43271
32852,59283,43244
32804,59309,43217
32809,59269,43412
32844,59247,43265
32932,59135,43297
32980,59067,43324
32980,59143,43300
32968,59204,43462
32972,59244,43388
32824,59324,43460
32804,59364,43478
32762,59384,43425
32748,59367,43444
32832,59325,43399
32924,59284,43564
32908,59205,43561
32996,59229,43457
32952,59271,43460
32830,59329,43480
32848,59393,43584
32832,59456,43527
32804,59479,43468
32856,59447,43639
32892,59399,43558
32908,59381,43527
33044,59319,43588
33088,59308,43527
32964,59380,43513
32918,59420,43623
32872,59399,43482
32912,59472,43476
32832,59553,43595
32792,59527,43468
32884,59487,43460
32937,59460,43613
32980,59331,43452
33060,59399,43480
33084,59380,43588
32981,59447,43466
32871,59524,43420
32852,59615,43407
32840,59609,43341
32860,59517,43465
32940,59556,43327
33016,59461,43316
32936,59463,43398
32969,59476,43436
32929,59524,43292
32885,59572,43232
32832,59604,43224
32836,59697,43189
32832,59695,43133
32868,59679,43261
32944,59615,43271
32956,59582,43247
33000,59460,43148
33012,59543,43062
32988,59527,43009
32928,59637,43001
32904,59632,43028
32844,59732,43084
32821,59764,42909
32832,59655,42920
32900,59655,42950
32901,59614,43020
32948,59607,42801
33008,59557,42799
32961,59644,42902
32856,59668,42788
32820,59756,42711
32824,59821,42666
32828,59820,42713
32852,59764,42751
32920,59767,42521
32928,59711,42503
32978,59677,42597
32997,59622,42454
32980,59705,42429
32908,59767,42328
32868,59805,42503
32832,59887,42277
32808,59807,42276
32842,59847,42151
32856,59807,42281
32901,59780,42150
32952,59632,42022
33004,59732,42106
32988,59767,42012
32904,59783,41885
32833,59865,42100
32832,59876,41868
32822,59903,41759
32812,59909,41970
32869,59839,41735
32901,59821,41614
32921,59711,41756
32900,59775,41567
32853,59823,41484
32796,59783,41653
32744,59911,41499
32732,59988,41372
32728,59895,41325
32728,59954,41275
32752,59879,41332
32789,59863,41197
32830,59740,41145
32836,59809,41108
32772,59834,41041
32726,59825,40868
32656,59975,41040
32636,60037,40769
32609,60039,40980
32608,59974,40725
32624,59952,40599
32630,59835,40599
32692,59877,40440
32708,59865,40644
32636,59908,40423
32540,59972,40381
32388,59932,40158
32160,60068,40409
31896,60079,40244
31532,60052,40199
31108,60015,40068
30676,59874,39959
30318,59933,39926
29920,59831,39737
29568,59957,39876
29224,59927,39716
28986,60087,39597
28809,60099,39504
28680,60149,39303
28756,60120,39221
29064,60076,39313
29672,59956,39220
30624,60015,38992
31628,60015,39135
32892,59967,38956
34116,60084,38749
34890,60117,38775
35141,60211,38576
34916,60209,38719
34580,60167,38522
34348,60133,38279
34112,60087,38371
33780,60039,38269
33460,59949,38084
33156,60056,38090
32928,60122,38009
32792,60164,37879
32789,60229,37839
32796,60245,37748
32840,60191,37628
32924,60143,37561
32968,60095,37381
32972,60057,37345
33005,60063,37373
33006,60100,37231
32976,60039,37024
32868,60167,36940
32868,60161,37037
32779,60232,36909
32832,60225,36798
32916,60159,36557
32948,60128,36588
33062,60069,36607
33052,60004,36457
32968,60032,36359
32945,60156,36101
32888,60159,36204
32760,60263,36090
32748,60271,36026
32784,60234,35814
32832,60207,35808
32877,60135,35745
32896,60095,35687
32912,60069,35543
32876,60135,35385
32756,60207,35419
32704,60248,35357
32740,60295,35132
32656,60237,35243
32641,60248,35119
32636,60189,34988
32640,60071,34693
32692,60135,34905
32728,60117,34756
32852,60167,34719
32696,60207,34631
32724,60271,34348
32816,60295,34541
32692,60321,34364
32692,60274,34339
32736,60148,34172
32752,60167,34103
32813,60151,34086
32764,60143,34023
32720,60183,33917
32672,60228,33636
32708,60223,33889
32656,60343,33737
32604,60347,33668
32612,60240,33608
32645,60263,33500
32624,60196,33311
32672,60124,33127
32748,60165,33311
32624,60124,33287
32500,60231,33221
32540,60313,33015
32538,60279,32800
32484,60361,33065
32472,60284,32964
32500,60280,32887
32552,60225,32660
32624,60124,32852
32560,60196,32733
32570,60167,32600
32460,60295,32322
32457,60346,32549
32468,60295,32532
32448,60388,32480
32440,60340,32405
32474,60314,32052
32581,60249,32303
32676,60225,32254
32592,60199,32197
32576,60267,32007
32564,60325,32101
32384,60376,32075
32424,60415,32031
32429,60415,31751
32538,60390,31939
32516,60327,31933
32498,60229,31735
32440,60243,31880
32448,60167,31809
32396,60306,31767
32344,60357,31632
32376,60423,31695
32388,60423,31702
32272,60451,31521
32225,60407,31572
32348,60292,31596
32444,60308,31530
32508,60275,31366
32640,60295,31620
32600,60320,31558
32568,60380,31519
32420,60353,31556
32368,60487,31516
32548,60468,31440
32472,60423,31220
32592,60396,31420
32740,60344,31548
32692,60295,31529
32578,60327,31511
32668,60356,31543
32616,60415,31531
32492,60461,31424
32520,60505,31463
32622,60500,31565
32748,60474,31554
32768,60405,31511
32752,60375,31631
32808,60348,31623
32884,60295,31519
32844,60397,31751
32888,60423,31817
32854,60509,31861
32916,60551,31719
32941,60445,31943
33012,60503,31958
33089,60381,31871
33224,60399,32064
33220,60321,32135
33276,60383,32164
33216,60335,31970
33252,60415,32278
33214,60444,32348
33258,60567,32345
33228,60569,32519
33252,60527,32263
33220,60471,32602
33215,60396,32703
33324,60396,32676
33304,60420,32837
33336,60471,32836
33357,60420,32991
33268,60551,33094
33234,60600,33190
33404,60543,33255
33344,60548,33040
33345,60496,33389
33464,60484,33476
33412,60420,33479
33361,60442,33668
33328,60487,33592
33277,60524,33766
33246,60600,33885
33280,60551,33990
33188,60613,33886
33289,60607,34167
33417,60541,34311
33333,60498,34332
33276,60455,34228
33284,60484,34532
33240,60505,34575
33320,60575,34655
33376,60551,34527
33180,60647,34871
33172,60551,34889
33228,60623,34964
33240,60551,34964
33296,60527,34843
33326,60487,35246
33324,60495,35292
33324,60551,35198
33224,60607,35295
33088,60660,35575
33148,60699,35604
33078,60679,35568
33136,60667,35623
33148,60599,35910
33185,60551,35904
33196,60517,36009
33168,60545,36052
33188,60583,36055
33128,60583,36138
33123,60696,36366
33120,60727,36420
33088,60719,36527
33096,60679,36364
33028,60644,36684
33088,60507,36684
33108,60551,36859
33128,60579,36910
33173,60623,36934
33276,60671,37143
33040,60733,37180
32972,60770,37034
33024,60763,37369
33096,60719,37417
33164,60679,37390
33164,60536,37604
33124,60583,37652
33160,60613,37638
33108,60660,37847
33080,60716,37936
33084,60775,37929
33100,60807,38022
33188,60788,38080
33168,60758,37971
33124,60705,38324
33172,60583,38336
33152,60647,38364
33184,60633,38535
33096,60653,38527
33090,60725,38567
33100,60796,38489
32897,60825,38586
32881,60741,38814
32880,60797,38804
32993,60677,38873
33112,60679,38749
33140,60672,39098
33116,60612,39031
33033,60743,38887
32948,60769,39196
32964,60797,39218
32904,60871,39263
32900,60880,39172
32980,60783,39377
33090,60793,39393
33062,60746,39469
33101,60725,39505
33156,60732,39465
33038,60776,39745
32977,60833,39676
32936,60829,39599
32808,60919,39728
32836,60928,39820
32832,60871,39861
32974,60837,39797
33036,60781,40052
33040,60764,40014
32964,60773,40045
32991,60829,39979
32925,60857,40016
32933,60935,40305
32828,60871,40199
32828,60935,40263
32870,60870,40196
32960,60871,40295
32984,60820,40477
33060,60788,40405
33172,60807,40421
32992,60863,40324
32894,60903,40372
32840,60975,40486
32824,61007,40599
32856,60988,40797
32828,60935,40649
32837,60911,40873
32900,60857,40768
33004,60820,40767
32997,60847,40729
33012,60807,40775
32876,60935,40999
32876,61015,40902
32800,61037,40885
32896,61023,40813
33008,60967,41033
32916,60935,41055
32860,60903,40997
32948,60885,40973
32972,60875,41014
32964,60935,41244
32932,60981,41085
32900,61037,41111
32889,61077,41040
32933,61063,41108
32938,61020,41328
32924,60997,41215
32977,60935,41181
33069,60916,41218
33080,60933,41252
33024,60974,41391
33040,61023,41277
32972,61063,41243
32924,61031,41185
32816,61119,41410
32844,61061,41276
32888,61031,41270
32938,60964,41215
32921,60948,41289
32876,60971,41378
32864,61012,41299
32868,61056,41302
32704,61133,41237
32820,61155,41180
32752,61151,41302
32769,61037,41308
32816,61063,41316
32884,60935,41284
32896,60900,41479
32908,60991,41317
32901,61063,41293
32900,61031,41273
32760,61159,41324
32701,61183,41316
32720,61190,41327
32778,61044,41220
32780,61093,41532
32840,61044,41337
32996,61023,41289
32820,61047,41337
32817,61076,41431
32912,61143,41341
32800,61191,41351
32812,61213,41259
32796,61204,41554
32844,61172,41364
32960,61125,41391
33096,61082,41364
33060,61055,41565
32992,61063,41463
33015,61101,41420
32984,61143,41320
32884,61226,41460
32788,61271,41556
32792,61231,41573
32826,61191,41439
32816,61063,41457
32858,61092,41349
32929,61085,41660
32876,61095,41525
32869,61148,41479
32872,61191,41423
32852,61190,41415
32764,61278,41511
32752,61236,41431
32761,61216,41580
32868,61167,41561
32948,61141,41454
33038,61007,41455
32924,61124,41363
32948,61081,41335
32848,61223,41572
32772,61281,41646
32741,61297,41530
32797,61284,41439
32746,61269,41313
32736,61144,41623
32804,61149,41432
32884,61063,41400
32836,61149,41317
32756,61216,41502
32689,61164,41460
32754,61306,41342
32648,61319,41352
32684,61300,41207
32745,61268,41452
32808,61239,41369
32888,61185,41261
32916,61158,41257
32888,61109,41188
32824,61228,41260
32740,61279,41160
32656,61269,41097
32644,61319,41144
32620,61343,41127
32580,61255,41215
32544,61259,40904
32572,61209,41145
32546,61140,41063
32364,61159,40932
32173,61248,40937
31812,61236,40868
31344,61359,40760
30912,61309,40748
30534,61383,40945
30208,61344,40828
30000,61316,40691
29756,61159,40676
29600,61233,40484
29492,61268,40644
29228,61319,40573
29240,61375,40445
29412,61377,40380
29817,61444,40615
30692,61359,40511
31604,61405,40364
32652,61277,40345
33926,61309,40300
34861,61280,40255
35201,61317,40120
35016,61371,40070
34697,61415,40158
34432,61399,40086
34040,61476,39905
33728,61447,39845
33388,61413,39988
33236,61351,39878
33188,61245,39839
33076,61295,39681
33004,61301,39559
32985,61368,39752
32966,61424,39605
32960,61447,39556
32940,61476,39340
32929,61444,39535
32976,61348,39377
32996,61380,39153
33082,61319,39357
33080,61303,39175
33080,61316,39108
32944,61273,38880
33008,61423,39060
32960,61415,38924
32924,61485,38783
32960,61487,38757
32992,61428,38764
33020,61398,38660
33016,61345,38407
32958,61236,38567
33008,61341,38477
32952,61341,38214
32948,61415,38375
32781,61492,38261
32744,61492,37981
32744,61500,38181
32762,61360,38049
32890,61395,37991
32928,61357,37876
32896,61335,37679
32896,61348,37791
32852,61407,37748
32829,61413,37644
32876,61487,37508
32928,61511,37332
32832,61493,37341
32788,61471,37434
32893,61319,37300
33008,61351,37245
32992,61295,37125
32960,61375,36957
32864,61408,36946
32788,61439,37004
32789,61508,36909
32660,61487,36836
32652,61511,36591
32716,61420,36655
32724,61415,36708
32840,61284,36580
32892,61351,36533
32833,61383,36395
32788,61429,36295
32744,61447,36348
32672,61535,36156
32676,61446,36086
32732,61516,36261
32612,61447,36100
32640,61427,36060
32676,61390,35844
32768,61364,35988
32760,61381,35886
32709,61357,35821
32728,61465,35668
32654,61525,35672
32516,61559,35697
32448,61557,35613
32512,61464,35500
32626,61447,35504
32608,61391,35324
32714,61380,35399
32748,61399,35361
32560,61436,35288
32596,61487,35044
32516,61559,35220
32452,61479,35135
32468,61529,35113
32496,61495,35047
32680,61447,35040
32664,61396,34988
32554,61382,34835
32604,61319,34817
32437,61428,34905
32368,61399,34837
32335,61542,34800
32341,61575,34748
32472,61549,34724
32461,61516,34641
32447,61447,34455
32438,61415,34620
32388,61383,34583
32366,61415,34574
32400,61447,34495
32330,61511,34216
32312,61503,34533
32301,61492,34499
32456,61551,34452
32384,61479,34382
32478,61447,34295
32540,61433,34397
32564,61319,34396
32528,61423,34172
32610,61436,34311
32328,61508,34439
32253,61540,34381
32332,61591,34300
32248,61558,34228
32396,61527,34407
32340,61479,34332
32352,61429,34354
32496,61312,34295
32529,61425,34295
32544,61447,34399
32480,61516,34356
32372,61575,34201
32404,61517,34345
32612,61549,34511
32672,61439,34447
32740,61487,34479
32724,61383,34473
32673,61392,34333
32666,61428,34644
32772,61460,34647
32764,61469,34655
32824,61573,34613
32732,61574,34658
32917,61551,34877
33084,61442,34836
33001,61476,34902
33084,61423,34927
33116,61417,34726
33098,61416,35156
33100,61479,35148
33124,61517,35221
33117,61575,35229
33013,61506,35121
32960,61565,35437
33056,61447,35541
33088,61447,35564
33172,61336,35653
33220,61397,35640
33289,61424,35716
33124,61447,35895
33016,61519,35983
33032,61567,36004
33028,61575,35916
33045,61567,36212
33076,61535,36347
33100,61447,36384
33144,61412,36399
33172,61396,36322
33300,61415,36647
33274,61367,36708
33072,61495,36756
33060,61559,36772
33000,61567,36945
32948,61559,36996
33040,61524,37188
33097,61379,37196
33080,61405,37277
33132,61404,37141
33128,61420,37503
33196,61447,37525
32980,61508,37624
32996,61557,37519
33004,61573,37716
32928,61567,37909
32956,61485,38015
33024,61415,38068
33153,61399,38166
33096,61388,38241
32984,61399,38279
32972,61380,38292
33060,61495,38526
33148,61556,38607
32960,61566,38701
32876,61556,38708
32960,61505,38761
33144,61447,38860
33204,61415,39069
33084,61391,39079
32972,61407,39259
32884,61436,39333
32932,61493,39253
32880,61543,39589
33000,61549,39598
32864,61532,39709
32950,61447,39769
32916,61446,39779
33108,61392,39801
33032,61367,40065
33038,61348,40144
33084,61431,40217
32904,61399,40199
32792,61551,40244
32816,61567,40513
32868,61541,40583
32896,61479,40644
33048,61381,40711
33040,61396,40801
33060,61366,40861
32996,61391,40804
32980,61447,41080
32960,61493,41261
33140,61543,41210
32916,61551,41292
32840,61541,41360
32928,61501,41311
32964,61436,41665
32948,61356,41645
33012,61375,41621
33008,61399,41764
32976,61447,41981
32936,61485,41877
32832,61540,41949
32832,61533,42076
32780,61543,42221
32841,61468,42181
32954,61352,42164
32968,61378,42197
32928,61381,42349
32934,61396,42459
32932,61345,42399
32964,61380,42470
32956,61534,42631
32864,61487,42666
32750,61511,42576
32871,61464,42663
32928,61439,42897
32964,61380,42732
32980,61351,42796
32960,61383,43000
32950,61399,43036
32897,61487,42933
32812,61527,42956
32777,61543,43015
32788,61516,42989
32896,61487,43229
32896,61436,43047
32932,61375,43084
32976,61342,43264
32916,61310,43332
32864,61421,43151
32821,61415,43218
32792,61435,43190
32916,61471,43215
32758,61476,43460
32800,61447,43289
32812,61428,43361
32754,61370,43327
32884,61345,43317
32989,61370,43508
32949,61415,43564
32856,61447,43503
32796,61516,43420
32736,61447,43497
32740,61503,43436
32816,61463,43681
32832,61399,43492
32952,61350,43591
32992,61343,43590
33016,61317,43551
32900,61399,43773
32900,61447,43628
32824,61420,43660
32876,61519,43693
32800,61503,43652
32837,61447,43836
32865,61389,43772
32916,61343,43762
32956,61335,43925
32924,61280,43780
32781,61397,43820
32792,61383,43796
32792,61415,43957
32812,61493,43935
32648,61487,43839
32737,61447,43879
32840,61374,43817
32876,61320,44029
32980,61319,43860
32948,61341,43911
32836,61371,43828
32820,61429,44039
32832,61492,43849
32804,61407,43895
32756,61469,43835
32808,61439,44021
32829,61376,43837
32872,61332,43877
32832,61310,43838
32925,61319,43804
32933,61310,43966
32848,61407,43925
32788,61492,43777
32728,61415,43812
32756,61469,43727
32893,61436,43903
32836,61383,43732
32844,61319,43746
32836,61296,43724
32870,61341,43655
32885,61303,43604
32832,61429,43685
32764,61376,43756
32760,61479,43592
32742,61423,43521
32828,61407,43545
32879,61295,43524
32916,61303,43497
32912,61297,43464
32944,61288,43367
32894,61319,43362
32892,61316,43380
32900,61447,43297
32800,61439,43229
32884,61440,43191
32760,61343,43150
32868,61359,43108
32964,61319,43276
33016,61293,43252
33036,61319,43204
33024,61336,43111
32908,61319,43055
32817,61447,42941
32868,61420,42860
32844,61439,42814
32935,61404,42791
32924,61352,42688
33036,61311,42636
33050,61280,42593
33024,61223,42548
33008,61365,42503
32924,61392,42430
32920,61469,42564
32900,61447,42501
32868,61445,42476
32932,61399,42316
32940,61333,42265
32960,61282,42370
32944,61279,42341
32936,61191,42260
32872,61349,42161
32840,61393,42060
32820,61444,41902
32912,61447,41881
32880,61434,41796
32944,61383,41648
32968,61343,41884
32969,61279,41837
33036,61264,41723
33046,61303,41668
33010,61332,41658
33044,61383,41544
32888,61435,41319
32832,61447,41244
32785,61439,41189
32824,61375,41121
32962,61348,41084
33060,61268,40999
33036,61258,40911
33048,61294,40879
32942,61316,40820
32732,61375,40708
32656,61376,40657
32708,61431,40565
32752,61421,40455
32834,61372,40303
32848,61319,40262
32698,61270,40400
32716,61255,40325
32766,61269,40171
32640,61303,40071
32572,61365,40004
32408,61412,39823
32304,61428,39700
32108,61397,39900
31844,61368,39705
31480,61300,39605
31126,61255,39535
30740,61243,39380
30336,61261,39216
29988,61313,39186
29618,61319,39308
29560,61379,39220
29488,61415,39153
29480,61438,39006
29628,61376,38940
29924,61255,38669
30536,61287,38628
31392,61279,38578
32208,61295,38541
33096,61349,38420
34048,61319,38422
34752,61442,38336
35008,61447,38249
34856,61436,38140
34544,61369,38084
34284,61319,38076
34100,61267,38053
33944,61208,37961
33676,61268,37868
33234,61310,37671
33016,61370,37609
32880,61415,37563
32840,61439,37479
32864,61399,37393
32880,61367,37417
32996,61250,37425
33093,61243,37383
33032,61213,37256
33033,61255,37319
32996,61295,37239
32957,61343,37260
32856,61393,37127
32836,61319,37067
32852,61375,37013
32888,61319,36959
32968,61278,36912
33188,61217,36855
33044,61113,36743
32864,61212,36628
32920,61191,36511
32952,61297,36468
32950,61381,36452
32940,61383,36412
32932,61349,36404
32926,61307,36192
32960,61271,36124
33036,61191,36129
33101,61189,36223
32988,61191,36290
32884,61231,36291
32836,61191,36252
32856,61341,36116
32800,61364,36087
32716,61334,35997
32824,61269,35909
32868,61141,35959
33008,61181,35981
32936,61125,35879
32856,61183,35865
32745,61229,35845
32700,61275,35804
32608,61316,35742
32685,61341,35708
32684,61319,35768
32853,61159,35680
32984,61220,35655
32912,61159,35549
32860,61141,35529
32788,61159,35584
32676,61215,35575
32660,61255,35361
32640,61319,35587
32650,61319,35512
32576,61191,35500
32720,61245,35372
32804,61191,35280
32848,61148,35400
32850,61121,35493
32816,61148,35408
32745,61132,35428
32709,61245,35404
32608,61295,35281
32616,61191,35163
32660,61285,35375
32588,61229,35415
32680,61173,35332
32768,61121,35332
32828,61030,35287
32857,61121,35140
32754,61164,35181
32692,61216,35190
32729,61287,35335
32544,61279,35360
32664,61252,35285
32524,61222,35300
32548,61123,35204
32656,61098,35188
32628,61095,35366
32645,61103,35332
32605,61104,35316
32560,61191,35325
32556,61264,35039
32724,61239,35364
32436,61247,35365
32561,61191,35327
32796,61063,35252
32628,61085,35375
32668,61055,35404
32460,61055,35260
32353,61147,35356
32480,61177,35429
32552,61219,35472
32424,61252,35241
32372,61231,35557
32389,61169,35527
32384,61140,35533
32376,60999,35358
32432,61047,35641
32456,61031,35697
32485,61108,35701
32540,61169,35703
32436,61132,35549
32552,61221,35823
32752,61181,35868
32324,61159,35904
32456,61108,35943
32525,61028,35717
32600,60967,36119
32560,60959,36106
32366,61087,36164
32376,61047,36223
32440,61191,36205
32508,61221,36245
32524,61180,36414
32673,61135,36482
32709,61100,36393
32648,60935,36471
32732,61005,36744
32797,61039,36742
32756,60977,36788
32824,61126,36809
32660,61185,36943
32672,61100,37039
32633,61159,37025
32721,61038,37103
32812,61009,37332
32948,61007,37335
33028,60988,37405
33048,60957,37367
32968,61049,37455
33089,61013,37555
33216,61121,37685
32992,61160,37767
33040,61150,37876
32989,61007,38004
33260,60984,38012
33198,60897,38106
33176,60967,38164
33152,60983,38229
33088,61036,38193
33052,61017,38261
33084,61135,38456
33004,61100,38503
33088,61116,38644
33028,61077,38644
33096,60932,38726
33196,60935,38783
33220,60845,38839
33268,60965,38791
33144,61004,38805
33076,61006,38859
32956,61106,39060
33060,61116,39239
33044,61023,39273
33064,61031,39303
33149,60959,39369
33172,60924,39354
33208,60935,39361
33024,60932,39420
33053,60983,39469
32928,61016,39557
32880,61093,39721
32928,61085,39919
32932,60985,39895
33080,61006,39959
33396,60935,40007
33029,60872,39943
32990,60893,40013
32936,60855,40305
32840,60935,40278
32924,60927,40343
32964,61039,40271
32993,60988,40517
33038,61025,40565
32994,60973,40617
33016,60935,40684
33024,60849,40758
33008,60848,40764
32996,60864,40839
32912,60917,40857
32865,60908,41053
32836,61031,41104
32788,61039,41191
32832,60999,41252
32788,60887,41249
32832,60903,41479
32913,60871,41454
33052,60822,41479
32970,60807,41583
33012,60897,41570
33012,60924,41585
32748,61013,41892
32868,61013,41862
32741,60951,41893
32724,60932,41861
32876,60876,42137
32928,60825,42181
32936,60804,42204
32924,60807,42148
32884,60868,42190
32884,60903,42260
32884,60885,42351
32748,60973,42428
32754,60965,42415
32916,60903,42448
32956,60828,42496
32920,60800,42796
33056,60791,42844
33052,60748,42711
33176,60841,42821
32956,60887,42808
33072,60935,42853
32921,60959,43103
32821,60927,43167
32868,60868,43068
32876,60831,43135
33030,60772,43289
33100,60756,43393
33041,60764,43271
33040,60824,43444
32940,60807,43520
32921,60839,43564
32984,60917,43511
32972,60919,43469
32921,60862,43492
32941,60807,43524
33180,60743,43564
33096,60743,43620
33054,60748,43634
32944,60804,43668
32868,60807,43728
32921,60885,43718
32884,60911,43716
32860,60876,43903
32910,60824,43908
32924,60791,43812
33120,60669,43839
33248,60692,43997
33096,60732,44039
32893,60677,43927
32900,60800,43940
32917,60804,44012
32912,60879,43991
32888,60856,44039
32940,60743,44095
33180,60743,44098
33060,60604,44127
32998,60663,44148
32918,60599,44140
32879,60735,44138
32824,60779,44164
32740,60839,44180
32748,60860,44385
32768,60807,44292
32797,60727,44318
32900,60717,44327
32996,60636,44311
32932,60645,44340
32944,60676,44295
32868,60671,44479
32848,60743,44348
32784,60821,44389
32756,60829,44352
32768,60775,44455
32788,60719,44516
32796,60679,44509
32801,60629,44363
32993,60519,44393
32836,60637,44351
32792,60679,44482
32768,60647,44488
32770,60770,44381
32779,60777,44404
32820,60742,44356
32848,60709,44325
32892,60669,44409
32928,60564,44477
32984,60503,44313
32900,60592,44329
32876,60600,44333
32864,60679,44256
32796,60749,44372
32820,60764,44344
32864,60738,44284
32852,60679,44196
32858,60580,44143
32917,60573,44119
32876,60550,44097
32918,60580,44087
32840,60620,44004
32792,60662,44039
32726,60726,44092
32704,60743,44028
32688,60711,43840
32735,60616,43842
32788,60602,43725
32820,60551,43821
32840,60533,43765
32780,60533,43637
32736,60599,43524
32708,60607,43495
32684,60695,43445
32704,60644,43450
32704,60664,43375
32712,60543,43271
32741,60551,43116
32760,60519,43064
32750,60508,43000
32808,60524,42863
32777,60512,42919
32792,60620,42903
32816,60658,42713
32709,60657,42574
32688,60641,42484
32730,60608,42314
32804,60551,42396
32840,60487,42161
32869,60397,42063
32812,60484,41950
32820,60543,41772
32796,60595,41772
32728,60647,41839
32708,60636,41512
32712,60623,41383
32708,60495,41168
32808,60524,41351
32824,60453,41104
32880,60389,40908
32836,60468,40876
32820,60519,40735
32830,60543,40583
32752,60600,40343
32688,60629,40495
32738,60583,40285
32815,60551,40071
32836,60501,39935
32844,60440,39704
32876,60423,39748
32850,60437,39533
32838,60488,39393
32708,60551,39374
32656,60565,39244
32657,60580,38961
32728,60484,39047
32784,60508,38933
32832,60468,38684
32868,60415,38631
32892,60354,38648
32862,60404,38530
32788,60469,38228
32744,60487,38343
32716,60572,38255
32708,60575,38006
32764,60550,38215
32796,60505,37911
32832,60423,37853
32898,60380,37948
32892,60277,37871
32821,60383,37826
32768,60423,37668
32748,60487,37751
32688,60545,37710
32692,60534,37629
32712,60525,37457
32728,60423,37670
32768,60407,37639
32792,60278,37545
32817,60352,37548
32792,60376,37616
32668,60390,37519
32568,60397,37639
32512,60508,37664
32428,60454,37516
32312,60487,37751
32197,60449,37724
32076,60317,37775
31844,60320,37761
31484,60295,37651
31056,60355,37932
30596,60388,37913
30182,60423,37951
29824,60503,37911
29560,60501,38096
29420,60487,38132
29462,60423,38036
29501,60335,38309
29680,60327,38308
30108,60340,38285
30688,60359,38429
31544,60415,38556
32420,60444,38605
33244,60525,38549
34144,60516,38677
34813,60493,38873
35128,60423,38869
34989,60392,38949
34704,60248,38850
34409,60327,39247
34152,60248,39189
33820,60375,39092
33517,60413,39390
33276,60476,39399
33024,60476,39310
32954,60439,39573
32996,60407,39593
32996,60292,39676
33057,60281,39733
33092,60272,39660
33073,60305,39916
33024,60334,40068
32992,60396,40065
32952,60441,40117
32932,60447,40167
32945,60415,40162
32968,60358,40219
33000,60304,40364
33052,60239,40553
33018,60247,40509
33036,60284,40551
33004,60311,40608
32992,60270,40680
32920,60407,40734
32916,60332,40820
32908,60383,40767
32938,60295,40959
32993,60276,41092
33044,60221,41046
33080,60148,41098
33053,60233,41185
32933,60286,41380
32816,60276,41351
32805,60377,41287
32764,60397,41559
32800,60348,41517
32854,60263,41548
32908,60242,41679
32908,60212,41775
32909,60191,41769
32900,60217,41792
32837,60259,41991
32829,60318,41967
32788,60352,42060
32740,60364,42028
32756,60327,42343
32780,60279,42263
32808,60216,42283
32821,60167,42319
32784,60167,42436
32764,60151,42415
32725,60215,42696
32710,60223,42584
32680,60335,42688
32672,60340,42681
32678,60295,42959
32633,60231,42993
32632,60213,42902
32724,60144,43006
32716,60127,43015
32648,60167,43287
32592,60209,43183
32592,60231,43228
32568,60295,43313
32556,60295,43316
32600,60273,43548
32616,60229,43501
32637,60187,43486
32716,60095,43583
32685,60036,43585
32608,60135,43718
32596,60093,43847
32468,60244,43880
32516,60215,43885
32588,60285,43840
32560,60185,43923
32613,60135,43964
32680,60151,44036
32652,60109,44167
32561,60084,44095
32552,60092,44175
32512,60167,44356
32540,60223,44253
32513,60262,44300
32420,60273,44505
32400,60231,44413
32412,60167,44468
32360,60143,44637
32340,60076,44596
32472,60071,44647
32428,60093,44783
32416,60141,44767
32415,60189,44799
32366,60223,44972
32548,60207,44880
32420,60205,44956
32424,60167,44956
32472,60031,45140
32449,60061,45063
32492,60047,45145
32413,60088,45140
32352,60100,45319
32404,60156,45275
32372,60157,45313
32280,60159,45319
32260,60188,45488
32368,60104,45525
32344,60095,45477
32404,60039,45517
32692,60029,45531
32620,60071,45677
32480,60105,45703
32436,60108,45702
32344,60207,45731
32356,60207,45724
32472,60167,45772
32476,60129,45831
32520,59983,45776
32576,60015,45821
32768,60008,45882
32608,60063,45959
32556,60004,45892
32544,60128,45925
32620,60167,46028
32576,60160,45997
32812,60142,46019
33132,60071,46013
32760,60039,46116
32701,59984,46117
32813,59988,46087
32828,59933,46135
32824,60071,46205
32836,60117,46181
32824,60155,46173
32901,60161,46343
32948,60024,46335
32992,60084,46393
33032,59939,46364
33164,59975,46380
33118,59956,46371
33096,60007,46464
33116,60039,46471
33109,60002,46548
33088,60135,46591
33132,60071,46572
33125,60093,46599
33148,60052,46617
33156,59990,46679
33218,59948,46778
33216,59840,46742
33217,59956,46758
33196,60029,46768
33156,60061,46791
33116,60116,46924
33120,60108,46905
33124,60077,46924
33140,59973,46926
33172,59965,47023
33165,59911,47004
33152,59911,47015
33144,59893,47108
33076,59975,47085
33068,60039,47111
33044,60007,47148
33060,60070,47207
33132,60015,47177
33188,59983,47152
33360,59911,47271
33228,59872,47239
33216,59893,47245
33208,59911,47268
33153,59953,47300
33100,60004,47367
33064,59983,47330
33104,60063,47345
33188,60020,47333
33149,59911,47396
33172,59908,47431
33308,59820,47412
33212,59869,47368
33188,59911,47380
33160,59940,47421
33060,60007,47463
32956,59985,47401
33008,60031,47381
33088,60004,47460
33132,59936,47404
33188,59900,47388
33201,59844,47396
33240,59837,47431
33200,59879,47367
33156,59911,47361
33096,59991,47333
33080,59911,47381
33024,60007,47316
33022,59983,47335
33088,59908,47289
33140,59865,47260
33180,59783,47268
33240,59831,47192
33212,59860,47168
33192,59908,47204
33124,59864,47182
33088,59996,47090
33052,60000,47037
33100,59957,47084
33158,59892,47012
33165,59783,46946
33236,59783,46868
33244,59815,46892
33196,59832,46777
33148,59807,46727
33164,59935,46646
33108,59991,46664
33080,59972,46599
33084,59911,46516
33156,59893,46412
33156,59826,46449
33196,59783,46301
33192,59783,46237
33196,59823,46204
33136,59822,46135
33132,59911,46001
33092,59932,45948
33068,59941,45872
33112,59911,45874
33196,59860,45749
33200,59805,45621
33140,59766,45559
33056,59684,45436
33116,59783,45456
33084,59855,45316
33080,59844,45225
33044,59943,45097
33022,59943,45142
33076,59893,45048
33093,59845,44871
33128,59783,44817
33168,59759,44673
33172,59655,44727
33132,59783,44613
33104,59844,44458
33032,59887,44393
32992,59911,44348
33012,59911,44351
33000,59861,44183
33004,59813,44158
33016,59775,44085
33033,59640,43892
33040,59732,43833
33020,59749,43729
32972,59822,43783
32916,59869,43575
32910,59904,43509
32864,59903,43503
32929,59869,43489
32953,59723,43237
33013,59756,43221
33032,59719,43211
33052,59741,43076
33120,59773,42996
33024,59820,42864
32952,59877,42943
32940,59849,42783
32901,59821,42830
32864,59844,42696
32904,59788,42527
32948,59751,42492
32996,59714,42452
33020,59679,42532
32928,59756,42240
32888,59820,42143
32808,59826,42309
32768,59895,42047
32776,59886,42028
32864,59843,42132
32912,59746,41892
32900,59751,41754
32956,59652,41920
33004,59712,41697
32952,59757,41637
32885,59812,41545
32880,59847,41599
32844,59860,41604
32838,59900,41549
32900,59847,41300
32940,59802,41156
32972,59736,41236
32992,59743,41148
32976,59741,41128
32976,59773,41009
32932,59804,40868
32864,59884,40916
32772,59908,40911
32777,59855,40792
32816,59867,40605
32884,59812,40735
32949,59783,40604
32952,59639,40516
33009,59732,40533
33022,59799,40455
32940,59759,40400
32904,59892,40199
32876,59911,40422
32838,59832,40231
32892,59872,40177
32917,59847,39956
32948,59783,40223
32992,59767,40007
32980,59780,39932
32946,59748,39943
32932,59853,39888
32848,59935,39789
32840,59953,39727
32864,59964,39559
32864,59911,39609
32888,59781,39548
32904,59809,39351
32932,59783,39535
32968,59820,39399
32948,59860,39232
32871,59873,39375
32800,59957,39225
32796,60004,39237
32796,60001,39106
32840,59870,39021
32896,59911,38846
32900,59796,38967
32932,59839,38935
32904,59764,38828
32864,59895,38784
32796,59935,38629
32760,60024,38482
32693,60039,38582
32704,59997,38613
32724,60013,38471
32736,59997,38407
32796,59941,38304
32836,59911,38151
32868,59830,38161
32816,59971,38196
32796,59997,38073
32724,60101,37956
32656,60151,37767
32656,60135,37941
32692,60106,37809
32676,60007,37584
32696,60015,37585
32704,59973,37628
32664,60007,37525
32608,60015,37468
32426,60125,37375
32180,60204,37149
31916,60231,37231
31584,60211,37185
31160,60135,37124
30705,60164,36919
30300,60135,37004
29938,60039,36885
29624,60109,36815
29284,60100,36707
29052,60268,36469
28892,60281,36440
28788,60391,36538
28908,60388,36439
29304,60353,36305
29980,60347,36252
30964,60255,36196
31917,60281,35993
33164,60308,36063
34340,60364,35949
35037,60423,35700
35084,60503,35844
34804,60544,35701
34476,60447,35377
34188,60501,35585
33943,60477,35437
33728,60365,35167
33500,60423,35279
33220,60439,35196
33012,60485,35073
32924,60551,34822
32876,60643,34957
32888,60647,34834
32920,60679,34677
32924,60655,34684
32940,60608,34446
32988,60591,34477
32984,60500,34360
32980,60532,34356
32957,60654,34224
32912,60733,34217
32936,60790,34041
32864,60863,34080
32784,60861,33925
32868,60835,33927
32900,60807,33780
32878,60668,33720
32904,60763,33616
32904,60772,33381
32844,60865,33472
32737,60836,33378
32726,60965,33076
32668,61015,33210
32684,61036,33105
32736,61021,33028
32790,60981,32970
32861,60965,32895
32900,60935,32903
32864,60999,32799
32784,61028,32596
32780,61127,32532
32672,61111,32568
32628,61191,32485
32672,61180,32341
32740,61236,32359
32768,61191,32234
32764,61191,32133
32786,61084,32093
32768,61223,31866
32732,61295,32025
32664,61361,31924
32576,61428,31778
32560,61415,31689
32548,61485,31734
32621,61424,31668
32686,61412,31523
32672,61356,31406
32676,61438,31444
32660,61479,31328
32588,61567,31385
32560,61621,31311
32532,61695,31013
32576,61766,31141
32588,61695,31095
32585,61744,30796
32626,61693,30967
32670,61700,30919
32672,61701,30693
32613,61764,30773
32528,61799,30720
32508,61820,30669
32440,61989,30492
32389,62049,30485
32424,62053,30492
32456,62047,30418
32540,61933,30209
32524,61997,30375
32514,61991,30239
32536,62052,30018
32476,62132,30105
32350,62209,30087
32289,62293,30030
32300,62279,29671
32308,62343,29968
32341,62340,29882
32472,62247,29640
32532,62293,29748
32564,62247,29805
32368,62343,29689
32336,62381,29709
32296,62517,29595
32276,62581,29412
32224,62653,29517
32200,62656,29525
32368,62590,29287
32352,62640,29103
32388,62639,29432
32412,62637,29333
32336,62684,29273
32254,62663,28956
32156,62853,29206
32140,62936,29170
32152,62975,28911
32078,62996,29173
32066,62983,29083
32168,62887,29012
32268,62949,28792
32276,62965,28961
32208,63020,28993
32280,63105,28916
32120,63168,28666
32092,63271,28956
32173,63328,28853
32184,63333,28828
32228,63299,28620
32264,63231,28742
32414,63306,28773
32552,63239,28804
32428,63366,28814
32284,63447,28583
32237,63528,28807
32212,63617,28775
32208,63655,28745
32204,63623,28583
32324,63668,28673
32512,63661,28807
32524,63623,28842
32612,63623,28693
32780,63653,28764
32791,63788,28869
32664,63871,28775
32452,63959,28831
32452,63919,28942
32488,64004,28989
32546,64007,28970
32704,63919,28802
32784,63975,28991
32844,63996,29084
32908,64007,29111
33000,64135,29031
32760,64200,29167
32685,64295,29268
32644,64351,29127
32708,64300,29375
32889,64349,29420
32984,64335,29432
33184,64323,29542
33148,64319,29574
33096,64340,29458
33041,64477,29740
33021,64558,29807
32948,64583,29863
32972,64703,29677
33030,64695,29999
32997,64696,30016
33044,64692,30144
33124,64668,30261
33092,64695,30295
32968,64733,30250
32964,64827,30172
32972,64903,30493
32992,64975,30586
32978,65074,30736
32976,65100,30792
32928,65077,30893
33044,65056,30945
33164,64965,30912
33216,65031,31069
33160,65127,31197
33060,65260,31303
32996,65332,31222
33000,65400,31434
32960,65488,31559
32944,65517,31525
32928,65500,31625
32952,65489,31820
33004,65471,31855
32984,65412,31861
33064,65527,31756
33056,65535,32155
33088,65535,32175
33088,65535,31916
32916,65535,32367
32876,65535,32420
32876,65535,32205
32885,65535,32665
33004,65535,32329
33025,65535,32711
32992,65535,32805
33008,65535,32889
32916,65535,32925
32916,65535,32804
32908,65535,32804
32902,65535,32861
32928,65535,32853
33032,65535,33205
33012,65535,33343
33044,65535,33412
32960,65535,33330
32904,65535,33468
32850,65535,33598
32792,65535,33652
32772,65535,33596
32836,65535,33431
32864,65535,33778
32928,65535,33909
32926,65535,33942
32984,65535,33836
32884,65535,34071
32920,65535,34143
32896,65535,34105
32868,65535,34254
32832,65535,34287
32776,65535,34108
32816,65535,34471
32868,65535,34468
32888,65535,34506
32952,65535,34487
32908,65535,34589
32858,65535,34677
32869,65535,34528
32833,65535,34774
32836,65535,34852
32804,65535,34823
32852,65535,34729
32888,65535,34911
32952,65535,34959
32932,65535,34816
32864,65535,34944
32932,65535,35130
32764,65535,35118
32688,65535,35125
32644,65535,35068
32698,65535,34919
32862,65535,35158
32865,65535,35311
32908,65535,35295
32952,65535,35200
32876,65535,35289
32772,65535,35357
32828,65535,35398
32752,65535,35141
32736,65535,35352
32724,65535,35425
32752,65535,35496
32792,65535,35487
32872,65535,35526
32844,65535,35524
32805,65535,35540
32781,65535,35527
32708,65535,35525
32632,65535,35303
32636,65535,35560
32660,65535,35676
32652,65535,35713
32672,65535,35692
32736,65535,35713
32832,65535,35770
32762,65535,35708
32716,65535,35771
32692,65535,35685
32660,65535,35647
32644,65535,35844
32616,65535,35788
32636,65535,35868
32736,65535,35796
32575,65535,35836
32524,65535,35815
32544,65535,35717
32544,65535,35751
32576,65535,35918
32514,65535,35870
32492,65535,35876
32496,65535,35897
32509,65535,35869
32584,65535,35890
32556,65535,35894
32536,65535,35834
32480,65535,35736
32416,65535,35761
32381,65535,35719
32245,65535,35820
32272,65535,35983
32284,65535,35921
32352,65535,35920
32392,65535,35814
32352,65535,35544
32416,65535,35916
32428,65535,35975
32390,65535,35908
32444,65535,35897
32300,65535,35886
32239,65535,35765
32240,65535,35700
32256,65535,35751
32228,65535,35937
32320,65535,35869
32366,65535,35841
32338,65535,35828
32312,65535,35821
32244,65535,35789
32240,65535,35656
32237,65535,35444
32254,65535,35642
32348,65535,35652
32340,65535,35705
32344,65535,35703
32406,65535,35670
32398,65535,35652
32360,65535,35775
32359,65535,35695
32256,65535,35676
32230,65535,35661
32240,65535,35676
32306,65535,35615
32300,65535,35548
32356,65535,35300
32400,65535,35637
32412,65535,35557
32342,65535,35366
32228,65535,35437
32172,65535,35500
32140,65535,35476
32164,65535,35437
32196,65535,35428
32240,65535,35365
32288,65535,35151
32332,65535,35249
32272,65535,35301
32256,65535,35061
32236,65535,35196
32174,65535,35207
32094,65535,35140
32120,65535,34855
32212,65535,35079
32204,65535,34913
32284,65535,34956
32311,65535,34989
32276,65535,34941
32268,65535,34872
32228,65535,34737
32140,65535,34439
32096,65535,34815
32140,65535,34703
32132,65535,34597
32164,65535,34651
32224,65535,34563
32169,65535,34308
32108,65535,34542
32076,65535,34430
31992,65535,34372
31910,65535,33976
31938,65535,34306
31837,65535,34167
31838,65535,33935
31836,65535,34180
31648,65535,34085
31434,65535,34007
31169,65535,33996
30777,65535,33885
30296,65535,33783
29826,65535,33787
29508,65535,33820
29264,65535,33738
29020,65535,33671
28880,65535,33378
28824,65535,33580
28829,65535,33512
28796,65535,33449
28858,65535,33316
29210,65535,33111
29857,65535,32950
30748,65535,32893
31672,65535,33097
32869,65535,33177
34008,65535,33060
34624,65535,33050
34652,65535,32941
34296,65535,32871
33880,65535,32708
33524,65535,32829
33220,65535,32751
32929,65535,32647
32670,65535,32514
32484,65535,32375
32428,65535,32126
32460,65535,32455
32520,65535,32433
32488,65535,32301
32442,65535,32247
32420,65535,32194
32480,65535,32159
32416,65535,32086
32404,65535,31885
32409,65535,31913
32486,65535,31991
32512,65535,31897
32576,65535,31826
32592,65535,31751
32656,65535,31703
32560,65535,31431
32433,65535,31551
32440,65535,31609
32590,65535,31528
32508,65535,31444
32456,65535,31367
32524,65535,31049
32656,65535,31175
32620,65535,31268
32591,65535,31165
32604,65535,31127
32580,65535,31012
32580,65535,30777
32560,65535,30921
32593,65535,30879
32592,65535,30863
32680,65535,30761
32724,65535,30556
32696,65535,30598
32712,65535,30644
32636,65535,30575
32544,65535,30484
32592,65535,30280
32556,65535,30267
32544,65535,30392
32644,65535,30332
32741,65535,30255
32700,65535,30092
32708,65535,29871
32584,65535,30125
32480,65535,30010
32492,65535,29813
32492,65535,29839
32513,65535,29747
32548,65535,30001
32614,65535,29913
32568,65535,29869
32680,65535,29756
32668,65535,29552
32613,65535,29710
32564,65535,29793
32500,65535,29685
32404,65535,29646
32461,65535,29596
32557,65535,29569
32520,65535,29372
32505,65535,29469
32506,65535,29512
32556,65535,29426
32476,65535,29412
32412,65535,29359
32388,65535,29114
32428,65535,28976
32425,65535,29219
32520,65535,29298
32476,65535,29222
32556,65535,29141
32656,65535,29092
32484,65535,28904
32317,65535,28851
32208,65535,28712
32240,65535,28977
32224,65535,29064
32324,65535,28981
32465,65535,28945
32512,65535,28929
32524,65535,28869
32414,65535,28860
32541,65535,28644
32432,65535,28516
32272,65535,28822
32292,65535,28812
32357,65535,28750
32352,65535,28716
32352,65535,28449
32405,65535,28684
32640,65535,28764
32629,65535,28756
32456,65535,28684
32367,65535,28455
32308,65535,28652
32536,65535,28692
32520,65535,28663
32455,65535,28613
32484,65535,28453
32536,65535,28638
32728,65535,28719
32540,65535,28751
32464,65535,28703
32480,65535,28645
32508,65535,28507
32397,65535,28710
32468,65535,28729
32484,65535,28760
32560,65535,28911
32572,65535,28929
32748,65535,28921
32829,65535,28919
32840,65535,28948
32684,65535,28952
32740,65535,28687
32860,65535,29156
32796,65535,29125
32620,65535,29179
32757,65535,29216
32813,65535,29276
32926,65535,29100
32988,65535,29352
33020,65535,29514
33080,65535,29529
33092,65535,29598
33004,65535,29644
32964,65535,29444
33108,65535,29752
33196,65535,29844
33368,65535,29920
33468,65535,30064
33344,65535,30088
33329,65535,30215
33216,65535,30231
33185,65535,30124
33236,65535,30093
33248,65535,30444
33328,65535,30561
33421,65535,30648
33540,65535,30769
33628,65535,30799
33660,65535,30676
33612,65535,30633
33552,65535,31063
33504,65535,31160
33472,65535,31187
33412,65535,30957
33477,65535,31421
33424,65535,31476
33508,65535,31591
33488,65535,31689
33428,65535,31716
33508,65535,31808
33450,65535,31820
33504,65535,31629
33504,65535,32031
33372,65535,32096
33410,65535,32217
33456,65535,32317
33517,65535,32452
33548,65535,32393
33712,65535,32484
33616,65535,32668
33504,65535,32771
33328,65535,32799
33396,65535,32702
33428,65535,32883
33370,65535,33120
33440,65535,33151
33380,65535,33216
33384,65535,33108
33488,65535,33269
33454,65535,33453
33488,65535,33543
33544,65535,33575
33306,65535,33580
33288,65535,33677
33389,65535,33799
33452,65535,33865
33456,65535,33853
33492,65535,33945
33660,65535,34100
33540,65535,34157
33501,65535,33948
33412,65535,34311
33292,65535,34407
33304,65535,34247
33392,65535,34477
33476,65535,34577
33488,65535,34537
33536,65535,34660
33585,65535,34784
33560,65535,34812
33504,65535,34849
33488,65535,34823
33413,65535,34948
33384,65535,34984
33408,65535,35023
33496,65535,34955
33616,65535,35078
33564,65535,35229
33492,65535,35269
33524,65535,35150
33468,65535,35335
33380,65535,35335
33408,65535,35136
33472,65535,35349
33488,65535,35444
33448,65535,35383
33456,65535,35463
33492,65535,35524
33560,65535,35588
33556,65535,35552
33508,65535,35272
33512,65535,35585
33528,65535,35709
33536,65535,35661
33588,65535,35679
33628,65535,35669
33714,65535,35503
33632,65535,35673
33752,65535,35788
33672,65535,35789
33534,65535,35775
33540,65535,35484
33496,65535,35800
33492,65535,35812
33568,65535,35605
33616,65535,35879
33640,65535,35878
33661,65535,35788
33708,65535,35726
33740,65535,35892
33652,65535,35861
33544,65535,35657
33548,65535,35912
33516,65535,35872
33584,65535,35815
33620,65535,35877
33652,65535,35806
33728,65535,35825
33765,65535,35883
33732,65535,35877
33662,65535,35770
33609,65535,35899
33584,65535,35856
33572,65535,35793
33628,65535,35904
33576,65535,35880
33578,65535,35827
33608,65535,35568
33679,65535,35829
33677,65535,35815
33636,65535,35776
33596,65535,35629
33568,65535,35700
33512,65535,35760
33540,65535,35554
33616,65535,35692
33644,65535,35695
33612,65535,35463
33604,65535,35694
33572,65535,35611
33536,65535,35351
33532,65535,35604
33496,65535,35541
33462,65535,35507
33472,65535,35294
33528,65535,35384
33568,65535,35252
33601,65535,35384
33604,65535,35328
33584,65535,35303
33565,65535,35117
33572,65535,35278
33520,65535,35204
33472,65535,35064
33472,65535,35108
33525,65535,35095
33564,65535,34968
33669,65535,34671
33660,65535,34903
33628,65535,34900
33633,65535,34772
33604,65535,34710
33572,65535,34776
33530,65535,34669
33540,65535,34621
33624,65535,34338
33620,65535,34443
33628,65535,34490
33753,65535,34382
33668,65535,34311
33544,65535,34247
33564,65535,34045
33568,65535,33744
33524,65535,34000
33568,65535,33983
33620,65535,33868
33684,65535,33831
33654,65535,33716
33700,65535,33484
33652,65535,33463
33588,65535,33513
33572,65535,33414
33444,65535,33281
33444,65535,33196
33484,65535,33158
33544,65535,33024
33568,65535,32660
33604,65535,32764
33629,65535,32669
33584,65535,32697
33532,65535,32571
33452,65535,32252
33405,65535,32321
33384,65535,32309
33396,65535,32173
33409,65535,31903
33456,65535,31936
33493,65535,31908
33504,65535,31863
33436,65535,31660
33404,65535,31296
33384,65535,31550
33354,65535,31444
33312,65535,31038
33330,65535,31274
33324,65535,31173
33332,65535,30772
33436,65535,31012
33476,65535,30912
33389,65535,30855
33308,65535,30767
33192,65535,30654
33133,65535,30333
33156,65535,30566
33124,65535,30492
33160,65535,30325
33056,65535,29948
32716,65535,30247
32480,65535,30132
32160,65535,29792
31724,65535,30032
31244,65535,29925
30881,65535,29703
30604,65535,29790
30376,65535,29771
30288,65535,29728
30284,65535,29592
30188,65535,29350
30264,65535,29605
30448,65535,29584
30892,65535,29313
31632,65535,29468
32508,65535,29317
33400,65535,29349
34468,65535,29392
35336,65535,29196
35792,65535,28965
35720,65535,29326
35536,65535,29279
35212,65535,29197
34933,65535,28978
34644,65535,29148
34344,65535,29175
34036,65535,29159
33840,65535,29044
33772,65535,29087
33688,65535,29140
33716,65535,29116
33801,65535,29141
33864,65535,29068
33820,65535,29041
33792,65535,29115
33660,65535,29039
33736,65535,29079
33823,65535,29146
33720,65535,29094
33692,65535,29062
33706,65535,29133
33748,65535,29120
33728,65535,29148
33588,65535,29205
33556,65535,29100
33476,65535,29135
33440,65535,29249
33384,65535,29244
33492,65535,29089
33560,65535,29026
33609,65535,29334
33588,65535,29355
33457,65535,29348
33348,65535,29359
33238,65535,29319
33191,65535,29413
33580,65535,29408
33268,65535,29177
33180,65535,29511
33204,65535,29514
33244,65535,29311
33200,65535,29584
33189,65535,29633
33192,65535,29641
32928,65535,29370
32892,65535,29752
32972,65535,29767
32949,65535,29504
32972,65535,29916
33085,65535,29916
33072,65535,29948
32860,65535,29661
32864,65535,30005
32848,65535,30132
32840,65535,30130
32832,65535,30020
32858,65535,29925
32796,65535,30337
32953,65535,30359
32969,65535,30407
32924,65535,30436
32814,65535,30485
32680,65535,30597
32708,65535,30681
32807,65535,30660
32696,65535,30447
32540,65535,30903
32580,65535,30932
32672,65535,30973
32792,65535,30991
32480,65535,30913
32798,65535,31151
32640,65535,31332
32716,65535,31324
32620,65535,31398
32472,65535,31533
32618,65535,31608
32716,65535,31680
32464,65535,31705
32532,65535,31728
32520,65535,31568
32508,65535,31999
32568,65535,32060
32500,65535,31997
32617,65535,32236
32576,65535,32375
32480,65535,32180
32452,65535,32567
32592,65535,32671
32536,65535,32594
32486,65535,32834
32608,65535,33040
32496,65535,33116
32508,65535,33064
32380,65535,33300
32244,65535,33482
32338,65535,33516
32464,65535,33399
32608,65535,33495
32544,65535,33600
32744,65535,34133
32448,65535,34244
32364,65535,34277
32384,65535,34295
32396,65535,34533
32356,65535,34636
32328,65535,34548
32340,65535,34508
32472,65535,34981
32476,65535,35119
32464,65535,35173
32574,65535,35277
32520,65535,35255
32413,65535,35254
32404,65535,35311
32400,65535,35565
32500,65535,35784
32460,65535,35933
32481,65535,36012
32632,65535,36093
32708,65535,36135
32765,65535,36005
32800,65535,36406
32712,65535,36436
32632,65535,36528
32660,65535,36398
32673,65535,36780
32612,65535,36815
32668,65535,36884
32854,65535,36967
32940,65535,36879
32965,65535,37178
32824,65535,37284
32838,65535,37252
32932,65535,37092
32973,65535,37567
32952,65535,37577
32978,65535,37525
33156,65535,37468
33108,65535,37688
33124,65535,37916
33124,65535,37959
33128,65535,38004
33068,65535,38100
33144,65535,38150
33077,65535,37925
33236,65535,38333
33256,65535,38359
33188,65535,38375
33253,65535,38286
33296,65535,38287
33329,65535,38631
33304,65535,38682
33352,65535,38663
33376,65535,38486
33158,65535,38842
33114,65535,38873
33048,65535,38868
33132,65535,38908
33192,65535,38983
33200,65535,39031
33192,65535,38996
33168,65535,39181
33038,65535,39197
33116,65535,39201
33121,65535,38975
32917,65535,39325
32920,65535,39350
33208,65535,39231
33204,65535,39317
33172,65535,39450
33048,65535,39470
33156,65535,39429
33076,65535,39556
33136,65535,39589
32996,65535,39532
32972,65535,39649
32984,65535,39669
33024,65535,39652
33036,65535,39761
33092,65535,39764
33108,65535,39927
33050,65535,39855
32841,65535,39805
32960,65535,39724
32892,65535,39772
32965,65535,40022
32928,65535,39966
32960,65535,40000
32976,65535,39905
32996,65535,40076
33060,65535,40088
33052,65535,40029
32933,65535,39903
32776,65535,40141
32740,65535,40262
32764,65535,40196
32800,65535,40189
32872,65535,40173
32978,65535,40301
33020,65535,40279
33116,65535,40253
32972,65535,40387
32816,65535,40305
32772,65535,40144
32644,65535,40463
32753,65535,40356
32816,65535,40400
32864,65535,40272
32928,65535,40368
32964,65535,40532
32921,65535,40434
32832,65535,40453
32821,65535,40479
32702,65535,40502
32696,65535,40503
32692,65535,40468
32600,65535,40452
32792,65535,40559
32708,65535,40523
32820,65535,40510
32752,65535,40349
32684,65535,40551
32692,65535,40599
32744,65535,40545
32853,65535,40529
32708,65535,40511
32532,65535,40327
32584,65535,40553
32564,65535,40519
32688,65535,40516
32780,65535,40327
32741,65535,40560
32720,65535,40493
32752,65535,40484
32600,65535,40496
32496,65535,40352
32516,65535,40468
32421,65535,40503
32694,65535,40455
32641,65535,40465
32664,65535,40448
32552,65535,40327
32616,65535,40284
32577,65535,40448
32532,65535,40268
32500,65535,40447
32570,65535,40452
32628,65535,40421
32586,65535,40383
32640,65535,40404
32616,65535,40237
32576,65535,40469
32496,65535,40340
32529,65535,40309
32478,65535,40434
32556,65535,40333
32524,65535,40084
32548,65535,40366
32476,65535,40297
32481,65535,40180
32496,65535,40159
32532,65535,40311
32436,65535,40220
32480,65535,40093
32460,65535,40228
32372,65535,40177
32372,65535,40006
32468,65535,40116
32440,65535,40116
32445,65535,40116
32436,65535,40071
32432,65535,39879
32400,65535,40084
32341,65535,39992
32264,65535,39712
32272,65535,40044
32300,65535,39908
32392,65535,39856
32436,65535,39625
32556,65535,39812
32500,65535,39752
32494,65535,39767
32437,65535,39716
32404,65535,39581
32324,65535,39485
32336,65535,39585
32344,65535,39543
32388,65535,39487
32510,65535,39360
32568,65535,39396
32568,65535,39385
32500,65535,39304
32476,65535,39115
32449,65535,39246
32412,65535,39149
32452,65535,39114
32496,65535,39015
32512,65535,38897
32560,65535,38857
32640,65535,38951
32720,65535,38828
32620,65535,38739
32562,65535,38364
32536,65535,38671
32544,65535,38546
32552,65535,38484
32614,65535,38361
32581,65535,38244
32577,65535,38279
32553,65535,38089
32592,65535,38103
32596,65535,38061
32569,65535,37863
32540,65535,37828
32520,65535,37826
32580,65535,37732
32588,65535,37613
32601,65535,37333
32600,65535,37484
32680,65535,37383
32676,65535,37284
32629,65535,37127
32564,65535,36743
32525,65535,37023
32460,65535,36916
32468,65535,36798
32492,65535,36480
32549,65535,36622
32564,65535,36484
32612,65535,36391
32604,65535,36201
32572,65535,36023
32525,65535,35752
32484,65535,35952
32424,65535,35880
32412,65535,35784
32428,65535,35541
32400,65535,35503
32400,65535,35417
32420,65535,35252
32340,65535,34840
32133,65535,35129
31928,65535,34981
31660,65535,34865
31228,65535,34717
30786,65535,34379
30416,65535,34533
30100,65535,34412
29828,65535,34283
29569,65535,33985
29416,65535,34036
29343,65535,33985
29245,65535,33797
29226,65535,33567
29428,65535,33228
29998,65535,33392
30852,65535,33334
31872,65535,33212
32784,65535,32877
33924,65535,33000
34800,65535,32873
35084,65535,32608
34889,65535,32548
34472,65535,32475
34096,65535,32357
33828,65535,31897
33528,65535,32140
33294,65535,32007
33100,65535,31741
32964,65535,31858
32869,65535,31737
32728,65535,31583
32700,65535,31303
32704,65535,31351
32680,65535,31306
32721,65535,31286
32692,65535,31131
32708,65535,30787
32764,65535,30643
32820,65535,30917
32828,65535,30804
32812,65535,30775
32780,65535,30727
32757,65535,30697
32688,65535,30613
32672,65535,30500
32684,65535,30375
32684,65535,30148
32736,65535,30384
32800,65535,30462
32832,65535,30377
32772,65535,30319
32780,65535,30148
32756,65535,29952
32748,65535,30317
32716,65535,30274
32701,65535,30193
32749,65535,29860
32789,65535,30231
32804,65535,30201
32808,65535,30142
32788,65535,30095
32688,65535,29823
32666,65535,30188
32600,65535,30146
32624,65535,30029
32669,65535,30084
32660,65535,30164
32673,65535,30124
32733,65535,30080
32702,65535,29956
32700,65535,29849
32672,65535,30253
32624,65535,30229
32570,65535,30021
32524,65535,30244
32548,65535,30319
32568,65535,30190
32561,65535,29994
32580,65535,30315
32560,65535,30426
32521,65535,30339
32596,65535,30517
32564,65535,30532
32544,65535,30503
32500,65535,30428
32558,65535,30257
32554,65535,30617
32576,65535,30689
32620,65535,30705
32612,65535,30594
32533,65535,30726
32520,65535,30888
32480,65535,30922
32476,65535,30832
32512,65535,31016
32536,65535,31038
32568,65535,30989
32586,65535,30734
32600,65535,31185
32560,65535,31197
32528,65535,31141
32484,65535,31191
32428,65535,31316
32373,65535,31335
32302,65535,31087
32324,65535,31502
32449,65535,31394
32488,65535,31614
32488,65535,31656
32468,65535,31582
32424,65535,31405
32404,65535,31812
32380,65535,31909
32284,65535,31863
32360,65535,31657
32461,65535,32034
32608,65535,32111
32632,65535,31956
32556,65535,32195
32498,65535,32313
32477,65535,32372
32492,65535,32380
32452,65535,32503
32358,65535,32585
32380,65535,32580
32488,65535,32644
32600,65535,32564
32633,65535,32734
32580,65535,32861
32532,65535,33076
32540,65535,33103
32436,65535,33144
32448,65535,33256
32460,65535,33260
32528,65535,33284
32544,65535,33408
32628,65535,33485
32768,65535,33484
32788,65535,33271
32712,65535,33692
32718,65535,33760
32692,65535,33761
32661,65535,33874
32499,65535,33991
32672,65535,34080
32797,65535,34084
32744,65535,34109
32800,65535,34325
32984,65535,34401
33045,65535,34263
32960,65535,34508
32966,65535,34631
32852,65535,34657
32917,65535,34447
32992,65535,34796
33028,65535,34940
33120,65535,34991
33104,65535,34948
33272,65535,34852
33216,65535,35121
33382,65535,35308
33296,65535,35396
33096,65535,35495
33097,65535,35543
33232,65535,35588
33244,65535,35533
33296,65535,35588
33420,65535,35805
33444,65535,36024
33410,65535,36081
33332,65535,36141
33172,65535,36205
33220,65535,36302
33216,65535,36316
33188,65535,36285
33225,65535,36366
33272,65535,36549
33340,65535,36764
33396,65535,36832
33240,65535,36928
33173,65535,37044
33044,65535,37101
33108,65535,37034
33216,65535,37237
33236,65535,37455
33440,65535,37486
33508,65535,37577
33336,65535,37687
33176,65535,37732
33214,65535,37733
33172,65535,37917
33148,65535,38173
33172,65535,38230
33096,65535,38407
33217,65535,38452
33360,65535,38557
33312,65535,38629
33320,65535,38570
33190,65535,38814
33120,65535,39095
33292,65535,39151
33141,65535,39214
33080,65535,39332
33104,65535,39453
33175,65535,39462
33356,65535,39469
33341,65535,39669
33336,65535,39856
33324,65535,39943
33468,65535,40021
33148,65535,39973
33196,65535,40326
33112,65535,40348
33080,65535,40406
33192,65535,40516
33372,65535,40533
33384,65535,40557
33388,65535,40900
33368,65535,40861
33392,65535,40953
33312,65535,40964
33196,65535,40980
33128,65535,40975
33057,65535,41272
33016,65535,41414
33200,65535,41384
33296,65535,41479
33357,65535,41503
33468,65535,41434
33356,65535,41573
33304,65535,41717
33184,65535,41935
33141,65535,41876
33164,65535,41900
33092,65535,41863
33148,65535,42176
33200,65535,42073
33224,65535,42148
33248,65535,42079
33253,65535,42231
33084,65535,42481
33133,65535,42333
33149,65535,42341
33062,65535,42441
33124,65535,42375
33096,65535,42352
33157,65535,42734
33242,65535,42564
33312,65535,42588
33265,65535,42535
33252,65535,42839
33194,65535,42727
33096,65535,42733
32997,65535,42679
33158,65535,42836
33164,65535,42971
33208,65535,42958
33276,65535,42836
33268,65535,42796
33274,65535,42845
33232,65535,42759
33184,65535,43068
33108,65535,42956
33160,65535,42828
33153,65535,42864
33200,65535,42991
33288,65535,43055
33345,65535,43109
33368,65535,43055
33420,65535,42921
33336,65535,42904
33312,65535,42861
33160,65535,42861
33104,65535,42919
33188,65535,42855
33200,65535,42791
33260,65535,42759
33281,65535,43034
33272,65535,42789
33296,65535,42743
33272,65535,42876
33217,65535,42907
33357,65535,42716
33304,65535,42743
33188,65535,42685
33252,65535,42580
33304,65535,42820
33428,65535,42764
33377,65535,42596
33368,65535,42559
33392,65535,42468
33384,65535,42756
33380,65535,42542
33353,65535,42517
33352,65535,42452
33404,65535,42293
33504,65535,42433
33484,65535,42573
33557,65535,42440
33472,65535,42293
33408,65535,42254
33364,65535,42090
33370,65535,42316
33390,65535,42320
33412,65535,42151
33324,65535,42097
33428,65535,42036
33468,65535,42055
33501,65535,41817
33484,65535,42085
33564,65535,41960
33472,65535,41852
33316,65535,41839
33292,65535,41734
33332,65535,41673
33420,65535,41831
33444,65535,41669
33512,65535,41588
33433,65535,41473
33297,65535,41597
33321,65535,41664
33212,65535,41537
33164,65535,41402
33156,65535,41318
33168,65535,41244
33108,65535,41411
33192,65535,41271
33268,65535,41204
33344,65535,40955
33300,65535,41188
33236,65535,41052
33196,65535,40893
33140,65535,40859
33182,65535,41037
33228,65535,40964
33168,65535,40836
33196,65535,40777
33232,65535,40751
33228,65535,40711
33232,65535,40679
33140,65535,40620
33076,65535,40532
33052,65535,40405
33061,65535,40345
33001,65535,40296
33036,65535,40192
33012,65535,40481
32948,65535,40341
33020,65535,40298
33052,65535,40100
32948,65535,39969
32812,65535,40228
32800,65535,40135
32697,65535,39862
32676,65535,40093
32542,65535,40022
32376,65535,39948
32176,65535,39756
31800,65535,39864
31400,65535,39881
31108,65535,39781
30384,65535,39732
29992,65535,39696
29540,65535,39644
29236,65535,39553
29124,65535,39386
29068,65535,39413
29096,65535,39482
29460,65535,39441
29932,65535,39344
30768,65535,39060
31624,65535,39336
32511,65535,39241
33688,65535,39204
34672,65535,39087
35300,65535,38847
35248,65535,39107
34892,65535,39012
34600,65535,39004
34276,65535,38890
33961,65535,38661
33671,65535,38855
33460,65535,38859
33120,65535,38759
33032,65535,38748
33036,65535,38688
32992,65535,38464
33036,65535,38527
33100,65535,38613
33094,65535,38551
33128,65535,38483
33080,65535,38357
33036,65535,38175
33016,65535,38372
33017,65535,38328
33020,65535,38247
33057,65535,38244
33086,65535,38197
33093,65535,38022
33156,65535,38047
33112,65535,38061
33108,65535,38037
32980,65535,37788
32844,65535,37999
32885,65535,37895
32956,65535,37833
32988,65535,37751
33076,65535,37453
33120,65535,37767
33056,65535,37655
32992,65535,37582
32924,65535,37335
32905,65535,37472
32836,65535,37430
32804,65535,37201
32932,65535,37196
32952,65535,37319
32997,65535,37183
33020,65535,37127
33012,65535,37025
32904,65535,36780
32884,65535,36838
32877,65535,36959
32856,65535,36877
32833,65535,36780
32896,65535,36629
32952,65535,36348
32941,65535,36625
32964,65535,36551
32944,65535,36492
32864,65535,36409
32873,65535,36373
32816,65535,36290
32768,65535,36018
32768,65535,36215
32836,65535,36097
32897,65535,36008
32916,65535,35829
32993,65535,35773
32960,65535,35849
32868,65535,35746
32793,65535,35701
32730,65535,35590
32700,65535,35290
32776,65535,35495
32772,65535,35421
32701,65535,35295
32785,65535,35079
32816,65535,34789
32816,65535,35137
32754,65535,34911
32692,65535,34937
32616,65535,34822
32600,65535,34708
32644,65535,34537
32650,65535,34589
32613,65535,34445
32648,65535,34070
32671,65535,34333
32648,65535,34228
32606,65535,33976
32502,65535,34021
32460,65535,33996
32396,65535,33892
32392,65535,33669
32552,65535,33613
32568,65535,33603
32578,65535,33529
32608,65535,33340
32652,65535,32991
32584,65535,33181
32552,65535,33145
32496,65535,33052
32500,65535,32933
32528,65535,32839
32480,65535,32754
32580,65535,32459
32598,65535,32494
32660,65535,32470
32613,65535,32404
32534,65535,32133
32444,65535,32074
32393,65535,32093
32544,65535,31971
32438,65535,31847
32516,65535,31526
32548,65535,31644
32637,65535,31546
32684,65535,31452
32686,65535,31298
32692,65535,31031
32636,65535,30837
32584,65535,31127
32612,65535,31015
32580,65535,30872
32612,65535,30673
32728,65535,30636
32789,65535,30631
32820,65533,30500
32857,65535,30324
32838,65535,29965
32804,65535,30237
32724,65535,30107
32817,65535,30015
32892,65535,29997
32808,65535,29865
32976,65535,29654
32992,65511,29663
32925,65535,29671
32992,65535,29582
32876,65535,29452
32961,65535,29273
32836,65535,29116
32820,65535,29175
32949,65535,29225
33008,65535,29086
33060,65535,28986
33140,65517,28855
33196,65507,28508
33184,65529,28799
33156,65535,28780
33136,65535,28679
33148,65535,28413
33144,65535,28167
33156,65535,28488
33244,65535,28397
33264,65535,28294
33289,65535,27985
33332,65485,28219
33220,65519,28132
33192,65535,28125
33117,65535,28014
33192,65535,27882
33294,65535,27794
33260,65535,27552
33472,65535,27526
33312,65535,27655
33260,65484,27661
33184,65471,27788
33112,65495,27685
33060,65525,27625
32997,65535,27487
32968,65535,27554
33069,65535,27597
33108,65535,27584
33248,65529,27529
33304,65468,27479
33272,65444,27143
33265,65436,27511
33192,65460,27242
33324,65492,27462
33289,65519,27521
33156,65520,27415
32924,65535,27244
32978,65535,27494
33016,65487,27503
32996,65468,27455
33172,65317,27476
33264,65383,27304
33220,65381,27480
33180,65447,27599
33132,65471,27582
33112,65509,27567
32944,65535,27528
32948,65501,27484
33040,65455,27357
33080,65375,27775
33180,65324,27741
33204,65381,27843
33204,65233,27796
33135,65372,27666
33160,65415,27857
33185,65449,27958
33140,65461,27813
33244,65432,27997
33212,65317,27925
33197,65325,27832
33234,65215,28273
33216,65180,28295
33232,65205,28234
33188,65271,28038
33108,65255,28423
33088,65391,28463
32992,65397,28431
32956,65356,28557
32980,65270,28711
33144,65159,28771
33257,65127,28754
33248,65109,28848
33172,65094,29041
32997,65132,29022
32944,65220,29085
33046,65325,29007
33176,65309,29277
33029,65192,29303
33044,65197,29333
33172,65093,29173
33216,64972,29445
33160,65007,29541
33124,65012,29569
33044,65068,29564
32960,65020,29365
33024,65188,29780
33048,65153,29820
33108,65157,29884
33156,65082,29897
33157,64935,29757
33292,64932,30078
33360,64916,30029
33248,64919,29884
33192,64991,30111
33180,65031,30220
33140,65101,30191
32992,65084,29996
33029,65028,30327
33084,64932,30388
33168,64940,30272
33228,64863,30375
33232,64847,30504
33284,64861,30487
33196,64893,30497
33169,64967,30566
33174,65159,30597
33037,65015,30521
33021,64967,30511
33064,64888,30665
32984,64829,30761
33080,64775,30816
33152,64765,30744
33108,64775,30550
33008,64831,30924
33040,64774,30968
33064,64908,30671
33088,64903,31119
33020,64821,31147
33060,64820,31014
33028,64796,31209
33045,64711,31255
33056,64644,31239
33052,64703,30968
33077,64743,31366
33048,64775,31392
32992,64837,31117
32993,64775,31551
33018,64775,31535
33028,64743,31567
33096,64631,31428
33020,64568,31724
33008,64615,31741
32996,64623,31728
32916,64665,31750
32984,64620,31513
32976,64759,31848
32900,64749,31893
32888,64732,31957
32926,64661,31941
33032,64636,31865
33028,64560,31685
33132,64519,32066
33028,64551,32108
32909,64550,32129
32828,64630,32160
32940,64679,32043
32932,64620,32172
32988,64655,32263
32940,64591,32293
32796,64553,32254
32956,64446,32013
33084,64391,32394
33132,64420,32125
32948,64519,32507
32912,64540,32451
32868,64609,32489
32904,64596,32509
32942,64579,32519
33104,64468,32495
33112,64461,32263
33101,64415,32405
33064,64391,32574
33032,64421,32668
32984,64436,32729
32924,64430,32763
32824,64519,32760
32950,64479,32781
32857,64487,32804
32878,64391,32849
33008,64407,32895
33020,64327,32871
32972,64327,32875
33136,64340,32713
32952,64364,32621
32820,64408,32864
32720,64389,32953
32828,64463,32973
32800,64424,32786
32814,64380,33060
32813,64332,33031
32816,64231,32999
32824,64184,33051
32864,64263,32788
32936,64311,32821
32872,64263,33169
32871,64383,33175
32836,64372,33168
32848,64358,33159
32724,64311,33148
32736,64260,33116
32696,64116,33189
32828,64183,33249
32804,64189,33218
32769,64231,33226
32744,64263,33148
32580,64327,32996
32480,64263,33277
32548,64276,33348
32624,64229,33260
32192,64181,33299
32228,64061,33334
32124,64100,33364
31952,64131,33369
31517,64159,33345
31005,64206,33231
30553,64197,33324
30170,64249,33430
29944,64196,33488
29776,64188,33465
29724,64130,33389
29612,64076,33399
29624,64047,33560
29600,64047,33525
29824,64127,33586
30346,64191,33572
31116,64236,33590
31992,64260,33468
32848,64213,33287
34101,64135,33596
34908,64082,33733
35212,64053,33752
35048,63951,33740
34732,63981,33729
34332,64084,33437
34062,64112,33833
33736,64175,33836
33285,64173,33752
33040,64095,33630
32960,64092,33559
32892,64031,33809
33036,63973,33845
33064,63965,33661
32972,63975,33804
32877,64007,33955
32916,64055,33924
32968,64004,33986
32920,64084,33944
33041,64065,33810
32980,63999,33933
32948,63879,33998
32984,63903,33975
33032,63876,33670
33116,63901,34047
32904,63845,34011
32820,63975,33950
32840,64007,33740
32832,64007,33653
32780,63981,34068
32820,63934,34055
32869,63823,33988
32908,63828,33999
33049,63796,33746
32960,63839,33965
32900,63879,33993
32806,63916,33961
32785,63925,33972
32772,63967,33718
32816,63919,33897
32897,63876,33951
32860,63788,33983
32840,63775,33916
32744,63741,33823
32860,63732,33852
32852,63805,33946
32728,63847,33905
32696,63893,33916
32628,63901,33868
32808,63855,33582
32804,63806,33860
32904,63687,33912
32820,63701,33960
32768,63623,33893
32808,63623,33901
32672,63737,33863
32648,63783,33846
32556,63837,33933
32536,63781,33924
32620,63783,33900
32647,63749,33861
32744,63623,33771
32940,63622,33767
32840,63557,33829
32660,63654,33647
32572,63703,33670
32548,63727,33784
32561,63751,33783
32592,63783,33869
32548,63674,33883
32564,63686,33873
32560,63649,33778
32616,63580,33819
32620,63565,33748
32561,63596,33735
32512,63643,33663
32464,63653,33631
32408,63676,33519
32380,63727,33408
32480,63648,33561
32452,63645,33616
32428,63490,33607
32493,63517,33535
32524,63517,33441
32518,63495,33301
32422,63591,33128
32420,63623,33365
32392,63574,33405
32484,63670,33344
32448,63620,33241
32428,63562,33272
32400,63495,33273
32548,63471,33049
32560,63394,33168
32600,63490,33140
32544,63521,33004
32384,63556,32937
32292,63623,33044
32324,63527,32948
32348,63567,32756
32432,63517,32759
32360,63461,32805
32421,63387,32719
32396,63404,32359
32348,63439,32556
32381,63468,32593
32356,63519,32538
32392,63487,32471
32381,63567,32164
32436,63525,32349
32493,63473,32300
32500,63423,32060
32537,63359,32108
32542,63358,32128
32502,63303,32068
32484,63429,31821
32441,63463,31949
32365,63495,31917
32326,63491,31835
32472,63409,31433
32428,63415,31804
32452,63297,31649
32556,63303,31416
32505,63264,31591
32496,63333,31461
32540,63367,31335
32612,63334,31005
32608,63453,31305
32576,63429,31205
32704,63405,30919
32716,63367,31100
32736,63303,31028
32706,63231,30784
32800,63236,30884
32808,63263,30869
32684,63287,30708
32664,63356,30427
32692,63322,30669
32680,63387,30588
32760,63345,30423
32776,63312,30452
32976,63159,30408
32924,63182,30044
32932,63177,30255
32904,63204,30108
33008,63231,30111
33124,63303,29992
32908,63265,29612
32782,63331,29847
32892,63284,29784
33140,63239,29657
33048,63157,29698
33008,63143,29508
32960,63132,29492
33140,63156,29436
32964,63207,29377
32908,63199,29090
32880,63252,29303
32864,63277,29202
33004,63239,29138
32952,63125,28997
33164,63135,28823
33088,63103,28871
32976,62983,28869
32980,63103,28781
32956,63111,28489
32897,63189,28620
32992,63236,28615
33008,63156,28258
32869,63199,28505
32944,63111,28430
33056,63108,28167
33061,63047,28407
33065,62950,28280
33073,63063,28220
33144,63109,28084
33093,63165,28069
32936,63133,28099
32784,63183,28023
32696,63164,27796
32764,63084,27973
32924,63037,27919
33232,62964,27684
33020,62972,27887
33045,63013,27801
32908,63031,27489
32873,63111,27768
32752,63143,27740
32698,63135,27428
32792,63109,27783
33022,63044,27724
33128,63005,27671
33088,62949,27461
32764,62926,27743
32568,62975,27652
32628,63005,27460
32864,63052,27751
32962,63111,27655
32868,63060,27559
32997,63047,27650
32880,62941,27737
32892,62951,27709
32776,62815,27456
33045,62911,27853
33172,62855,27873
32836,62978,27798
32744,63028,27622
32736,63063,27861
32660,63055,28007
32864,63012,27999
32976,62941,28020
32840,62895,27879
32947,62874,28184
32940,62864,28225
32952,62908,28222
32920,62876,28292
32896,62919,28356
32712,63015,28122
32829,63007,28461
32716,62983,28513
32672,62927,28606
32832,62879,28535
32804,62847,28355
32732,62744,28801
32672,62855,28817
32492,62895,28800
32652,62908,28599
32556,62983,29020
32569,62979,29060
32632,62940,29081
32736,62903,28941
32876,62748,29273
32904,62789,29304
32940,62791,29006
32900,62816,29402
32900,62812,29439
32952,62916,29213
32596,62864,29604
32552,62945,29614
32540,62903,29525
32600,62855,29700
32712,62727,29806
32920,62766,29825
33000,62756,29825
33036,62807,29937
32869,62791,29973
32714,62869,29818
32708,62903,30037
32668,62882,30178
32653,62883,30256
32720,62727,30252
32764,62767,30095
32864,62717,30444
32817,62655,30414
32740,62740,30471
32892,62807,30553
32869,62749,30549
32736,62868,30374
32756,62879,30700
32828,62831,30687
32824,62744,30670
32916,62725,30528
32820,62639,30890
32816,62683,30920
32830,62701,30925
32836,62727,30703
32736,62741,30956
32808,62836,31044
32692,62800,31116
32740,62796,31149
32820,62719,31169
32832,62700,30903
32852,62655,31305
32792,62649,31298
32772,62695,31272
32765,62721,31109
32736,62773,31421
32765,62809,31442
32740,62727,31170
32740,62781,31532
32729,62705,31501
32864,62636,31623
32888,62618,31684
