ECG,EDA,RR
32839,45413,28724
32789,45471,28648
32748,45476,28593
32784,45469,28618
32812,45434,28294
32864,45319,28292
32932,45319,28295
32952,45293,28196
32964,45312,27937
32908,45359,27950
32868,45407,27897
32841,45428,27956
32808,45479,27836
32824,45423,27511
32864,45355,27463
32898,45372,27477
32945,45311,27383
32948,45293,27338
32957,45311,27172
32908,45349,27103
32844,45393,27044
32812,45444,27036
32820,45471,26900
32860,45445,26863
32912,45415,26604
32974,45352,26654
33008,45295,26644
33028,45277,26356
33008,45293,26417
32964,45343,26342
32917,45388,26280
32836,45447,26051
32812,45409,26072
32860,45388,25978
32913,45399,25923
32992,45351,25916
33040,45311,25695
33080,45276,25500
33096,45239,25564
33040,45341,25471
32980,45383,25488
32945,45423,25188
32880,45461,25083
32924,45423,25132
32957,45399,25056
33020,45351,25067
33048,45292,24799
33092,45257,24627
33064,45300,24576
33020,45341,24589
32968,45389,24477
32952,45420,24476
32892,45444,24276
32916,45431,24217
32964,45399,24125
33016,45351,24031
33056,45292,23836
33112,45274,23841
33104,45249,23777
33052,45351,23652
32976,45383,23484
32920,45433,23472
32900,45449,23455
32928,45383,23141
32932,45397,23189
32969,45348,23111
33013,45287,23014
33024,45277,22924
32984,45300,22845
32956,45351,22769
32896,45349,22780
32844,45399,22469
32784,45402,22439
32800,45439,22455
32812,45351,22367
32873,45302,22293
32932,45297,22218
32980,45283,22224
32966,45302,22148
32922,45353,21844
32824,45396,21798
32769,45469,21770
32752,45463,21717
32746,45397,21668
32780,45370,21657
32812,45348,21570
32857,45277,21533
32876,45247,21534
32900,45319,21258
32908,45361,21327
32888,45405,21300
32856,45469,21283
32805,45479,21184
32844,45452,21029
32868,45408,21108
32916,45367,21092
32960,45319,21088
32984,45319,20960
32928,45316,20940
32892,45383,20921
32864,45413,20967
32804,45445,20745
32756,45489,20854
32780,45485,20829
32852,45439,20911
32900,45392,20649
32972,45342,20773
32992,45319,20759
32974,45337,20748
32934,45387,20759
32848,45429,20815
32804,45501,20557
32732,45452,20697
32764,45429,20685
32804,45444,20710
32832,45409,20624
32900,45350,20519
32938,45350,20645
32932,45364,20652
32852,45412,20756
32772,45439,20503
32712,45520,20509
32720,45540,20529
32780,45517,20672
32824,45479,20658
32876,45429,20679
32893,45372,20693
32934,45351,20731
32968,45383,20530
32908,45431,20551
32876,45484,20703
32856,45541,20688
32848,45511,20711
32852,45481,20566
32876,45497,20713
32905,45447,20732
32956,45391,20736
32936,45380,20818
32900,45423,20800
32812,45465,20618
32710,45523,20701
32648,45547,20783
32604,45588,20811
32580,45575,20649
32540,45533,20811
32424,45495,20803
32232,45447,20925
31890,45380,20721
31356,45471,20831
30808,45518,20843
30324,45570,20909
29912,45655,20811
29596,45601,20852
29344,45636,20848
29145,45607,20731
28960,45575,20850
28841,45517,20709
28892,45549,20869
29105,45568,20879
29488,45613,20876
30240,45676,20868
31208,45751,20856
32492,45759,20871
33929,45703,20916
34908,45687,20771
35340,45639,20876
35220,45575,20750
34892,45567,20901
34524,45621,20935
34188,45677,20877
33864,45704,20893
33516,45773,20758
33255,45781,20921
33144,45703,20908
33108,45725,20771
33142,45679,20901
33248,45631,20901
33284,45639,20929
33280,45670,20903
33240,45701,20836
33212,45703,20911
33140,45819,20922
33124,45831,20916
33162,45815,20980
33217,45775,20948
33256,45735,20987
33268,45640,20778
33268,45686,20940
33212,45725,21048
33181,45770,20892
33121,45831,21025
33036,45863,20920
32956,45860,20948
32974,45877,20796
33013,45831,20951
33052,45799,20791
33068,45751,20933
33060,45748,20948
33004,45727,20787
32994,45847,20930
32928,45876,20779
32857,45924,20908
32800,45959,20794
32826,45940,20894
32868,45919,20987
32916,45869,20837
32941,45821,20918
32968,45823,20782
32888,45839,20913
32789,45855,20942
32748,45973,20887
32708,46032,20892
32704,46052,20727
32712,46012,20860
32754,45991,20915
32749,45945,20863
32804,45855,20944
32816,45829,20713
32741,45924,20885
32684,45988,20716
32604,46043,20865
32544,46087,20862
32506,46101,20900
32532,46087,20801
32566,46059,20847
32620,45999,20757
32692,45967,20826
32688,45958,20782
32656,46021,20813
32600,46056,20890
32520,46127,20658
32440,46183,20786
32389,46197,20655
32386,46106,20749
32429,46127,20781
32464,46087,20577
32528,46037,20689
32541,46045,20759
32484,46084,20501
32404,46148,20623
32340,46124,20689
32320,46207,20428
32293,46257,20520
32312,46237,20533
32364,46188,20453
32392,46157,20484
32436,46121,20516
32424,46125,20297
32372,46167,20417
32296,46211,20444
32256,46228,20493
32232,46333,20401
32188,46328,20447
32236,46315,20382
32304,46271,20353
32324,46231,20436
32380,46199,20292
32368,46207,20416
32328,46236,20152
32288,46291,20311
32248,46295,20305
32180,46328,20157
32200,46343,20318
32252,46333,20304
32284,46343,20251
32301,46311,20303
32364,46268,20338
32400,46277,20142
32381,46308,20325
32328,46324,20319
32317,46359,20312
32320,46470,20342
32296,46471,20188
32320,46449,20302
32372,46419,20161
32460,46367,20339
32536,46337,20312
32544,46324,20308
32480,46373,20260
32476,46428,20332
32477,46492,20364
32445,46543,20336
32440,46546,20271
32488,46531,20393
32580,46485,20396
32676,46447,20359
32712,46404,20429
32781,46412,20549
32801,46396,20479
32792,46492,20503
32768,46561,20375
32800,46598,20535
32842,46599,20581
32896,46578,20567
32968,46551,20641
33046,46471,20593
33125,46464,20649
33173,46468,20580
33156,46508,20671
33128,46564,20703
33120,46561,20548
33120,46669,20725
33112,46666,20754
33164,46650,20791
33240,46547,20896
33340,46564,20836
33388,46521,20941
33384,46517,20876
33352,46572,20975
33312,46623,20791
33252,46681,20946
33220,46727,21052
33212,46740,20827
33237,46655,21033
33308,46668,20882
33372,46608,21075
33432,46578,21041
33412,46572,21121
33368,46629,21221
33345,46654,20996
33280,46727,21205
33244,46799,21289
33272,46789,21141
33304,46759,21263
33336,46687,21147
33357,46642,21343
33352,46637,21435
33384,46637,21368
33352,46695,21433
33324,46727,21340
33272,46796,21545
33228,46813,21367
33216,46799,21527
33244,46813,21542
33294,46775,21578
33345,46727,21578
33368,46679,21646
33404,46645,21676
33312,46686,21681
33244,46788,21749
33168,46849,21624
33124,46893,21821
33124,46876,21965
33168,46855,21843
33210,46823,21933
33248,46727,21829
33300,46671,22039
33308,46751,22039
33252,46726,22095
33229,46791,22159
33208,46879,22023
33156,46911,22230
33120,46935,22301
33132,46911,22157
33160,46865,22343
33210,46821,22433
33221,46775,22264
33220,46759,22454
33212,46775,22439
33136,46893,22516
33076,46935,22532
33044,46919,22692
33040,46918,22492
33100,46887,22650
33148,46853,22767
33184,46855,22598
33200,46828,22759
33220,46831,22868
33114,46861,22791
33064,46872,22845
33068,46919,22901
33048,46951,23028
33068,47031,22821
33092,46964,23001
33116,46940,23046
33148,46909,23186
33220,46855,22955
33212,46871,23149
33180,46913,23215
33125,46957,23175
33100,47015,23103
33054,47055,23265
33040,47065,23317
33073,47015,23340
33124,46976,23463
33216,46937,23260
33216,46906,23444
33232,46853,23474
33225,46885,23607
33159,46951,23421
33120,47065,23548
33036,47111,23671
33048,47024,23449
33076,47005,23644
33124,46979,23652
33152,46967,23641
33212,46937,23681
33208,46948,23742
33180,46977,23773
33143,47029,23756
33057,47081,23806
33009,47122,23911
32992,47111,23833
33057,47093,23930
33116,47052,23764
33156,46996,23940
33160,46971,23983
33153,46964,24044
33140,47013,23874
33105,47065,24031
33053,47119,24053
33028,47103,24105
33020,47148,24038
33061,47108,24117
33108,47071,24217
33172,47024,24043
33188,46999,24149
33164,47015,24217
33085,46983,24135
33064,47095,24205
33039,47149,24206
33016,47183,24232
33004,47181,24272
33013,47135,24100
33056,47097,24263
33072,47053,24281
33100,47011,24116
33100,47027,24273
33068,47061,24276
33022,47111,24326
32978,47159,24157
32912,47204,24281
32964,47215,24342
33028,47165,24285
33080,47111,24114
33153,47077,24264
33216,47047,24252
33248,47047,24297
33220,47029,24199
33173,47151,24234
33136,47207,24276
33053,47227,24175
33032,47175,24136
33056,47159,24201
33072,47099,24205
33124,47072,24085
33168,46983,24184
33196,47015,24240
33156,47051,24029
33076,47131,24166
32973,47229,24155
32900,47269,24167
32912,47260,24101
32981,47207,23998
33064,47173,24093
33128,47132,23929
33156,47089,24071
33126,47093,24020
33092,47084,24028
33024,47191,23854
32980,47255,24005
32908,47269,24049
32952,47261,23821
33002,47236,23940
33044,47191,23947
33056,47127,23877
33096,47111,23790
33100,47111,23852
33080,47167,23825
33036,47213,23660
32997,47263,23780
32992,47300,23820
32996,47284,23714
33040,47247,23725
33097,47205,23697
33113,47147,23652
33137,47111,23521
33160,47132,23621
33132,47178,23705
33088,47223,23473
33044,47269,23557
32992,47319,23634
33021,47308,23500
33056,47263,23484
33120,47231,23528
33158,47158,23435
33188,47079,23460
33184,47155,23254
33112,47199,23370
33056,47239,23421
33044,47301,23177
32992,47335,23309
33058,47310,23335
33080,47279,23123
33104,47239,23236
33168,47185,23258
33176,47159,23157
33144,47173,23170
33084,47211,22975
33036,47260,23104
32992,47334,23094
32964,47351,23141
32992,47327,22878
33046,47303,22918
33060,47239,23000
33092,47143,22985
33156,47188,22951
33127,47189,23022
33118,47239,22868
33061,47279,22759
32992,47337,22862
32984,47366,22830
33013,47348,22904
33021,47316,22663
33068,47271,22775
33084,47215,22761
33104,47181,22820
33116,47197,22541
33028,47220,22677
32932,47295,22653
32812,47355,22675
32728,47380,22457
32724,47367,22593
32720,47320,22657
32664,47239,22398
32536,47160,22513
32365,47199,22492
32029,47229,22418
31560,47276,22460
31020,47316,22433
30518,47383,22243
30096,47405,22367
29764,47388,22381
29536,47367,22436
29336,47319,22180
29220,47285,22300
29020,47229,22327
28964,47295,22321
29084,47296,22399
29420,47367,22142
30116,47441,22277
30968,47407,22267
32120,47404,22260
33552,47427,22260
34660,47367,22228
35208,47310,22332
35156,47297,22169
34840,47311,22042
34480,47293,22071
34142,47392,22193
33808,47453,22210
33504,47471,22104
33224,47444,22169
33064,47419,22151
32993,47367,22245
32936,47321,22011
32977,47221,22144
32948,47247,22189
32940,47342,21989
32876,47357,22136
32841,47455,22149
32836,47471,22213
32864,47463,22138
32932,47421,22022
33004,47367,22189
33048,47304,22198
33076,47279,22277
33045,47317,22015
32988,47348,22180
32944,47357,22194
32904,47461,22281
32864,47476,22109
32837,47463,22223
32860,47425,22247
32852,47383,22283
32869,47316,22079
32876,47308,22252
32904,47331,22326
32872,47343,22109
32816,47413,22287
32752,47481,22302
32720,47495,22410
32724,47493,22379
32781,47453,22190
32805,47350,22212
32872,47277,22376
32900,47268,22410
32860,47344,22487
32809,47391,22274
32796,47452,22444
32708,47511,22509
32670,47533,22393
32693,47520,22509
32744,47465,22579
32768,47421,22450
32832,47367,22615
32817,47350,22452
32832,47319,22672
32760,47425,22668
32688,47471,22720
32640,47529,22669
32636,47515,22788
32692,47540,22932
32756,47493,22716
32808,47460,22930
32846,47407,22991
32840,47360,22996
32806,47409,23036
32760,47463,23106
32740,47511,22958
32680,47568,23146
32634,47566,23191
32652,47577,23323
32740,47539,23094
32780,47479,23194
32814,47367,23331
32812,47420,23461
32789,47439,23269
32724,47492,23428
32636,47481,23520
32600,47596,23399
32548,47620,23533
32562,47598,23661
32620,47559,23455
32669,47525,23637
32688,47479,23775
32708,47459,23557
32662,47469,23687
32604,47525,23796
32572,47552,23873
32492,47623,23837
32460,47615,23891
32460,47621,23938
32496,47607,23928
32560,47548,23884
32552,47513,24052
32570,47493,24084
32560,47521,24214
32508,47568,23975
32448,47597,24049
32420,47668,24210
32428,47701,24236
32405,47669,24303
32468,47645,24317
32508,47596,24190
32558,47555,24364
32574,47534,24384
32550,47487,24507
32476,47546,24275
32420,47661,24454
32400,47703,24589
32400,47748,24343
32434,47715,24537
32489,47680,24550
32524,47622,24644
32570,47594,24427
32612,47574,24553
32584,47546,24601
32540,47574,24703
32485,47700,24621
32424,47764,24663
32436,47780,24736
32476,47767,24540
32560,47725,24713
32652,47681,24708
32708,47639,24740
32808,47613,24593
32816,47636,24766
32780,47695,24772
32776,47740,24831
32776,47804,24642
32808,47812,24831
32825,47805,24839
32924,47767,24660
32981,47733,24852
33044,47680,24886
33096,47661,24853
33084,47623,24889
33063,47740,24947
33029,47783,24878
32984,47857,24924
33024,47873,24760
33093,47845,24927
33121,47815,24775
33156,47775,24948
33277,47709,24964
33300,47717,24947
33316,47727,24803
33273,47789,24832
33236,47781,24964
33180,47903,24820
33152,47903,24970
33188,47895,24860
33272,47788,25073
33324,47812,24945
33376,47751,24968
33396,47748,24877
33373,47766,25068
33336,47828,24842
33256,47863,24950
33196,47908,24863
33172,47911,24952
33204,47936,24928
33268,47878,24959
33324,47855,25045
33369,47797,24900
33404,47783,24987
33396,47813,24839
33376,47877,24920
33320,47927,24740
33284,47911,24918
33288,47995,24924
33324,47975,24796
33348,47933,24896
33388,47879,24904
33420,47845,24719
33445,47841,24873
33405,47862,24884
33356,47849,24763
33288,47961,24852
33229,48024,24714
33208,48044,24865
33228,48036,24737
33240,47917,24868
33284,47940,24716
33284,47897,24918
33312,47879,24767
33306,47916,24857
33252,47902,24703
33184,48021,24861
33124,48095,24703
33116,48088,24857
33120,48047,24908
33128,48039,24861
33164,47988,24833
33165,47947,24865
33204,47879,24854
33182,47972,24858
33133,48023,24920
33077,48071,24865
33012,48135,24932
32997,48159,24696
33056,48120,24884
33100,48084,24905
33156,48044,24729
33236,48007,24878
33292,47969,24945
33260,47964,24788
33188,48085,24890
33112,48135,24967
33040,48199,24750
33004,48210,24903
33032,48189,24908
33052,48135,24745
33104,48100,24932
33128,47996,24997
33136,47997,24829
33085,48090,24957
33016,48135,24792
32944,48196,24929
32904,48180,24784
32842,48261,24942
32856,48251,24919
32913,48204,24949
32976,48124,24979
33047,48070,24839
33060,48103,24994
33021,48127,24862
33006,48199,24960
32964,48247,24857
32900,48285,25079
32873,48335,24993
32920,48303,25056
32988,48260,24885
33032,48220,25004
33104,48164,24887
33112,48175,25031
33098,48173,24871
33024,48245,25052
33000,48324,25095
32932,48383,25009
32912,48377,25058
32972,48359,25033
33038,48319,25084
33088,48295,25120
33132,48223,24974
33140,48239,25134
33108,48263,25001
33076,48333,25174
33004,48343,25224
32992,48447,25077
32945,48455,25230
32960,48421,25299
33020,48386,25127
33068,48338,25282
33109,48300,25304
33156,48292,25328
33149,48343,25359
33084,48388,25362
33036,48447,25417
32968,48504,25284
32924,48455,25418
32964,48495,25476
33025,48453,25330
33084,48410,25492
33124,48357,25593
33150,48367,25398
33124,48391,25551
33100,48445,25635
33048,48517,25460
33004,48558,25637
33008,48575,25650
33009,48556,25535
33056,48533,25693
33104,48468,25796
33189,48377,25745
33156,48440,25820
33144,48479,25638
33100,48492,25829
33024,48597,25886
33028,48645,25793
33009,48647,25911
33036,48631,25956
33082,48519,25805
33088,48551,25986
33148,48497,26050
33172,48501,25943
33132,48545,26061
33100,48599,26188
33056,48675,26085
32988,48647,26168
32948,48717,26013
33008,48703,26201
33032,48647,26257
33094,48616,26119
33120,48515,26268
33140,48583,26271
33121,48628,26215
33069,48676,26359
33044,48709,26469
33004,48799,26295
32972,48804,26424
32996,48711,26287
33020,48734,26487
33028,48703,26485
33056,48595,26616
33065,48663,26457
33048,48709,26605
33024,48763,26716
32996,48821,26492
32960,48871,26692
32988,48871,26808
33021,48863,26628
33084,48808,26771
33128,48775,26797
33150,48720,26846
33160,48748,26801
33126,48797,26920
33048,48765,26843
33020,48893,26937
32972,48951,27059
32948,48940,26915
32940,48943,27036
32965,48901,26886
33026,48869,27072
33076,48813,27161
33060,48825,26951
33031,48841,27159
33008,48903,27127
32980,48972,27222
32932,49023,27282
32876,49053,27119
32900,48998,27310
32968,48903,27395
32992,48943,27215
33063,48891,27398
33072,48896,27463
33056,48903,27369
32992,49007,27504
32956,49061,27361
32917,49108,27541
32920,49125,27540
32932,49109,27572
32981,49055,27674
33016,49015,27500
33084,48976,27691
33104,48933,27828
33044,49031,27627
33008,49088,27788
32956,49148,27830
32888,49199,27669
32912,49209,27855
32960,49202,28004
33000,49084,27847
33056,49111,27945
33124,49075,28094
33136,49079,27841
33073,49119,28025
33018,49184,28134
32932,49247,27976
32884,49293,28129
32840,49313,28182
32836,49281,28143
32836,49212,28225
32852,49199,28279
32860,49159,28167
32856,49159,28316
32756,49217,28377
32540,49277,28377
32328,49335,28270
32037,49343,28469
31621,49332,28359
31140,49373,28557
30680,49339,28438
30258,49300,28597
29892,49207,28641
29516,49243,28676
29188,49263,28659
28940,49331,28740
28736,49466,28839
28668,49533,28660
28864,49535,28857
29376,49526,28839
30264,49485,28935
31252,49448,29098
32440,49404,28880
33804,49415,29060
34880,49439,29117
35444,49519,29057
35428,49581,29178
35040,49636,29191
34712,49644,29220
34472,49615,29308
34272,49534,29239
34004,49446,29380
33804,49445,29417
33604,49488,29567
33416,49536,29513
33308,49613,29626
33304,49604,29543
33284,49660,29637
33264,49725,29576
33326,49693,29719
33368,49623,29872
33404,49601,29654
33440,49583,29774
33428,49583,29873
33404,49565,29980
33344,49692,29837
33262,49756,30010
33200,49793,30116
33192,49812,30020
33216,49773,30146
33260,49751,30256
33316,49707,30066
33348,49671,30213
33348,49664,30285
33324,49652,30372
33248,49788,30380
33165,49841,30468
33076,49895,30369
33040,49903,30439
33076,49879,30493
33132,49839,30571
33204,49799,30420
33244,49774,30600
33236,49781,30522
33224,49831,30659
33180,49895,30686
33108,49959,30846
33036,50020,30609
33016,50023,30796
33024,49991,30811
33088,49967,30716
33092,49922,30891
33125,49853,30943
33156,49916,30871
33116,49959,30949
33030,50020,31095
32948,50054,30940
32941,50052,31122
32932,50055,31151
32960,50119,31169
33000,50075,31137
33048,50037,31237
33089,49999,31161
33100,50023,31324
33084,50079,31439
33016,50130,31263
32996,50165,31408
32952,50257,31429
32936,50181,31473
32960,50230,31561
32968,50207,31412
32996,50157,31540
33045,50141,31624
32988,50159,31458
32912,50221,31605
32864,50279,31742
32816,50337,31529
32760,50375,31652
32748,50405,31821
32796,50384,31570
32850,50332,31745
32888,50298,31751
32920,50279,31679
32885,50311,31780
32820,50367,31840
32776,50416,31672
32688,50471,31821
32640,50535,31910
32664,50535,31732
32672,50458,31869
32692,50412,31975
32728,50439,31820
32760,50433,31927
32717,50444,32052
32664,50503,31922
32596,50565,31885
32532,50631,31999
32561,50695,32019
32544,50695,32156
32580,50668,31965
32660,50644,32088
32710,50598,32108
32756,50583,32142
32732,50601,32004
32724,50661,32180
32648,50727,32292
32609,50785,32090
32596,50831,32204
32568,50870,32349
32572,50823,32103
32694,50814,32259
32736,50775,32279
32836,50764,32172
32885,50791,32213
32864,50837,32293
32812,50836,32427
32768,50960,32191
32688,51029,32359
32714,51020,32361
32740,51021,32263
32772,50992,32388
32800,50951,32452
32857,50869,32455
32896,50975,32415
32837,50951,32424
32832,51079,32439
32782,51163,32476
32760,51207,32423
32792,51239,32468
32864,51207,32489
32960,51179,32502
33056,51153,32539
33125,51087,32388
33152,51127,32492
33126,51159,32546
33084,51255,32678
33072,51298,32460
33048,51389,32559
33140,51367,32620
33233,51359,32770
33350,51380,32548
33445,51335,32663
33524,51335,32719
33508,51355,32592
33452,51419,32660
33415,51481,32711
33392,51567,32812
33332,51612,32796
33344,51623,32617
33412,51623,32768
33472,51591,32756
33564,51512,32815
33605,51477,32932
33645,51525,32752
33598,51600,32702
33508,51639,32863
33480,51719,32841
33440,51780,32980
33454,51839,32739
33480,51815,32871
33488,51788,32908
33544,51764,32920
33612,51765,32879
33601,51751,32839
33496,51783,32937
33409,51876,32974
33328,51924,32975
33286,52021,32994
33288,52004,33157
33364,52053,32925
33461,52024,33021
33540,51991,33161
33572,51964,32958
33508,52028,32996
33428,52087,33056
33350,52071,33061
33284,52253,32981
33284,52295,33081
33312,52296,33221
33368,52292,32958
33388,52277,33129
33376,52231,33173
33420,52156,33072
33445,52196,33047
33413,52340,33137
33412,52396,33193
33378,52487,33013
33320,52548,33150
33358,52564,33272
33376,52548,33063
33389,52521,33153
33452,52477,33300
33488,52436,33031
33516,52531,33148
33480,52582,33183
33412,52669,33149
33340,52732,33223
33264,52799,33047
33260,52826,33165
33320,52756,32978
33336,52767,32985
33408,52743,33113
33418,52743,33117
33372,52782,33015
33304,52866,33063
33276,52911,33089
33268,52999,32875
33244,53056,33049
33240,53077,33016
33268,53063,33092
33320,53008,32838
33398,53015,32996
33437,52941,32998
33428,53053,32823
33384,53127,32949
33320,53151,33057
33319,53204,32780
33300,53343,32926
33316,53359,32900
33400,53343,32927
33412,53314,32903
33428,53281,32743
33476,53295,32750
33465,53326,32851
33400,53405,32841
33325,53485,32837
33272,53564,32831
33240,53596,32695
33216,53639,32805
33220,53581,32704
33253,53550,32739
33316,53535,32775
33348,53572,32641
33336,53639,32768
33301,53700,32764
33269,53783,32807
33240,53862,32679
33197,53925,32621
33204,53935,32754
33232,53927,32820
33304,53917,32644
33332,53881,32754
33354,53895,32572
33349,53924,32708
33344,54013,32761
33312,54092,32810
33260,54173,32716
33244,54237,32760
33228,54248,32761
33248,54183,32712
33279,54159,32775
33276,54196,32873
33328,54186,32597
33300,54245,32764
33288,54321,32787
33228,54407,32876
33220,54407,32646
33156,54555,32817
33181,54551,32900
33241,54565,32706
33270,54449,32833
33344,54511,32798
33404,54517,32730
33444,54491,32849
33432,54644,32935
33353,54727,32687
33316,54791,32825
33320,54852,32884
33302,54860,32916
33304,54879,32880
33348,54839,32768
33324,54791,32911
33325,54830,32920
33260,54812,33031
33208,54972,32921
33150,55023,32796
33140,55099,32965
33112,55196,32959
33120,55157,32989
33196,55205,32956
33248,55175,32989
33288,55172,32887
33336,55165,33015
33332,55227,33086
33304,55292,32892
33248,55367,33047
33180,55407,33094
33177,55535,32855
33168,55551,33068
33212,55535,33088
33220,55516,33031
33204,55487,33077
33260,55510,33070
33312,55572,32901
33344,55663,33086
33309,55637,33129
33280,55810,32927
33253,55844,33117
33296,55892,33117
33284,55845,33023
33312,55868,33132
33344,55839,33199
33364,55815,32956
33356,55920,33146
33308,55967,33192
33233,55989,32949
33212,56167,33153
33157,56224,33224
33196,56248,33047
33236,56231,33172
33296,56228,33152
33340,56199,33254
33316,56199,33051
33344,56197,33182
33340,56292,33177
33321,56431,33115
33281,56447,33021
33273,56484,33177
33242,56578,33167
33316,56583,33084
33352,56564,33204
33397,56565,33252
33456,56551,33054
33458,56548,33200
33452,56704,33227
33452,56795,33017
33430,56903,33212
33400,56935,33194
33380,56948,33277
33440,56943,33020
33468,56949,33209
33516,56919,33185
33500,56941,33230
33492,57002,33141
33460,57023,33132
33400,57079,33198
33372,57179,33169
33349,57309,33247
33376,57309,33052
33422,57303,33005
33472,57268,33189
33504,57287,33157
33520,57303,33143
33504,57351,33219
33384,57447,33009
33320,57471,33127
33256,57543,33109
33220,57605,33196
33244,57605,32986
33218,57676,33109
33268,57663,33173
33324,57650,32913
33316,57679,33049
33184,57735,33089
32956,57813,33140
32720,57913,32901
32328,58005,33073
31844,58040,33039
31292,58071,33057
30809,58060,33102
30345,58047,32857
29949,58047,32937
29449,58083,32966
29004,58149,32989
28660,58240,32760
28456,58333,32892
28448,58368,32951
28736,58469,32924
29216,58490,32938
30140,58468,32829
31248,58503,32837
32764,58462,32876
34337,58471,32913
35572,58493,32733
36221,58631,32837
36176,58631,32823
35840,58823,32887
35452,58868,32676
35152,58871,32831
34860,58855,32805
34600,58847,32749
34316,58837,32812
34028,58836,32731
33808,58909,32796
33688,59007,32813
33656,59079,32629
33644,59202,32774
33655,59239,32585
33688,59169,32805
33708,59231,32771
33724,59229,32671
33740,59204,32798
33740,59223,32736
33669,59301,32790
33640,59397,32820
33612,59431,32717
33556,59559,32812
33524,59596,32543
33521,59612,32820
33520,59591,32833
33532,59527,32759
33528,59575,32804
33520,59525,32793
33500,59616,32767
33414,59744,32820
33336,59834,32791
33308,59911,32764
33266,59956,32775
33300,60013,32845
33316,59999,32847
33361,59983,32764
33424,59953,32790
33437,59911,32689
33448,60039,32801
33412,60143,32807
33316,60228,32532
33240,60252,32812
33166,60367,32716
33128,60380,32772
33108,60360,32837
33145,60351,32869
33216,60328,32647
33244,60373,32832
33232,60423,32870
33184,60535,32646
33144,60505,32844
33061,60707,32876
33080,60742,32687
33092,60771,32840
33104,60756,32837
33108,60737,32909
33152,60727,32766
33166,60711,32584
33140,60807,32700
33094,60916,32850
33036,60993,32803
32928,61109,32757
32816,61135,32750
32765,61143,32781
32793,61133,32480
32821,61119,32769
32836,61111,32736
32868,61132,32688
32850,61112,32669
32852,61282,32725
32772,61319,32703
32724,61447,32411
32737,61508,32604
32788,61524,32663
32816,61525,32676
32800,61511,32501
32741,61501,32576
32764,61535,32541
32752,61599,32428
32704,61677,32359
32633,61767,32516
32602,61798,32519
32612,61807,32304
32632,61895,32478
32677,61890,32479
32652,61877,32208
32620,61863,32383
32588,61894,32348
32529,61959,32305
32448,62055,32070
32416,62135,32248
32392,62231,32277
32392,62263,32197
32416,62279,32156
32484,62278,32192
32544,62215,32084
32548,62247,32073
32496,62271,32108
32424,62343,32135
32369,62420,32123
32384,62524,31793
32340,62599,32021
32316,62660,31999
32286,62663,31716
32328,62650,31911
32336,62641,31937
32380,62617,31530
32396,62632,31839
32368,62677,31792
32260,62800,31833
32228,62888,31442
32232,62982,31693
32259,63013,31695
32324,62935,31564
32420,63031,31550
32512,62983,31599
32596,62917,31270
32644,62960,31495
32657,63084,31474
32677,63174,31349
32681,63271,31412
32748,63337,31439
32760,63407,31224
32834,63348,31380
32949,63314,31232
33016,63367,31270
33132,63340,31300
33184,63383,31145
33196,63413,31261
33208,63543,31169
33184,63544,31063
33164,63653,31044
33168,63709,31092
33236,63679,31073
33312,63693,31125
33348,63663,30817
33381,63719,31017
33420,63751,30967
33364,63804,30851
33289,63896,30981
33233,63988,30869
33256,64044,30890
33280,64129,30943
33304,64044,30732
33345,64092,30829
33393,64080,30495
33440,64039,30841
33424,64108,30535
33396,64135,30765
33332,64172,30396
33288,64359,30695
33256,64412,30619
33280,64471,30621
33372,64461,30636
33461,64423,30334
33540,64447,30580
33592,64415,30377
33552,64463,30618
33548,64476,30207
33536,64623,30501
33408,64693,30561
33340,64788,30393
33268,64801,30460
33248,64821,30236
33273,64807,30462
33332,64797,30348
33405,64767,30381
33396,64825,30379
33348,64839,30288
33316,64919,30279
33312,65094,30372
33238,65220,30324
33181,65277,30277
33212,65252,30301
33200,65119,30097
33260,65224,30333
33316,65207,30205
33320,65244,30265
33277,65324,30313
33250,65431,30055
33192,65497,30248
33120,65535,30248
33096,65535,30181
33120,65535,30060
33164,65535,30217
33266,65535,30237
33278,65535,30212
33252,65535,30127
33208,65535,30300
33172,65535,30301
33140,65535,30025
33140,65535,30252
33143,65535,30311
33176,65535,30130
33212,65535,30245
33236,65535,30204
33268,65535,30237
33276,65535,30301
33253,65535,30148
33200,65535,30282
33140,65535,30247
33068,65535,30133
33036,65535,30272
33076,65535,30311
33136,65535,30324
33232,65535,30199
33285,65535,30375
33287,65535,30359
33241,65535,30121
33188,65535,30406
33124,65535,30330
33096,65535,30304
33060,65535,30420
33060,65535,30395
33120,65535,30448
33164,65535,30205
33183,65535,30433
33152,65535,30492
33096,65535,30152
33004,65535,30443
32940,65535,30510
32860,65535,30180
32852,65535,30410
32854,65535,30537
32932,65535,30607
33032,65535,30491
33112,65535,30594
33088,65535,30266
33024,65535,30541
33004,65535,30677
32996,65535,30582
32976,65535,30616
33045,65535,30719
33084,65535,30607
33096,65535,30753
33120,65535,30641
33200,65535,30788
33196,65535,30765
33161,65535,30710
33064,65535,30828
32928,65535,30772
32836,65535,30713
32817,65535,30865
32860,65535,30545
32989,65535,30861
33088,65535,30964
33164,65535,30823
33122,65535,30939
33108,65535,30884
33056,65535,30962
32985,65535,30658
32893,65535,31015
32884,65535,30708
32892,65535,31116
32992,65535,30847
33029,65535,31095
33041,65535,30775
32988,65535,31128
32896,65535,31150
32812,65535,31087
32744,65535,31181
32660,65535,31271
32636,65535,31052
32700,65535,31239
32790,65535,31300
32852,65535,31367
32957,65535,31070
33004,65535,31149
32964,65535,31351
32856,65535,31372
32749,65535,31373
32676,65535,31078
32684,65535,31332
32664,65535,31442
32673,65535,31483
32740,65535,31524
32856,65535,31256
32932,65535,31521
32956,65535,31607
32896,65535,31612
32768,65535,31583
32720,65535,31477
32758,65535,31647
32828,65535,31691
32912,65535,31637
32948,65535,31687
32952,65535,31809
32900,65535,31844
32836,65535,31489
32780,65535,31817
32722,65535,31851
32696,65535,31916
32669,65535,31575
32696,65535,31836
32740,65535,31972
32848,65535,32033
32941,65535,31951
32964,65535,31703
32920,65535,31918
32908,65535,32087
32820,65535,32101
32764,65535,32048
32744,65535,32129
32784,65535,32186
32815,65535,31975
32824,65535,32126
32820,65535,32222
32816,65535,32229
32809,65535,31933
32800,65535,32188
32764,65535,32356
32746,65535,32313
32712,65535,32285
32765,65535,32106
32808,65535,32327
32828,65535,32430
32832,65535,32352
32764,65535,32276
32736,65535,32476
32712,65535,32364
32708,65535,32325
32740,65535,32469
32840,65535,32415
32917,65535,32495
32968,65535,32534
32948,65535,32537
32910,65535,32231
32836,65535,32601
32740,65535,32539
32676,65535,32574
32590,65535,32602
32492,65535,32621
32484,65535,32655
32524,65535,32644
32600,65535,32596
32688,65535,32701
32696,65535,32740
32536,65535,32647
32288,65535,32661
31908,65535,32733
31317,65535,32711
30640,65535,32615
30048,65535,32783
29444,65535,32850
28940,65535,32476
28400,65535,32839
27808,65535,32871
27368,65535,32535
27048,65535,32884
26920,65535,32937
27033,65535,32708
27338,65535,32925
28021,65535,32965
29060,65535,32892
30540,65535,32895
32469,65535,33019
34301,65535,33020
35524,65535,32951
35824,65535,32953
35548,65535,33083
35048,65535,33056
34605,65535,32926
34324,65535,33089
34036,65535,33107
33757,65535,33055
33544,65535,33040
33388,65535,33177
33244,65535,33204
33161,65535,32893
33168,65535,33151
33157,65535,33144
33124,65535,33060
33168,65535,33173
33232,65535,33217
33264,65535,33111
33321,65535,33200
33340,65535,33213
33316,65535,32912
33296,65535,33244
33300,65535,32871
33272,65535,33189
33212,65535,33287
33176,65535,33300
33140,65535,33187
33090,65535,33241
33074,65535,33287
33076,65535,33263
33080,65535,33287
33088,65535,33260
33132,65535,33279
33152,65535,32893
33088,65535,33039
33076,65535,33213
33068,65535,33207
33060,65535,33272
33116,65535,33174
33140,65535,33076
33132,65535,33200
33065,65535,33207
33008,65535,33124
32991,65535,33007
32876,65535,33181
32836,65535,33183
32902,65535,33145
32964,65535,32977
32940,65535,33122
32910,65535,33180
32878,65535,33231
32840,65535,33181
32848,65535,33237
32880,65535,33085
32796,65535,32983
32792,65535,33150
32800,65535,33129
32816,65535,33090
32828,65535,33016
32842,65535,33104
32817,65535,33105
32796,65535,33020
32708,65535,32895
32620,65535,33017
32552,65535,33044
32484,65535,33078
32448,65535,32908
32500,65535,32925
32564,65535,32951
32624,65535,32654
32600,65535,32913
32576,65535,32901
32453,65535,32820
32389,65535,32733
32333,65535,32829
32304,65535,32796
32396,65535,32781
32445,65535,32692
32472,65535,32440
32506,65535,32580
32460,65535,32663
32397,65535,32645
32324,65535,32613
32202,65535,32387
32044,65535,32549
32020,65535,32540
32060,65535,32510
32136,65535,32421
32157,65535,32106
32196,65535,32343
32212,65535,32399
32186,65535,32292
32120,65535,32309
32088,65535,32348
32002,65535,32268
31924,65535,32108
31900,65535,32262
31913,65535,32225
31924,65535,32077
32020,65535,32116
32077,65535,32153
32081,65535,31837
31984,65535,32041
31930,65535,31652
31852,65535,31895
31832,65535,31971
31904,65535,31876
31968,65535,31556
32074,65535,31845
32121,65535,31849
32084,65535,31745
32012,65535,31694
31920,65535,31782
31840,65535,31703
31764,65535,31669
31722,65535,31612
31764,65535,31413
31884,65535,31573
32096,65535,31564
32304,65535,31565
32448,65535,31436
32452,65535,31333
32416,65535,31420
32336,65535,31409
32328,65535,31036
32440,65535,31268
32624,65535,31337
32761,65535,31325
32840,65535,31204
32893,65535,31174
32880,65535,30999
32860,65535,31171
32816,65535,31226
32840,65535,31037
32864,65535,31095
32937,65535,30745
33033,65535,31044
33064,65535,31042
33092,65535,30949
33212,65535,30966
33164,65535,31007
33164,65535,30935
33108,65535,30716
33064,65535,30892
33032,65535,30897
33080,65535,30837
33129,65535,30741
33157,65535,30737
33192,65535,30784
33204,65535,30829
33241,65535,30745
33212,65535,30793
33143,65535,30676
33108,65535,30364
33080,65535,30577
33084,65535,30695
33120,65535,30303
33188,65535,30599
33219,65535,30663
33172,65535,30327
33141,65535,30491
33133,65535,30522
33152,65535,30551
33144,65535,30471
33088,65535,30365
33068,65535,30471
33108,65535,30464
33164,65535,30109
33189,65535,30368
33209,65535,30442
33236,65535,30393
33173,65535,30260
33132,65535,30376
33056,65535,30324
33000,65535,30295
32968,65535,30132
32996,65535,30279
32982,65535,30270
33028,65535,30185
33037,65535,30135
33066,65535,30268
33020,65535,30147
32888,65535,30192
32834,65535,30180
32893,65535,29873
32982,65535,30153
33036,65535,30188
33088,65535,29933
33132,65535,30155
33177,65535,30152
33236,65535,29879
33176,65535,30087
33028,65535,30108
32881,65535,30015
32792,65535,29924
32814,65535,30103
32840,65535,29759
32852,65535,30034
32860,65535,30079
32828,65535,29916
32792,65535,30084
32716,65535,29695
32752,65535,29996
32844,65535,30065
32929,65535,29961
32981,65535,29992
32945,65535,29993
32974,65535,29788
32948,65535,30045
32924,65535,29932
32892,65535,29871
32901,65535,29976
32940,65535,29989
32928,65535,29947
32948,65535,29943
32924,65535,30004
32888,65535,29953
32796,65535,29989
32762,65535,30074
32776,65535,29807
32848,65535,30063
32884,65535,29964
32888,65535,30024
32828,65535,30029
32756,65535,29783
32768,65535,30079
32884,65535,30055
33012,65535,29722
33092,65535,29933
33100,65535,30060
33008,65535,30102
32864,65535,30105
32701,65535,29916
32664,65535,30164
32655,65535,29869
32736,65535,29965
32840,65535,30166
32873,65535,30165
32912,65535,29961
32864,65535,30152
32808,65535,30173
32744,65535,30236
32704,65535,30258
32748,65535,30153
32736,65535,30172
32752,65535,30108
32796,65535,30253
32864,65535,30264
32877,65535,30345
32924,65535,30247
32868,65535,30291
32824,65535,30329
32744,65535,30301
32668,65535,30236
32664,65535,30361
32724,65535,30303
32752,65535,30304
32768,65535,30388
32832,65535,30391
32724,65535,30469
32592,65535,30465
32516,65535,30521
32570,65535,30143
32624,65535,30471
32680,65535,30536
32736,65535,30552
32684,65535,30324
32660,65535,30556
32633,65535,30598
32596,65535,30637
32628,65535,30563
32660,65535,30298
32704,65535,30335
32654,65535,30460
32522,65535,30548
32509,65535,30603
32528,65535,30695
32632,65535,30773
32774,65535,30736
32864,65535,30509
32928,65535,30692
32884,65535,30822
32796,65535,30828
32664,65535,30740
32589,65535,30572
32652,65535,30807
32721,65535,30828
32826,65535,30882
32829,65535,30877
32802,65535,30854
32784,65535,30869
32728,65535,30893
32712,65535,30828
32732,65535,30835
32704,65535,30637
32696,65535,30780
32641,65535,30873
32640,65535,30912
32636,65535,30928
32685,65535,30941
32777,65535,31009
32784,65535,30901
32752,65535,30716
32704,65535,30936
32672,65535,30983
32614,65535,31007
32624,65535,30941
32613,65535,30784
32704,65535,30982
32792,65535,31087
32812,65535,31063
32764,65535,30893
32704,65535,31030
32588,65535,31107
32461,65535,31135
32524,65535,31127
32652,65535,30784
32782,65535,31077
32820,65535,31111
32780,65535,31075
32752,65535,30784
32703,65535,31047
32688,65535,31118
32628,65535,31178
32604,65535,31148
32564,65535,30913
32556,65535,31147
32512,65535,31194
32453,65535,31135
32420,65535,31036
32424,65535,31154
32440,65535,31175
32352,65535,31180
32168,65535,31111
31936,65535,30945
31512,65535,31174
30889,65535,31220
30188,65535,31198
29472,65535,31151
28888,65535,30932
28385,65535,31033
27776,65535,31159
27080,65535,31223
26484,65535,31117
26156,65535,31030
26320,65535,31135
26682,65535,31148
27188,65535,31184
28128,65535,31229
29556,65535,30919
31436,65535,31156
33412,65535,31186
34852,65535,31100
35676,65535,31026
35702,65535,31084
35384,65535,31145
35012,65535,31206
34680,65535,31167
34324,65535,31150
33944,65535,30908
33617,65535,30983
33265,65535,31044
32964,65535,31140
32808,65535,31212
32842,65535,31180
32941,65535,31106
32988,65535,30944
33092,65535,31152
33192,65535,31205
33300,65535,31223
33181,65535,30960
33032,65535,31178
32972,65535,31225
32910,65535,30852
32884,65535,31090
32900,65535,31164
32884,65535,31228
32972,65535,31217
33076,65535,31111
33168,65535,30951
33160,65535,31209
33120,65535,31201
33053,65535,30807
32920,65535,31119
32872,65535,31165
32860,65535,31214
32712,65535,30953
32736,65535,31144
32808,65535,31209
32942,65535,31173
33012,65535,31174
33020,65535,30992
32933,65535,31209
32832,65535,31116
32816,65535,31093
32816,65535,31176
32838,65535,31111
32828,65535,31172
32801,65535,31195
32708,65535,31135
32640,65535,31036
32668,65535,31207
32644,65535,31222
32612,65535,31252
32612,65535,31250
32664,65535,31210
32817,65535,30905
32784,65535,31108
32732,65535,31258
32700,65535,31319
32704,65535,31267
32710,65535,31282
32702,65535,31214
32600,65535,31156
32512,65535,31276
32536,65535,31337
32576,65535,31231
32624,65535,31068
32500,65535,31202
32460,65535,31239
32476,65535,31285
32364,65535,31306
32240,65535,31331
32140,65535,31337
32202,65535,31276
32308,65535,30999
32292,65535,31175
32222,65535,31333
32247,65535,31354
32172,65535,31413
32088,65535,31316
32189,65535,31268
32272,65535,31373
32208,65535,31430
32196,65535,31473
32097,65535,31358
32044,65535,31372
32080,65535,31089
32004,65535,31188
31854,65535,31150
31704,65535,31145
31712,65535,31420
31832,65535,31452
31900,65535,31170
31904,65535,31367
31912,65535,31494
31880,65535,31529
31744,65535,31549
31644,65535,31597
31688,65535,31569
31796,65535,31533
31846,65535,31320
31800,65535,31359
31724,65535,31516
31720,65535,31652
31673,65535,31620
31632,65535,31684
31676,65535,31677
31688,65535,31582
31692,65535,31429
31656,65535,31669
31704,65535,31709
31724,65535,31720
31652,65535,31735
31570,65535,31671
31685,65535,31452
31772,65535,31721
31896,65535,31816
31956,65535,31813
32032,65535,31718
32096,65535,31576
32207,65535,31731
32244,65535,31859
32360,65535,31852
32356,65535,31623
32404,65535,31891
32456,65535,31968
32497,65535,31967
32417,65535,31838
32576,65535,31974
32660,65535,32033
32704,65535,31797
32780,65535,32013
32756,65535,32053
32853,65535,32036
32900,65535,32094
32997,65535,32063
33213,65535,32084
33316,65535,32217
33304,65535,32191
33217,65535,32213
33176,65535,32036
33173,65535,32232
33297,65535,32269
33336,65535,32296
33389,65535,32356
33408,65535,32399
33428,65535,32308
33448,65535,32192
33556,65535,32409
33472,65535,32453
33317,65535,32508
33224,65535,32537
33168,65535,32461
33160,65535,32398
33188,65535,32492
33401,65535,32598
33399,65535,32630
33380,65535,32625
33228,65535,32412
33004,65535,32633
33070,65535,32725
33344,65535,32766
33495,65535,32792
33620,65535,32880
33652,65535,32825
33528,65535,32876
33397,65535,32964
33285,65535,32965
33296,65535,32886
33317,65535,32629
33336,65535,32927
33360,65535,33017
33277,65535,33053
33204,65535,33044
33156,65535,32799
33232,65535,33093
33292,65535,33225
33372,65535,33201
33308,65535,33160
33136,65535,33036
33070,65535,33285
33180,65535,33297
33164,65535,33018
33228,65535,33369
33096,65535,33440
32905,65535,33350
32669,65535,33261
32622,65535,33411
32862,65535,33532
33192,65535,33521
33352,65535,33548
33340,65535,33245
33316,65535,33522
33248,65535,33661
33084,65535,33668
33006,65535,33713
32993,65535,33693
33016,65535,33375
32992,65535,33479
32992,65535,33652
32972,65535,33786
32832,65535,33827
32797,65535,33879
32820,65535,33787
32888,65535,33633
32964,65535,33900
32908,65535,33963
32848,65535,33949
32737,65535,34028
32608,65535,33927
32840,65535,33780
33084,65535,33889
33040,65535,34054
33029,65535,34076
32981,65535,34103
33004,65535,34116
32920,65535,34181
32764,65535,34069
32604,65535,34068
32428,65535,34113
32252,65535,33871
32372,65535,34002
32685,65535,34146
33000,65535,34224
33105,65535,34293
33136,65535,34298
33100,65535,34015
33000,65535,34343
32796,65535,34392
32696,65535,34310
32661,65535,34360
32636,65535,34460
32582,65535,34500
32476,65535,34380
32294,65535,34215
32292,65535,34461
32220,65535,34549
32516,65535,34591
32809,65535,34635
32960,65535,34340
33016,65535,34605
32952,65535,34649
32762,65535,34671
32544,65535,34716
32472,65535,34367
32636,65535,34605
32828,65535,34751
32944,65535,34749
32921,65535,34701
32836,65535,34717
32688,65535,34805
32708,65535,34818
32664,65535,34921
32724,65535,34790
32856,65535,34549
32884,65535,34599
32813,65535,34647
32676,65535,34823
32556,65535,34932
32524,65535,34946
32400,65535,34997
32388,65535,35021
32544,65535,34999
32796,65535,35028
32812,65535,35053
32807,65535,34943
32592,65535,34863
32524,65535,35059
32516,65535,35103
32468,65535,35079
32540,65535,35140
32721,65535,35156
32752,65535,35183
32668,65535,35128
32496,65535,34818
32532,65535,35127
32553,65535,35207
32600,65535,35205
32672,65535,35263
32720,65535,34941
32584,65535,35194
32504,65535,35295
32528,65535,35284
32777,65535,35367
32924,65535,35281
32812,65535,35197
32804,65535,35300
32852,65535,35403
32744,65535,35415
32572,65535,35444
32544,65535,35116
32576,65535,35424
32448,65535,35521
32458,65535,35561
32472,65535,35556
32600,65535,35630
32816,65535,35519
32832,65535,35463
32741,65535,35674
32421,65535,35734
32252,65535,35780
32260,65535,35460
32444,65535,35793
32720,65535,35812
32568,65535,35732
32292,65535,35879
32416,65535,35911
32696,65535,35905
32984,65535,35735
33100,65535,35980
32908,65535,36048
32684,65535,36070
32426,65535,35844
32308,65535,36025
32484,65535,36164
32780,65535,36092
32860,65535,36053
32894,65535,36196
32844,65535,36221
32640,65535,36178
32320,65535,36180
32376,65535,36277
32376,65535,36303
32408,65535,36241
32480,65535,36231
32636,65535,36153
32822,65535,36393
32736,65535,36421
32548,65535,36432
32384,65535,36537
32285,65535,36255
32128,65535,36513
31936,65535,36581
31700,65535,36567
31273,65535,36612
30552,65535,36668
29760,65535,36463
29292,65535,36484
28893,65535,36405
28313,65535,36671
27480,65535,36749
26529,65535,36765
25833,65535,36729
25680,65535,36615
25900,65535,36841
26268,65535,36882
26804,65535,36558
27740,65535,36884
29364,65535,36977
31820,65535,36977
34048,65535,36916
35476,65535,37028
36000,65535,37075
35700,65535,36998
35044,65535,36996
34625,65535,37173
34332,65535,37184
33968,65535,37071
33604,65535,37252
33256,65535,37318
32964,65535,37304
32836,65535,37343
32765,65535,37221
32720,65535,37430
32593,65535,37465
32684,65535,37196
32928,65535,37527
32993,65535,37567
33068,65535,37649
33092,65535,37582
33053,65535,37344
33084,65535,37548
33120,65535,37735
33024,65535,37780
32784,65535,37716
32624,65535,37671
32656,65535,37663
32712,65535,37600
32780,65535,37804
32900,65535,37889
32672,65535,37962
32494,65535,37989
32560,65535,38031
32776,65535,38053
32940,65535,38094
33068,65535,38125
33044,65535,38201
33117,65535,38244
32989,65535,38254
32792,65535,38239
32516,65535,38204
32356,65535,38045
32313,65535,38193
32217,65535,38327
32262,65535,38351
32501,65535,38372
32852,65535,38407
33058,65535,38468
32828,65535,38460
32688,65535,38488
32380,65535,38474
32244,65535,38503
32356,65535,38257
32340,65535,38400
32365,65535,38511
32468,65535,38584
32697,65535,38656
32780,65535,38497
32732,65535,38340
32729,65535,38556
32644,65535,38604
32496,65535,38627
32340,65535,38623
32212,65535,38629
32134,65535,38661
32036,65535,38629
32160,65535,38663
32264,65535,38655
32308,65535,38669
32372,65535,38652
32268,65535,38513
32032,65535,38479
31888,65535,38497
31992,65535,38444
32220,65535,38501
32416,65535,38543
32460,65535,38556
32404,65535,38492
32412,65535,38463
32074,65535,38204
31952,65535,38316
31794,65535,38399
31622,65535,38420
31580,65535,38388
31660,65535,38455
31836,65535,38300
31901,65535,38341
31988,65535,38268
31952,65535,38148
31849,65535,38012
31892,65535,37989
31816,65535,38036
31900,65535,38180
31836,65535,38173
31632,65535,38117
31532,65535,38177
31427,65535,37967
31288,65535,37869
31348,65535,37884
31520,65535,37967
31580,65535,37928
31572,65535,37818
31676,65535,37846
31673,65535,37873
31385,65535,37789
31380,65535,37812
31592,65535,37827
31748,65535,37743
31840,65535,37460
31816,65535,37652
31622,65535,37695
31272,65535,37639
30988,65535,37647
30880,65535,37607
31432,65535,37561
32204,65535,37335
32604,65535,37444
32692,65535,37489
32636,65535,37468
32283,65535,37479
31948,65535,37365
31864,65535,37261
31988,65535,37321
32244,65535,37393
32472,65535,37340
32768,65535,37324
32960,65535,37332
33080,65535,37304
32973,65535,37334
32776,65535,37204
32608,65535,37069
32460,65535,37079
32592,65535,37168
32832,65535,37156
32948,65535,37141
33052,65535,37112
33148,65535,37117
33004,65535,37093
33172,65535,37036
33308,65535,37073
33512,65535,36935
33438,65535,36639
33341,65535,36785
33256,65535,36909
33244,65535,36892
33492,65535,36871
33684,65535,36732
33736,65535,36577
33852,65535,36666
33680,65535,36674
33486,65535,36612
33268,65535,36621
33287,65535,36656
33276,65535,36656
33468,65535,36628
33568,65535,36557
33661,65535,36556
33680,65535,36517
33404,65535,36487
33248,65535,36436
33244,65535,36486
33226,65535,36401
33268,65535,36356
33348,65535,36278
33356,65535,36277
33336,65535,36295
33472,65535,36220
33480,65535,36169
33398,65535,36164
33261,65535,36103
33193,65535,36084
33156,65535,35940
33135,65535,35666
33156,65535,35774
33340,65535,35789
33429,65535,35834
33276,65535,35879
33200,65535,35826
32976,65535,35806
33064,65535,35710
33172,65535,35583
33300,65535,35693
33414,65535,35365
33448,65535,35535
33400,65535,35517
33252,65535,35517
33076,65535,35503
32893,65535,35463
32854,65535,35420
32980,65535,35370
33105,65535,35133
33016,65535,35229
32752,65535,35262
32608,65535,35214
32596,65535,35222
32777,65535,35181
32916,65535,35172
33064,65535,35047
33128,65535,34959
32956,65535,34657
32917,65535,34715
32852,65535,34756
32956,65535,34820
33036,65535,34820
33143,65535,34795
33136,65535,34713
33061,65535,34725
32788,65535,34719
32664,65535,34663
32660,65535,34610
32516,65535,34532
32484,65535,34439
32688,65535,34395
32996,65535,34164
33188,65535,34262
33064,65535,34228
32893,65535,34228
32788,65535,34241
32900,65535,34264
33032,65535,34221
33232,65535,33946
33132,65535,34154
32860,65535,34096
32738,65535,33985
32644,65535,33919
32752,65535,33974
32864,65535,33957
32980,65535,33927
32860,65535,33789
32732,65535,33756
32804,65535,33799
32913,65535,33799
33113,65535,33378
33125,65535,33663
33144,65535,33671
33096,65535,33500
32992,65535,33288
32941,65535,33306
33012,65535,33327
32822,65535,33378
32512,65535,33384
32377,65535,33360
32396,65535,33197
32732,65535,32942
33076,65535,32940
33248,65535,33093
33156,65535,33097
32873,65535,33019
32621,65535,33019
32512,65535,32855
32560,65535,32676
32768,65535,32791
32912,65535,32748
33032,65535,32690
32900,65535,32680
32764,65535,32494
32842,65535,32333
32832,65535,32460
32712,65535,32468
32504,65535,32375
32372,65535,32228
32460,65535,31921
32714,65535,32063
32992,65535,32124
33116,65535,32102
32940,65535,32089
32644,65535,31916
32484,65535,31785
32636,65535,31844
32778,65535,31790
32900,65535,31748
33008,65535,31719
32948,65535,31631
32696,65535,31567
32436,65535,31351
32381,65535,31437
32476,65535,31431
32605,65535,31312
32704,65535,31317
32848,65535,31237
32804,65535,31160
32788,65535,31034
32860,65535,30898
32760,65535,30938
32704,65535,30943
32551,65535,30920
32572,65535,30782
32670,65535,30437
32692,65535,30489
32620,65535,30648
32597,65535,30596
32640,65535,30547
32580,65535,30511
32636,65535,30367
32744,65535,30053
32685,65535,30189
32676,65535,30255
32628,65535,30249
32582,65535,30157
32558,65535,30101
32510,65535,30063
32660,65535,29940
32747,65535,29578
32888,65535,29647
32932,65535,29758
32936,65535,29729
32906,65535,29696
32716,65535,29650
32572,65535,29597
32424,65535,29546
32460,65535,29413
32612,65535,29278
32704,65535,29340
32796,65535,29116
32784,65535,29224
32748,65535,29215
32596,65535,29168
32405,65535,29108
32373,65535,29061
32333,65535,28934
32401,65535,28645
32718,65535,28679
32796,65535,28774
32836,65535,28725
32724,65535,28679
32548,65535,28492
32448,65535,28245
32456,65535,28180
32556,65535,28412
32553,65535,28423
32408,65535,28372
32412,65535,27953
32560,65535,28140
32553,65535,28139
32664,65535,28070
32609,65535,28060
32508,65535,27975
32244,65535,27888
31764,65535,27886
31292,65535,27837
30664,65535,27741
29872,65535,27702
29204,65535,27580
28696,65535,27566
28280,65535,27478
27860,65535,27399
27345,65535,27352
26889,65535,27204
26640,65535,27143
26625,65535,26829
26664,65535,26953
26861,65535,26970
27596,65535,26970
29112,65535,26912
31336,65535,26815
33765,65535,26785
35618,65535,26648
36393,65535,26318
36120,65535,26467
35456,65535,26357
34880,65535,26249
34492,65535,26076
34149,65535,26093
33812,65535,26047
33508,65535,26169
33176,65535,26117
33304,65535,26045
33376,65535,26052
33285,65535,26026
33192,65535,25901
32972,65535,25539
32840,65535,25589
32904,65535,25663
32996,65535,25652
33158,65535,25647
33337,65535,25559
33440,65535,25508
33444,65535,25509
33288,65535,25388
33165,65535,25024
33101,65535,25009
32993,65535,24975
32924,65535,25086
32916,65535,25029
32868,65535,24965
32908,65535,24965
32944,65535,24850
32960,65535,24817
32968,65535,24425
33036,65535,24596
33060,65535,24543
32964,65535,24614
32924,65535,24569
32864,65535,24413
32881,65535,24207
32992,65535,24316
33093,65535,24303
33092,65535,24164
32864,65535,23943
32828,65535,24067
32825,65535,24097
32636,65535,23836
32492,65535,23878
32561,65535,23860
32656,65535,23809
32685,65535,23761
32796,65535,23745
32796,65535,23636
32864,65535,23278
32860,65535,23324
32772,65535,23440
32636,65535,23474
32572,65535,23385
32588,65535,23298
32624,65535,23300
32716,65535,23170
32768,65535,22815
32688,65535,22745
32540,65535,22784
32432,65535,22839
32316,65535,22767
32388,65535,22773
32492,65535,22714
32460,65535,22650
32416,65535,22598
32437,65535,22567
32568,65535,22540
32600,65535,22457
32580,65535,22344
32492,65535,22286
32252,65535,21981
32056,65535,22106
32028,65535,22172
32145,65535,22096
32224,65535,22014
32284,65535,21684
32180,65535,21890
32092,65535,21891
31904,65535,21870
31732,65535,21498
31784,65535,21444
31789,65535,21364
31884,65535,21352
31972,65535,21359
32097,65535,21461
32124,65535,21511
32148,65535,21428
32100,65535,21329
31914,65535,21021
31705,65535,21067
31520,65535,21179
31428,65535,21123
31436,65535,21153
31552,65535,21141
31740,65535,21095
32004,65535,20724
32064,65535,20809
31992,65535,20844
31836,65535,20825
31652,65535,20870
31604,65535,20827
31576,65535,20778
31620,65535,20694
31696,65535,20652
31792,65535,20703
31848,65535,20620
31820,65535,20641
31784,65535,20312
31769,65535,20213
31782,65535,20244
31818,65535,20285
31888,65535,20327
31944,65535,20389
32081,65535,20353
32276,65535,20036
32384,65535,19940
32493,65535,20047
32562,65535,20004
32646,65535,19924
32676,65535,19875
32633,65535,19877
32663,65535,19980
32702,65535,19973
32828,65535,20000
32993,65535,19983
33112,65535,19906
33184,65535,19662
33200,65535,19793
33184,65535,19812
33208,65535,19845
33264,65535,19814
33340,65535,19844
33416,65535,19497
33556,65535,19489
33580,65535,19557
33656,65535,19595
33592,65535,19663
33584,65535,19648
33532,65535,19696
33470,65535,19676
33440,65535,19372
33472,65535,19505
33536,65535,19570
33544,65535,19575
33460,65535,19573
33468,65535,19525
33512,65535,19285
33516,65535,19429
33480,65535,19539
33516,65535,19536
33496,65535,19521
33360,65535,19247
33356,65535,19391
33365,65535,19416
33404,65535,19399
33556,65535,19389
33644,65535,19410
33701,65535,19430
33624,65535,19457
33486,65535,19356
33329,65535,19175
33192,65535,19278
33156,65535,19322
33236,65535,19329
33380,65535,19299
33495,65535,19302
33617,65535,19290
33568,65535,19272
33472,65535,19364
33348,65535,19332
33192,65535,19344
33076,65535,19284
33166,65535,19040
33220,65535,19108
33353,65535,19274
33412,65535,19356
33384,65535,19004
33248,65535,19101
33117,65535,19234
33012,65535,19252
32956,65535,19252
33024,65535,19006
33100,65535,19185
33220,65535,19159
33180,65535,19229
33092,65535,19178
33028,65535,19178
32988,65535,19136
33060,65535,18822
33108,65535,18817
33080,65535,18951
33048,65535,19021
33008,65535,19045
33032,65535,19026
33104,65535,18801
33092,65535,18884
33080,65535,18940
33073,65535,18929
33044,65535,18960
33041,65535,18947
32940,65535,18846
32844,65535,18575
32932,65535,18646
33096,65535,18765
33188,65535,18719
33191,65535,18794
33204,65535,18749
33168,65535,18677
33124,65535,18706
33006,65535,18580
32872,65535,18333
32812,65535,18301
32848,65535,18473
32964,65535,18463
33151,65535,18418
33273,65535,18481
33292,65535,18428
33184,65535,18380
33016,65535,18393
32864,65535,18299
32784,65535,18051
32812,65535,18171
32876,65535,18207
32976,65535,18226
33068,65535,17940
33084,65535,18088
33056,65535,18095
33052,65535,18139
32950,65535,18091
32888,65535,17865
32792,65535,17940
32736,65535,17989
32693,65535,17995
32725,65535,18013
32800,65535,17669
32868,65535,17829
32900,65535,17967
32964,65535,17879
32997,65535,17919
32924,65535,17598
32792,65535,17674
32728,65535,17766
32744,65535,17835
32856,65535,17796
32944,65535,17793
32976,65535,17782
33048,65535,17711
32996,65535,17690
32876,65535,17719
32812,65535,17615
32736,65535,17338
32664,65535,17519
32664,65535,17586
32772,65535,17590
32924,65535,17537
33072,65535,17519
33056,65535,17495
32997,65535,17433
32910,65535,17135
32808,65535,17353
32750,65535,17310
32780,65535,17373
32832,65535,17063
32908,65535,17258
32932,65535,17252
32968,65535,17221
32984,65535,17196
32956,65535,17178
32884,65535,17168
32768,65535,17121
32648,65535,17148
32592,65535,17103
32639,65535,17031
32744,65535,17060
32844,65535,16997
32956,65535,16940
33004,65535,16958
32976,65535,16854
32928,65535,16574
32857,65535,16593
32834,65535,16567
32780,65535,16748
32696,65535,16713
32704,65535,16759
32760,65535,16695
32808,65535,16702
32856,65535,16653
32852,65535,16581
32777,65535,16327
32692,65535,16329
32701,65535,16505
32784,65535,16484
32849,65535,16465
32924,65535,16460
32956,65535,16197
32957,65535,16207
32921,65535,16305
32892,65535,16343
32856,65535,16295
32824,65535,16285
32809,65535,16025
32836,65535,16045
32824,65535,16129
32909,65535,16124
32932,65535,16103
32952,65535,15870
32992,65535,16015
32968,65535,15998
32920,65535,16016
32917,65535,15659
32869,65535,15703
32804,65535,15839
32820,65535,15780
32844,65535,15816
32876,65535,15759
32930,65535,15746
32944,65535,15691
32968,65535,15687
32942,65535,15609
32924,65535,15343
32768,65535,15396
32652,65535,15255
32645,65535,15353
32714,65535,15425
32825,65535,15495
32869,65535,15425
32900,65535,15428
32904,65535,15367
32920,65535,15076
32796,65535,15224
32720,65535,15257
32704,65535,15314
32708,65535,15272
32740,65535,15226
32860,65535,15215
32884,65535,14990
32904,65535,14910
32924,65535,14868
32932,65535,14916
32888,65535,15046
32840,65535,15098
32752,65535,15069
32736,65535,14808
32740,65535,14767
32792,65535,14920
32844,65535,14897
32814,65535,14948
32793,65535,14941
32756,65535,14890
32664,65535,14821
32676,65535,14854
32654,65535,14548
32688,65535,14560
32724,65535,14532
32804,65535,14601
32847,65535,14636
32864,65535,14522
32812,65535,14495
32708,65535,14425
32656,65535,14357
32580,65535,14362
32480,65535,14559
32408,65535,14509
32197,65535,14567
31969,65535,14548
31525,65535,14515
30925,65535,14470
30272,65535,14456
29632,65535,14474
29060,65535,14423
28473,65535,14165
27936,65535,14097
27376,65535,14108
26904,65535,14253
26672,65535,14334
26736,65535,14286
26780,65535,14312
27029,65535,14233
27768,65535,14221
28985,65535,14023
30676,65535,14043
32656,65535,14158
34404,65535,14216
35476,65535,14180
35645,65535,13870
35360,65535,14120
35064,65535,14081
34692,65535,14105
34340,65535,14113
33968,65535,14089
33608,65535,13880
33325,65535,13802
33184,65535,13828
33192,65535,14012
33205,65535,14013
33253,65535,13977
33316,65535,13749
33356,65535,13973
33422,65535,13974
33336,65535,14004
33272,65535,13932
33304,65535,13959
33380,65535,13923
33416,65535,13871
33416,65535,13648
33408,65535,13829
33408,65535,13803
33393,65535,13801
33352,65535,13818
33364,65535,13745
33392,65535,13490
33380,65535,13589
33388,65535,13681
33384,65535,13673
33352,65535,13718
33332,65535,13731
33356,65535,13650
33332,65535,13705
33248,65535,13661
33212,65535,13667
33145,65535,13605
33100,65535,13606
33164,65535,13349
33164,65535,13423
33132,65535,13551
33150,65535,13493
33136,65535,13506
33084,65535,13501
33006,65535,13431
32945,65535,13441
32942,65535,13452
32880,65535,13413
32908,65535,13429
32960,65535,13383
32992,65535,13380
33029,65535,13353
33028,65535,13390
33000,65535,13399
32951,65535,13372
32880,65535,13318
32880,65535,13329
32829,65535,13257
32839,65535,13257
32872,65535,13264
32928,65535,13206
32902,65535,13180
32904,65535,13163
32860,65535,13176
32780,65535,12849
32732,65535,13015
32712,65535,13041
32736,65535,13061
32704,65535,13043
32720,65535,12743
32720,65535,12945
32700,65535,12940
32692,65535,13002
32628,65535,12978
32524,65535,12963
32456,65535,12813
32390,65535,12914
32404,65535,12885
32436,65535,12885
32516,65535,12678
32570,65535,12586
32628,65535,12703
32584,65535,12777
32484,65535,12834
32372,65535,12808
32300,65535,12786
32248,65535,12793
32180,65535,12530
32184,65535,12683
32241,65535,12762
32209,65535,12716
32236,65535,12718
32225,65535,12705
32216,65535,12464
32172,65535,12429
32088,65535,12648
31972,65535,12617
31980,65535,12639
32012,65535,12586
32144,65535,12369
32200,65535,12561
32196,65535,12551
32233,65535,12572
32172,65535,12242
32096,65535,12392
32020,65535,12508
31994,65535,12503
31912,65535,12304
31940,65535,12445
32009,65535,12396
32045,65535,12420
32136,65535,12079
32196,65535,12328
32254,65535,12319
32288,65535,12310
32348,65535,12086
32352,65535,12257
32364,65535,12278
32452,65535,12214
32542,65535,12209
32628,65535,11969
32800,65535,12051
32876,65535,12104
32904,65535,12103
32884,65535,12090
32880,65535,11992
32820,65535,11999
32848,65535,12041
32960,65535,11987
33133,65535,11997
33280,65535,11726
33412,65535,11876
33465,65535,11876
33444,65535,11839
33460,65535,11828
33424,65535,11793
33452,65535,11795
33508,65535,11738
33592,65535,11760
33652,65535,11750
33724,65535,11425
33757,65535,11632
33768,65535,11634
33725,65535,11650
33664,65535,11586
33566,65535,11276
33518,65535,11320
33472,65535,11269
33452,65535,11390
33496,65535,11446
33528,65535,11449
33668,65535,11397
33744,65535,11172
33744,65535,11306
33712,65535,11277
33668,65535,11312
33576,65535,11013
33560,65535,11012
33564,65535,11119
33576,65535,11205
33600,65535,11179
33700,65535,11188
33764,65535,11144
33748,65535,10907
33724,65535,11103
33728,65535,11146
33648,65535,11130
33576,65535,10918
33580,65535,11101
33612,65535,11108
33632,65535,10796
33600,65535,11037
33600,65535,11091
33569,65535,11076
33524,65535,11069
33524,65535,10785
33444,65535,10886
33448,65535,11012
33449,65535,11085
33412,65535,10848
33392,65535,11040
33489,65535,11052
33512,65535,11070
33428,65535,10913
33408,65535,11039
33344,65535,11044
33300,65535,10973
33244,65535,11041
33300,65535,11069
33344,65535,11058
33380,65535,11047
33396,65535,10830
33392,65535,11029
33340,65535,11087
33314,65535,11053
33328,65535,11103
33332,65535,10820
33320,65535,11067
33384,65535,11096
33420,65535,11055
33420,65535,10857
33421,65535,11059
33388,65535,11065
33376,65535,11122
33340,65535,10807
33316,65535,10929
33292,65535,11022
33252,65535,11041
33220,65535,11080
33268,65535,11075
33312,65535,11088
33318,65535,10901
33281,65535,10829
33269,65535,10973
33272,65535,11026
33228,65535,11055
33186,65535,11057
33168,65535,10787
33188,65535,11045
33248,65535,11040
33268,65535,11032
33332,65535,10926
33325,65535,11042
33204,65535,11069
33124,65535,10780
33076,65535,10993
33034,65535,11016
33044,65535,10989
33068,65535,10742
33108,65535,10970
33173,65535,11003
33180,65535,10994
33208,65535,10732
33162,65535,10910
33132,65535,10983
33108,65535,10989
33048,65535,10736
33016,65535,10981
33080,65535,11013
33116,65535,11003
33190,65535,11050
33240,65535,10820
33300,65535,10823
33245,65535,10880
33148,65535,11024
33140,65535,11061
33036,65535,11077
32996,65535,10825
32988,65535,11049
33016,65535,11115
33020,65535,11084
33028,65535,11074
33016,65535,10939
32989,65535,11104
32980,65535,11133
32956,65535,11161
32900,65535,10994
32936,65535,10949
32996,65535,10901
33038,65535,11036
33038,65535,11181
33096,65535,11164
33076,65535,11257
33060,65535,11263
32997,65535,10980
32952,65535,11208
32900,65535,11284
32928,65535,11282
32989,65535,11341
33024,65535,11332
33044,65535,11148
33040,65535,11316
33112,65535,11360
33029,65535,11381
32988,65535,11128
32932,65535,11366
32848,65535,11480
32852,65535,11474
32932,65535,11465
32996,65535,11237
33020,65535,11268
33056,65535,11409
33044,65535,11550
32940,65535,11610
32884,65535,11654
32777,65535,11410
32720,65535,11609
32724,65535,11681
32824,65535,11739
32940,65535,11717
32993,65535,11773
33068,65535,11754
33033,65535,11620
33008,65535,11538
32932,65535,11633
32778,65535,11853
32688,65535,11908
32664,65535,11901
32721,65535,11970
32788,65535,11764
32900,65535,11899
32928,65535,11994
32988,65535,12033
33028,65535,12046
32929,65535,12044
32878,65535,12009
32812,65535,12078
32789,65535,12129
32816,65535,12199
32788,65535,12184
32808,65535,12002
32888,65535,12228
32901,65535,12232
32860,65535,12009
32775,65535,12025
32708,65535,12121
32697,65535,12143
32752,65535,12263
32746,65535,12362
32832,65535,12414
32937,65535,12473
32940,65535,12239
32910,65535,12296
32848,65535,12480
32775,65535,12517
32686,65535,12512
32668,65535,12554
32692,65535,12645
32704,65535,12631
32752,65535,12643
32808,65535,12686
32868,65535,12692
32796,65535,12446
32768,65535,12543
32732,65535,12693
32708,65535,12751
32688,65535,12762
32728,65535,12868
32789,65535,12887
32840,65535,12863
32932,65535,12912
32984,65535,12743
33044,65535,12776
33028,65535,12899
32988,65535,12965
32924,65535,12956
32844,65535,12991
32828,65535,12998
32886,65535,13105
32916,65535,13115
32932,65535,13113
32928,65535,13176
32928,65535,12892
32880,65535,13090
32829,65535,13177
32796,65535,13247
32740,65535,13235
32740,65535,13252
32820,65535,13012
32912,65535,13052
32940,65535,13083
32958,65535,13323
32904,65535,13341
32828,65535,13356
32800,65535,13386
32749,65535,13440
32680,65535,13173
32680,65535,13189
32696,65535,13279
32718,65535,13421
32756,65535,13455
32784,65535,13465
32760,65535,13512
32732,65535,13526
32644,65535,13590
32592,65535,13554
32540,65535,13370
32540,65535,13561
32596,65535,13627
32652,65535,13636
32744,65535,13657
32821,65535,13421
32829,65535,13569
32728,65535,13652
32712,65535,13705
32724,65535,13739
32684,65535,13813
32728,65535,13815
32729,65535,13831
32732,65535,13879
32813,65535,13874
32780,65535,13918
32765,65535,13658
32772,65535,13789
32784,65535,13785
32758,65535,13931
32720,65535,13951
32768,65535,14002
32773,65535,14041
32812,65535,14101
32924,65535,14143
32952,65535,14180
32952,65535,14199
32892,65535,14240
32832,65535,14233
32798,65535,14212
32708,65535,14240
32701,65535,14245
32738,65535,14306
32809,65535,14299
32885,65535,14332
32932,65535,14349
32942,65535,14361
32917,65535,14244
32844,65535,14328
32760,65535,14437
32713,65535,14421
32672,65535,14475
32752,65535,14497
32796,65535,14564
32846,65535,14573
32897,65535,14588
32881,65535,14586
32839,65535,14591
32801,65535,14449
32777,65535,14384
32716,65535,14401
32732,65535,14516
32773,65535,14467
32844,65535,14455
32865,65535,14563
32888,65535,14760
32856,65535,14749
32772,65535,14766
32684,65535,14841
32628,65535,14888
32576,65535,14917
32548,65535,14927
32564,65535,14916
32640,65535,14892
32662,65535,14940
32656,65535,14724
32576,65535,14770
32364,65535,14921
32164,65535,15001
31724,65535,14969
31124,65535,14876
30472,65535,14845
29904,65535,14826
29461,65535,15032
29092,65535,15103
28668,65535,15127
28164,65535,15158
27676,65535,15190
27268,65535,15224
27128,65535,15269
27068,65535,15231
27260,65535,15024
27816,65535,15276
28736,65535,15303
30164,65535,15352
32004,65535,15352
33848,65535,15420
34960,65535,15185
35348,65535,15177
35128,65535,15278
34708,65535,15272
34460,65535,15437
34292,65535,15449
34025,65535,15537
33788,65535,15570
33576,65535,15558
33416,65535,15535
33298,65535,15557
33188,65535,15419
33172,65535,15452
33160,65535,15376
33200,65535,15525
33228,65535,15587
33312,65535,15481
33372,65535,15741
33406,65535,15791
33380,65535,15773
33304,65535,15812
33244,65535,15824
33216,65535,15789
33172,65535,15813
33160,65535,15867
33246,65535,15863
33248,65535,15857
33256,65535,15900
33312,65535,15925
33296,65535,15953
33236,65535,15943
33128,65535,15940
33063,65535,15970
33024,65535,15795
33005,65535,15833
33028,65535,15988
33004,65535,15869
33060,65535,15837
33084,65535,16157
33048,65535,16116
33005,65535,16195
32920,65535,16176
32896,65535,16209
32912,65535,16268
32897,65535,16285
32960,65535,16073
33008,65535,16042
33068,65535,16053
33060,65535,16179
32992,65535,16096
32904,65535,16168
32828,65535,16349
32764,65535,16348
32680,65535,16413
32684,65535,16460
32720,65535,16421
32728,65535,16417
32833,65535,16403
32832,65535,16409
32801,65535,16411
32724,65535,16407
32648,65535,16446
32584,65535,16434
32578,65535,16446
32564,65535,16380
32612,65535,16417
32636,65535,16085
32684,65535,16081
32676,65535,16076
32640,65535,16349
32560,65535,16372
32468,65535,16380
32436,65535,16138
32404,65535,16351
32380,65535,16045
32404,65535,16052
32429,65535,16165
32401,65535,16270
32416,65535,16228
32365,65535,16257
32304,65535,16244
32288,65535,16228
32232,65535,16265
32180,65535,16277
32164,65535,16235
32190,65535,16199
32204,65535,15949
32212,65535,16144
32224,65535,16189
32192,65535,16187
32140,65535,15957
32060,65535,15972
31988,65535,15931
31916,65535,15905
31861,65535,16045
31872,65535,16175
31948,65535,16165
31980,65535,16084
32024,65535,16172
32010,65535,16048
31956,65535,16009
31904,65535,16127
31852,65535,16128
31788,65535,16144
31825,65535,16134
31900,65535,15968
31908,65535,16013
31946,65535,16116
32020,65535,16121
32004,65535,16121
31904,65535,16119
31860,65535,16185
31812,65535,16180
31780,65535,16198
31877,65535,16146
31900,65535,15939
31964,65535,15940
32056,65535,16137
32160,65535,16106
32125,65535,16193
32142,65535,16150
32188,65535,16129
32240,65535,15924
32252,65535,16092
32360,65535,16143
32460,65535,16156
32580,65535,16174
32732,65535,16218
32788,65535,16220
32812,65535,16204
32816,65535,16225
32808,65535,15910
32820,65535,15966
32836,65535,16096
32946,65535,16119
33052,65535,16165
33124,65535,16243
33196,65535,16215
33264,65535,16219
33320,65535,16247
33304,65535,16185
33296,65535,15943
33266,65535,16085
33216,65535,16199
33288,65535,16195
33380,65535,16246
33456,65535,16252
33500,65535,16237
33536,65535,16259
33528,65535,16293
33492,65535,16277
33408,65535,16313
33336,65535,16001
33356,65535,16254
33388,65535,16074
33472,65535,16037
33512,65535,16116
33572,65535,16232
33548,65535,16300
33524,65535,16320
33488,65535,16390
33420,65535,16377
33392,65535,16412
33320,65535,16442
33360,65535,16418
33376,65535,16173
33428,65535,16154
33464,65535,16261
33444,65535,16182
33374,65535,16212
33288,65535,16227
33280,65535,16507
33216,65535,16591
33228,65535,16613
33252,65535,16591
33293,65535,16631
33380,65535,16650
33400,65535,16721
33396,65535,16681
33386,65535,16457
33308,65535,16596
33248,65535,16677
33189,65535,16677
33180,65535,16751
33156,65535,16814
33204,65535,16799
33260,65535,16859
33224,65535,16858
33236,65535,16918
33206,65535,16932
33192,65535,16944
33133,65535,17031
33124,65535,17049
33108,65535,17071
33148,65535,17110
33168,65535,17092
33216,65535,17157
33240,65535,17116
33212,65535,16889
33208,65535,16968
33156,65535,17191
33076,65535,17289
33017,65535,17312
33022,65535,17324
33052,65535,17319
33084,65535,17346
33118,65535,17394
33144,65535,17350
33132,65535,17437
33100,65535,17396
33045,65535,17180
33020,65535,17348
32924,65535,17439
32932,65535,17444
32960,65535,17447
33064,65535,17471
33136,65535,17472
33164,65535,17519
33164,65535,17408
33108,65535,17411
33024,65535,17542
32948,65535,17513
32916,65535,17588
32868,65535,17605
32926,65535,17567
33007,65535,17645
33088,65535,17718
33136,65535,17724
33135,65535,17740
33100,65535,17778
33064,65535,17740
33018,65535,17759
32968,65535,17772
32932,65535,17794
32991,65535,17799
33044,65535,17824
33084,65535,17883
33128,65535,17896
33162,65535,17844
33132,65535,17664
33060,65535,17859
33020,65535,17945
32964,65535,17983
32968,65535,17965
32992,65535,17678
33048,65535,17797
33137,65535,17980
33204,65535,17981
33236,65535,18092
33212,65535,18115
33084,65535,18071
33030,65535,17823
32933,65535,17979
32928,65535,18119
32942,65535,18225
32960,65535,18204
33000,65535,18178
33032,65535,18010
33036,65535,18240
33044,65535,18260
33006,65535,18258
32980,65535,18372
32920,65535,18360
32926,65535,18414
32940,65535,18389
32948,65535,18232
32960,65535,18275
33024,65535,18439
33000,65535,18477
32941,65535,18583
32916,65535,18623
32970,65535,18357
32901,65535,18456
32813,65535,18604
32856,65535,18716
32956,65535,18690
32966,65535,18710
33024,65535,18550
33069,65535,18741
33024,65535,18771
32952,65535,18853
32862,65535,18840
32796,65535,18935
32820,65535,18618
32816,65535,18692
32901,65535,18815
32984,65535,18951
33080,65535,19020
33084,65535,19028
33056,65535,19028
32984,65535,19126
32933,65535,18819
32912,65535,18977
32900,65535,19111
32918,65535,19200
32943,65535,19202
32976,65535,18985
33040,65535,19159
33040,65535,19245
32964,65535,19358
32892,65535,19334
32824,65535,19365
32789,65535,19164
32824,65535,19367
32848,65535,19453
32928,65535,19474
32960,65535,19550
32984,65535,19510
32980,65535,19334
32976,65535,19521
32901,65535,19599
32829,65535,19576
32796,65535,19405
32806,65535,19630
32796,65535,19707
32876,65535,19748
32917,65535,19716
32929,65535,19486
32900,65535,19584
32860,65535,19718
32813,65535,19771
32776,65535,19849
32732,65535,19853
32704,65535,19983
32762,65535,19961
32832,65535,19983
32880,65535,19889
32928,65535,20054
32900,65535,20127
32868,65535,19826
32784,65535,20041
32704,65535,20213
32679,65535,20231
32677,65535,20200
32676,65535,20027
32764,65535,20220
32824,65535,20330
32911,65535,20374
32896,65535,20400
32873,65535,20441
32840,65535,20472
32820,65535,20453
32752,65535,20229
32772,65535,20284
32837,65535,20353
32888,65535,20434
32992,65535,20625
33052,65535,20666
33060,65535,20737
33018,65535,20767
32972,65535,20815
32924,65535,20886
32872,65535,20914
32844,65535,20899
32885,65535,20976
32932,65535,21024
32992,65535,21053
33028,65535,21036
32988,65535,21049
32976,65535,21127
32924,65535,21156
32836,65535,21233
32812,65535,21255
32820,65535,21301
32828,65535,21253
32832,65535,21293
32896,65535,21323
32948,65535,21356
32940,65535,21340
32924,65535,21411
32880,65535,21500
32796,65535,21529
32800,65535,21581
32781,65535,21408
32808,65535,21565
32848,65535,21692
32940,65535,21740
32972,65535,21765
32984,65535,21752
32916,65535,21523
32848,65535,21550
32744,65535,21598
32704,65535,21565
32684,65535,21610
32737,65535,21733
32754,65535,21919
32800,65535,21970
32808,65535,22050
32781,65535,21863
32676,65535,21932
32640,65535,21854
32596,65535,21848
32588,65535,21857
32652,65535,21892
32693,65535,22180
32716,65535,22185
32720,65535,22230
32744,65535,22317
32760,65535,22309
32744,65535,22368
32720,65535,22398
32700,65535,22084
32656,65535,22145
32644,65535,22142
32708,65535,22244
32776,65535,22346
32797,65535,22354
32829,65535,22362
32820,65535,22564
32768,65535,22574
32662,65535,22684
32632,65535,22706
32576,65535,22427
32552,65535,22498
32608,65535,22467
32644,65535,22487
32719,65535,22526
32768,65535,22547
32782,65535,22577
32752,65535,22672
32710,65535,22715
32702,65535,22751
32677,65535,22751
32693,65535,22805
32736,65535,22905
32740,65535,22887
32764,65535,22909
32812,65535,22804
32836,65535,23156
32781,65535,22892
32756,65535,22871
32720,65535,23109
32696,65535,23299
32704,65535,23265
32741,65535,23328
32836,65535,23303
32908,65535,23038
32920,65535,23175
32924,65535,23367
32916,65535,23438
32836,65535,23463
32773,65535,23526
32728,65535,23569
32716,65535,23545
32776,65535,23613
32832,65535,23632
32865,65535,23670
32900,65535,23654
32896,65535,23713
32888,65535,23681
32826,65535,23666
32804,65535,23463
32733,65535,23542
32764,65535,23595
32781,65535,23681
32824,65535,23802
32800,65535,23852
32813,65535,23877
32788,65535,23909
32708,65535,23972
32656,65535,23970
32568,65535,23992
32492,65535,24009
32359,65535,23964
32160,65535,23796
31822,65535,23839
31341,65535,23983
30808,65535,24127
30264,65535,24140
29768,65535,24197
29368,65535,24134
28966,65535,23888
28493,65535,24134
28122,65535,24217
27838,65535,24260
27728,65535,24276
27728,65535,24037
27844,65535,24315
28329,65535,24423
29128,65535,24408
30356,65535,24444
31992,65535,24504
33656,65535,24441
34784,65535,24452
35176,65535,24212
35016,65535,24372
34792,65535,24370
34580,65535,24469
34280,65535,24521
33918,65535,24567
33648,65535,24636
33444,65535,24699
33268,65535,24535
33236,65535,24703
33260,65535,24733
33357,65535,24796
33404,65535,24827
33420,65535,24829
33400,65535,24909
33364,65535,24879
33316,65535,24615
33264,65535,24708
33228,65535,24908
33252,65535,24933
33297,65535,25020
33345,65535,24974
33388,65535,24812
33406,65535,25086
33316,65535,25068
33220,65535,25020
33205,65535,24941
33132,65535,25095
33084,65535,25166
33132,65535,25199
33156,65535,25164
33216,65535,25108
33281,65535,25189
33312,65535,25288
33285,65535,25275
33226,65535,25351
33188,65535,25256
33104,65535,25306
33061,65535,25385
33062,65535,25404
33036,65535,25346
33128,65535,25197
33168,65535,25321
33173,65535,25428
33160,65535,25457
33120,65535,25501
33028,65535,25597
32988,65535,25552
32973,65535,25542
32980,65535,25542
32966,65535,25544
32988,65535,25568
33068,65535,25393
33097,65535,25471
33117,65535,25597
33028,65535,25677
32932,65535,25648
32848,65535,25664
32784,65535,25607
32788,65535,25460
32824,65535,25636
32829,65535,25714
32852,65535,25673
32928,65535,25724
32884,65535,25638
32809,65535,25456
32777,65535,25404
32676,65535,25404
32638,65535,25521
32616,65535,25573
32653,65535,25601
32689,65535,25578
32740,65535,25480
32740,65535,25603
32741,65535,25734
32700,65535,25717
32632,65535,25732
32548,65535,25747
32492,65535,25647
32456,65535,25637
32496,65535,25647
32520,65535,25648
32528,65535,25657
32544,65535,25347
32444,65535,25607
32377,65535,25636
32321,65535,25644
32248,65535,25651
32204,65535,25632
32220,65535,25580
32262,65535,25342
32296,65535,25442
32360,65535,25628
32404,65535,25627
32376,65535,25677
32300,65535,25666
32189,65535,25589
32152,65535,25332
32140,65535,25588
32100,65535,25685
32116,65535,25645
32192,65535,25684
32228,65535,25343
32216,65535,25356
32192,65535,25396
32144,65535,25501
32073,65535,25520
31972,65535,25572
31960,65535,25600
32000,65535,25619
32081,65535,25624
32124,65535,25644
32140,65535,25653
32181,65535,25714
32217,65535,25630
32200,65535,25732
32192,65535,25684
32184,65535,25359
32184,65535,25513
32270,65535,25580
32360,65535,25576
32492,65535,25619
32640,65535,25709
32752,65535,25729
32800,65535,25801
32825,65535,25799
32816,65535,25817
32829,65535,25789
32872,65535,25810
32940,65535,25839
33028,65535,25835
33164,65535,25860
33208,65535,25895
33280,65535,25804
33317,65535,25806
33316,65535,25557
33316,65535,25776
33280,65535,25839
33300,65535,25853
33364,65535,25856
33465,65535,25917
33594,65535,25955
33696,65535,25965
33736,65535,25949
33724,65535,25903
33720,65535,25961
33684,65535,25925
33640,65535,25630
33628,65535,25738
33624,65535,25901
33664,65535,25988
33708,65535,26005
33748,65535,25654
33761,65535,25738
33745,65535,25917
33710,65535,25925
33652,65535,25957
33604,65535,25961
33556,65535,25668
33580,65535,25762
33620,65535,25852
33657,65535,25967
33685,65535,26052
33720,65535,26016
33656,65535,26029
33552,65535,26052
33516,65535,26052
33460,65535,26128
33388,65535,26020
33392,65535,25839
33416,65535,26005
33456,65535,26076
33476,65535,26114
33504,65535,26188
33444,65535,26098
33354,65535,25872
33284,65535,26021
33309,65535,26173
33288,65535,26221
33312,65535,26247
33344,65535,26302
33390,65535,26268
33392,65535,26288
33412,65535,26352
33388,65535,26273
33332,65535,25989
33260,65535,26128
33248,65535,26067
33225,65535,26308
33264,65535,26348
33280,65535,26392
33340,65535,26349
33344,65535,26360
33336,65535,26415
33314,65535,26397
33260,65535,26502
33197,65535,26404
33135,65535,26160
33061,65535,26239
33080,65535,26305
33112,65535,26212
33152,65535,26336
33180,65535,26364
33208,65535,26553
33240,65535,26564
33172,65535,26661
33172,65535,26613
33124,65535,26673
33086,65535,26639
33112,65535,26385
33172,65535,26405
33248,65535,26452
33277,65535,26628
33296,65535,26716
33268,65535,26748
33184,65535,26754
33128,65535,26821
33069,65535,26828
33009,65535,26887
33053,65535,26795
33092,65535,26832
33141,65535,26617
33148,65535,26828
33196,65535,26901
33181,65535,26949
33148,65535,26976
33093,65535,26983
33052,65535,27057
33012,65535,27008
33028,65535,27029
33068,65535,26865
33080,65535,27076
33153,65535,26831
33132,65535,26975
33120,65535,27004
33041,65535,27151
32992,65535,27234
32912,65535,27268
32925,65535,27172
32928,65535,27020
32992,65535,27380
33052,65535,27461
33104,65535,27428
33108,65535,27463
33104,65535,27343
33033,65535,27534
32996,65535,27652
32960,65535,27681
32956,65535,27655
32968,65535,27713
33012,65535,27748
33076,65535,27780
33112,65535,27840
33128,65535,27892
33024,65535,27865
32944,65535,27938
32944,65535,27929
32924,65535,27954
32916,65535,28007
32924,65535,28077
32965,65535,28028
33031,65535,28093
33060,65535,28141
33056,65535,28188
33005,65535,28221
32965,65535,28237
32921,65535,28283
32826,65535,28329
32853,65535,28322
32884,65535,28284
32920,65535,28328
32965,65535,28467
33008,65535,28125
33056,65535,28273
33032,65535,28351
32988,65535,28447
32904,65535,28567
32884,65535,28599
32884,65535,28611
32932,65535,28393
32992,65535,28597
33012,65535,28728
33057,65535,28828
33065,65535,28736
32976,65535,28486
32952,65535,28634
32900,65535,28700
32824,65535,28743
32824,65535,28780
32832,65535,28800
32885,65535,28911
32908,65535,29010
32972,65535,29039
32980,65535,29100
32956,65535,29143
32900,65535,29197
32860,65535,29161
32844,65535,29252
32828,65535,29182
32861,65535,28948
32904,65535,29140
32927,65535,29295
32965,65535,29367
32976,65535,29407
32972,65535,29441
32969,65535,29386
32901,65535,29305
32824,65535,29345
32800,65535,29388
32814,65535,29453
32869,65535,29556
32878,65535,29575
32936,65535,29631
32960,65535,29714
32892,65535,29615
32866,65535,29380
32784,65535,29382
32736,65535,29418
32736,65535,29703
32764,65535,29740
32809,65535,29756
32850,65535,29817
32908,65535,29820
32896,65535,29562
32876,65535,29618
32806,65535,29797
32764,65535,29884
32736,65535,29980
32802,65535,30013
32807,65535,30061
32836,65535,30103
32880,65535,30141
32888,65535,30154
32888,65535,30070
32840,65535,29929
32832,65535,30100
32748,65535,30172
32720,65535,30244
32704,65535,30258
32740,65535,30319
32796,65535,30356
32828,65535,30370
32856,65535,30293
32868,65535,30022
32860,65535,30223
32797,65535,30373
32764,65535,30398
32732,65535,30465
32716,65535,30495
32740,65535,30535
32780,65535,30197
32820,65535,30388
32897,65535,30467
32892,65535,30549
32880,65535,30573
32808,65535,30655
32756,65535,30692
32696,65535,30655
32664,65535,30597
32672,65535,30357
32744,65535,30372
32760,65535,30398
32796,65535,30603
32796,65535,30577
32767,65535,30560
32718,65535,30726
32660,65535,30809
32613,65535,30837
32600,65535,30855
32632,65535,30937
32688,65535,30895
32740,65535,30950
32732,65535,30887
32728,65535,30930
32688,65535,30924
32648,65535,30938
32600,65535,31014
32548,65535,31100
32580,65535,31052
32620,65535,31100
32700,65535,31140
32721,65535,31157
32744,65535,31188
32745,65535,31199
32704,65535,31160
32620,65535,31199
32580,65535,31160
32552,65535,31204
32536,65535,31176
32580,65535,31156
32628,65535,31141
32676,65535,31121
32704,65535,31175
32680,65535,31156
32704,65535,31180
32640,65535,31367
32608,65535,31398
32597,65535,31440
32601,65535,31428
32620,65535,31509
32628,65535,31507
32673,65535,31545
32724,65535,31238
32756,65535,31252
32736,65535,31393
32684,65535,31255
32704,65535,31417
32700,65535,31464
32660,65535,31273
32693,65535,31276
32756,65535,31565
32780,65535,31566
32828,65535,31600
32812,65535,31348
32772,65535,31359
32721,65535,31705
32672,65535,31716
32633,65535,31768
32628,65535,31777
32676,65535,31808
32708,65535,31826
32756,65535,31846
32832,65535,31781
32865,65535,31861
32829,65535,31805
32732,65535,31777
32704,65535,31796
32636,65535,31769
32632,65535,31798
32640,65535,31558
32714,65535,31665
32781,65535,31727
32840,65535,31761
32842,65535,31889
32770,65535,31953
32756,65535,31920
32692,65535,31992
32664,65535,31893
32688,65535,31867
32708,65535,31657
32780,65535,31741
32841,65535,31889
32916,65535,31959
32888,65535,31960
32852,65535,31970
32840,65535,32033
32836,65535,32020
32757,65535,32039
32733,65535,32015
32752,65535,31940
32800,65535,31700
32837,65535,31824
32872,65535,31849
32884,65535,31878
32820,65535,31879
32797,65535,31928
32720,65535,31908
32660,65535,31852
32648,65535,31852
32684,65535,31791
32740,65535,31751
32729,65535,31944
32744,65535,31847
32684,65535,31962
32608,65535,32109
32484,65535,32172
32278,65535,32175
31982,65535,32164
31560,65535,32207
31056,65535,32103
30560,65535,31839
30145,65535,31935
29805,65535,32029
29476,65535,32087
29120,65535,32141
28694,65535,32137
28332,65535,32140
28000,65535,32236
27908,65535,32297
27912,65535,32287
28080,65535,32351
28642,65535,32220
29466,65535,31972
30600,65535,31969
32125,65535,32194
33640,65535,32324
34604,65535,32359
34864,65535,32373
34744,65535,32043
34572,65535,32254
34326,65535,32373
34078,65535,32417
33824,65535,32399
33560,65535,32432
33344,65535,32473
33188,65535,32448
33116,65535,32383
33092,65535,32152
33112,65535,32375
33164,65535,32432
33212,65535,32271
33244,65535,32232
33317,65535,32316
33317,65535,32383
33274,65535,32447
33196,65535,32497
33152,65535,32574
33116,65535,32548
33129,65535,32567
33152,65535,32512
33212,65535,32325
33216,65535,32309
33248,65535,32340
33212,65535,32344
33152,65535,32466
33108,65535,32503
33056,65535,32239
32980,65535,32407
32965,65535,32589
33048,65535,32593
33088,65535,32610
33068,65535,32544
33084,65535,32308
33060,65535,32551
33017,65535,32696
32960,65535,32647
32908,65535,32677
32876,65535,32702
32892,65535,32334
32916,65535,32602
32904,65535,32628
32944,65535,32694
33001,65535,32747
32956,65535,32724
32868,65535,32762
32836,65535,32750
32756,65535,32820
32680,65535,32708
32669,65535,32456
32664,65535,32775
32736,65535,32773
32800,65535,32837
32860,65535,32788
32796,65535,32808
32756,65535,32813
32701,65535,32800
32620,65535,32836
32540,65535,32822
32532,65535,32876
32536,65535,32871
32570,65535,32903
32588,65535,32882
32642,65535,32775
32660,65535,32519
32568,65535,32599
32476,65535,32789
32444,65535,32861
32392,65535,32860
32398,65535,32911
32416,65535,32919
32445,65535,32887
32488,65535,32592
32498,65535,32813
32420,65535,32873
32372,65535,32885
32297,65535,32887
32237,65535,32903
32212,65535,32846
32200,65535,32583
32254,65535,32787
32309,65535,32840
32324,65535,32911
32320,65535,32903
32316,65535,32940
32256,65535,32964
32137,65535,32966
32064,65535,32973
32005,65535,32989
31988,65535,33004
32032,65535,32919
32074,65535,32876
32092,65535,32761
32180,65535,32855
32144,65535,32897
32096,65535,32964
32052,65535,32988
32044,65535,33016
31996,65535,33045
32016,65535,32662
32049,65535,32695
32088,65535,32903
32172,65535,32997
32224,65535,33017
32184,65535,33040
32142,65535,33028
32097,65535,33089
32096,65535,32974
32076,65535,32879
32096,65535,33045
32128,65535,33069
32176,65535,33063
32285,65535,32998
32336,65535,32864
32376,65535,32977
32396,65535,33054
32388,65535,33118
32325,65535,33096
32336,65535,33109
32416,65535,33021
32528,65535,32896
32638,65535,32924
32696,65535,33050
32784,65535,33102
32853,65535,33155
32845,65535,33117
32824,65535,33108
32864,65535,33023
32904,65535,33069
32976,65535,33159
33061,65535,33125
33156,65535,33174
33266,65535,33137
33309,65535,32775
33334,65535,32958
33296,65535,33103
33280,65535,33101
33206,65535,33165
33200,65535,33121
33252,65535,32822
33344,65535,33110
33382,65535,33129
33428,65535,33117
33464,65535,33141
33456,65535,33040
33405,65535,33049
33384,65535,33028
33376,65535,32871
33356,65535,32879
33380,65535,32939
33420,65535,33061
33468,65535,33082
33524,65535,33076
33543,65535,33105
33504,65535,33056
33433,65535,33127
33400,65535,33109
33364,65535,33152
33360,65535,33133
33372,65535,33185
33401,65535,33086
33472,65535,32940
33517,65535,33141
33517,65535,33147
33528,65535,33209
33468,65535,33153
33352,65535,32892
33288,65535,33031
33244,65535,33133
33216,65535,33180
33268,65535,33222
33276,65535,33249
33294,65535,33136
33280,65535,33080
33248,65535,33223
33198,65535,33276
33160,65535,33249
33113,65535,33289
33084,65535,33164
33124,65535,33155
33168,65535,33205
33206,65535,33269
33245,65535,33310
33284,65535,33311
33236,65535,33309
33116,65535,33222
33072,65535,33089
32992,65535,33079
32976,65535,33259
33028,65535,33318
33080,65535,33352
33116,65535,33281
33176,65535,33227
33233,65535,33362
33208,65535,33417
33125,65535,33394
33088,65535,33456
33072,65535,33452
32988,65535,33380
33004,65535,33327
33057,65535,33169
33124,65535,33113
33132,65535,33247
33188,65535,33233
33188,65535,33256
33144,65535,33401
33108,65535,33471
33052,65535,33476
32996,65535,33503
32996,65535,33555
33028,65535,33577
33088,65535,33461
33128,65535,33188
33145,65535,33342
33148,65535,33550
33076,65535,33600
33048,65535,33482
33024,65535,33453
32984,65535,33486
33000,65535,33560
33064,65535,33591
33116,65535,33588
33156,65535,33620
33184,65535,33661
33208,65535,33617
33168,65535,33636
33124,65535,33695
33066,65535,33599
33024,65535,33559
33072,65535,33431
33157,65535,33603
33148,65535,33671
33196,65535,33720
33212,65535,33738
33200,65535,33671
33128,65535,33749
33080,65535,33367
33020,65535,33532
33045,65535,33635
33053,65535,33658
33096,65535,33724
33124,65535,33726
33176,65535,33741
33180,65535,33740
33160,65535,33789
33096,65535,33809
33040,65535,33832
33016,65535,33833
32981,65535,33821
32996,65535,33799
33007,65535,33824
33120,65535,33887
33204,65535,33911
33204,65535,33845
33160,65535,33853
33092,65535,33836
33104,65535,33810
32964,65535,33898
32900,65535,33908
32936,65535,33892
32985,65535,33903
33016,65535,33867
33124,65535,33824
33092,65535,33885
33069,65535,33957
33032,65535,33965
32948,65535,33992
32908,65535,34009
32876,65535,34043
32868,65535,34082
32952,65535,34013
33020,65535,33964
33072,65535,33841
33124,65535,33858
33104,65535,34028
33052,65535,34005
32984,65535,33988
32884,65535,34029
32852,65535,34046
32860,65535,34109
32909,65535,34117
32928,65535,34165
32968,65535,34144
32968,65535,34145
32935,65535,34156
32864,65535,34063
32832,65535,34162
32772,65535,34114
32768,65535,34139
32760,65535,34169
32798,65535,34207
32848,65535,34197
32904,65535,34132
32900,65535,33927
32872,65535,34242
32800,65535,34204
32760,65535,34204
32718,65535,34231
32676,65535,33968
32700,65535,34110
32772,65535,34210
32856,65535,34085
32868,65535,34005
32878,65535,34127
32868,65535,34172
32841,65535,34030
32781,65535,34422
32724,65535,34437
32696,65535,34311
32760,65535,34311
32764,65535,34321
32808,65535,34344
32836,65535,34095
32856,65535,34145
32840,65535,34148
32784,65535,34206
32748,65535,34236
32684,65535,34119
32680,65535,34392
32696,65535,34543
32756,65535,34488
32812,65535,34489
32884,65535,34348
32877,65535,34230
32833,65535,34231
32801,65535,34397
32729,65535,34506
32660,65535,34500
32604,65535,34549
32652,65535,34556
32736,65535,34567
32812,65535,34572
32844,65535,34586
32872,65535,34596
32858,65535,34604
32788,65535,34661
32752,65535,34656
32704,65535,34679
32676,65535,34594
32704,65535,34329
32788,65535,34501
32836,65535,34634
32864,65535,34701
32888,65535,34719
32860,65535,34736
32771,65535,34753
32748,65535,34756
32736,65535,34812
32736,65535,34828
32748,65535,34852
32824,65535,34847
32832,65535,34844
32852,65535,34851
32840,65535,34869
32832,65535,34873
32796,65535,34888
32756,65535,34911
32696,65535,34905
32676,65535,34885
32700,65535,34607
32774,65535,34623
32821,65535,34761
32900,65535,34909
32888,65535,34944
32828,65535,35041
32732,65535,35023
32660,65535,35106
32564,65535,35039
32540,65535,35140
32572,65535,35088
32612,65535,35135
32692,65535,35156
32732,65535,35146
32748,65535,35141
32732,65535,35167
32677,65535,35217
32608,65535,35180
32568,65535,35183
32516,65535,35208
32540,65535,35213
32624,65535,35240
32672,65535,35244
32724,65535,35264
32724,65535,35308
32692,65535,35272
32640,65535,35289
32580,65535,35311
32525,65535,35342
32530,65535,35358
32584,65535,35349
32630,65535,35376
32724,65535,35396
32764,65535,35414
32816,65535,35440
32800,65535,35417
32792,65535,35468
32753,65535,35505
32720,65535,35529
32704,65535,35541
32748,65535,35476
32821,65535,35549
32860,65535,35508
32896,65535,35557
32924,65535,35598
32888,65535,35588
32836,65535,35570
32800,65535,35581
32756,65535,35583
32756,65535,35604
32804,65535,35596
32852,65535,35614
32848,65535,35641
32888,65535,35702
32897,65535,35701
32880,65535,35722
32805,65535,35685
32770,65535,35688
32700,65535,35652
32684,65535,35565
32740,65535,35457
32812,65535,35670
32864,65535,35782
32952,65535,35793
32918,65535,35831
32884,65535,35804
32844,65535,35769
32784,65535,35639
32689,65535,35756
32681,65535,35801
32702,65535,35820
32776,65535,35847
32792,65535,35932
32824,65535,35997
32820,65535,35959
32784,65535,35981
32756,65535,35971
32716,65535,36042
32656,65535,35998
32644,65535,36029
32684,65535,36048
32768,65535,36111
32772,65535,36101
32788,65535,36132
32768,65535,36144
32702,65535,36140
32638,65535,36164
32512,65535,36188
32352,65535,36252
32136,65535,36277
31903,65535,36151
31484,65535,36292
31033,65535,36240
30644,65535,36261
30264,65535,36293
29924,65535,36337
29624,65535,36366
29308,65535,36396
28981,65535,36352
28692,65535,36359
28540,65535,36359
28520,65535,36420
28608,65535,36389
28912,65535,36428
29500,65535,36372
30309,65535,36292
31536,65535,36445
32982,65535,36471
34184,65535,36492
34848,65535,36492
34933,65535,36493
34768,65535,36519
34520,65535,36512
34292,65535,36557
33976,65535,36541
33632,65535,36487
33405,65535,36420
33208,65535,36501
33120,65535,36429
33064,65535,36312
33120,65535,36406
33193,65535,36500
33260,65535,36436
33328,65535,36410
33340,65535,36545
33336,65535,36605
33257,65535,36633
33254,65535,36537
33156,65535,36524
33176,65535,36609
33220,65535,36585
33260,65535,36580
33302,65535,36500
33304,65535,36611
33312,65535,36679
33256,65535,36692
33216,65535,36637
33136,65535,36633
33070,65535,36673
33064,65535,36693
33112,65535,36700
33152,65535,36696
33149,65535,36716
33160,65535,36714
33156,65535,36704
33108,65535,36743
33063,65535,36717
33040,65535,36791
32976,65535,36751
32972,65535,36609
33024,65535,36679
33056,65535,36775
33076,65535,36799
33128,65535,36774
33120,65535,36824
33054,65535,36808
33000,65535,36816
32980,65535,36821
32900,65535,36839
32880,65535,36817
32897,65535,36844
32920,65535,36693
32964,65535,36849
32996,65535,36861
32961,65535,36869
32908,65535,36896
32844,65535,36887
32764,65535,36880
32729,65535,36865
32772,65535,36844
32816,65535,36844
32832,65535,36842
32800,65535,36780
32828,65535,36737
32772,65535,36739
32760,65535,36663
32689,65535,36821
32636,65535,36871
32608,65535,36896
32577,65535,36996
32620,65535,36932
32628,65535,36945
32644,65535,36948
32632,65535,36921
32632,65535,36901
32594,65535,36919
32534,65535,36783
32473,65535,36663
32408,65535,36924
32368,65535,36917
32409,65535,36972
32476,65535,37036
32524,65535,36998
32529,65535,37031
32528,65535,36999
32464,65535,36996
32388,65535,37012
32364,65535,37052
32328,65535,37085
32294,65535,36988
32328,65535,36887
32384,65535,36801
32421,65535,36743
32429,65535,36800
32420,65535,36887
32365,65535,37037
32284,65535,37032
32200,65535,37081
32156,65535,37071
32158,65535,37074
32185,65535,37097
32224,65535,37089
32276,65535,37097
32288,65535,37058
32301,65535,37048
32231,65535,37109
32205,65535,37108
32184,65535,37072
32152,65535,37017
32136,65535,37030
32192,65535,37022
32252,65535,36956
32324,65535,36993
32360,65535,37124
32340,65535,37243
32334,65535,37365
32292,65535,37349
32263,65535,37334
32248,65535,37414
32240,65535,37383
32326,65535,37381
32460,65535,37311
32560,65535,37196
32676,65535,37454
32741,65535,37471
32752,65535,37505
32754,65535,37467
32777,65535,37511
32748,65535,37550
32788,65535,37573
32840,65535,37575
32984,65535,37604
33124,65535,37607
33176,65535,37628
33192,65535,37661
33180,65535,37638
33157,65535,37653
33136,65535,37642
33094,65535,37676
33152,65535,37695
33216,65535,37688
33296,65535,37644
33372,65535,37602
33432,65535,37527
33447,65535,37541
33412,65535,37551
33342,65535,37511
33278,65535,37540
33269,65535,37600
33276,65535,37587
33316,65535,37476
33376,65535,37492
33437,65535,37602
33472,65535,37673
33472,65535,37703
33424,65535,37797
33396,65535,37800
33344,65535,37799
33301,65535,37844
33293,65535,37815
33320,65535,37858
33368,65535,37829
33408,65535,37820
33476,65535,37838
33456,65535,37820
33400,65535,37860
33340,65535,37874
33280,65535,37705
33232,65535,37847
33268,65535,37878
33316,65535,37876
33368,65535,37844
33404,65535,37895
33404,65535,37885
33377,65535,37806
33344,65535,37796
33280,65535,37740
33232,65535,37636
33212,65535,37679
33184,65535,37700
33209,65535,37740
33244,65535,37627
33276,65535,37951
33316,65535,37884
33312,65535,37930
33236,65535,37869
33160,65535,37725
33136,65535,37814
33120,65535,37991
33121,65535,37927
33164,65535,37948
33208,65535,37943
33275,65535,37913
33278,65535,37911
33280,65535,37895
33216,65535,37952
33184,65535,37977
33148,65535,37988
33096,65535,38018
33072,65535,38023
33140,65535,37983
33184,65535,38036
33225,65535,38008
33240,65535,38001
33244,65535,38012
33160,65535,38012
33092,65535,37996
33024,65535,37855
33000,65535,37895
33004,65535,37985
33064,65535,38063
33116,65535,38084
33180,65535,38065
33204,65535,38049
33180,65535,38090
33117,65535,38063
33052,65535,38057
33016,65535,38057
32980,65535,38044
33032,65535,37988
33057,65535,37884
33104,65535,37825
33145,65535,37845
33176,65535,37991
33204,65535,38145
33168,65535,38085
33116,65535,38073
33136,65535,38017
33060,65535,37895
33049,65535,37791
33093,65535,37935
33157,65535,38093
33192,65535,38102
33176,65535,38052
33172,65535,38004
33128,65535,37796
33068,65535,38117
33032,65535,38068
33020,65535,38054
33036,65535,37996
33061,65535,37885
33152,65535,37853
33208,65535,37968
33221,65535,38039
33172,65535,38060
33096,65535,38053
33040,65535,38055
33009,65535,38067
33005,65535,38038
33010,65535,37964
33044,65535,37905
33086,65535,37934
33124,65535,37949
33140,65535,37749
33124,65535,37909
33096,65535,38008
33014,65535,38104
32941,65535,38055
32912,65535,38148
32964,65535,38079
33000,65535,38099
33076,65535,38085
33136,65535,38047
33156,65535,37991
33166,65535,38043
33076,65535,38095
32996,65535,38139
32956,65535,38116
32885,65535,38213
32880,65535,38022
32928,65535,38049
32980,65535,38116
33016,65535,38159
33056,65535,38174
33020,65535,38196
32956,65535,38212
32896,65535,38206
32831,65535,38237
32804,65535,38244
32824,65535,38257
32894,65535,38257
32952,65535,38220
32968,65535,38044
33016,65535,38156
32984,65535,38074
32920,65535,38092
32900,65535,38207
32816,65535,38239
32784,65535,38349
32824,65535,38356
32872,65535,38333
32928,65535,38328
32980,65535,38361
33025,65535,38334
33016,65535,38279
32964,65535,38077
32940,65535,38365
32872,65535,38372
32834,65535,38482
32824,65535,38535
32864,65535,38526
32916,65535,38486
32950,65535,38505
32964,65535,38519
32968,65535,38492
32916,65535,38384
32852,65535,38439
32836,65535,38576
32781,65535,38631
32756,65535,38599
32821,65535,38625
32888,65535,38639
32924,65535,38641
32956,65535,38649
32950,65535,38696
32900,65535,38705
32820,65535,38717
32782,65535,38693
32758,65535,38730
32808,65535,38740
32848,65535,38778
32905,65535,38748
32940,65535,38791
32975,65535,38805
32936,65535,38828
32908,65535,38799
32866,65535,38839
32816,65535,38835
32804,65535,38863
32833,65535,38844
32868,65535,38869
32913,65535,38872
32929,65535,38878
32981,65535,38952
32948,65535,38886
32888,65535,38723
32816,65535,38764
32784,65535,38967
32768,65535,38973
32789,65535,38829
32852,65535,38767
32892,65535,38668
32920,65535,38701
32973,65535,38722
32940,65535,38813
32884,65535,38886
32821,65535,38935
32832,65535,38900
32828,65535,38840
32840,65535,38708
32856,65535,38911
32868,65535,38895
32908,65535,38881
32928,65535,38838
32928,65535,38911
32848,65535,38903
32828,65535,38869
32780,65535,38772
32756,65535,38817
32804,65535,38752
32825,65535,38801
32856,65535,38691
32884,65535,39031
32869,65535,38973
32864,65535,38937
32844,65535,38962
32780,65535,38959
32724,65535,38947
32724,65535,38919
32728,65535,38901
32800,65535,38887
32869,65535,38897
32926,65535,38919
32952,65535,38919
32912,65535,38908
32864,65535,38893
32844,65535,38903
32792,65535,38916
32808,65535,38905
32836,65535,38910
32844,65535,38917
32900,65535,38889
32927,65535,38904
32936,65535,38886
32917,65535,38884
32900,65535,38869
32852,65535,38840
32864,65535,38828
32860,65535,38837
32869,65535,38780
32909,65535,38801
32936,65535,38736
32993,65535,38623
33000,65535,38710
33003,65535,38775
32933,65535,38692
32861,65535,38487
32840,65535,38591
32797,65535,38649
32816,65535,38561
32860,65535,38473
32924,65535,38487
32964,65535,38552
33022,65535,38661
32972,65535,38687
32908,65535,38677
32860,65535,38671
32836,65535,38629
32825,65535,38519
32872,65535,38424
32897,65535,38549
32937,65535,38657
32944,65535,38677
32952,65535,38543
32924,65535,38457
32833,65535,38567
32800,65535,38581
32744,65535,38576
32736,65535,38583
32784,65535,38545
32804,65535,38559
32848,65535,38545
32908,65535,38551
32918,65535,38535
32908,65535,38524
32876,65535,38529
32788,65535,38535
32709,65535,38503
32656,65535,38480
32644,65535,38461
32640,65535,38469
32640,65535,38437
32572,65535,38482
32412,65535,38448
32136,65535,38452
31656,65535,38431
31098,65535,38465
30584,65535,38417
30245,65535,38387
29968,65535,38115
29776,65535,38338
29568,65535,38337
29398,65535,38359
29149,65535,38336
28961,65535,38229
28872,65535,38263
29005,65535,38308
29336,65535,38270
30072,65535,38346
31000,65535,38017
32320,65535,38047
33776,65535,38044
34708,65535,38101
35112,65535,38213
34933,65535,38201
34576,65535,38225
34260,65535,38165
33940,65535,38233
33637,65535,38128
33432,65535,38048
33328,65535,38025
33240,65535,37993
33205,65535,37895
33180,65535,37909
33168,65535,37895
33184,65535,37888
33164,65535,37839
33136,65535,37863
33160,65535,37821
33212,65535,37740
33272,65535,37840
33332,65535,37918
33348,65535,37951
33377,65535,37983
33332,65535,37965
33272,65535,38053
33185,65535,37969
33156,65535,37863
33160,65535,37676
33156,65535,37773
33216,65535,37856
33272,65535,37870
33300,65535,37864
33308,65535,37847
33256,65535,37816
33220,65535,37638
33189,65535,37797
33156,65535,37829
33116,65535,37844
33141,65535,37489
33148,65535,37724
33184,65535,37785
33240,65535,37767
33237,65535,37653
33196,65535,37636
33088,65535,37441
33004,65535,37667
32952,65535,37691
32910,65535,37417
32960,65535,37573
33024,65535,37647
33064,65535,37663
33084,65535,37673
33057,65535,37655
32985,65535,37668
32928,65535,37533
32900,65535,37521
32800,65535,37397
32764,65535,37412
32760,65535,37548
32760,65535,37620
32806,65535,37583
32848,65535,37516
32858,65535,37311
32842,65535,37381
32776,65535,37443
32721,65535,37548
32668,65535,37557
32641,65535,37544
32657,65535,37544
32693,65535,37509
32728,65535,37511
32736,65535,37525
32724,65535,37517
32664,65535,37477
32624,65535,37420
32581,65535,37369
32492,65535,37332
32468,65535,37074
32449,65535,37076
32468,65535,37095
32536,65535,37041
32576,65535,37120
32568,65535,37207
32508,65535,37236
32448,65535,37289
32388,65535,37277
32316,65535,37255
32269,65535,37199
32304,65535,37225
32333,65535,37223
32344,65535,37223
32404,65535,37195
32408,65535,37175
32336,65535,37151
32276,65535,36876
32228,65535,36969
32160,65535,36990
32168,65535,37060
32192,65535,37032
32217,65535,37041
32236,65535,37068
32276,65535,36895
32252,65535,36860
32204,65535,36796
32136,65535,36916
32060,65535,36957
32032,65535,36892
32000,65535,36957
32040,65535,36999
32096,65535,37012
32148,65535,36982
32200,65535,36956
32224,65535,36980
32176,65535,36981
32140,65535,36798
32076,65535,36837
32064,65535,36828
32096,65535,36843
32165,65535,36553
32228,65535,36703
32301,65535,36719
32384,65535,36787
32436,65535,36828
32428,65535,36861
32440,65535,36828
32436,65535,36773
32441,65535,36637
32473,65535,36783
32556,65535,36785
32652,65535,36781
32736,65535,36576
32804,65535,36560
32856,65535,36692
32856,65535,36732
32808,65535,36738
32852,65535,36559
32865,65535,36358
32884,65535,36453
32964,65535,36559
33036,65535,36599
33120,65535,36640
33168,65535,36569
33204,65535,36562
33164,65535,36493
33144,65535,36168
33141,65535,36294
33104,65535,36417
33141,65535,36482
33192,65535,36449
33252,65535,36333
33352,65535,36302
33368,65535,36380
33376,65535,36372
33344,65535,36423
33292,65535,36276
33248,65535,36055
33192,65535,36109
33167,65535,36152
33200,65535,36150
33268,65535,36159
33328,65535,36119
33356,65535,36119
33364,65535,36078
33264,65535,36181
33232,65535,36174
33200,65535,36169
33145,65535,36169
33096,65535,36021
33180,65535,35881
33254,65535,35999
33328,65535,36050
33356,65535,35975
33344,65535,36028
33264,65535,36020
33263,65535,36036
33174,65535,35988
33080,65535,35999
33070,65535,35935
33090,65535,35894
33138,65535,35916
33198,65535,35895
33265,65535,35844
33248,65535,35649
33216,65535,35756
33184,65535,35779
33104,65535,35799
33092,65535,35815
33084,65535,35799
33116,65535,35493
33112,65535,35560
33184,65535,35649
33224,65535,35767
33228,65535,35769
33181,65535,35821
33100,65535,35762
33012,65535,35812
32952,65535,35664
32968,65535,35551
32993,65535,35725
33048,65535,35700
33116,65535,35693
33153,65535,35520
33152,65535,35484
33108,65535,35503
33080,65535,35496
33028,65535,35547
32984,65535,35663
32953,65535,35653
32990,65535,35629
33032,65535,35543
33084,65535,35413
33104,65535,35423
33088,65535,35376
33008,65535,35511
32953,65535,35308
32908,65535,35449
32868,65535,35521
32844,65535,35371
32880,65535,35321
32941,65535,35370
32988,65535,35273
32996,65535,35439
32998,65535,35536
32980,65535,35559
32921,65535,35559
32876,65535,35553
32844,65535,35495
32852,65535,35433
32872,65535,35212
32942,65535,35145
33037,65535,35357
33092,65535,35406
33080,65535,35329
33033,65535,35274
33001,65535,35424
32984,65535,35413
32912,65535,35409
32904,65535,35421
32940,65535,35399
32952,65535,35396
33020,65535,35372
33096,65535,35350
33052,65535,35342
32992,65535,35397
32989,65535,35263
32945,65535,34981
32896,65535,35172
32912,65535,35303
32937,65535,35309
32948,65535,35329
32988,65535,35327
33030,65535,35335
33012,65535,35348
32992,65535,35329
32925,65535,35335
32892,65535,35277
32876,65535,35332
32900,65535,35271
32928,65535,35285
32968,65535,35285
33030,65535,35316
33100,65535,35269
33062,65520,35357
33032,65535,35308
32988,65535,35244
32940,65535,35204
32908,65535,34942
32916,65535,35092
32976,65535,35126
33004,65535,35221
33044,65535,35272
33108,65529,35255
33096,65535,35269
33036,65535,35295
32993,65535,35314
32960,65535,35376
32948,65535,35221
32936,65535,34964
32965,65535,35184
33012,65535,35316
33068,65535,35312
33116,65508,35335
33112,65508,35373
33044,65535,35343
32964,65535,35340
32956,65535,35335
32924,65535,35343
32912,65535,35409
32972,65535,35273
33012,65535,35169
33023,65523,35332
33088,65492,35412
33077,65513,35460
33009,65535,35348
32960,65535,35384
32912,65535,35469
32876,65535,35497
32844,65535,35470
32904,65535,35478
32968,65535,35429
32968,65479,35382
33010,65495,35384
33005,65496,35463
32964,65535,35412
32929,65535,35421
32868,65535,35508
32860,65535,35471
32900,65535,35428
32928,65535,35196
33012,65535,35365
33040,65501,35421
33026,65455,35537
33044,65455,35557
32997,65529,35574
32936,65535,35589
32920,65535,35591
32905,65535,35356
32910,65535,35429
32972,65535,35420
33068,65503,35463
33088,65436,35439
33145,65350,35476
33132,65447,35620
33072,65462,35679
33036,65516,35630
32968,65535,35700
32948,65535,35636
32992,65535,35630
33024,65517,35583
33088,65452,35396
33108,65335,35597
33156,65383,35616
33136,65391,35670
33060,65439,35676
33008,65485,35701
32928,65502,35706
32892,65535,35737
32921,65516,35731
32980,65453,35712
32988,65415,35712
33048,65347,35736
33062,65303,35732
33048,65327,35716
33036,65347,35762
32980,65343,35754
32941,65472,35713
32908,65484,35633
32900,65453,35481
32928,65344,35565
32984,65330,35505
33004,65263,35604
33014,65228,35537
33024,65231,35474
32968,65279,35484
32888,65447,35621
32844,65410,35796
32804,65407,35673
32804,65372,35679
32837,65338,35565
32904,65255,35535
32948,65159,35567
32950,65119,35587
32945,65133,35581
32886,65193,35559
32832,65263,35530
32788,65346,35526
32768,65340,35669
32788,65247,35752
32860,65237,35719
32924,65133,35629
32985,65031,35436
33024,65031,35685
32992,65031,35719
32941,65092,35705
32888,65159,35753
32864,65189,35645
32832,65127,35493
32856,65220,35631
32878,65152,35634
32881,65063,35684
32952,64991,35692
32988,64871,35700
32972,64959,35681
32908,65007,35673
32836,65031,35669
32776,65196,35695
32735,65144,35696
32768,65095,35726
32804,64994,35659
32829,64983,35652
32877,64901,35705
32884,64869,35637
32853,64885,35540
32812,64920,35303
32788,64982,35416
32757,64940,35545
32720,65062,35634
32740,64999,35621
32812,64940,35671
32852,64847,35621
32904,64812,35520
32944,64775,35404
32952,64804,35591
32892,64831,35590
32844,64863,35557
32784,64868,35581
32744,64951,35613
32780,64908,35589
32848,64856,35564
32892,64815,35270
32892,64647,35445
32956,64719,35545
32910,64714,35591
32830,64771,35553
32812,64775,35536
32764,64863,35508
32732,64871,35207
32736,64838,35399
32772,64724,35488
32812,64727,35515
32821,64669,35543
32821,64612,35517
32752,64641,35470
32608,64647,35485
32420,64741,35530
32160,64775,35495
31788,64775,35445
31328,64770,35366
30920,64711,35297
30553,64622,35437
30236,64615,35440
29956,64573,35460
29644,64589,35486
29372,64636,35335
29113,64612,35332
28898,64765,35409
28845,64764,35430
28992,64725,35456
29358,64684,35405
30120,64608,35377
31016,64591,35357
32128,64556,35047
33476,64560,35175
34489,64611,35071
34980,64645,35273
34884,64693,35328
34566,64719,35384
34276,64631,35397
34068,64567,35348
33817,64564,35381
33588,64503,35344
33332,64468,35292
33124,64462,35204
32996,64516,35157
32936,64519,35141
32904,64612,35184
32904,64519,35265
32944,64582,35314
33008,64503,35281
33060,64450,35311
33124,64391,35346
33181,64285,35356
33164,64376,35287
33108,64423,35303
33065,64455,35321
32984,64519,35301
32940,64519,35269
32944,64485,35307
32996,64421,35160
33088,64381,35173
33124,64263,35157
33117,64294,35000
33084,64289,35124
33036,64338,35263
32988,64301,35231
32952,64431,35246
32908,64413,35257
32920,64391,35269
32936,64263,35236
32984,64281,35241
33040,64205,35286
33088,64199,35188
33048,64127,35061
32989,64258,34885
32932,64295,35012
32872,64340,35136
32824,64263,35191
32852,64316,35221
32868,64247,35206
32944,64135,35127
32968,64135,35023
32996,64119,35188
32932,64111,35171
32916,64189,35133
32856,64209,34918
32812,64263,35024
32764,64229,35181
32744,64213,35167
32781,64191,35233
32812,64054,35230
32833,64056,35101
32848,64037,34960
32808,64055,35024
32736,64007,35124
32705,64135,35108
32668,64188,35119
32624,64199,35113
32649,64135,35157
32721,64099,35157
32764,64047,35165
32784,63983,35153
32812,63932,35142
32812,63983,34837
32744,64007,35036
32672,64061,35012
32640,64060,35086
32596,64039,35076
32596,63988,35025
32661,63924,34900
32732,63975,34900
32761,63879,35017
32768,63879,35027
32760,63879,35007
32676,63956,34997
32580,63991,34981
32509,63949,34989
32504,64047,34939
32486,63996,34985
32549,63938,34823
32578,63869,34845
32580,63823,34820
32600,63791,34584
32536,63839,34730
32448,63791,34796
32373,63927,34863
32320,63957,34874
32249,63967,34863
32285,63876,34871
32324,63879,34700
32380,63823,34672
32446,63748,34799
32468,63645,34823
32456,63751,34776
32416,63807,34783
32340,63805,34780
32303,63896,34812
32284,63847,34661
32344,63847,34407
32382,63803,34545
32448,63735,34663
32448,63680,34693
32500,63663,34705
32468,63683,34721
32440,63735,34656
32413,63697,34692
32380,63836,34702
32369,63781,34685
32384,63783,34508
32456,63743,34513
32516,63588,34601
32620,63622,34567
32684,63598,34567
32661,63620,34439
32620,63665,34366
32576,63707,34519
32556,63743,34541
32585,63741,34480
32664,63719,34519
32780,63649,34325
32852,63551,34460
32934,63540,34420
32976,63495,34423
32960,63525,34207
32900,63591,34341
32904,63623,34396
32880,63687,34383
32948,63685,34396
32972,63619,34345
33025,63565,34250
33072,63476,34217
33132,63471,34234
33140,63392,34196
33128,63391,34204
33120,63495,34133
33092,63565,33954
33081,63549,34104
33108,63548,34123
33198,63544,34159
33252,63495,34132
33292,63440,34197
33373,63355,34040
33400,63328,33831
33364,63394,33936
33344,63431,33953
33320,63431,34048
33268,63495,34023
33249,63517,33978
33277,63389,34022
33344,63431,34017
33369,63367,34023
33432,63303,33983
33420,63183,33971
33348,63316,33956
33284,63365,33927
33216,63393,33959
33150,63456,33988
33160,63440,33948
33200,63404,33941
33269,63349,33940
33310,63285,33955
33356,63181,33921
33380,63207,33940
33340,63239,33927
33272,63288,33863
33232,63330,33877
33204,63367,33843
33168,63357,33884
33213,63299,33837
33276,63221,33864
33332,63103,33821
33380,63156,33815
33378,63143,33796
33320,63175,33799
33212,63215,33790
33156,63269,33791
33096,63229,33787
33056,63292,33788
33108,63268,33808
33108,63191,33817
33160,63055,33757
33208,63068,33779
33236,63071,33767
33197,63069,33765
33130,63044,33823
33096,63183,33748
33041,63228,33757
33057,63148,33757
33060,63172,33719
33093,63069,33744
33162,63052,33783
33180,63007,33721
33172,62919,33603
33140,63036,33373
33050,62983,33532
32964,63111,33598
32920,63163,33671
32894,63148,33663
32976,63111,33687
33001,62951,33696
33042,62983,33652
33072,62927,33694
33092,62917,33579
33044,62949,33513
33020,62908,33543
33001,62983,33616
32976,63077,33614
32952,63079,33614
32977,63030,33625
33049,62964,33603
33104,62911,33592
33160,62855,33558
33132,62840,33611
33100,62868,33605
33028,62828,33523
32976,62883,33565
32961,63004,33452
32929,63004,33383
32928,62935,33516
32952,62889,33554
33005,62835,33520
33076,62693,33528
33120,62772,33499
33124,62765,33542
33048,62855,33541
32981,62893,33381
32928,62901,33251
32936,62879,33415
32956,62872,33476
33016,62823,33455
33052,62759,33447
33060,62708,33415
33105,62697,33201
33088,62684,33342
33052,62701,33429
32992,62751,33458
32940,62855,33397
32892,62823,33396
32944,62820,33399
32984,62759,33429
33024,62612,33375
33072,62638,33437
33080,62639,33414
33041,62663,33385
32964,62645,33359
32924,62649,33373
32884,62789,33355
32865,62749,33362
32860,62727,33345
32952,62675,33354
32964,62532,33345
33016,62567,33374
32976,62519,33348
32912,62599,33348
32860,62540,33404
32764,62676,33405
32696,62711,33363
32672,62703,33309
32696,62663,33284
32748,62516,33063
32840,62543,33239
32873,62484,33227
32925,62471,33236
32901,62524,33271
32857,62494,33252
32796,62599,33235
32736,62645,33238
32740,62637,33089
32760,62471,33135
32840,62525,33181
32877,62471,33237
32900,62423,33292
32893,62423,33340
32847,62444,33357
32744,62495,33397
32678,62461,33348
32629,62572,33383
32660,62566,33079
32652,62415,33276
32732,62444,33349
32816,62396,33402
32848,62267,33448
32856,62343,33399
32828,62381,33463
32776,62423,33457
32748,62463,33268
32688,62471,33475
32656,62457,33511
32728,62431,33540
32780,62383,33522
32824,62325,33484
32884,62268,33214
32892,62269,33403
32856,62319,33533
32800,62343,33521
32740,62407,33521
32694,62343,33597
32701,62414,33647
32716,62383,33605
32764,62311,33623
32788,62237,33607
32828,62175,33375
32798,62198,33554
32752,62215,33645
32712,62293,33648
32681,62237,33745
32648,62359,33735
32628,62343,33749
32673,62215,33765
32716,62229,33799
32732,62191,33781
32768,62127,33799
32788,62131,33844
32744,62159,33857
32712,62214,33748
32676,62263,33566
32676,62252,33725
32684,62237,33910
32732,62215,33909
32801,62109,33984
32821,62109,34011
32828,62084,33839
32777,62070,33851
32700,62079,34000
32648,62087,34016
32608,62189,34025
32608,62214,34101
32608,62205,33799
32648,62161,34028
32728,62046,34095
32764,62053,34080
32816,61996,34085
32784,61992,34031
32716,62032,34142
32631,62087,34140
32568,62045,34169
32522,62145,34241
32522,62141,34205
32621,62096,34265
32688,62023,34143
32744,61983,33975
32773,61868,34199
32752,61943,34275
32708,61959,34269
32632,62020,34317
32604,62047,34285
32560,62007,34217
32608,62079,34180
32660,62029,34022
32740,61981,34116
32800,61919,34263
32821,61797,34311
32854,61781,34285
32825,61905,34356
32796,61940,34385
32721,62012,34404
32716,61983,34384
32688,62013,34489
32732,61956,34295
32772,61911,34272
32816,61775,34391
32860,61804,34482
32844,61828,34511
32832,61775,34492
32766,61892,34543
32696,61905,34502
32720,61959,34436
32782,61861,34379
32809,61888,34545
32860,61808,34543
32877,61783,34543
32868,61743,34577
32844,61656,34635
32784,61679,34575
32736,61812,34606
32700,61863,34471
32680,61895,34475
32704,61879,34537
32808,61830,34597
32937,61767,34532
32996,61703,34362
32980,61679,34452
32968,61695,34337
32884,61703,34584
32788,61676,34535
32718,61805,34377
32638,61789,34518
32624,61727,34532
32676,61767,34633
32724,61727,34647
32760,61551,34677
32809,61617,34619
32832,61615,34521
32816,61639,34527
32796,61701,34515
32736,61741,34462
32704,61767,34526
32684,61749,34495
32708,61692,34550
32752,61661,34562
32736,61501,34663
32712,61548,34733
32660,61575,34793
32564,61575,34807
32529,61556,34801
32456,61695,34823
32328,61703,34817
32169,61663,34823
32036,61657,34823
31752,61607,34777
31324,61511,34804
30836,61511,34788
30308,61488,34837
29820,61551,34881
29325,61493,34852
28888,61661,34852
28552,61669,34875
28385,61685,34925
28300,61575,34924
28402,61575,34951
28708,61502,34823
29280,61487,34823
30144,61492,34889
31068,61525,34924
32228,61569,34919
33624,61639,34951
34714,61657,34972
35280,61628,34952
35256,61575,34960
34996,61537,35004
34684,61396,34973
34420,61429,34988
34116,61425,34997
33736,61487,35069
33396,61527,35052
33092,61476,34985
32944,61575,34957
32913,61541,34966
32953,61443,34914
33029,61440,34951
33060,61380,34951
33120,61373,34897
33168,61303,34996
33160,61396,35133
33114,61396,35152
33100,61508,35182
33072,61446,35159
33080,61492,35222
33152,61412,35266
33196,61383,35239
33268,61244,35223
33245,61287,35169
33216,61292,35047
33177,61317,35234
33148,61383,35273
33096,61421,35265
33040,61438,35276
33024,61364,35284
33084,61380,35308
33096,61319,35344
33124,61265,35146
33132,61136,35299
33120,61221,35303
33056,61278,35279
32993,61309,35324
32960,61356,35183
32916,61384,35111
32937,61282,35280
32976,61311,35345
33016,61255,35305
33028,61151,35335
33014,61145,35207
33017,61177,35249
32985,61185,35357
32948,61245,35367
32894,61312,35388
32840,61319,35391
32808,61292,35381
32852,61253,35409
32880,61191,35405
32854,61135,35461
32870,61104,35523
32828,61012,35461
32756,61149,35462
32724,61191,35461
32684,61208,35487
32648,61285,35557
32704,61236,35404
32740,61191,35250
32818,61095,35264
32830,61087,35335
32832,60976,35437
32801,61060,35478
32736,61093,35524
32637,61127,35509
32568,61191,35429
32580,61231,35433
32609,61191,35318
32648,61148,35278
32652,61095,35380
32672,60957,35245
32664,60989,35334
32616,60996,35277
32557,61055,35276
32502,61088,35254
32472,61132,35265
32420,61156,35311
32460,61141,35248
32450,61085,35287
32480,61039,35280
32476,60860,35173
32430,60934,35269
32364,60935,35229
32268,60999,35207
32242,60968,35239
32224,61095,35245
32169,61077,35244
32204,61087,35231
32236,61019,35180
32292,60986,35292
32320,60895,35325
32332,60871,35383
32308,60909,35180
32288,60959,35151
32186,60985,35163
32160,61047,35311
32142,60989,35215
32132,61021,35352
32122,60977,35399
32176,60908,35427
32224,60759,35428
32276,60847,35410
32252,60865,35447
32188,60901,35425
32133,60959,35430
32101,60935,35388
32060,61007,35408
32076,60973,35349
32119,60925,35367
32162,60864,35345
32268,60706,35436
32380,60797,35335
32396,60711,35327
32376,60775,35389
32348,60892,35149
32324,60935,35332
32320,60935,35352
32340,60878,35363
32420,60901,35340
32500,60831,35329
32592,60661,35292
32597,60730,35369
32608,60753,35272
32644,60793,35261
32660,60839,35281
32668,60895,35183
32677,60916,35077
32712,60806,35135
32796,60807,35207
32852,60764,35223
32924,60679,35223
32976,60674,35197
32986,60679,35191
32948,60735,35164
32952,60790,35207
32964,60833,35148
33008,60844,34983
33100,60807,35028
33148,60761,35018
33214,60716,35071
33262,60641,35028
33289,60551,35079
33269,60635,35076
33245,60679,35060
33205,60700,35073
33172,60789,35108
33183,60724,34804
33189,60752,34903
33248,60709,35025
33284,60660,35029
33352,60599,35028
33388,60517,35020
33349,60580,34989
33308,60639,34924
33208,60669,34887
33096,60730,34895
33032,60735,34735
33056,60709,34745
33116,60665,34761
33156,60603,34879
33209,60543,34969
33236,60511,34988
33220,60543,34845
33152,60519,34695
33100,60540,34820
33006,60676,34848
33000,60600,34953
33012,60647,34994
33060,60593,35004
33172,60535,34989
33228,60487,34997
33256,60460,34921
33232,60389,34799
33156,60532,34841
33088,60560,34735
33081,60637,34879
33068,60543,34917
33088,60524,34813
33140,60543,34869
33137,60481,34927
33200,60423,34876
33204,60409,34751
33188,60423,34832
33165,60456,34749
33116,60517,34841
33028,60585,34815
33016,60551,34940
33040,60479,34951
33100,60488,34954
33158,60423,34951
33166,60391,34936
33166,60260,34936
33102,60391,34932
33060,60422,34930
33012,60447,34935
32996,60543,34916
33012,60423,34916
33074,60501,34871
33152,60423,34879
33192,60404,34880
33188,60336,34892
33221,60212,34837
33220,60335,34828
33193,60364,34866
33133,60401,34821
33092,60420,34812
33020,60487,34850
33028,60383,34781
33093,60300,34822
33128,60344,34796
33150,60283,34775
33176,60263,34721
33192,60208,34741
33192,60316,34765
33140,60295,34790
33093,60423,34729
33084,60423,34748
33090,60399,34727
33141,60250,34735
33184,60295,34761
33254,60231,34734
33252,60231,34624
33196,60167,34573
33156,60276,34670
33092,60334,34693
33012,60377,34665
33017,60376,34692
33020,60281,34708
33068,60263,34709
33136,60240,34648
33174,60167,34655
33181,60159,34642
33124,60117,34620
33008,60228,34644
32976,60167,34639
32924,60325,34636
32904,60312,34639
32934,60295,34660
32964,60234,34644
32968,60188,34635
32972,60128,34626
33001,60039,34604
32988,60141,34632
32925,60189,34641
32904,60231,34612
32912,60272,34541
32892,60286,34421
32940,60250,34512
32992,60167,34655
33060,60141,34712
33096,60039,34705
33132,60063,34644
33096,60033,34652
33032,60071,34660
32941,60188,34692
32873,60245,34727
32824,60239,34738
32808,60103,34719
32916,60141,34671
32940,60076,34684
32960,60012,34684
32980,60021,34628
32956,60045,34567
32904,60095,34767
32864,60135,34695
32812,60188,34740
32765,60185,34741
32784,60148,34715
32879,60037,34677
32936,59949,34628
33006,59981,34622
33000,59975,34734
32988,59975,34695
32912,60039,34550
32876,60092,34708
32836,60047,34727
32808,60031,34851
32864,59999,34852
32960,59972,34805
33009,59909,34832
33100,59846,34719
33124,59856,34758
33048,59959,34884
32954,60004,34877
32856,59997,34851
32788,60076,34751
32788,60085,34867
32833,60039,34887
32880,59997,34909
32968,59940,34733
33028,59884,34980
33044,59879,34925
32988,59892,34900
32936,59951,34909
32877,59993,34716
32821,60039,34956
32876,60039,34924
32864,59911,34951
32884,59856,34889
32940,59847,34773
32980,59840,34753
33028,59826,34951
32956,59867,34951
32936,59879,34823
32869,59951,34842
32828,60007,35052
32820,59984,34988
32853,59957,34999
32860,59901,34931
32928,59836,34933
32940,59796,35061
32952,59780,35025
32902,59812,35028
32857,59828,35055
32816,59911,35016
32788,59959,35045
32808,59950,35053
32822,59911,34988
32868,59865,34823
32886,59821,35128
32908,59759,35068
32944,59756,35060
32937,59783,34951
32837,59828,34889
32852,59865,35025
32844,59860,35075
32832,59901,35107
32868,59861,34913
32955,59812,35044
32989,59759,35094
33036,59709,35117
