ECG,EDA,RR
32698,45231,23151
32684,45185,22988
32652,45255,23116
32629,45245,23101
32652,45359,23156
32712,45421,23108
32700,45447,23072
32732,45439,23094
32740,45337,23076
32704,45359,23085
32700,45253,22992
32736,45283,23052
32660,45319,22966
32613,45359,22945
32548,45413,23078
32536,45471,23010
32492,45501,22866
32504,45490,23106
32604,45447,22972
32650,45412,22833
32584,45367,23037
32532,45316,22909
32460,45375,22820
32404,45431,23006
32380,45485,22862
32384,45543,22788
32360,45517,22821
32368,45553,22817
32460,45519,22657
32576,45458,22780
32676,45423,22740
32716,45415,22663
32620,45444,22747
32504,45486,22692
32328,45533,22589
32276,45551,22639
32181,45626,22619
32132,45553,22472
32004,45575,22677
31784,45501,22580
31453,45481,22474
31010,45442,22609
30512,45503,22521
30062,45551,22350
29719,45623,22508
29373,45688,22458
29100,45729,22426
28972,45723,22294
28848,45687,22393
28840,45656,22391
29056,45560,22317
29412,45613,22384
29958,45629,22316
30784,45703,22289
31816,45749,22144
33124,45823,22383
34280,45831,22243
34940,45767,22239
35060,45769,22081
34804,45732,22132
34496,45684,22265
34176,45677,22186
33844,45671,22020
33521,45751,22198
33276,45779,22159
33036,45849,21975
32823,45881,22190
32644,45865,22113
32544,45783,22022
32584,45783,22012
32657,45684,22169
32780,45733,22081
32796,45757,22068
32772,45804,21959
32825,45820,22055
32788,45927,22068
32676,45948,22015
32660,45917,21895
32712,45887,22140
32724,45823,22004
32760,45815,22016
32737,45748,21856
32656,45820,22058
32588,45837,21983
32612,45924,21828
32637,45940,22064
32664,46015,21924
32768,45943,21896
32980,45959,21765
33002,45927,21991
33048,45871,21893
33032,45831,21735
32889,45908,21884
32720,45957,21879
32588,46015,21953
32428,46068,21843
32424,46087,21701
32486,46077,21662
32476,46036,21865
32620,45998,21788
32720,45959,21639
32784,45951,21808
32744,45983,21755
32688,46039,21745
32696,46087,21573
32652,46159,21789
32648,46156,21694
32692,46165,21687
32772,46133,21634
32784,46087,21676
32760,46047,21574
32712,46045,21728
32576,46073,21687
32522,46141,21682
32520,46181,21672
32428,46269,21642
32352,46261,21541
32460,46252,21636
32570,46215,21652
32644,46183,21585
32660,46131,21443
32780,46128,21567
32748,46165,21557
32556,46215,21560
32372,46279,21394
32357,46341,21622
32300,46305,21570
32324,46356,21511
32408,46319,21493
32448,46233,21438
32464,46228,21321
32524,46231,21572
32554,46215,21471
32472,46323,21432
32404,46383,21425
32284,46453,21359
32296,46468,21252
32328,46448,21519
32356,46423,21433
32404,46324,21399
32394,46335,21408
32456,46333,21314
32356,46317,21328
32244,46437,21380
32136,46495,21373
32104,46564,21228
32068,46583,21348
32204,46567,21461
32288,46503,21375
32332,46487,21370
32276,46447,21349
32220,46403,21341
32240,46429,21381
32272,46540,21318
32228,46599,21329
32254,46676,21134
32336,46685,21327
32369,46668,21306
32332,46650,21260
32277,46598,21257
32276,46556,21255
32204,46567,21106
32216,46599,21233
32200,46669,21183
32148,46677,21267
32176,46789,21237
32221,46796,21074
32276,46717,21303
32416,46750,21221
32470,46724,21115
32493,46679,21300
32472,46685,21185
32460,46681,21008
32332,46789,21228
32229,46847,21179
32212,46901,21032
32180,46930,21285
32256,46910,21211
32315,46878,21169
32476,46793,21154
32673,46795,21141
32769,46811,20996
32792,46852,21157
32672,46918,21145
32632,46974,21069
32616,47031,20976
32766,47041,21157
32864,47031,21119
32985,46983,21038
33020,46948,21228
33074,46926,21107
33000,46931,20964
32881,46977,21108
32881,47020,21108
32844,47068,21074
32848,47102,21031
32873,47173,20844
32872,47163,21004
32880,47111,21000
32872,47076,20904
32988,47054,21004
33064,46983,20952
33116,47092,20932
33120,47154,20937
33113,47215,20725
33101,47270,20880
33100,47295,20725
33212,47287,20854
33226,47253,20694
33196,47221,20757
33230,47182,20820
33324,47176,20781
33308,47213,20774
33228,47285,20742
33189,47312,20749
33128,47410,20552
33076,47436,20789
33080,47424,20704
33128,47393,20700
33245,47349,20676
33317,47312,20530
33316,47285,20620
33301,47364,20652
33304,47430,20661
33224,47493,20618
33100,47548,20615
33012,47580,20449
33012,47574,20548
33096,47533,20656
33108,47495,20589
33156,47457,20359
33176,47477,20630
33117,47508,20513
33144,47590,20486
33044,47639,20321
32928,47708,20447
32820,47735,20511
32848,47719,20449
33020,47695,20276
33062,47623,20499
33060,47623,20412
33048,47613,20388
33092,47675,20240
33012,47732,20457
32964,47788,20378
32908,47860,20343
32857,47879,20200
32952,47868,20374
32905,47772,20365
32900,47815,20195
32944,47769,20285
32976,47772,20321
32970,47825,20270
32864,47817,20178
32852,47944,20277
32768,48025,20254
32740,47980,20136
32724,48035,20319
32810,47992,20245
32828,47965,20082
32804,47934,20266
32796,47940,20254
32864,47956,20066
32862,48044,20288
32776,48115,20230
32734,48186,20218
32752,48204,20246
32748,48174,20231
32794,48167,20097
32804,48096,20076
32968,48093,20264
32989,48103,20203
32996,48117,20170
32872,48204,20165
32812,48281,20204
32784,48342,20188
32720,48372,20047
32684,48357,20182
32744,48335,20209
32788,48301,20156
32807,48263,20165
32912,48245,20180
32976,48312,20156
33045,48317,19999
33116,48450,20278
33120,48512,20225
33128,48492,20196
32992,48519,20097
32800,48495,19985
32742,48470,20212
32694,48372,20163
32736,48443,20041
32769,48492,20162
32760,48551,20149
32716,48639,20141
32656,48695,20177
32664,48697,20217
32756,48646,20164
32784,48669,20081
32860,48636,20189
32897,48607,20209
32880,48615,20300
32832,48639,20243
32748,48713,20205
32664,48801,20148
32604,48859,20228
32584,48895,20248
32672,48868,20108
32764,48844,20337
32804,48761,20327
32908,48775,20185
32956,48739,20409
32932,48840,20351
32906,48895,20364
33028,48987,20365
33106,49040,20290
33124,49016,20437
33063,49057,20460
32956,49028,20435
32870,48996,20342
32772,48921,20638
32736,48973,20591
32732,49012,20480
32692,49087,20651
32633,49156,20436
32594,49199,20674
32596,49268,20683
32684,49233,20734
32772,49212,20732
32776,49176,20556
32780,49088,20836
32820,49159,20821
32824,49204,20844
32824,49268,20869
32902,49328,20734
32868,49405,20941
32828,49433,21043
32696,49432,20996
32629,49405,21007
32636,49327,21026
32756,49338,21037
32884,49279,20907
32929,49376,20888
32912,49471,21124
32772,49533,21198
32764,49607,21135
32738,49613,20975
32692,49620,21216
32721,49589,21193
32748,49543,21218
32900,49467,21132
32989,49532,21046
32928,49511,21333
32892,49639,21268
32904,49703,21134
32828,49797,21355
32774,49813,21276
32748,49799,21297
32868,49777,21124
32904,49750,21366
32900,49708,21312
32900,49721,21159
32888,49767,21378
32864,49836,21281
32756,49895,21097
32604,49947,21289
32645,49999,21281
32736,49943,21084
32856,49956,21359
32888,49879,21268
32877,49901,21048
32892,49921,21257
32900,49964,21229
32884,50021,21356
32878,50095,21266
32832,50175,21072
32761,50183,21284
32796,50183,21073
32852,50086,21307
32910,50120,21236
32892,50093,21031
32892,50117,21279
32900,50095,21178
32892,50238,21044
32876,50295,21320
32833,50356,21291
32784,50399,21119
32800,50372,21070
32809,50303,21336
32900,50311,21274
32864,50285,21223
32804,50311,21269
32756,50363,21267
32672,50428,21108
32612,50492,21297
32596,50567,21255
32576,50583,21197
32476,50519,21372
32344,50557,21238
32268,50535,21287
31980,50496,21307
31561,50524,21097
31128,50567,21329
30648,50648,21281
30224,50719,21238
29904,50759,21252
29639,50809,21311
29456,50796,21277
29424,50807,21078
29385,50773,21295
29456,50759,21339
29720,50799,21287
30168,50845,21233
30877,50917,21084
31709,50983,21385
32832,51068,21342
33928,51031,21133
34744,51067,21413
35165,51047,21353
35036,51013,21356
34687,50978,21207
34456,50983,21410
34212,51023,21372
34000,51061,21182
33716,51177,21455
33416,51247,21419
33196,51189,21274
33040,51247,21458
32976,51204,21451
33005,51196,21443
33060,51121,21288
33116,51168,21557
33180,51229,21468
33156,51293,21413
33104,51365,21440
33048,51359,21504
33096,51460,21474
33056,51437,21317
33113,51412,21609
33148,51325,21509
33197,51357,21484
33242,51380,21289
33156,51431,21601
33077,51503,21500
32988,51564,21448
32948,51625,21539
32918,51666,21511
32918,51573,21284
32956,51623,21506
32989,51591,21520
33048,51575,21470
33049,51573,21443
33004,51571,21249
32996,51660,21431
32920,51751,21455
32820,51822,21296
32744,51865,21175
32740,51863,21254
32782,51836,21463
32924,51793,21426
33089,51691,21378
33168,51783,21212
33076,51789,21388
32832,51896,21388
32792,51932,21341
32704,52028,21436
32708,52005,21444
32732,52052,21332
32716,51967,21449
32688,51959,21441
32788,51972,21417
32800,52006,21228
32680,52061,21511
32552,52103,21409
32508,52187,21462
32448,52271,21406
32508,52287,21503
32580,52261,21380
32625,52259,21483
32692,52228,21367
32748,52135,21122
32696,52219,21332
32636,52231,21268
32565,52343,21329
32488,52412,21255
32388,52487,21052
32408,52487,21188
32421,52431,21116
32472,52479,20908
32504,52447,21109
32508,52412,20954
32464,52445,21054
32461,52487,20813
32492,52565,20943
32528,52631,20844
32460,52703,20882
32392,52727,20743
32356,52720,20769
32252,52711,20513
32316,52656,20680
32340,52591,20593
32404,52677,20497
32396,52719,20255
32340,52717,20509
32220,52868,20368
32164,52895,20189
32152,52967,20348
32196,52901,20181
32240,52916,20145
32316,52908,20133
32488,52806,19892
32512,52895,20108
32429,52939,19973
32312,52996,19933
32216,53007,19710
32204,53149,19933
32200,53103,19836
32308,53165,19636
32366,53068,19825
32336,53089,19769
32306,53028,19562
32184,53117,19659
32116,53164,19643
32092,53231,19605
32140,53231,19600
32137,53383,19535
32160,53415,19485
32213,53407,19445
32208,53377,19279
32276,53324,19206
32352,53319,19426
32409,53328,19383
32464,53405,19288
32504,53460,19265
32460,53543,19012
32340,53612,19112
32220,53629,18964
32160,53636,19144
32296,53607,19065
32450,53575,18936
32528,53471,18847
32476,53575,18740
32404,53621,18799
32314,53698,18668
32284,53759,18879
32356,53844,18791
32496,53863,18735
32658,53855,18581
32804,53816,18599
32916,53796,18623
32972,53767,18557
33012,53788,18444
32940,53831,18298
32808,53917,18476
32760,53943,18436
32808,54052,18229
32868,54068,18461
32968,54071,18392
33024,53975,18328
33120,53996,18079
33060,53925,18294
33028,54023,18260
33025,54079,18103
33038,54151,18220
33032,54201,18297
33121,54259,18186
33180,54309,18127
33260,54227,17978
33272,54268,18194
33330,54183,18140
33344,54224,17947
33305,54247,18153
33201,54309,18135
33100,54372,18008
33057,54391,18023
33072,54505,18092
33068,54476,18066
33064,54531,17833
33148,54513,18105
33180,54488,18047
33140,54463,18080
33104,54480,18029
33116,54535,17791
33160,54530,18040
33196,54663,17988
33157,54750,17934
33144,54765,18004
33172,54698,18006
33120,54755,17948
33133,54733,18000
33032,54697,18015
32872,54716,17779
32764,54788,18012
32760,54847,17797
32856,54919,18029
32968,54953,17971
33060,55020,17801
33145,55015,17980
33140,54996,18029
33112,54956,17997
33132,54919,17815
33112,54959,18046
33064,55023,18006
32956,55091,17867
32932,55151,18122
32812,55244,18053
32846,55273,17847
32960,55253,18125
33040,55167,18129
33024,55205,18071
33012,55175,18230
32954,55200,18162
32848,55250,18269
32832,55332,18231
32888,55349,18214
32856,55485,18318
32936,55431,18279
32992,55485,18109
32952,55396,18389
32968,55431,18286
32980,55422,18140
33024,55391,18407
33048,55494,18359
32984,55527,18197
33000,55652,18427
32972,55656,18433
32980,55740,18202
33012,55671,18561
33036,55708,18493
33096,55623,18373
33076,55674,18605
33064,55687,18541
33028,55751,18340
32964,55815,18629
32988,55847,18565
32965,55967,18407
32900,56013,18660
32948,55996,18567
32976,55975,18460
33001,55943,18676
32960,55862,18687
32872,55933,18519
32892,56001,18748
32944,56071,18715
32932,56159,18514
32880,56226,18505
32877,56199,18799
32864,56244,18731
32832,56219,18725
32852,56175,18509
32868,56175,18744
32909,56124,18701
32852,56248,18509
32961,56238,18815
32980,56413,18785
32980,56484,18595
32996,56501,18733
33080,56493,18788
33128,56476,18613
33188,56437,18736
33160,56423,18765
33044,56438,18754
32928,56511,18549
32898,56581,18762
32989,56647,18772
32952,56737,18710
32820,56683,18772
32784,56697,18808
32792,56647,18643
32864,56692,18847
32904,56662,18848
32909,56694,18778
32902,56757,18624
32900,56774,18841
32864,56901,18815
32908,56981,18800
32897,57012,18684
32868,56980,18886
32896,56981,18812
32956,56860,18565
32992,56919,18849
33005,56949,18644
32980,56987,18884
32920,57037,18804
32928,57172,18618
32896,57223,18930
32964,57261,18895
33048,57245,18737
33076,57149,18930
33008,57206,18904
33044,57189,18709
33044,57191,18880
32956,57249,18938
32920,57340,18730
32896,57419,18960
32861,57479,18961
32789,57519,18792
32728,57504,18939
32784,57447,18958
32832,57445,18966
32910,57351,18726
32992,57441,19079
33020,57519,19077
32976,57591,19026
32988,57671,18831
33008,57684,19050
33060,57756,19103
33088,57709,19079
33044,57735,18840
33188,57671,19190
33276,57652,19121
33366,57711,18991
33304,57775,19237
33141,57847,19163
32928,57926,19073
32760,57991,18977
32637,57991,19252
32676,58007,19250
32714,57905,19120
32826,57989,19069
32924,57951,19291
32956,57980,19345
33008,58023,19300
32952,58073,19109
32924,58180,19424
32833,58271,19396
32888,58269,19372
33008,58277,19483
33100,58236,19547
33153,58236,19535
33180,58207,19401
33188,58247,19628
33152,58285,19663
33132,58364,19770
33080,58444,19781
33020,58527,19740
33048,58557,19566
33112,58535,19790
33152,58512,19829
33112,58502,19826
33044,58473,19706
33000,58503,19885
32960,58557,19943
32980,58631,19917
33020,58709,19777
33033,58759,20040
33108,58806,20056
33208,58805,20035
33344,58804,19851
33420,58759,20148
33333,58732,20097
33160,58743,19883
33084,58823,20178
33076,58905,20087
33048,58980,20186
32888,59003,20268
32932,59012,20092
32933,59084,20263
32872,59069,20285
32720,59039,20128
32600,59015,20341
32453,59044,20369
32140,59015,20351
31721,59173,20153
31260,59271,20492
30894,59328,20452
30356,59367,20388
30020,59361,20248
29772,59349,20540
29713,59293,20453
29708,59308,20351
29624,59357,20492
29764,59391,20559
30044,59509,20570
30365,59607,20500
31144,59591,20260
31980,59700,20572
33120,59701,20480
34350,59695,20413
35228,59652,20312
35672,59599,20575
35620,59655,20513
35318,59724,20296
34924,59797,20551
34501,59879,20494
34053,59959,20521
33788,59983,20572
33588,59967,20513
33404,59911,20292
33268,59908,20580
33213,59881,20530
33213,59924,20429
33164,59977,20540
33096,60053,20321
33100,60135,20585
33096,60205,20567
33182,60231,20572
33272,60216,20628
33360,60196,20567
33381,60100,20353
33388,60145,20627
33348,60189,20593
33253,60240,20614
33253,60322,20457
33256,60389,20652
33292,60486,20592
33280,60505,20342
33288,60449,20688
33292,60462,20575
33332,60359,20399
33288,60423,20614
33313,60455,20576
33294,60495,20661
33188,60597,20552
33112,60679,20321
33028,60762,20626
33106,60780,20556
33144,60780,20558
33220,60759,20588
33208,60727,20430
33197,60708,20638
33174,60743,20520
33096,60807,20264
33116,60885,20609
33016,60892,20547
32973,60979,20437
32973,61063,20527
32972,61063,20579
32940,61036,20418
33012,61021,20549
33044,60999,20470
33044,61022,20256
32940,61085,20521
32876,61095,20484
32752,61231,20228
32684,61316,20597
32732,61335,20545
32826,61337,20377
32924,61239,20500
33005,61295,20553
33097,61209,20324
33088,61239,20583
33048,61378,20549
33012,61465,20477
32988,61548,20575
32940,61637,20608
32928,61661,20321
32944,61647,20573
32940,61541,20383
32927,61596,20557
32996,61591,20325
33096,61517,20577
33028,61685,20288
32980,61753,20566
32877,61844,20409
32809,61927,20533
32780,61864,20448
32796,61925,20575
32788,61919,20442
32808,61889,20522
32832,61871,20308
32872,61890,20523
32756,61983,20306
32645,61980,20512
32561,62129,20453
32513,62228,20455
32512,62247,20516
32549,62172,20401
32696,62197,20191
32789,62156,20473
32880,62183,20156
32908,62215,20422
32876,62289,20142
32792,62343,20404
32652,62460,20268
32498,62437,20457
32484,62549,20357
32516,62447,20184
32628,62511,20439
32680,62471,20326
32696,62471,20380
32656,62524,20393
32568,62573,20342
32381,62583,20077
32280,62727,20337
32320,62756,20311
32392,62849,20084
32460,62794,20327
32476,62781,20296
32520,62806,20057
32608,62800,20360
32526,62749,20349
32468,62893,20302
32428,62980,20029
32480,63076,20370
32482,63141,20060
32572,63158,20343
32620,63164,20136
32666,63132,20343
32704,63093,20220
32724,63111,20393
32780,63143,20323
32773,63212,20327
32741,63215,20316
32764,63352,20150
32760,63428,20373
32804,63477,20335
32881,63428,20121
33056,63431,20416
33212,63351,20365
33306,63399,20463
33332,63436,20375
33204,63527,20157
33032,63591,20409
32902,63687,20108
32916,63749,20441
32984,63773,20316
33100,63671,20471
33189,63735,20403
33245,63647,20432
33272,63696,20445
33274,63713,20230
33252,63807,20496
33184,63828,20445
33124,63982,20513
33066,64047,20506
33116,64063,20324
33101,64055,20552
33221,64039,20452
33192,63943,20214
33124,64006,20554
33152,63967,20513
33136,64100,20507
33132,64118,20580
33188,64276,20324
33024,64357,20526
32921,64372,20577
32876,64359,20620
32916,64337,20306
32989,64320,20662
33094,64308,20423
33156,64324,20681
33212,64423,20595
33148,64508,20644
33148,64519,20628
33028,64647,20673
32944,64647,20636
32912,64647,20389
32932,64594,20752
32934,64612,20493
32976,64611,20781
32954,64647,20704
32928,64735,20460
32929,64815,20789
32873,64901,20750
32844,64983,20837
32872,64999,20781
32886,64989,20858
32864,64927,20847
32836,64965,20815
32804,64935,20596
32753,64980,20914
32662,65081,20868
32530,65183,20866
32513,65228,20887
32586,65365,20957
32661,65348,20941
32677,65373,20812
32676,65373,20926
32704,65287,20981
32772,65329,20947
32744,65395,20703
32708,65468,21045
32708,65492,20891
32652,65535,21001
32639,65535,20985
32628,65535,20762
32592,65535,21079
32596,65535,21012
32580,65535,20833
32628,65535,21124
32648,65535,21058
32608,65535,21056
32445,65535,21143
32324,65535,20924
32288,65535,21094
32328,65535,21186
32400,65535,21088
32432,65535,21134
32445,65535,21156
32464,65535,21120
32556,65535,20964
32546,65535,21235
32540,65535,21216
32516,65535,21085
32440,65535,20901
32392,65535,21220
32340,65535,21128
32281,65535,21192
32288,65535,21265
32316,65535,21214
32365,65535,21250
32448,65535,21264
32436,65535,20989
32349,65535,21344
32264,65535,21326
32220,65535,21302
32280,65535,21079
32352,65535,21349
32381,65535,21350
32422,65535,21352
32370,65535,21419
32321,65535,21284
32284,65535,21438
32272,65535,21409
32261,65535,21477
32286,65535,21573
32302,65535,21335
32280,65535,21572
32316,65535,21276
32320,65535,21645
32297,65535,21349
32264,65535,21724
32216,65535,21410
32224,65535,21701
32212,65535,21778
32228,65535,21760
32244,65535,21765
32268,65535,21565
32320,65535,21862
32332,65535,21820
32310,65535,21880
32260,65535,21972
32212,65535,21768
32212,65535,22058
32276,65535,22041
32312,65535,21959
32348,65535,22075
32426,65535,22165
32412,65535,22064
32341,65535,22190
32160,65535,22255
32116,65535,22232
32212,65535,22309
32253,65535,22372
32186,65535,22222
32060,65535,22359
32044,65535,22445
32076,65535,22449
32133,65535,22223
32151,65535,22597
32136,65535,22653
32143,65535,22593
32045,65535,22465
31928,65535,22695
31860,65535,22785
31844,65535,22810
31908,65535,22590
31960,65535,22966
31984,65535,22956
32040,65535,22757
32088,65535,23144
32084,65535,23135
32028,65535,23029
31964,65535,23279
31940,65535,23256
31916,65535,23365
31968,65535,23364
32006,65535,23557
32118,65535,23409
32132,65535,23638
32106,65535,23617
32040,65535,23687
32020,65535,23811
32036,65535,23797
32064,65535,23639
32100,65535,23652
32308,65535,24084
32476,65535,24104
32517,65535,24029
32464,65535,24260
32348,65535,24231
32228,65535,24071
32125,65535,24413
32021,65535,24291
31772,65535,24526
31640,65535,24375
31640,65535,24676
31736,65535,24611
31764,65535,24807
31856,65535,24898
31848,65535,24860
31762,65535,24973
31840,65535,25037
31936,65535,25063
31957,65535,24892
32072,65535,25285
32094,65535,25244
32124,65535,25193
32181,65535,25360
32196,65535,25470
32136,65535,25330
32048,65535,25254
32008,65535,25615
31968,65535,25612
31968,65535,25477
31972,65535,25735
32008,65535,25859
32036,65535,25824
32088,65535,25911
32116,65535,26000
32112,65535,25849
32108,65535,26052
32072,65535,26067
31948,65535,26116
31940,65535,26183
32004,65535,26151
32120,65535,25952
32280,65535,26357
32384,65535,26343
32364,65535,26367
32229,65535,26429
32092,65535,26530
31940,65535,26498
31789,65535,26585
31684,65535,26558
31661,65535,26750
31622,65535,26682
31532,65535,26718
31396,65535,26771
31240,65535,26631
30908,65535,26933
30400,65535,26924
29868,65535,26895
29564,65535,26638
29312,65535,27014
29002,65535,27028
28777,65535,26983
28628,65535,27076
28476,65535,27142
28462,65535,27073
28728,65535,27177
29160,65535,27279
29992,65535,27133
30964,65535,27291
31977,65535,27303
33124,65535,27317
33960,65535,27360
34268,65535,27120
34068,65535,27452
33656,65535,27427
33353,65535,27557
33176,65535,27503
32890,65535,27333
32625,65535,27572
32358,65535,27565
32169,65535,27305
32124,65535,27655
32128,65535,27557
32164,65535,27724
32200,65535,27776
32132,65535,27585
32088,65535,27724
32112,65535,27799
32113,65535,27714
32104,65535,27543
32134,65535,27861
32089,65535,27874
32081,65535,27730
32202,65535,28021
32308,65535,27992
32332,65535,27863
32308,65535,28007
32320,65535,28073
32324,65535,27970
32279,65535,27796
32236,65535,28096
32192,65535,28167
32224,65535,28089
32280,65535,27823
32276,65535,28193
32320,65535,28204
32304,65535,27907
32252,65535,28308
32128,65535,28327
32052,65535,28293
32076,65535,28051
32192,65535,28397
32244,65535,28456
32284,65535,28428
32312,65535,28146
32373,65535,28193
32309,65535,28577
32205,65535,28557
32084,65535,28508
32058,65535,28651
32056,65535,28693
32000,65535,28631
32012,65535,28461
32012,65535,28774
32024,65535,28909
32056,65535,28927
32116,65535,28973
32160,65535,28815
32212,65535,29043
32292,65535,29125
32392,65535,29004
32496,65535,29122
32436,65535,29229
32424,65535,29178
32432,65535,28964
32325,65535,29390
32212,65535,29401
32168,65535,29236
32168,65535,29437
32152,65535,29532
32180,65535,29565
32312,65535,29634
32505,65535,29629
32648,65535,29636
32644,65535,29732
32552,65535,29805
32430,65535,29781
32306,65535,29631
32204,65535,29615
31968,65535,29916
31908,65535,29823
32000,65535,29989
32014,65535,30063
32144,65535,30077
32312,65535,30004
32396,65535,30009
32416,65535,29909
32568,65535,30332
32496,65535,30353
32376,65535,30381
32312,65535,30120
32176,65535,30576
32113,65535,30596
32178,65535,30621
32324,65535,30497
32353,65535,30806
32356,65535,30836
32432,65535,30877
32384,65535,30720
32320,65535,31020
32256,65535,31162
32285,65535,31192
32284,65535,30943
32413,65535,31336
32484,65535,31495
32564,65535,31554
32538,65535,31492
32329,65535,31820
32312,65535,31856
32296,65535,31927
32313,65535,32079
32392,65535,32146
32428,65535,31967
32517,65535,32471
32612,65535,32519
32708,65535,32404
32769,65535,32852
32828,65535,32928
32836,65535,33044
32852,65535,33089
32809,65535,32935
32804,65535,33476
32700,65535,33565
32576,65535,33569
32620,65535,33837
32756,65535,33892
32988,65535,33940
33176,65535,33793
33200,65535,34292
33132,65535,34379
33064,65535,34141
33004,65535,34631
33090,65535,34717
33160,65535,34605
33344,65535,35008
33460,65535,35055
33496,65535,35169
33448,65535,35092
33548,65535,35295
33544,65535,35540
33448,65535,35588
33456,65535,35696
33296,65535,35719
33356,65535,35924
33606,65535,36015
33544,65535,35828
33520,65535,36214
33560,65535,36295
33524,65535,36127
33438,65535,36549
33504,65535,36610
33578,65535,36693
33732,65535,36648
33872,65535,36871
34036,65535,36957
34044,65535,36806
34052,65535,37205
33896,65535,37236
33724,65535,37156
33548,65535,37456
33432,65535,37476
33364,65535,37350
33324,65535,37719
33373,65535,37730
33374,65535,37815
33308,65535,37719
33252,65535,38021
33196,65535,38046
33236,65535,38010
33238,65535,38102
33260,65535,38236
33260,65535,38343
33332,65535,38326
33340,65535,38340
33348,65535,38583
33356,65535,38579
33456,65535,38621
33460,65535,38638
33472,65535,38709
33424,65535,38767
33416,65535,38700
33344,65535,38863
33288,65535,39069
33317,65535,39175
33412,65535,39303
33420,65535,39407
33408,65535,39466
33408,65535,39615
33308,65535,39764
33144,65535,39662
33081,65535,40022
33240,65535,40016
33437,65535,40074
33488,65535,40274
33516,65535,40252
33696,65535,40287
33524,65535,40384
33598,65535,40455
33588,65535,40543
33328,65535,40615
33188,65535,40676
33196,65535,40641
33248,65535,40723
33284,65535,40988
33496,65535,41012
33624,65535,40935
33576,65535,41276
33661,65535,41219
33608,65535,41327
33612,65535,41261
33464,65535,41463
33473,65535,41575
33519,65535,41863
33544,65535,41772
33607,65535,41873
33620,65535,41928
33572,65535,42100
33424,65535,42158
33337,65535,42160
33198,65535,42597
33280,65535,42476
33344,65535,42532
33420,65535,42847
33504,65535,43045
33632,65535,43008
33616,65535,43135
33704,65535,43464
33582,65535,43389
33508,65535,43503
33300,65535,43757
33332,65535,43822
33556,65535,44156
33680,65535,44181
33840,65535,44209
33908,65535,44519
33844,65535,44508
33856,65535,44716
33760,65535,44957
33548,65535,45033
33577,65535,45125
33468,65535,45176
33536,65535,45468
33772,65535,45437
33736,65535,45575
33672,65535,45788
33705,65535,45863
33652,65535,45980
33584,65535,46231
33612,65535,46215
33584,65535,46343
33641,65535,46631
33696,65535,46622
33784,65535,46752
33788,65535,47051
33744,65535,47087
33748,65535,47189
33676,65535,47529
33624,65535,47545
33696,65535,47711
33601,65535,47825
33540,65535,48149
33568,65535,48169
33608,65535,48331
33764,65535,48535
33856,65535,48717
33840,65535,48788
33904,65535,48963
33880,65535,49236
33934,65535,49253
33884,65535,49433
33712,65535,49660
33782,65535,49863
33848,65535,49924
33968,65535,50055
34088,65535,50348
34148,65535,50493
34300,65535,50543
34544,65535,50712
34776,65535,50849
34629,65535,51118
34484,65535,51159
34140,65535,51316
33661,65535,51501
33436,65535,51628
33377,65535,51692
33468,65535,51839
33660,65535,51973
33596,65535,52127
33552,65535,52231
33508,65535,52292
33480,65535,52389
33452,65535,52560
33428,65535,52615
33473,65535,52767
33799,65535,52807
33805,65535,52911
33685,65535,53020
33712,65535,53071
34000,65535,53185
34132,65535,53228
34048,65535,53319
34028,65535,53352
33892,65535,53380
33764,65535,53484
33716,65535,53524
33748,65535,53569
33632,65535,53662
33576,65535,53692
33572,65535,53713
33768,65535,53807
33840,65535,53804
33768,65535,53860
33836,65535,53892
33924,65535,53959
33984,65535,53988
34036,65535,54016
34308,65535,54063
34341,65535,54080
34228,65535,54101
33792,65535,54108
33576,65535,54165
33588,65535,54175
33660,65535,54220
33712,65535,54240
33836,65535,54249
33916,65535,54308
33928,65535,54313
33620,65535,54336
33600,65535,54369
33636,65535,54388
33655,65535,54425
33697,65535,54444
33681,65535,54448
33824,65535,54485
33885,65535,54508
33864,65535,54535
33841,65535,54560
33872,65535,54564
33872,65535,54596
33778,65535,54621
33644,65535,54639
33520,65535,54655
33484,65535,54644
33364,65535,54711
33373,65535,54728
33397,65535,54736
33345,65535,54754
33204,65535,54776
33020,65535,54807
32640,65535,54813
32328,65535,54840
31856,65535,54861
31345,65535,54871
30904,65535,54909
30494,65535,54916
30196,65535,54935
29848,65535,54951
29636,65535,54949
29528,65535,54964
29636,65535,55009
29852,65535,55023
30357,65535,55047
31304,65535,55072
32197,65535,55106
32856,65535,55144
33492,65535,55140
34104,65535,55175
34662,65535,55197
34972,65535,55237
34805,65535,55252
34532,65535,55256
34188,65535,55303
33940,65535,55327
33772,65535,55356
33504,65535,55397
32984,65535,55431
32716,65535,55480
32640,65535,55522
32664,65535,55597
32804,65535,55661
32940,65535,55704
32809,65535,55789
32712,65535,55815
32528,65535,55869
32620,65535,55937
32604,65535,55981
32480,65535,56041
32372,65535,56071
32212,65535,56133
32340,65535,56204
32508,65535,56260
32472,65535,56309
32456,65535,56391
32470,65535,56428
32200,65535,56492
32276,65535,56548
32236,65535,56599
32200,65535,56663
32120,65535,56692
32020,65535,56735
32096,65535,56724
32188,65535,56774
32204,65535,56796
32148,65535,56836
32080,65535,56861
32072,65535,56893
32041,65535,56864
32016,65535,56924
32028,65535,56948
32080,65535,56918
32206,65535,56992
32264,65535,57004
32366,65535,56977
32380,65535,57036
32386,65535,57044
32326,65535,57037
32250,65535,57060
32084,65535,57079
32096,65535,57068
32076,65535,57124
32092,65535,57121
32068,65535,57148
32024,65535,57174
32144,65535,57184
32048,65535,57215
32068,65535,57212
32005,65535,57247
32028,65535,57269
31968,65535,57284
32033,65535,57294
32004,65535,57324
32096,65535,57309
32124,65535,57332
32232,65535,57305
32161,65535,57349
32236,65535,57351
32040,65535,57300
32005,65535,57320
31990,65535,57319
32004,65535,57304
32045,65535,57279
32173,65535,57280
32248,65535,57260
32308,65535,57192
32404,65535,57216
32280,65535,57181
32236,65535,57084
32184,65535,57095
32245,65535,57055
32351,65535,56983
32504,65535,56960
32557,65535,56893
32500,65535,56813
32404,65535,56783
32312,65535,56680
32196,65535,56660
32196,65535,56582
32012,65535,56505
32056,65535,56449
32260,65535,56357
32192,65535,56282
32232,65535,56190
32364,65535,56132
32281,65535,56044
32220,65535,55943
32292,65535,55868
32296,65535,55740
32268,65535,55665
32269,65535,55519
32232,65535,55479
32212,65535,55353
32160,65535,55233
32096,65535,55152
32032,65535,55023
32048,65535,54919
32152,65535,54804
32212,65535,54679
32183,65535,54573
32231,65535,54431
32284,65535,54303
32364,65535,54164
32408,65535,54061
32348,65535,53927
32404,65535,53816
32528,65535,53672
32492,65535,53557
32408,65535,53401
32344,65535,53228
32258,65535,53127
32228,65535,52980
32352,65535,52876
32481,65535,52688
32612,65535,52539
32740,65535,52367
32788,65535,52293
32773,65535,52079
32788,65535,51906
32792,65535,51815
32904,65535,51632
32956,65535,51431
32945,65535,51271
32892,65535,51172
32960,65535,50964
33077,65535,50775
33048,65535,50695
33132,65535,50428
33120,65535,50223
33106,65535,50101
33172,65535,49881
33192,65535,49844
33224,65535,49580
33177,65535,49393
33232,65535,49271
33388,65535,49080
33516,65535,48871
33540,65535,48617
33502,65535,48581
33364,65535,48376
33220,65535,48148
33177,65535,48004
33192,65535,47780
33278,65535,47594
33548,65535,47383
33621,65535,47207
33600,65535,47182
33444,65535,46853
33293,65535,46671
33184,65535,46636
33028,65535,46325
32919,65535,46305
32988,65535,46015
33134,65535,45908
33464,65535,45797
33684,65535,45479
33872,65535,45308
33784,65535,45284
33456,65535,45108
33429,65535,44853
33416,65535,44743
33396,65535,44703
33432,65535,44377
33388,65535,44200
33454,65535,44092
33408,65535,43948
33397,65535,43933
33316,65535,43699
33160,65535,43757
33040,65535,43495
33120,65535,43335
33260,65535,43136
33279,65535,43271
33312,65535,42969
33329,65535,42893
33424,65535,42821
33512,65535,42686
33568,65535,42572
33548,65535,42316
33352,65535,42540
33444,65535,42215
33364,65535,42024
33524,65535,42213
33613,65535,41943
33677,65535,41805
33717,65535,41973
33760,65535,41719
33852,65535,41653
33873,65535,41476
33568,65535,41479
33364,65535,41396
33156,65535,41223
33065,65535,41400
33320,65535,41204
33364,65535,41117
33384,65535,40900
33292,65535,41060
33324,65535,40948
33264,65535,40673
33184,65535,40898
33344,65535,40772
33428,65535,40663
33472,65535,40667
33501,65535,40617
33341,65535,40629
33381,65535,40538
33484,65535,40396
33558,65535,40484
33808,65535,40389
33972,65535,40359
33769,65535,40306
33720,65535,40405
33432,65535,40308
33460,65535,40059
33560,65535,40257
33676,65535,40236
33716,65535,40319
33661,65535,40255
33600,65535,40191
33697,65535,40222
33864,65535,40253
33764,65535,40269
33573,65535,40225
33432,65535,40327
33428,65535,40348
33424,65535,40462
33445,65535,40411
33480,65535,40276
33336,65535,40484
33404,65535,40503
33521,65535,40372
33568,65535,40698
33480,65535,40625
33472,65535,40665
33500,65535,40751
33428,65535,40783
33477,65535,40820
33513,65535,40887
33520,65535,40957
33584,65535,40860
33576,65535,41057
33612,65535,40921
33696,65535,41247
33704,65535,41260
33704,65535,41185
33844,65535,41428
33888,65535,41468
33796,65535,41497
33732,65535,41373
33653,65535,41652
33576,65535,41780
33544,65535,41668
33726,65535,41610
33774,65535,41732
33725,65535,41831
33764,65535,41823
33764,65535,41716
33540,65535,42089
33413,65535,41957
33240,65535,41937
33040,65535,42141
32908,65535,42016
33044,65535,42092
33348,65535,42039
33296,65535,42261
33448,65535,42103
33560,65535,42153
33636,65535,42044
33708,65535,42316
33724,65535,42184
33640,65535,42268
33436,65535,42159
33420,65535,42146
33460,65535,42089
33592,65535,42327
33632,65535,42310
33561,65535,42212
33916,65535,42212
33926,65535,42247
33830,65535,42381
33716,65535,42260
33728,65535,42465
33604,65535,42246
33660,65535,42252
33832,65535,42244
33708,65535,42238
33812,65535,42471
33832,65535,42284
33868,65535,42285
34040,65535,42404
34208,65535,42312
34260,65535,42301
34153,65535,42535
34060,65535,42343
34120,65535,42209
34132,65535,42564
33952,65535,42340
33616,65535,42273
33524,65535,42596
33488,65535,42397
33557,65535,42306
33648,65535,42660
33764,65535,42461
33888,65535,42535
33808,65535,42408
33852,65535,42568
34016,65535,42775
34060,65535,42604
34069,65535,42613
33972,65535,42873
34021,65535,42660
34268,65535,42684
33990,65535,42953
34092,65535,42837
33940,65535,42911
33908,65535,42876
33864,65535,42876
33812,65535,43207
34000,65535,43013
34056,65535,43057
33964,65535,43285
33836,65535,43366
33788,65535,43436
33924,65535,43397
33896,65535,43300
33868,65535,43598
33932,65535,43489
33893,65535,43499
33912,65535,43620
33900,65535,43565
33960,65535,43856
34044,65535,43752
34036,65535,43796
33816,65535,43926
33932,65535,44000
33825,65535,43903
33600,65535,43940
33332,65535,44140
33056,65535,44039
32889,65535,44077
32452,65535,44077
31868,65535,44058
31389,65535,44311
31080,65535,44200
31056,65535,44240
30805,65535,44165
30728,65535,44367
30588,65535,44228
30589,65535,44333
30757,65535,44269
31256,65535,44494
32096,65535,44351
32964,65535,44351
33940,65535,44508
35280,65535,44452
36212,65535,44596
36724,65535,44473
36609,65535,44512
36168,65535,44463
35796,65535,44532
35424,65535,44692
35223,65535,44581
35080,65535,44636
34988,65535,44585
34648,65535,44789
34296,65535,44632
34004,65535,44639
33824,65535,44716
33780,65535,44852
33812,65535,44693
33964,65535,44679
33966,65535,44719
34200,65535,44776
34196,65535,44896
34388,65535,44969
34612,65535,44895
34444,65535,44850
34148,65535,44911
34022,65535,44884
33912,65535,45041
33716,65535,45047
33736,65535,44980
33816,65535,44935
33988,65535,45021
34121,65535,45039
34265,65535,45092
34354,65535,45190
34164,65535,45076
34140,65535,45109
34104,65535,45055
34218,65535,45239
34316,65535,45293
34256,65535,45165
34020,65535,45191
33924,65535,45246
33952,65535,45269
34032,65535,45359
34144,65535,45447
34056,65535,45340
33912,65535,45397
33832,65535,45391
33644,65535,45349
33652,65535,45554
33788,65535,45567
33878,65535,45439
34020,65535,45496
34308,65535,45461
34220,65535,45607
34328,65535,45650
34486,65535,45605
34500,65535,45532
34500,65535,45573
34172,65535,45527
33868,65535,45492
33564,65535,45687
33312,65535,45649
33428,65535,45548
33456,65535,45552
33508,65535,45609
33592,65535,45568
33616,65535,45532
33652,65535,45727
33588,65535,45687
33546,65535,45559
33540,65535,45648
34072,65535,45551
33944,65535,45743
33764,65535,45588
33760,65535,45621
33740,65535,45564
33692,65535,45769
33662,65535,45613
33864,65535,45637
33820,65535,45725
33844,65535,45791
33823,65535,45660
33880,65535,45625
33804,65535,45831
33856,65535,45721
33872,65535,45740
33784,65535,45693
33720,65535,45868
33608,65535,45725
33449,65535,45801
33356,65535,45724
33224,65535,45928
33085,65535,45844
33080,65535,45972
33116,65535,45812
33172,65535,45856
33276,65535,45917
33400,65535,45880
33433,65535,45916
33440,65535,45831
33516,65535,46031
33580,65535,45889
33596,65535,45980
33505,65535,45892
33404,65535,45877
33320,65535,46023
33100,65535,45916
33044,65535,45966
33088,65535,45996
33208,65535,45888
33397,65535,46017
33264,65535,45860
33320,65535,45894
33316,65535,45792
33348,65535,45929
33261,65535,45824
33284,65535,45764
33079,65535,45927
33060,65535,45805
33160,65535,45749
33192,65535,45732
33388,65535,45669
33312,65535,45831
33480,65535,45632
33340,65535,45630
33328,65535,45536
33392,65535,45703
33440,65535,45529
33540,65535,45463
33644,65535,45485
33728,65535,45356
33688,65535,45476
33701,65535,45304
33772,65535,45253
33748,65535,45367
33692,65535,45165
33620,65535,45056
33664,65535,45092
33784,65535,44999
33924,65535,45092
34184,65535,44926
34336,65535,44975
34405,65535,44806
34460,65535,44719
34400,65535,44669
34377,65535,44528
34376,65535,44660
34540,65535,44524
34588,65535,44364
34485,65535,44353
34102,65535,44197
33952,65535,44324
33948,65535,44199
33981,65535,44005
34040,65535,43983
33932,65535,43993
33764,65535,43732
33636,65535,43652
33568,65535,43800
33636,65535,43577
33628,65535,43436
33716,65535,43488
33832,65535,43271
33856,65535,43222
33804,65535,43044
33760,65535,43204
33784,65535,42988
33848,65535,42893
33941,65535,42653
34004,65535,42809
34124,65535,42541
34116,65535,42372
34024,65535,42519
33978,65535,42291
33804,65535,42221
33652,65535,42073
33676,65535,42119
33716,65535,41916
33848,65535,41823
34156,65535,41677
34240,65535,41519
34232,65535,41379
34029,65535,41431
33764,65535,41403
33608,65535,41245
33641,65535,41153
33700,65535,40942
33844,65535,40777
33944,65535,40948
33984,65535,40735
33892,65535,40477
33836,65535,40623
33770,65535,40452
33608,65535,40100
33497,65535,40335
33501,65535,40144
33420,65535,39997
33404,65535,39740
33500,65535,39852
33612,65535,39740
33736,65535,39373
33856,65535,39631
33872,65535,39464
33848,65535,39295
33836,65535,39015
33904,65535,39213
33984,65535,39069
33868,65535,38982
33638,65535,38897
33584,65535,38743
33532,65535,38420
33532,65535,38631
33556,65535,38481
33512,65535,38193
33480,65535,38201
33432,65535,38232
33412,65535,38095
33501,65535,37977
33496,65535,37821
33496,65535,37607
33484,65535,37588
33516,65535,37524
33516,65535,37535
33488,65535,37383
33476,65535,37236
33492,65535,37032
33556,65535,37120
33584,65535,36967
33620,65535,36556
33692,65535,36833
33728,65535,36668
33565,65535,36592
33600,65535,36465
33556,65535,36415
33512,65535,36317
33554,65535,36125
33548,65535,36058
33573,65535,36007
33552,65535,35932
33472,65535,35588
33476,65535,35726
33484,65535,35692
33406,65535,35615
33212,65535,35476
33200,65535,35254
33260,65535,35358
33268,65535,35295
33316,65535,35228
33352,65535,35010
33321,65535,35057
33208,65535,35047
33056,65535,34889
32992,65535,34513
32964,65535,34839
32840,65535,34753
32796,65535,34653
32832,65535,34496
32856,65535,34450
32936,65535,34487
32980,65535,34319
33040,65535,34220
33069,65535,34319
32996,65535,34183
32928,65535,34132
33052,65535,33872
33084,65535,34076
33120,65535,33956
33064,65535,33893
33092,65535,33720
33192,65535,33791
33068,65535,33784
32916,65535,33707
32864,65535,33565
32932,65535,33577
33064,65535,33564
33104,65535,33492
33052,65535,33209
32968,65535,33415
33013,65535,33420
32876,65535,33386
32724,65535,33250
32692,65535,33276
32772,65535,33303
32700,65535,33132
32564,65535,33159
32560,65535,33176
32552,65535,33148
32564,65535,32845
32584,65535,33172
32574,65535,33073
32716,65535,32865
32970,65535,32988
33096,65535,33031
33124,65535,33017
32951,65535,32703
32788,65535,32985
32716,65535,32994
32721,65535,33021
32912,65535,32974
32996,65535,32823
32862,65535,32967
32840,65535,33031
32768,65535,33017
32672,65535,32993
32740,65535,32967
32744,65535,33091
32820,65535,32860
32944,65535,33048
33165,65535,33133
33413,65535,33154
33356,65535,33126
33260,65535,33209
33164,65535,33295
33004,65535,33296
33057,65535,33060
32953,65535,33444
32992,65535,33476
33019,65535,33482
32900,65535,33221
32876,65535,33580
32808,65535,33628
32864,65535,33423
33136,65535,33786
33048,65535,33841
32812,65535,33830
32724,65535,33866
32446,65535,34020
32245,65535,33895
32408,65535,34107
32640,65535,34125
32654,65535,34311
32436,65535,34342
32656,65535,34461
32680,65535,34432
32716,65535,34636
32972,65535,34685
32893,65535,34747
32760,65535,34750
32712,65535,34863
32772,65535,35068
32884,65535,35029
33086,65535,35271
33040,65535,35289
32988,65535,35058
32896,65535,35509
32736,65535,35599
32728,65535,35439
32832,65535,35873
32776,65535,35908
32761,65535,35711
32984,65535,36209
32744,65535,36297
32512,65535,36342
32288,65535,36324
31664,65535,36609
31168,65535,36775
30680,65535,36881
30349,65535,36718
30400,65535,37169
30528,65535,37277
30120,65535,37166
29896,65535,37598
29793,65535,37667
29632,65535,37797
29868,65535,37670
30500,65535,38068
31236,65535,38183
32332,65535,38127
33296,65535,38575
34240,65535,38663
34976,65535,38676
35136,65535,38917
34960,65535,39042
34392,65535,39208
33940,65535,39351
33800,65535,39478
33612,65535,39431
33332,65535,39879
32916,65535,39943
32996,65535,40100
32928,65535,40237
32852,65535,40165
32836,65535,40658
32900,65535,40692
32877,65535,40740
32804,65535,41049
32768,65535,41127
32740,65535,41277
32709,65535,41404
32792,65535,41394
32880,65535,41885
32808,65535,41916
33064,65535,42108
33149,65535,42260
33064,65535,42383
33028,65535,42384
33041,65535,42517
32928,65535,42868
32732,65535,42810
32596,65535,42892
32584,65535,42933
32672,65535,43245
32720,65535,43244
32788,65535,43367
32728,65535,43416
32764,65535,43490
32820,65535,43598
32864,65535,43908
32860,65535,43796
32772,65535,43944
32796,65535,43974
32944,65535,44167
32940,65535,44354
32988,65535,44258
33004,65535,44295
33016,65535,44432
32928,65535,44409
32788,65535,44446
32592,65535,44717
32480,65535,44701
32413,65535,44617
32388,65535,44721
32452,65535,44719
32600,65535,44711
32538,65535,44948
32600,65535,44903
32580,65535,44880
32401,65535,45004
32224,65535,44959
32213,65535,44948
32236,65535,44911
32358,65535,45124
32568,65535,45032
32704,65535,44935
32640,65535,45081
32536,65535,44996
32324,65535,45036
32320,65535,44975
32348,65535,45143
32360,65535,45112
32400,65535,45112
32588,65535,44956
32632,65535,45000
32540,65535,44888
32538,65535,45029
32540,65535,45054
32472,65535,44965
32404,65535,44857
32200,65535,44793
32253,65535,44829
32416,65535,44733
32668,65535,44804
32884,65535,44837
32872,65535,44796
32604,65535,44676
32272,65535,44568
32160,65535,44468
32036,65535,44508
31905,65535,44404
31784,65535,44312
31709,65535,44255
31774,65535,44377
31852,65535,44391
31885,65535,44292
31897,65535,44052
31968,65535,44050
32021,65535,43972
32008,65535,44039
32112,65535,44064
32140,65535,43876
32096,65535,43695
32140,65535,43732
32242,65535,43559
32285,65535,43730
32192,65535,43677
32208,65535,43511
32128,65535,43340
32212,65535,43239
32406,65535,43164
32685,65535,43181
32828,65535,42972
32764,65535,43132
32728,65535,42852
32460,65535,42759
32432,65535,42908
32368,65535,42841
32197,65535,42621
32132,65535,42525
31968,65535,42439
31888,65535,42287
31877,65535,42501
31896,65535,42359
31964,65535,42151
32136,65535,42069
32300,65535,41863
32281,65535,42004
32160,65535,41960
31824,65535,41781
31812,65535,41735
31976,65535,41616
32172,65535,41437
32348,65535,41479
32388,65535,41613
32388,65535,41444
32421,65535,41341
32429,65535,41140
32489,65535,41036
32392,65535,40912
32292,65535,40882
32473,65535,40752
32697,65535,40918
32868,65535,40967
33021,65535,40781
33136,65535,40727
33121,65535,40670
33140,65535,40612
33040,65535,40533
32802,65535,40487
32600,65535,40413
32317,65535,40373
32136,65535,40240
32118,65535,40121
32136,65535,40119
32204,65535,40237
32168,65535,40221
32245,65535,40091
32364,65535,40041
32464,65535,39989
32513,65535,39943
32524,65535,39879
32485,65535,39733
32440,65535,39628
32524,65535,39647
32700,65535,39629
32680,65535,39591
32469,65535,39540
32548,65535,39658
32589,65535,39779
32604,65535,39675
32600,65535,39741
32788,65535,39708
32993,65535,39608
33060,65535,39610
32960,65535,39557
32804,65535,39344
32632,65535,39486
32392,65535,39654
32428,65535,39577
32448,65535,39557
32573,65535,39550
32648,65535,39525
32805,65535,39397
32752,65535,39380
32492,65535,39647
32436,65535,39575
32384,65535,39564
32512,65535,39559
32645,65535,39415
32608,65535,39484
32468,65535,39396
32372,65535,39568
32576,65535,39657
32696,65535,39725
32568,65535,39668
32508,65535,39702
32352,65535,39659
32189,65535,39540
32142,65535,39748
32184,65535,39911
32289,65535,39856
32340,65535,39917
32432,65535,39941
32393,65535,39922
32508,65535,39904
32592,65535,40103
32500,65535,40104
32356,65535,40143
32304,65535,40191
32304,65535,40121
32288,65535,40416
32285,65535,40351
32248,65535,40400
32380,65535,40468
32396,65535,40517
32368,65535,40580
32616,65535,40628
32651,65535,40668
32492,65535,40733
32512,65535,40782
32384,65535,40846
32373,65535,40895
32400,65535,40837
32404,65535,40836
32360,65535,40932
32388,65535,41199
32146,65535,41141
32052,65535,41136
32056,65535,41180
32125,65535,41200
32365,65535,41252
32768,65535,41292
33192,65535,41286
33440,65535,41292
33344,65535,41317
32917,65535,41201
32388,65535,41244
32044,65535,41368
31872,65535,41540
32001,65535,41561
31978,65535,41492
32020,65535,41527
32058,65535,41440
32072,65535,41479
32037,65535,41420
32088,65535,41447
32320,65535,41476
32324,65535,41392
32280,65535,41426
32352,65535,41514
32424,65535,41478
32313,65535,41353
32300,65535,41277
32281,65535,41126
32304,65535,41100
32352,65535,41060
32328,65535,41048
32272,65535,41086
32432,65535,41169
32609,65535,41204
32720,65535,41205
32448,65535,41063
32452,65535,41071
32540,65535,41027
32604,65535,40901
32504,65535,40775
32320,65535,40556
32432,65535,40532
32584,65535,40607
32704,65535,40599
32576,65535,40516
32392,65535,40469
32288,65535,40423
32024,65535,40360
31944,65535,40295
32149,65535,40229
32354,65535,40132
32352,65535,40015
32409,65535,39876
32492,65535,39815
32406,65535,39676
32544,65535,39596
32736,65535,39484
32644,65535,39389
32544,65535,39564
32508,65535,39622
32396,65535,39503
32374,65535,39451
32352,65535,39303
32312,65535,39209
32352,65535,39119
32476,65535,39031
32428,65535,38951
32560,65535,38909
32852,65535,38783
33084,65535,38669
33154,65535,38623
33192,65535,38484
32972,65535,38252
32868,65535,38181
32928,65535,38118
32996,65535,38142
32732,65535,38119
32428,65535,38049
32128,65535,37962
31908,65535,37895
31640,65535,37804
31508,65535,37734
31468,65535,37636
31636,65535,37572
31760,65535,37458
31936,65535,37318
32220,65535,37144
32360,65535,37022
32260,65535,37028
32384,65535,37055
32480,65535,36895
32392,65535,36785
32540,65535,36519
32456,65535,36647
32748,65535,36473
32781,65535,36485
32692,65535,36468
32270,65535,36271
32124,65535,36287
32544,65535,36234
32604,65535,36148
32780,65535,36188
32620,65535,36033
32396,65535,36090
32649,65535,36063
32900,65535,36032
33061,65535,36112
32952,65535,36054
32776,65535,35980
32456,65535,35912
32168,65535,35949
32334,65535,35905
32332,65535,35797
32386,65535,35661
32396,65535,35604
32380,65535,35520
32424,65535,35420
32730,65535,35175
32748,65535,35100
32544,65535,35135
32526,65535,34957
32612,65535,35137
32542,65535,35138
32254,65535,35095
31964,65535,35008
31552,65535,34883
31172,65535,34726
30788,65535,34449
30376,65535,34537
30168,65535,34524
30224,65535,34383
30532,65535,34306
30428,65535,34201
30224,65535,34055
30032,65535,33943
29924,65535,33656
30192,65535,33597
30596,65535,33580
30958,65535,33484
31344,65535,33317
31812,65535,33053
32716,65535,32775
33772,65535,32848
34288,65535,32750
34256,65535,32660
33936,65535,32557
33676,65535,32375
33496,65535,32195
33108,65535,32044
32758,65535,31853
32476,65535,31529
32288,65535,31275
32268,65535,31406
32332,65535,31380
32380,65535,31140
32504,65535,30988
32560,65535,30800
32620,65535,30513
32620,65535,30477
32668,65535,30404
32586,65535,30169
32560,65535,30054
32560,65535,29837
32580,65535,29652
32600,65535,29439
32620,65535,28949
32616,65535,28781
32580,65535,28588
32588,65535,28686
32593,65535,28591
32565,65535,28343
32620,65535,28181
32733,65535,27925
32895,65535,27613
33184,65535,27335
33370,65535,27015
33268,65535,27075
32912,65535,26970
32342,65535,26736
32152,65535,26444
32227,65535,26078
32341,65535,26016
32412,65535,25953
32420,65535,25677
32444,65535,25470
32536,65535,25087
32636,65535,24782
32568,65535,24916
32460,65535,24788
32407,65535,24562
32425,65535,24436
32532,65535,24238
32644,65535,24017
32652,65535,23791
32644,65535,23527
32476,65535,23295
32237,65535,23499
32126,65535,23399
32165,65535,23230
32232,65535,22989
32269,65535,22754
32364,65535,23033
32288,65535,22914
31928,65535,22788
31685,65535,22663
31656,65535,22412
31752,65535,22753
31756,65535,22688
31826,65535,22594
31877,65535,22463
31912,65535,22296
31946,65535,22566
32028,65535,22668
32144,65535,22663
32216,65535,22676
32308,65535,22679
32316,65535,22724
32268,65535,22724
32218,65535,22797
32254,65535,22791
32248,65535,22780
32320,65535,22733
32400,65535,22813
32464,65535,22935
32428,65535,22975
32366,65535,23065
32236,65535,23537
32180,65535,23577
32089,65535,23732
32096,65535,23773
32260,65535,23808
32276,65535,23799
32052,65535,24087
32022,65535,24306
32116,65535,24335
32182,65535,24511
32080,65535,24608
32068,65535,24673
32120,65535,24780
32104,65535,24908
32164,65535,25015
32004,65535,25103
31836,65535,25237
31668,65535,25295
31728,65535,25349
31753,65535,25402
31853,65535,25385
31936,65535,25350
31832,65535,25710
31706,65535,25778
31601,65535,25934
31592,65535,26033
31601,65535,25997
31665,65535,26063
31840,65535,26158
31972,65535,26284
31984,65535,26324
31976,65535,26308
31953,65535,26172
31892,65535,26093
31784,65535,26433
31700,65535,26556
31772,65535,26575
32069,65535,26652
32232,65535,26625
32216,65535,26637
32312,65535,26430
32408,65535,26789
32324,65535,26791
32292,65535,26799
32252,65535,26815
32300,65535,26853
32320,65535,26902
32287,65535,26843
32248,65535,26796
32072,65535,26725
31972,65535,26944
31888,65535,27021
31928,65535,27015
31908,65535,27037
32028,65535,27028
32096,65535,27143
32212,65535,27168
32420,65535,27215
32572,65535,27269
32760,65535,27299
32928,65535,27255
33052,65535,27284
33076,65535,27324
32965,65535,27357
32796,65535,27441
32744,65535,27458
32653,65535,27492
32568,65535,27529
32528,65535,27526
32396,65535,27533
32404,65535,27493
32632,65535,27632
32740,65535,27743
32804,65535,27766
32785,65535,27801
32720,65535,27797
32645,65535,27751
32545,65535,27608
32512,65535,28031
32512,65535,28032
32576,65535,28080
32652,65535,28108
32668,65535,27888
32748,65535,28161
32908,65535,28292
33113,65535,28311
33112,65535,28309
32932,65535,28367
32672,65535,28395
32472,65535,28418
32448,65535,28324
32508,65535,28476
32618,65535,28548
32668,65535,28602
32729,65535,28533
32745,65535,28575
32856,65535,28652
33020,65535,28633
33068,65535,28473
33193,65535,28613
33296,65535,28694
33284,65535,28665
33188,65535,28484
32985,65535,28364
32590,65535,28356
32357,65535,28629
32103,65535,28655
32002,65535,28671
32020,65535,28500
32208,65535,28529
32412,65535,28557
32504,65535,28560
32536,65535,28512
32520,65535,28455
32496,65535,28413
32396,65535,28253
32276,65535,28085
32252,65535,28329
32348,65535,28273
32364,65535,28237
32440,65535,28174
32509,65535,28046
32452,65535,27780
32433,65535,27997
32440,65535,28059
32420,65535,27957
32488,65535,27868
32416,65535,27833
32364,65535,27721
32388,65535,27428
32496,65535,27680
32522,65535,27689
32493,65535,27525
32474,65535,27464
32489,65535,27557
32413,65535,27487
32417,65535,27397
32578,65535,27242
32661,65535,26964
32876,65535,27214
32976,65535,27238
32868,65535,27187
32692,65535,27007
32584,65535,26772
32376,65535,26969
32301,65535,26948
32276,65535,26858
32516,65535,26773
32580,65535,26554
32648,65535,26691
32474,65535,26719
32297,65535,26600
32388,65535,26491
32708,65535,26268
32916,65535,26180
32776,65535,26156
32524,65535,26501
32248,65535,26413
31964,65535,26325
31892,65535,26225
31838,65535,26039
31717,65535,26248
31828,65535,26288
31820,65535,26220
31936,65535,25921
31952,65535,25981
31916,65535,26247
31920,65535,26190
31968,65535,26140
32088,65535,25923
32152,65535,26239
32140,65535,26197
32144,65535,26136
32097,65535,26187
31960,65535,26178
32133,65535,25849
32229,65535,26223
32312,65535,26157
32370,65535,26200
32352,65535,26246
32300,65535,26232
32160,65535,26166
31952,65535,26217
31860,65535,26316
31820,65535,25992
31948,65535,26369
32040,65535,26245
32180,65535,26447
32485,65535,26415
32808,65535,26453
32996,65535,26515
33044,65535,26372
32960,65535,26655
32860,65535,26647
32540,65535,26510
32168,65535,26836
31909,65535,26840
31862,65535,26782
31796,65535,26934
31880,65535,27037
32076,65535,27100
32060,65535,27218
31868,65535,27299
31720,65535,27199
31764,65535,27495
31808,65535,27545
31770,65535,27321
31784,65535,27788
31913,65535,27575
31996,65535,27987
32084,65535,28077
32140,65535,27982
32224,65535,28295
32361,65535,28321
32372,65535,28503
32288,65535,28645
32176,65535,28740
32293,65535,28589
32489,65535,29008
32576,65535,29061
32644,65535,29223
32660,65535,29380
32524,65535,29478
32356,65535,29301
32304,65535,29826
32088,65535,29869
32056,65535,29986
32101,65535,29981
32172,65535,30206
32244,65535,30343
32288,65535,30228
32416,65535,30559
32436,65535,30724
32448,65535,30781
32460,65535,30681
32532,65535,31036
32844,65535,31122
33120,65535,31231
33316,65535,31025
33180,65535,31479
32764,65535,31604
32364,65535,31636
32104,65535,31449
32084,65535,31868
32052,65535,32043
32072,65535,32111
32080,65535,31892
32168,65535,32351
32252,65535,32455
32112,65535,32361
32144,65535,32753
32124,65535,32833
32092,65535,32892
31960,65535,32939
31932,65535,33103
31844,65535,33234
31548,65535,33192
31204,65535,33508
30844,65535,33567
30532,65535,33655
30172,65535,33764
29780,65535,33607
29480,65535,34006
29072,65535,34076
28620,65535,34021
28148,65535,34288
27820,65535,34412
27832,65535,34498
28164,65535,34469
28958,65535,34607
30080,65535,34768
31168,65535,34847
32464,65535,35002
33888,65535,35048
34848,65535,34866
35360,65535,35238
35388,65535,35300
35168,65535,35309
34840,65535,35505
34517,65535,35465
34233,65535,35551
33888,65535,35656
33586,65535,35752
33376,65535,35740
33248,65535,35751
33164,65535,35951
33030,65535,36021
32752,65535,35975
32536,65535,35921
32640,65535,36143
32850,65535,36194
32960,65535,36018
32904,65535,36325
32852,65535,36346
32868,65535,36172
33008,65535,36447
33016,65535,36463
32892,65535,36437
32765,65535,36207
32821,65535,36629
32864,65535,36629
32892,65535,36629
32908,65535,36424
32876,65535,36758
32848,65535,36717
32792,65535,36461
32761,65535,36759
32772,65535,36775
32737,65535,36477
32672,65535,36819
32621,65535,36821
32537,65535,36561
32520,65535,36808
32548,65535,36798
32682,65535,36904
32788,65535,36888
32856,65535,36871
32888,65535,36807
33012,65535,36725
33128,65535,36572
33229,65535,36908
33212,65535,36864
33076,65535,36622
32968,65535,36916
32872,65535,36861
32709,65535,36604
32564,65535,36908
32520,65535,36869
32520,65535,36749
32489,65535,36785
32424,65535,36821
32388,65535,36707
32392,65535,36740
32320,65535,36804
32372,65535,36686
32384,65535,36672
32380,65535,36817
32409,65535,36742
32522,65535,36757
32580,65535,36499
32620,65535,36736
32614,65535,36684
32492,65535,36661
32377,65535,36435
32408,65535,36532
32460,65535,36669
32552,65535,36597
32744,65535,36591
32717,65535,36518
32700,65535,36549
32680,65535,36559
32616,65535,36532
32436,65535,36516
32233,65535,36455
32136,65535,36414
32040,65535,36455
32060,65535,36423
32161,65535,36400
32269,65535,36383
32360,65535,36183
32392,65535,36192
32372,65535,36373
32344,65535,36321
32292,65535,36256
32320,65535,36250
32384,65535,36199
32406,65535,36155
32424,65535,35996
32348,65535,35746
32312,65535,36082
32328,65535,36066
32320,65535,36016
32292,65535,35949
32108,65535,35951
32008,65535,35819
31972,65535,35778
32004,65535,35812
32100,65535,35775
32148,65535,35621
32185,65535,35307
32226,65535,35620
32397,65535,35540
32596,65535,35457
32625,65535,35408
32496,65535,35333
32260,65535,35151
32116,65535,34981
32100,65535,35031
32160,65535,35049
32388,65535,34980
32396,65535,34890
32356,65535,34814
32364,65535,34729
32396,65535,34640
32381,65535,34524
32180,65535,34431
32092,65535,34246
32252,65535,34068
32388,65535,33888
32496,65535,33695
32828,65535,33906
33252,65535,33887
33472,65535,33749
33336,65535,33634
32842,65535,33200
32660,65535,33351
32660,65535,33268
32690,65535,33244
32816,65535,33095
32740,65535,32935
32600,65535,32680
32668,65535,32769
32908,65535,32617
33185,65535,32487
33316,65535,32335
33172,65535,32185
33204,65535,32069
33436,65535,32034
33440,65535,31959
33500,65535,31783
33309,65535,31429
32916,65535,31549
32704,65535,31430
32940,65535,31327
32950,65535,31151
32920,65535,30886
33060,65535,30885
33472,65535,30817
33484,65535,30552
33628,65535,30383
33708,65535,29995
33824,65535,30223
33988,65535,30037
34200,65535,29727
34168,65535,29716
33884,65535,29636
33924,65535,29474
34288,65535,29190
34618,65535,29097
34633,65535,28956
34117,65535,28789
33704,65535,28551
33068,65535,28144
33021,65535,28271
33361,65535,28219
33361,65535,28077
32976,65535,27852
32900,65535,27688
32708,65535,27586
32448,65535,27367
32432,65535,26938
32600,65535,27053
32840,65535,27015
32720,65535,26807
32604,65535,26670
32652,65535,26480
33336,65535,26336
33800,65535,26135
33868,65535,25787
33548,65535,25975
33932,65535,25834
34188,65535,25644
33980,65535,25317
33468,65535,25393
32948,65535,25272
32576,65535,25127
32432,65535,24796
32336,65535,24893
32412,65535,24725
32305,65535,24617
32840,65535,24229
33252,65535,24467
33517,65535,24286
33436,65535,24131
33220,65535,23878
33300,65535,23889
33268,65535,23835
33008,65535,23689
32940,65535,23598
32900,65535,23261
32524,65535,23538
32156,65535,23473
32296,65535,23348
32612,65535,23040
32856,65535,23320
32728,65535,23268
32624,65535,23181
32780,65535,22905
33006,65535,23260
32992,65535,23212
32592,65535,23146
32257,65535,23143
32304,65535,23071
32484,65535,23089
32464,65535,23001
32502,65535,22884
32520,65535,23260
32484,65535,23196
32396,65535,23071
32548,65535,23259
32824,65535,23268
33216,65535,23256
33752,65535,23217
34028,65535,23063
34056,65535,23318
33916,65535,23236
33632,65535,23234
33804,65535,23141
33824,65535,22927
33836,65535,23268
33374,65535,23252
32644,65535,23175
32356,65535,22998
32224,65535,23244
32124,65535,23183
31844,65535,23149
31626,65535,23158
31764,65535,22932
31804,65535,23122
32128,65535,23204
32289,65535,23183
32770,65535,23105
33104,65535,23013
33348,65535,23159
32850,65535,23119
33120,65535,23143
33696,65535,23064
33778,65535,22968
33192,65535,22768
32350,65535,22749
32000,65535,23019
32068,65535,22992
32092,65535,23062
32092,65535,22987
31992,65535,22969
32292,65535,22969
32644,65535,22884
32900,65535,22797
33020,65535,22604
33245,65535,22911
33452,65535,22850
33280,65535,22794
32816,65535,22745
32272,65535,22605
32312,65535,22725
32748,65535,22720
32848,65535,22751
32500,65535,22713
32368,65535,22629
32248,65535,22487
32192,65535,22596
31982,65535,22607
31924,65535,22544
31772,65535,22535
31742,65535,22327
31736,65535,22203
32156,65535,22453
32972,65535,22478
33588,65535,22410
33832,65535,22317
33694,65535,22111
34124,65535,22426
34676,65535,22330
34540,65535,22367
34176,65535,22268
34301,65535,21980
33748,65535,22218
33056,65535,22264
32157,65535,22262
31494,65535,22174
31916,65535,21912
32492,65535,22230
32064,65535,22185
31588,65535,22121
31692,65535,21996
31576,65535,21919
31640,65535,22094
31630,65535,22207
31553,65535,22186
31912,65535,22088
32292,65535,21912
32524,65535,22077
32656,65535,22112
32616,65535,22100
32760,65535,22049
33020,65535,21902
33153,65535,21781
33068,65535,22052
32680,65535,22067
32760,65535,22007
32953,65535,21929
32544,65535,21768
32396,65535,22054
32536,65535,21982
32622,65535,21881
32636,65535,21950
32836,65535,21999
32640,65535,21740
32553,65535,21997
32720,65535,21888
32376,65535,21605
32368,65535,21919
32492,65535,21792
32580,65535,21569
32793,65535,21799
32684,65535,21757
32508,65535,21525
32324,65535,21613
32246,65535,21609
32124,65535,21432
32076,65535,21456
31760,65535,21413
31213,65535,21366
30741,65535,21281
30576,65535,21127
30496,65535,20932
30216,65535,21105
29776,65535,21095
29692,65535,20831
30076,65535,20911
30176,65535,20860
30096,65535,20772
30292,65535,20433
30716,65535,20746
31460,65535,20669
32272,65535,20396
33320,65535,20527
34544,65535,20471
35544,65535,20259
36096,65535,20348
36140,65535,20265
35712,65535,20087
35324,65535,20148
34414,65535,20065
33536,65535,19993
32698,65535,19698
31724,65535,19974
31668,65535,19903
32109,65535,19723
32372,65535,19840
32264,65535,19685
32020,65535,19529
31960,65535,19445
32280,65535,19649
32464,65535,19569
32728,65535,19375
32789,65535,19557
32921,65535,19588
33148,65535,19469
33208,65535,19200
33268,65535,19517
33327,65535,19466
33336,65535,19236
33264,65535,19360
33008,65535,19357
32956,65535,19309
33184,65535,19031
33540,65535,19335
33448,65535,19276
33088,65535,19213
32696,65535,18949
32361,65535,19241
32540,65535,19213
33064,65535,18964
33752,65535,19009
33824,65535,19200
33337,65535,19176
32700,65535,18927
32396,65535,19097
32284,65535,19144
32592,65535,19097
32932,65535,18912
32901,65535,19163
32644,65535,19136
32452,65535,18888
32404,65535,19214
32672,65535,19173
33092,65535,19214
33840,65535,18972
34508,65535,19335
34508,65535,19359
33692,65535,19311
32976,65535,19130
32344,65535,19438
32400,65535,19494
32768,65535,19378
33336,65535,19269
33456,65535,19528
33184,65535,19536
32924,65535,19628
32864,65535,19656
32422,65535,19631
31744,65535,19710
31136,65535,19744
30952,65535,19431
31152,65535,19744
31480,65535,19743
31782,65535,19549
32216,65535,19843
32516,65535,19829
32864,65535,19601
32996,65535,19948
32905,65535,19951
32716,65535,19877
32384,65535,19735
32317,65535,19989
32412,65535,19967
32549,65535,19998
32676,65535,20082
32776,65535,19953
32432,65535,20092
32164,65535,20057
32132,65535,19836
32204,65535,20173
32273,65535,20203
32320,65535,20155
32332,65535,19905
32262,65535,20199
32300,65535,20244
32273,65535,20244
32208,65535,20085
32204,65535,20063
32212,65535,20396
32262,65535,20391
32424,65535,20334
32782,65535,20372
32968,65535,20345
32748,65535,20521
32382,65535,20569
32176,65535,20527
32206,65535,20357
32192,65535,20639
32176,65535,20640
32182,65535,20441
32220,65535,20773
32300,65535,20879
32480,65535,20969
32704,65535,20925
32724,65535,21044
32620,65535,21126
32744,65535,21167
32576,65535,21175
32472,65535,21103
32476,65535,21572
32376,65535,21655
32320,65535,21694
32372,65535,21543
32404,65535,21949
32248,65535,22180
32220,65535,22313
32357,65535,22292
32364,65535,22426
32316,65535,22736
32320,65535,22844
32264,65535,22820
32328,65535,23156
32400,65535,23367
32628,65535,23508
32708,65535,23431
32808,65535,23849
33088,65535,23876
33444,65535,23879
33204,65535,24328
32936,65535,24463
32652,65535,24476
32336,65535,24497
32512,65535,24986
32820,65535,24824
33017,65535,25293
33054,65535,25332
32976,65535,25213
32972,65535,25607
33028,65535,25703
32884,65535,25839
32800,65535,26030
33001,65535,25812
33084,65535,26288
33070,65535,26133
32852,65535,26526
32572,65535,26552
32388,65535,26620
32540,65535,26797
32576,65535,26693
32692,65535,26951
32708,65535,27024
32844,65535,26804
32692,65535,27164
32796,65535,27221
32792,65535,27001
32948,65535,27353
33140,65535,27434
33128,65535,27527
32936,65535,27437
32685,65535,27647
32340,65535,27708
32400,65535,27428
32416,65535,27820
32436,65535,27846
32664,65535,27597
32772,65535,28047
32584,65535,28098
32588,65535,28009
32752,65535,28124
32720,65535,28263
32653,65535,27988
32868,65535,28348
33309,65535,28420
33440,65535,28527
33413,65535,28527
33086,65535,28351
32888,65535,28660
32480,65535,28577
32216,65535,28829
32598,65535,28780
32548,65535,28853
32504,65535,28906
32576,65535,28653
33164,65535,29044
34129,65535,29069
34364,65535,28861
33480,65535,29184
32764,65535,29023
32884,65535,29273
33560,65535,29292
33956,65535,29365
33696,65535,29306
33572,65535,29380
33493,65535,29447
32868,65535,29580
31596,65535,29560
30982,65535,29476
31239,65535,29676
31672,65535,29678
31965,65535,29415
32384,65535,29757
32056,65535,29740
32136,65535,29919
32216,65535,29885
32364,65535,29616
32553,65535,30030
32724,65535,29852
32901,65535,30103
32808,65535,30183
32948,65535,29892
32928,65535,30313
33160,65535,30238
33197,65535,30078
33141,65535,30404
33096,65535,30562
33184,65535,30560
32848,65535,30343
33248,65535,30727
33560,65535,30783
33352,65535,30854
33125,65535,30884
33248,65535,30918
33014,65535,30763
33270,65535,31214
33202,65535,31302
33056,65535,31226
33229,65535,31487
33444,65535,31487
33052,65535,31263
32856,65535,31670
32908,65535,31548
33064,65535,31846
33009,65535,31935
32868,65535,32006
33368,65535,32144
33224,65535,31895
33216,65535,32358
33064,65535,32383
33320,65535,32460
32932,65535,32625
33332,65535,32724
33936,65535,32623
33636,65535,32929
33100,65535,33081
33020,65535,33023
32929,65535,33252
33332,65535,33021
33861,65535,33515
34196,65535,33445
34244,65535,33749
33790,65535,33799
34008,65535,33671
34397,65535,34052
33976,65535,33884
33256,65535,34293
32816,65535,34348
32660,65535,34237
32697,65535,34596
32640,65535,34678
32826,65535,34781
32924,65535,34913
32976,65535,34693
33196,65535,35168
33256,65535,35335
33188,65535,35376
33412,65535,35445
33238,65535,35737
33308,65535,35807
33348,65535,35768
33332,65535,36024
33465,65535,36230
33556,65535,36334
33560,65535,36279
33620,65535,36629
33736,65535,36764
34104,65535,36839
34348,65535,37013
34332,65535,37097
34140,65535,37279
33924,65535,37461
33472,65535,37492
33120,65535,37721
33020,65535,37852
33188,65535,37764
33756,65535,38193
34021,65535,38241
34096,65535,38174
33936,65535,38553
33860,65535,38623
33700,65535,38432
33560,65535,38860
33572,65535,38919
33916,65535,39154
34316,65535,39220
34644,65535,39200
34476,65535,39437
34181,65535,39552
33760,65535,39533
33180,65535,39860
33061,65535,39861
33056,65535,39968
33296,65535,39849
33617,65535,40213
33908,65535,40260
33960,65535,40244
33796,65535,40480
33908,65535,40567
33872,65535,40609
33864,65535,40864
33696,65535,40918
33512,65535,40955
33544,65535,40860
33636,65535,41159
33996,65535,41236
34120,65535,41308
33836,65535,41244
33180,65535,41580
32944,65535,41565
33049,65535,41645
33052,65535,41633
32864,65535,41732
32904,65535,41967
33009,65535,41952
32600,65535,42028
32004,65535,42103
31844,65535,42359
31660,65535,42356
31660,65535,42460
31384,65535,42487
31044,65535,42542
30964,65535,42612
31060,65535,42613
31140,65535,42605
31612,65535,42661
32093,65535,42727
32832,65535,42842
33600,65535,42901
34332,65535,42951
35092,65535,42974
35756,65535,43111
36072,65535,43281
36033,65535,43100
35500,65535,43192
34908,65535,43173
34612,65535,43335
34604,65535,43383
34670,65535,43585
34657,65535,43580
34632,65535,43527
34453,65535,43588
33860,65535,43527
33860,65535,43812
33824,65535,43844
33630,65535,43733
33436,65535,43744
33345,65535,43804
33748,65535,43807
33608,65535,43935
33632,65535,44039
33720,65535,43984
33804,65535,44036
33504,65535,43996
33392,65535,44253
33356,65535,44099
33512,65535,44199
33732,65535,44143
33932,65535,44156
34014,65535,44316
34096,65535,44268
33808,65535,44295
33464,65535,44505
33408,65535,44333
33695,65535,44437
33900,65535,44470
33989,65535,44484
33704,65535,44487
33576,65535,44596
33180,65535,44684
33293,65535,44581
33212,65535,44738
33196,65535,44600
33152,65535,44618
33369,65535,44727
33584,65535,44728
33588,65535,44719
33478,65535,44780
33612,65535,44953
33788,65535,44872
33844,65535,44935
33612,65535,44909
33768,65535,45049
33508,65535,45035
33556,65535,44993
33568,65535,45173
33746,65535,45080
33593,65535,45159
33828,65535,45313
33766,65535,45184
33740,65535,45183
33588,65535,45407
33428,65535,45268
33484,65535,45284
33276,65535,45488
33308,65535,45399
33518,65535,45388
33612,65535,45447
33609,65535,45388
33356,65535,45605
33430,65535,45533
33641,65535,45486
34156,65535,45565
34072,65535,45508
33672,65535,45703
33621,65535,45588
33401,65535,45532
33197,65535,45748
33020,65535,45648
33020,65535,45669
33012,65535,45774
33356,65535,45646
33412,65535,45647
33216,65535,45828
33381,65535,45701
33156,65535,45733
32788,65535,45855
32876,65535,45868
33120,65535,45727
33326,65535,45799
33368,65535,45719
33540,65535,45902
33477,65535,45761
33432,65535,45759
33501,65535,45926
33668,65535,45772
33933,65535,45827
33916,65535,45869
33684,65535,45796
33564,65535,45793
33408,65535,45959
33472,65535,45841
33577,65535,45831
33600,65535,45959
33648,65535,45813
33700,65535,45831
33860,65535,45911
33852,65535,45831
33844,65535,45820
33833,65535,45884
33916,65535,45970
33920,65535,45828
33556,65535,45816
33132,65535,45917
33092,65535,45855
32952,65535,45797
33264,65535,45817
33620,65535,45773
33612,65535,45852
33808,65535,45924
34256,65535,45751
34336,65535,45808
34144,65535,45716
33804,65535,45820
33768,65535,45831
33784,65535,45776
33516,65535,45701
33482,65535,45743
33592,65535,45702
33456,65535,45703
33289,65535,45639
33264,65535,45668
33392,65535,45777
33340,65535,45657
33356,65535,45599
33381,65535,45612
33432,65535,45561
33728,65535,45548
34104,65535,45484
34128,65535,45648
34212,65535,45673
33909,65535,45552
33872,65535,45488
33848,65535,45526
33873,65535,45475
33926,65535,45552
33956,65535,45597
34212,65535,45468
34476,65535,45429
34468,65535,45575
34244,65535,45456
33814,65535,45414
33488,65535,45380
33260,65535,45485
33262,65535,45433
33448,65535,45317
33736,65535,45373
34033,65535,45268
34208,65535,45409
33950,65535,45372
33853,65535,45236
33692,65535,45221
33544,65535,45240
33632,65535,45248
33512,65535,45172
33726,65535,45132
33656,65535,45220
33872,65535,45221
34012,65535,45228
33948,65535,45048
33988,65535,45063
33988,65535,44989
33824,65535,44929
33544,65535,45110
33572,65535,44951
33640,65535,44965
33760,65535,44886
33840,65535,44807
33724,65535,44992
33616,65535,44967
33588,65535,44815
33388,65535,44796
33556,65535,44709
33548,65535,44866
33968,65535,44668
33933,65535,44609
33636,65535,44759
33568,65535,44551
33608,65535,44544
33704,65535,44430
33940,65535,44618
33653,65535,44457
33569,65535,44345
33752,65535,44353
33889,65535,44229
33808,65535,44356
33672,65535,44244
33648,65535,44167
34236,65535,44032
33884,65535,44180
33425,65535,43972
33480,65535,43881
33489,65535,44060
33228,65535,43801
33304,65535,43796
33432,65535,43901
33484,65535,43885
33661,65535,43728
34007,65535,43667
34232,65535,43513
33880,65535,43668
33452,65535,43622
33716,65535,43415
33956,65535,43421
33626,65535,43356
33498,65535,43500
33180,65535,43415
33188,65535,43221
33372,65535,43239
33324,65535,43296
33608,65535,43165
33248,65535,43143
33112,65535,43236
33308,65535,43215
33397,65535,43009
33832,65535,43068
34074,65535,43023
34080,65535,43044
33836,65535,42903
33580,65535,42948
33550,65535,42844
33530,65535,43068
33660,65535,43005
33836,65535,42821
34240,65535,42781
34020,65535,42759
33768,65535,42826
33389,65535,42708
33737,65535,42900
33544,65535,42751
33572,65535,42740
33389,65535,42623
33622,65535,42907
33688,65535,42664
33904,65535,42677
34304,65535,42629
34344,65535,42703
34528,65535,42834
34316,65535,42607
34039,65535,42629
33358,65535,42639
33092,65535,42746
33068,65535,42541
33000,65535,42574
32992,65535,42588
33240,65535,42573
33396,65535,42503
33532,65535,42399
33538,65535,42604
33324,65535,42492
33440,65535,42469
33668,65535,42296
33756,65535,42516
33984,65535,42460
33597,65535,42343
33456,65535,42374
33692,65535,42201
33854,65535,42523
34000,65535,42276
33477,65535,42246
33398,65535,42155
33693,65535,42375
33505,65535,42408
33652,65535,42220
33737,65535,42223
33853,65535,42042
34080,65535,42328
33928,65535,42127
33956,65535,41988
33976,65535,42215
33964,65535,42065
33888,65535,42031
33797,65535,42031
33844,65535,42136
33744,65535,41959
33672,65535,41991
33797,65535,41792
34108,65535,41972
34160,65535,41942
33852,65535,41863
33604,65535,41823
33561,65535,42023
33512,65535,41805
33536,65535,41735
33560,65535,41732
33584,65535,41869
33600,65535,41774
33688,65535,41607
33984,65535,41796
33932,65535,41692
34296,65535,41584
34204,65535,41690
34084,65535,41575
33800,65535,41765
33732,65535,41644
33724,65535,41600
33724,65535,41412
33804,65535,41564
33820,65535,41612
34044,65535,41517
33872,65535,41446
33958,65535,41351
33956,65535,41527
33773,65535,41432
33594,65535,41404
33724,65535,41292
33716,65535,41550
33736,65535,41377
33970,65535,41392
34122,65535,41359
34156,65535,41249
34104,65535,41484
34064,65535,41337
33945,65535,41169
34052,65535,41505
34124,65535,41335
33792,65535,41180
33556,65535,41479
33508,65535,41340
33376,65535,41319
33272,65535,41389
33084,65535,41372
32912,65535,41326
32688,65535,41567
32184,65535,41447
31764,65535,41429
31436,65535,41479
31204,65535,41519
31120,65535,41337
31136,65535,41605
31053,65535,41584
31292,65535,41452
31764,65535,41821
32476,65535,41680
33181,65535,41777
33836,65535,41616
34352,65535,42013
34989,65535,41943
35365,65535,41908
35730,65535,41973
35824,65535,42007
35608,65535,41924
35340,65535,42276
34873,65535,42151
34620,65535,42209
34448,65535,42087
34328,65535,42307
33928,65535,42440
33593,65535,42359
33505,65535,42383
33576,65535,42491
33552,65535,42380
33632,65535,42756
33588,65535,42580
33580,65535,42684
33904,65535,42628
33800,65535,42941
33608,65535,42904
33744,65535,42884
33928,65535,43052
34077,65535,42967
33892,65535,42982
33712,65535,42996
33464,65535,43321
33156,65535,43127
33260,65535,43260
33436,65535,43236
33656,65535,43516
33676,65535,43349
33464,65535,43588
33624,65535,43662
33818,65535,43520
33564,65535,43671
33520,65535,43623
33148,65535,43901
33076,65535,43812
33144,65535,43801
33184,65535,44032
33228,65535,43972
33372,65535,44039
33440,65535,44000
33520,65535,44255
33612,65535,44224
33588,65535,44228
33620,65535,44477
33692,65535,44372
33212,65535,44445
33072,65535,44468
32900,65535,44736
32952,65535,44622
32866,65535,44655
32892,65535,44743
32936,65535,44788
32984,65535,44783
33213,65535,45004
33352,65535,45025
33618,65535,44932
33636,65535,44975
33537,65535,45159
33176,65535,45141
32776,65535,45060
32622,65535,45100
32622,65535,45279
32728,65535,45184
32868,65535,45303
32856,65535,45191
32728,65535,45315
32636,65535,45181
32624,65535,45189
32688,65535,45124
32732,65535,45316
32752,65535,45132
32744,65535,45149
32680,65535,45191
32621,65535,45228
32632,65535,45132
32632,65535,44985
32652,65535,44944
32812,65535,44909
32960,65535,44775
32956,65535,44865
32856,65535,44828
32800,65535,44711
32744,65535,44495
32644,65535,44344
32636,65535,44468
32688,65535,44196
32664,65535,44128
32617,65535,44088
32524,65535,43900
32412,65535,43645
32246,65535,43463
32145,65535,43493
32144,65535,43220
32189,65535,42917
32245,65535,42980
32300,65535,42694
32385,65535,42367
32528,65535,42179
32562,65535,41890
32480,65535,41557
32444,65535,41321
32350,65535,41276
32292,65535,40892
32272,65535,40620
32216,65535,40327
32194,65535,39892
32185,65535,39861
32208,65535,39509
32168,65535,39233
32092,65535,38773
31978,65535,38535
31961,65535,38436
31956,65535,38133
31973,65535,37764
32096,65535,37320
32245,65535,37342
32284,65535,37039
32336,65535,36612
32328,65535,36389
32300,65535,36195
32300,65535,35660
32292,65535,35666
32261,65535,35351
32254,65535,34733
32324,65535,34817
32404,65535,34583
32460,65535,34204
32449,65535,34134
32428,65535,33815
32429,65535,33568
32404,65535,33118
32352,65535,33159
32384,65535,32871
32436,65535,32352
32464,65535,32425
32516,65535,32191
32564,65535,31972
32556,65535,31816
32540,65535,31608
32524,65535,31220
32476,65535,31180
32449,65535,31086
32420,65535,30831
32433,65535,30360
32464,65535,30503
32488,65535,30368
32549,65535,30185
32600,65535,30031
32593,65535,29872
32628,65535,29569
32612,65535,29567
32584,65535,29452
32572,65535,29316
32576,65535,28957
32596,65535,29076
32616,65535,28957
32636,65535,28495
32672,65535,28722
32692,65535,28476
32660,65535,28474
32624,65535,28406
32596,65535,28163
32612,65535,28122
32781,65535,28037
32900,65535,27936
32925,65535,27676
32832,65535,27404
32644,65535,27620
32564,65535,27533
32524,65535,27440
32492,65535,27287
32392,65535,27013
32326,65535,27167
32380,65535,27073
32476,65535,26976
32584,65535,26775
32671,65535,26495
32676,65535,26800
32652,65535,26636
32608,65535,26549
32646,65535,26237
32640,65535,26422
32608,65535,26318
32696,65535,26093
32896,65535,26192
33008,65535,26153
33084,65535,25986
33068,65535,26089
32900,65535,26031
32668,65535,25776
32464,65535,25862
32380,65535,25788
32436,65535,25424
32616,65535,25700
32736,65535,25607
32780,65535,25494
32760,65535,25234
32656,65535,25524
32701,65535,25396
32821,65535,25125
32760,65535,25345
32612,65535,25234
32496,65535,24880
32412,65535,25133
32428,65535,25063
32488,65535,24711
32614,65535,24980
32696,65535,24925
32725,65535,24880
32724,65535,24854
32676,65535,24597
32668,65535,24796
32661,65535,24692
32720,65535,24359
32740,65535,24688
32772,65535,24578
32776,65535,24492
32796,65535,24263
32812,65535,24512
32860,65535,24281
32956,65535,24548
33056,65535,24455
33048,65535,24253
32976,65535,24424
33036,65535,24380
33140,65535,24359
33184,65535,24426
33197,65535,24245
33149,65535,24356
33180,65535,24336
33192,65535,24302
33172,65535,24311
33204,65535,24359
33192,65535,23985
33009,65535,24290
32776,65535,24103
32746,65535,24303
32812,65535,24239
32832,65535,23948
32772,65535,24294
32686,65535,24255
32624,65535,24053
32680,65535,24222
32798,65535,24282
32856,65535,24257
32918,65535,24220
32918,65535,24211
32901,65535,24232
32848,65535,24212
32836,65535,24002
32864,65535,24231
33004,65535,24167
33108,65535,24252
33188,65535,24300
33201,65535,24169
33200,65535,23943
33156,65535,24293
33025,65535,24223
32856,65535,23976
32728,65535,24289
32700,65535,24198
32684,65535,24280
32724,65535,24332
32700,65535,24269
32720,65535,24377
32876,65535,24377
32972,65535,24268
33184,65535,24434
33284,65535,24411
33236,65535,24429
33128,65535,24364
33078,65535,24484
33064,65535,24519
32972,65535,24510
32872,65535,24455
32764,65535,24300
32649,65535,24684
32648,65535,24751
32728,65535,24613
32772,65535,24754
32768,65535,24848
32796,65535,24791
32805,65535,24666
32852,65535,25022
32908,65535,25054
32952,65535,25095
33151,65535,25136
33310,65535,25087
33360,65535,24980
33364,65535,25436
33240,65535,25485
33128,65535,25540
33049,65535,25645
32980,65535,25668
32928,65535,25700
32888,65535,25669
32792,65535,25658
32788,65535,26150
32885,65535,26221
32989,65535,26251
33120,65535,26273
33112,65535,26254
32992,65535,26692
32876,65535,26781
33000,65535,26767
33172,65535,27013
33268,65535,27124
33224,65535,27021
33168,65535,27430
33036,65535,27585
32904,65535,27713
32780,65535,27863
32624,65535,27712
32560,65535,28167
32632,65535,28423
32741,65535,28557
32852,65535,28736
32872,65535,28843
32920,65535,28852
32764,65535,29156
32536,65535,29255
32230,65535,29189
31908,65535,29692
31568,65535,29896
31112,65535,30049
30736,65535,30033
30328,65535,30493
30020,65535,30596
29687,65535,30657
29372,65535,30633
29189,65535,31233
29156,65535,31348
29280,65535,31391
29580,65535,31732
30324,65535,31974
31254,65535,32135
32137,65535,32122
33132,65535,32582
34192,65535,32764
34984,65535,32901
35376,65535,32872
35616,65535,33359
35576,65535,33458
35172,65535,33428
34472,65535,33793
33916,65535,34040
33556,65535,34222
33276,65535,34333
32942,65535,34581
32800,65535,34775
32692,65535,34756
32608,65535,35189
32616,65535,35320
32724,65535,35420
32824,65535,35701
32928,65535,35847
32768,65535,35967
32776,65535,35845
32840,65535,36404
32892,65535,36507
32876,65535,36743
32848,65535,36929
32868,65535,36748
32896,65535,37333
32832,65535,37461
32824,65535,37509
32892,65535,37780
32944,65535,37980
32960,65535,38183
32941,65535,38375
32945,65535,38527
32932,65535,38575
32792,65535,38710
32705,65535,38791
32624,65535,39276
32576,65535,39415
32600,65535,39541
32734,65535,39623
32812,65535,39724
32804,65535,40111
32752,65535,40341
32724,65535,40416
32768,65535,40601
32816,65535,40761
32872,65535,40837
32972,65535,40917
32992,65535,41313
33060,65535,41420
33060,65535,41507
32961,65535,41471
32808,65535,41863
32576,65535,41991
32404,65535,41988
32392,65535,42117
32480,65535,42153
32584,65535,42367
32677,65535,42536
32665,65535,42564
32596,65535,42532
32542,65535,42597
32597,65535,43004
32596,65535,42839
32564,65535,42950
32630,65535,43213
32732,65535,43044
32800,65535,43112
32740,65535,43113
32556,65535,43436
32400,65535,43268
32336,65535,43308
32288,65535,43501
32289,65535,43391
32328,65535,43372
32360,65535,43630
32366,65535,43391
32316,65535,43396
32279,65535,43636
32332,65535,43431
32353,65535,43444
32428,65535,43655
32416,65535,43425
32374,65535,43428
32264,65535,43412
32128,65535,43407
32032,65535,43549
31936,65535,43554
31926,65535,43327
31952,65535,43327
31952,65535,43263
31973,65535,43448
31928,65535,43200
31828,65535,43103
31816,65535,43321
31960,65535,43041
32040,65535,42996
32148,65535,43161
32224,65535,42884
32256,65535,42847
32261,65535,43036
32228,65535,42736
32318,65535,42695
32196,65535,42825
32084,65535,42543
32097,65535,42503
32104,65535,42333
32184,65535,42425
32188,65535,42380
32177,65535,42209
32164,65535,41973
32128,65535,42182
32117,65535,41945
32248,65535,41831
32392,65535,41836
32513,65535,41693
32480,65535,41565
32368,65535,41613
32372,65535,41413
32472,65535,41255
32542,65535,41222
32582,65535,41151
32464,65535,41037
32420,65535,40748
32400,65535,40846
32502,65535,40541
32604,65535,40615
32636,65535,40527
32596,65535,40413
32577,65535,40372
32564,65535,40188
32568,65535,40033
32552,65535,39995
32548,65535,39717
32604,65535,39836
32668,65535,39660
32680,65535,39524
32776,65535,39293
32864,65535,39420
32925,65535,39217
32932,65535,39071
32984,65535,38925
33084,65535,38935
33141,65535,38791
33155,65535,38497
33224,65535,38480
33325,65535,38407
33370,65535,38300
33436,65535,38057
33444,65535,37959
33373,65535,37959
33305,65535,37839
33120,65535,37625
32980,65535,37485
32940,65535,37540
33008,65535,37368
33168,65535,37253
33273,65535,37133
33212,65535,36837
33148,65535,36727
33100,65535,36806
33072,65535,36672
33080,65535,36549
33126,65535,36268
33152,65535,36301
33208,65535,36193
33332,65535,36103
33472,65535,35847
33572,65535,35894
33621,65535,35750
33524,65535,35503
33472,65535,35529
33392,65535,35422
33288,65535,35060
33132,65535,35238
33036,65535,35108
33012,65535,34730
33152,65535,34877
33236,65535,34672
33216,65535,34653
33156,65535,34599
33073,65535,34338
33104,65535,34336
33100,65535,34311
33080,65535,34116
33045,65535,34020
33092,65535,34007
33175,65535,33932
33302,65535,33716
33452,65535,33757
33372,65535,33728
33324,65535,33354
33244,65535,33566
33177,65535,33480
33160,65535,33062
33160,65535,33353
33212,65535,33047
33212,65535,33252
33092,65535,32895
33012,65535,33103
32964,65535,33046
33008,65535,32700
32956,65535,32948
32960,65535,32879
32968,65535,32505
33060,65535,32775
33098,65535,32770
33260,65535,32359
33388,65535,32690
33268,65535,32625
33064,65535,32239
33044,65535,32577
33060,65535,32381
33116,65535,32407
33000,65535,32503
32760,65535,32461
32400,65535,32285
32252,65535,32028
32296,65535,32354
32432,65535,32316
32420,65535,32147
32504,65535,32290
32528,65535,32263
32576,65535,32150
32660,65535,31839
32648,65535,32153
32660,65535,32132
32592,65535,31861
32640,65535,32125
32644,65535,32069
32500,65535,31722
32324,65535,32044
32249,65535,32020
32224,65535,31780
32216,65535,32032
32328,65535,31980
32404,65535,31751
32452,65535,31917
32453,65535,31970
32510,65535,31932
32588,65535,31593
32672,65535,31902
32632,65535,31859
32620,65535,31538
32580,65535,31862
32608,65535,31836
32597,65535,31791
32634,65535,31579
32594,65535,31687
32736,65535,31856
32760,65535,31815
32409,65535,31814
32184,65535,31749
32262,65535,31637
32392,65535,31404
32529,65535,31685
32576,65535,31765
32646,65535,31773
32701,65535,31751
32696,65535,31604
32660,65535,31779
32728,65535,31764
32756,65535,31676
32781,65535,31412
32832,65535,31825
32908,65535,31811
33064,65535,31679
33236,65535,31469
33308,65535,31857
33393,65535,31861
33344,65535,31839
33372,65535,31641
33353,65535,31849
33452,65535,31917
33536,65535,31824
33472,65535,31856
33244,65535,31879
32984,65535,31943
32776,65535,31959
32724,65535,31863
32764,65535,31652
33016,65535,32069
33176,65535,32081
33280,65535,31860
33285,65535,32101
33260,65535,32101
33228,65535,31952
33148,65535,32095
33076,65535,32161
33192,65535,32113
33276,65535,32199
33408,65535,32258
33585,65535,31985
33636,65535,32199
33593,65535,32284
33380,65535,32205
33344,65535,32287
33312,65535,32369
33236,65535,32263
33133,65535,32020
32948,65535,32423
32960,65535,32373
33012,65535,32186
32960,65535,32372
33000,65535,32455
33060,65535,32317
33064,65535,32436
32968,65535,32420
32828,65535,32116
32812,65535,32436
32896,65535,32426
33013,65535,32374
33100,65535,32428
33120,65535,32375
33088,65535,32351
33324,65535,32447
33644,65535,32037
33852,65535,32386
33696,65535,32383
33428,65535,32144
33021,65535,32327
32652,65535,32255
32360,65535,32143
32389,65535,32182
32542,65535,32145
32516,65535,31812
32464,65535,32117
32384,65535,32058
32276,65535,31869
32068,65535,31871
31616,65535,31865
31017,65535,31646
30532,65535,31675
30237,65535,31671
30136,65535,31392
30108,65535,31540
29972,65535,31429
29997,65535,31063
29844,65535,31348
29589,65535,31232
29528,65535,31077
29489,65535,30704
29808,65535,31017
30436,65535,30845
31232,65535,30724
32356,65535,30693
33543,65535,30284
34280,65535,30513
34612,65535,30444
34512,65535,30342
34232,65535,30207
34000,65535,30111
33885,65535,30124
33725,65535,29797
33468,65535,29973
33108,65535,29847
32684,65535,29561
32606,65535,29666
32636,65535,29612
32684,65535,29276
32629,65535,29446
32660,65535,29335
32678,65535,29097
32716,65535,29156
32756,65535,28981
32760,65535,28935
32705,65535,28762
32600,65535,28706
32432,65535,28615
32340,65535,28281
32384,65535,28422
32456,65535,28222
32504,65535,28252
32574,65535,28085
32617,65535,27687
32548,65535,27882
32412,65535,27685
32248,65535,27652
32132,65535,27244
31940,65535,27495
31820,65535,27052
31776,65535,27244
31820,65535,26993
31937,65535,26968
31832,65535,26852
31758,65535,26408
31881,65535,26649
32110,65535,26484
32192,65535,26353
32293,65535,26290
32469,65535,26133
32420,65535,26012
32244,65535,25621
31952,65535,25777
31796,65535,25596
31816,65535,25220
31804,65535,25422
31768,65535,25223
31740,65535,24801
31800,65535,25008
31740,65535,24688
31624,65535,24763
31512,65535,24583
31477,65535,24448
31413,65535,24030
31404,65535,24183
31478,65535,24085
31544,65535,23886
31592,65535,23476
31697,65535,23670
31785,65535,23453
31752,65535,23053
31744,65535,23180
31673,65535,23013
31528,65535,22896
31448,65535,22745
31456,65535,22556
31456,65535,22215
31540,65535,22328
31608,65535,22150
31682,65535,21869
31636,65535,21829
31572,65535,21657
31536,65535,21525
31536,65535,21310
31540,65535,20918
31477,65535,21004
31329,65535,20871
30960,65535,20640
30712,65535,20314
30576,65535,20460
30559,65535,20288
30624,65535,19916
30764,65535,19925
30844,65535,19794
30860,65535,19605
30860,65535,19284
30880,65535,19420
30976,65535,19138
30996,65535,19074
30999,65535,18935
30972,65535,18604
31000,65535,18685
31036,65535,18505
31009,65535,18343
31012,65535,17965
31072,65535,18113
30924,65535,17944
30796,65535,17902
30832,65535,17770
30932,65535,17412
31018,65535,17260
31000,65535,17351
30894,65535,17190
30751,65535,16888
30712,65535,17046
30812,65535,16876
30905,65535,16725
30864,65535,16430
30860,65535,16575
30816,65535,16464
30780,65535,16252
30785,65535,16204
30796,65535,16117
30824,65535,15978
30956,65535,15692
31143,65535,15857
31306,65535,15667
31392,65535,15486
31425,65535,15567
31532,65535,15419
31617,65535,15236
31673,65535,15259
31788,65535,15185
31796,65535,15029
31696,65535,14773
31505,65535,14908
31406,65535,14820
31408,65535,14668
31496,65535,14372
31628,65535,14564
31720,65535,14412
31816,65535,14170
31896,65535,14325
31940,65535,14221
31949,65535,14038
31938,65535,14054
31948,65535,13942
32048,65535,13620
32120,65535,13835
32156,65535,13665
32124,65535,13711
32096,65535,13582
32152,65535,13325
32284,65535,13478
32360,65535,13200
32400,65535,13322
32461,65535,13274
32504,65535,12937
32492,65535,13124
32348,65535,13052
32176,65535,12745
31968,65535,12917
31908,65535,12844
31936,65535,12743
32060,65535,12735
32160,65535,12637
32252,65535,12538
32276,65535,12266
32276,65535,12237
32260,65535,12319
32220,65535,12303
32204,65535,12229
32212,65535,12084
32192,65535,11783
32240,65535,11972
32300,65535,11900
32450,65535,11848
32629,65535,11727
32736,65535,11431
32696,65535,11652
32557,65535,11559
32341,65535,11530
32120,65535,11421
32028,65535,11122
32052,65535,11189
32052,65535,11278
31984,65535,11176
31904,65535,11126
31860,65535,11068
31904,65535,10821
31956,65535,10717
32012,65535,10952
31940,65535,10862
31776,65535,10554
31846,65535,10799
32036,65535,10700
32172,65535,10422
32232,65535,10658
32240,65535,10588
32222,65535,10428
32209,65535,10555
32229,65535,10493
32260,65535,10473
32244,65535,10416
32324,65535,10142
32456,65535,10379
32564,65535,10372
32592,65535,10358
32580,65535,10164
32584,65535,10284
32596,65535,10239
32656,65535,10263
32656,65535,10215
32576,65535,10180
32501,65535,10182
32456,65535,10050
32405,65535,9930
32360,65535,10119
32272,65535,10040
32152,65535,9883
32040,65535,10008
32056,65535,10001
32124,65535,9958
32184,65535,9768
32229,65535,9948
32288,65535,9700
32396,65535,9880
32501,65535,9858
32536,65535,9871
32625,65535,9818
32692,65535,9580
32680,65535,9819
32656,65535,9721
32488,65535,9564
32364,65535,9695
32348,65535,9464
32376,65535,9709
32404,65535,9678
32404,65535,9441
32420,65535,9624
32444,65535,9564
32556,65535,9304
32608,65535,9568
32612,65535,9515
32678,65535,9256
32704,65535,9505
32821,65535,9489
32920,65535,9208
32976,65535,9460
32880,65535,9425
32758,65535,9287
32557,65535,9279
32428,65535,9380
32320,65535,9390
32276,65535,9191
32260,65535,9427
32356,65535,9385
32440,65535,9148
32492,65535,9418
32496,65535,9383
32460,65535,9387
32425,65535,9172
32452,65535,9399
32484,65535,9423
32452,65535,9438
32504,65535,9269
32532,65535,9485
32620,65535,9508
32680,65535,9491
32712,65535,9252
32713,65535,9540
32712,65535,9537
32676,65535,9572
32696,65535,9602
32722,65535,9461
32714,65535,9663
32637,65535,9682
32636,65535,9524
32661,65535,9758
32678,65535,9754
32684,65535,9485
32720,65535,9803
32720,65535,9820
32776,65535,9714
32932,65535,9850
33000,65535,9851
32932,65535,9883
32797,65535,9731
32650,65535,9963
32648,65535,9975
32700,65535,9988
32768,65535,10070
32804,65535,9927
32816,65535,10077
32812,65535,10104
32756,65535,10089
32872,65535,10188
33140,65535,10167
33396,65535,9945
33436,65535,10264
33396,65535,10253
33308,65535,10053
33208,65535,10308
33024,65535,10336
32752,65535,10357
32640,65535,10280
32648,65535,10466
32650,65535,10223
32620,65535,10505
32620,65535,10265
32632,65535,10575
32684,65535,10440
32736,65535,10636
32808,65535,10711
32928,65535,10651
33044,65535,10811
33120,65535,10852
33212,65535,10832
33280,65535,10645
33292,65535,10975
33180,65535,10996
32948,65535,11020
32848,65535,10864
32804,65535,11179
32833,65535,11276
32828,65535,11180
32736,65535,11416
32648,65535,11428
32556,65535,11243
32333,65535,11588
31996,65535,11467
31492,65535,11730
31005,65535,11771
30552,65535,11885
30220,65535,11953
29920,65535,11811
29696,65535,12087
29497,65535,12207
29316,65535,12164
29208,65535,12080
29305,65535,12203
29628,65535,12487
30268,65535,12517
31244,65535,12588
32404,65535,12705
33656,65535,12717
34800,65535,12611
35536,65535,12945
35772,65535,12924
35536,65535,12788
35162,65535,13161
34804,65535,13167
34504,65535,13026
34264,65535,13357
34028,65535,13380
33844,65535,13308
33604,65535,13566
33472,65535,13620
33432,65535,13673
33409,65535,13757
33364,65535,13861
33344,65535,13644
33300,65535,13999
33320,65535,14007
33352,65535,13856
33420,65535,14149
33432,65535,14225
33376,65535,14255
33336,65535,14082
33308,65535,14447
33252,65535,14406
33248,65535,14544
33344,65535,14561
33460,65535,14396
33504,65535,14704
33432,65535,14650
33408,65535,14856
33325,65535,14848
33364,65535,14900
33400,65535,15006
33376,65535,14938
33408,65535,15115
33549,65535,15124
33632,65535,14940
33608,65535,15242
33448,65535,15223
33248,65535,15031
33066,65535,15364
32996,65535,15447
32882,65535,15231
32744,65535,15511
32728,65535,15450
32716,65535,15468
32788,65535,15637
32861,65535,15645
32928,65535,15554
32944,65535,15843
32980,65535,15832
32996,65535,15670
32992,65535,15969
32845,65535,16007
32656,65535,15908
32586,65535,16042
32564,65535,16100
32597,65535,16101
32676,65535,15929
32680,65535,16265
32714,65535,16278
32688,65535,16253
32632,65535,16037
32620,65535,16346
32632,65535,16297
32628,65535,16470
32612,65535,16440
32648,65535,16511
32681,65535,16539
32772,65535,16465
32844,65535,16597
32916,65535,16632
32884,65535,16588
32876,65535,16483
32864,65535,16708
32788,65535,16713
32668,65535,16765
32596,65535,16729
32592,65535,16649
32636,65535,16547
32704,65535,16902
32684,65535,16908
32704,65535,16884
32676,65535,16730
32648,65535,16992
32628,65535,16975
32648,65535,16816
32736,65535,17036
32708,65535,17129
32580,65535,17086
32544,65535,16916
32544,65535,17234
32476,65535,17185
32280,65535,17118
31980,65535,16966
31768,65535,17276
31732,65535,17298
31780,65535,17288
31941,65535,17188
32068,65535,17180
32156,65535,17425
32232,65535,17476
32300,65535,17431
32296,65535,17223
32284,65535,17573
32232,65535,17613
32121,65535,17587
32133,65535,17678
32188,65535,17612
32252,65535,17418
32317,65535,17735
32408,65535,17766
32580,65535,17870
32564,65535,17866
32485,65535,17961
32460,65535,17932
32412,65535,17822
32388,65535,17829
32348,65535,18120
32304,65535,18223
32284,65535,18201
32300,65535,17984
32284,65535,18393
32296,65535,18397
32330,65535,18432
32376,65535,18272
32349,65535,18617
32446,65535,18701
32556,65535,18608
32698,65535,18747
32888,65535,18888
33024,65535,18821
33080,65535,18705
33065,65535,19085
32884,65535,19152
32796,65535,19151
32793,65535,19028
32924,65535,19311
33172,65535,19447
33372,65535,19437
33360,65535,19273
33172,65535,19653
33045,65535,19672
32992,65535,19508
33004,65535,19865
33128,65535,19999
33180,65535,19776
33148,65535,20153
33072,65535,20022
32976,65535,20325
32932,65535,20345
33004,65535,20441
33056,65535,20510
33060,65535,20375
33044,65535,20709
33044,65535,20681
33128,65535,20911
33145,65535,20948
33136,65535,20744
33172,65535,21135
33197,65535,21001
33224,65535,21336
33244,65535,21215
33148,65535,21525
33057,65535,21553
33041,65535,21407
33012,65535,21825
33064,65535,21848
33040,65535,21818
33044,65535,21773
33117,65535,22143
33138,65535,22202
33113,65535,22101
32996,65535,22431
32925,65535,22406
32876,65535,22652
32906,65535,22742
32961,65535,22773
33116,65535,22725
33312,65535,22703
33444,65535,23100
33548,65535,23164
33376,65535,23286
33140,65535,23368
32970,65535,23343
32888,65535,23539
32852,65535,23649
32982,65535,23566
33148,65535,23799
33137,65535,23828
33004,65535,23735
32832,65535,23985
32800,65535,24106
32800,65535,23959
32816,65535,24298
32802,65535,24333
32840,65535,24212
32857,65535,24421
32968,65535,24467
33156,65535,24492
33240,65535,24277
33220,65535,24651
33096,65535,24674
33020,65535,24645
33000,65535,24590
32965,65535,24809
32968,65535,24903
33104,65535,24933
33194,65535,24833
33228,65535,25029
33080,65535,25095
32905,65535,25124
32760,65535,24878
32693,65535,25249
32664,65535,25256
32541,65535,25081
32508,65535,25407
32576,65535,25463
32705,65535,25508
32788,65535,25565
32824,65535,25567
32760,65535,25405
32721,65535,25749
32737,65535,25868
32732,65535,25796
32744,65535,26031
32800,65535,26057
32872,65535,25917
32968,65535,26215
33072,65535,26229
33132,65535,26325
33056,65535,26412
32900,65535,26477
32724,65535,26292
32580,65535,26729
32512,65535,26755
32484,65535,26673
32552,65535,26936
32644,65535,27079
32681,65535,27035
32696,65535,27316
32756,65535,27333
32740,65535,27433
32772,65535,27552
32782,65535,27412
32804,65535,27783
32820,65535,27873
32906,65535,27695
33072,65535,28109
33236,65535,28191
33304,65535,28293
33212,65535,28495
32952,65535,28487
32771,65535,28724
32769,65535,28788
32772,65535,28655
32772,65535,29092
32796,65535,29137
32728,65535,29159
32664,65535,29415
32728,65535,29517
32796,65535,29447
32804,65535,29785
32800,65535,29889
32764,65535,29931
32797,65535,30069
32805,65535,30196
32860,65535,29995
32932,65535,30442
33040,65535,30421
33114,65535,30739
33156,65535,30789
33212,65535,30604
33316,65535,31076
33416,65535,31173
33402,65535,31217
33277,65535,31157
33046,65535,31452
32868,65535,31639
32813,65535,31688
32886,65535,31745
32988,65535,31954
33180,65535,31877
33351,65535,32213
33380,65535,32245
33284,65535,32250
33145,65535,32515
33114,65535,32600
33112,65535,32341
33260,65535,32799
33398,65535,32888
33456,65535,32996
33420,65535,33117
33304,65535,32884
33252,65535,33369
33204,65535,33287
33124,65535,33471
33192,65535,33693
33304,65535,33630
33356,65535,33888
33472,65535,33998
33573,65535,33905
33584,65535,34175
33472,65535,34260
33244,65535,34096
33088,65535,34521
33140,65535,34573
33221,65535,34609
33320,65535,34799
33356,65535,34749
33445,65535,34714
33482,65535,35137
33465,65535,35169
33489,65535,35196
33536,65535,35367
33572,65535,35359
33556,65535,35608
33493,65535,35575
33248,65535,35807
32792,65535,35844
32184,65535,35864
31596,65535,36030
31038,65535,35840
30552,65535,36245
30128,65535,36157
29665,65535,36428
29252,65535,36476
28988,65535,36549
28832,65535,36709
28872,65535,36615
28984,65535,36809
29328,65535,36940
30070,65535,36918
31120,65535,36940
32625,65535,37157
34177,65535,37181
35224,65535,37231
35792,65535,37417
35768,65535,37429
35484,65535,37465
35300,65535,37639
35136,65535,37594
34912,65535,37807
34556,65535,37750
34224,65535,37936
33960,65535,37993
33788,65535,38096
33761,65535,38132
33748,65535,37909
33740,65535,38341
33830,65535,38325
33876,65535,38141
33752,65535,38497
33576,65535,38501
33452,65535,38391
33340,65535,38663
33277,65535,38636
33276,65535,38712
33305,65535,38572
33372,65535,38780
33428,65535,38821
33420,65535,38743
33400,65535,38887
33432,65535,38805
33476,65535,39004
33464,65535,38972
33440,65535,38988
33376,65535,39028
33304,65535,38960
33309,65535,39078
33374,65535,38880
33605,65535,39185
33732,65535,39122
33636,65535,38953
33288,65535,39234
33036,65535,39167
32960,65535,39064
32836,65535,39156
32748,65535,39060
32680,65535,39245
32660,65535,39181
32664,65535,39031
32665,65535,39231
32656,65535,39168
32688,65535,39012
32737,65535,39252
32744,65535,39159
32716,65535,39118
32628,65535,39130
32524,65535,39159
32464,65535,39063
32480,65535,39135
32496,65535,38935
32516,65535,39022
32500,65535,38916
32528,65535,39024
32528,65535,38878
32613,65535,38950
32700,65535,38815
32700,65535,38871
32671,65535,38655
32532,65535,38788
32384,65535,38663
32276,65535,38516
32148,65535,38570
32124,65535,38292
32128,65535,38473
32117,65535,38253
32119,65535,38343
32100,65535,38081
32060,65535,38204
32000,65535,38105
31948,65535,38084
31944,65535,38055
32004,65535,37736
31996,65535,37895
32064,65535,37663
32168,65535,37801
32172,65535,37570
32177,65535,37613
32176,65535,37316
32166,65535,37464
32116,65535,37264
31937,65535,37351
31717,65535,37076
31528,65535,37183
31396,65535,37033
31364,65535,37051
31408,65535,36991
31457,65535,36754
31488,65535,36844
31526,65535,36736
31524,65535,36631
31442,65535,36599
31333,65535,36193
31276,65535,36420
31248,65535,36060
31432,65535,36272
31712,65535,36012
31821,65535,36192
31736,65535,36055
31492,65535,35676
31453,65535,35953
31574,65535,35812
31680,65535,35517
31632,65535,35703
31504,65535,35573
31380,65535,35415
31356,65535,35423
31452,65535,35364
31524,65535,35236
31492,65535,35225
31505,65535,34791
31484,65535,35112
31430,65535,34640
31444,65535,34921
31512,65535,34548
31660,65535,34840
31788,65535,34564
31860,65535,34718
31889,65535,34613
31936,65535,34380
31962,65535,34516
31964,65535,34350
32012,65535,34239
32098,65535,34301
32240,65535,34173
32349,65535,34258
32373,65535,34138
32524,65535,34045
32820,65535,34041
32901,65535,33989
32721,65535,33608
32428,65535,33895
32296,65535,33832
32308,65535,33799
32376,65535,33730
32434,65535,33698
32416,65535,33599
32384,65535,33662
32333,65535,33503
32372,65535,33612
32352,65535,33497
32337,65535,33391
32253,65535,33461
32204,65535,33328
32189,65535,33332
32236,65535,33354
32300,65535,33031
32336,65535,33244
32424,65535,33206
32517,65535,32879
32620,65535,33142
32657,65535,32992
32636,65535,33074
32580,65535,33031
32480,65535,32932
32352,65535,32954
32284,65535,32708
32324,65535,32951
32484,65535,32861
32632,65535,32610
32592,65535,32785
32420,65535,32644
32277,65535,32723
32117,65535,32660
32076,65535,32637
32076,65535,32629
32108,65535,32233
32132,65535,32532
32192,65535,32447
32257,65535,32394
32292,65535,32401
32364,65535,32304
32398,65535,32353
32286,65535,32279
32188,65535,31974
32268,65535,32239
32412,65535,32263
32440,65535,32050
32396,65535,32143
32384,65535,32063
32368,65535,31844
32372,65535,32023
32193,65535,31963
31969,65535,31674
31838,65535,31871
31844,65535,31763
31904,65535,31658
31932,65535,31708
31960,65535,31419
32028,65535,31644
32072,65535,31524
32060,65535,31138
32093,65535,31492
32208,65535,31358
32324,65535,31055
32406,65535,31323
32332,65535,31231
32225,65535,30879
32168,65535,31129
32081,65535,31046
32118,65535,30964
32224,65535,31012
32288,65535,30829
32312,65535,30917
32284,65535,30790
32281,65535,30412
32261,65535,30727
32212,65535,30678
32182,65535,30516
32248,65535,30505
32344,65535,30500
32424,65535,30329
32420,65535,30332
32324,65535,30343
32268,65535,30263
32176,65535,30324
32196,65535,30197
32292,65535,29823
32448,65535,30095
32668,65535,29973
32741,65535,30081
32594,65535,29958
32296,65535,29975
31954,65535,29861
31860,65535,29636
31988,65535,29815
32164,65535,29793
32288,65535,29703
32340,65535,29348
32320,65535,29655
32345,65535,29593
32508,65535,29319
32568,65535,29565
32416,65535,29535
32168,65535,29309
32033,65535,29464
32026,65535,29373
32020,65535,29049
32112,65535,29303
32224,65535,29225
32284,65535,29225
32264,65535,29261
32276,65535,29001
32304,65535,29207
32313,65535,29060
32332,65535,29134
32329,65535,29061
32284,65535,28994
32262,65535,29009
32276,65535,28980
32324,65535,28673
32296,65535,28991
32280,65535,28855
32229,65535,28855
32312,65535,28900
32397,65535,28808
32448,65535,28783
32432,65535,28769
32409,65535,28433
32528,65535,28743
32548,65535,28679
32532,65535,28444
32497,65535,28730
32488,65535,28592
32462,65535,28432
32424,65535,28591
32368,65535,28489
32341,65535,28517
32300,65535,28573
32208,65535,28373
32132,65535,28449
32086,65535,28479
32104,65535,28393
32160,65535,28409
32220,65535,28439
32277,65535,28349
32360,65535,28345
32474,65535,28376
32680,65535,28342
32856,65535,28080
32736,65535,28351
32509,65535,28207
32408,65535,28276
32376,65535,28276
32446,65535,28047
32524,65535,27891
32544,65535,28237
32636,65535,28218
32688,65535,28090
32632,65535,27962
32640,65535,27780
32680,65535,28083
32668,65535,28080
32588,65535,27893
32552,65535,27719
32548,65535,28023
32572,65535,28012
32676,65535,27941
32814,65535,27916
32848,65535,27922
32880,65535,27877
32853,65535,27684
32832,65535,27813
32882,65535,27856
32886,65535,27876
32852,65535,27756
32768,65535,27677
32668,65535,27564
32668,65535,27524
32796,65535,27617
32808,65535,27684
32744,65535,27667
32633,65535,27640
32505,65535,27685
32320,65535,27607
32036,65535,27648
31632,65535,27545
31110,65535,27546
30584,65535,27363
30172,65535,27172
29820,65535,27480
29534,65535,27464
29236,65535,27480
28886,65535,27492
28616,65535,27431
28409,65535,27394
28408,65535,27398
28598,65535,27321
28924,65535,27236
29500,65535,27077
30296,65535,27279
31408,65535,27334
32812,65535,27307
34060,65535,27238
34900,65535,27170
35100,65535,27028
34988,65535,26866
34749,65535,27248
34476,65535,27167
34144,65535,27124
33736,65535,27135
33392,65535,27129
33156,65535,27091
33016,65535,26852
33000,65535,27121
33056,65535,27092
33216,65535,27130
33420,65535,27052
33552,65535,27057
33712,65535,26967
33704,65535,27027
33537,65535,27049
33316,65535,27015
33132,65535,27014
32960,65535,26788
32804,65535,26991
32792,65535,27076
32832,65535,27015
32912,65535,26877
32996,65535,26690
33037,65535,27044
33048,65535,27033
33061,65535,26949
33132,65535,26771
33140,65535,26645
33088,65535,26981
32980,65535,26977
33009,65535,26844
33124,65535,26905
33188,65535,26943
33152,65535,26916
32992,65535,26798
32713,65535,26881
32672,65535,26922
32724,65535,26928
32852,65535,26841
32893,65535,26903
32935,65535,26964
32968,65535,26919
32956,65535,26784
32952,65535,26900
32916,65535,26916
32820,65535,26883
32772,65535,26876
32792,65535,26925
32816,65535,26842
32908,65535,26628
32904,65535,27008
32892,65535,27013
32864,65535,26804
32836,65535,26930
32824,65535,27015
32822,65535,26942
32792,65535,26845
32732,65535,26689
32768,65535,26942
32760,65535,26953
32720,65535,26898
32761,65535,26969
32800,65535,26983
32876,65535,26937
32912,65535,26808
32908,65535,26980
32860,65535,26949
32800,65535,26769
32740,65535,26907
32748,65535,26972
32740,65535,26914
32712,65535,26709
32664,65535,26951
32636,65535,26967
32565,65535,26908
32472,65535,26668
32350,65535,26961
32302,65535,26940
32400,65535,26660
32472,65535,26943
32480,65535,26921
32532,65535,26916
32564,65535,26980
32636,65535,26918
32704,65535,26685
32714,65535,26980
32678,65535,26940
32612,65535,26756
32584,65535,26941
32550,65535,26812
32544,65535,26977
32520,65535,26911
32488,65535,26908
32464,65535,26958
32477,65535,26700
32528,65535,26926
32512,65535,26917
32432,65535,26897
32352,65535,26938
32296,65535,26913
32388,65535,26941
32516,65535,26919
32480,65535,26709
32424,65535,26961
32340,65535,26943
32240,65535,26778
32200,65535,26921
32204,65535,26993
32260,65535,26956
32308,65535,26847
32404,65535,27001
32504,65535,26956
32568,65535,27003
32644,65535,27020
32700,65535,26939
32752,65535,27073
32817,65535,27054
32920,65535,26781
33040,65535,27116
33124,65535,26772
33192,65535,27110
33148,65535,27111
33088,65535,26851
33012,65535,27207
32956,65535,27150
32896,65535,26868
32873,65535,27256
32828,65535,26998
32856,65535,27308
32941,65535,27253
33040,65535,26945
33190,65535,27305
33312,65535,27261
33352,65535,26981
33336,65535,27316
33308,65535,27173
33312,65535,27336
33372,65535,27257
33448,65535,27376
33560,65535,27365
33668,65535,27360
33720,65535,27393
33600,65535,27094
33424,65535,27393
33344,65535,27327
33328,65535,27386
33348,65535,27399
33324,65535,27386
33348,65535,27428
33408,65535,27416
33468,65535,27388
33460,65535,27439
33484,65535,27465
33528,65535,27399
33484,65535,27237
33444,65535,27271
33372,65535,27458
33320,65535,27370
33344,65535,27084
33372,65535,27396
33440,65535,27332
33573,65535,27369
33676,65535,27372
33612,65535,27207
33424,65535,27364
33276,65535,27332
33165,65535,27039
33128,65535,27393
33116,65535,27097
33120,65535,27355
33116,65535,27137
33080,65535,27313
33076,65535,27111
33132,65535,27326
33172,65535,27277
33104,65535,27285
33056,65535,27300
33072,65535,27065
33052,65535,27292
33060,65535,27153
33129,65535,27289
33180,65535,27174
33236,65535,27316
33264,65535,27239
33216,65535,27054
33172,65535,27224
33084,65535,27232
33020,65535,26908
33016,65535,27239
33000,65535,27016
33093,65535,27280
33168,65535,27245
33175,65535,27120
33128,65535,27202
33060,65535,27195
33072,65535,26910
32984,65535,27263
32904,65535,26908
32908,65535,27263
32944,65535,27000
32983,65535,27280
32985,65535,27202
33036,65535,27004
33112,65535,27238
33184,65535,27178
33156,65535,27196
33068,65535,27199
32980,65535,27170
32948,65535,27200
32953,65535,26890
32944,65535,27252
32948,65535,27102
32944,65535,27175
33021,65535,27159
33056,65535,27199
32976,65535,27093
32876,65535,27209
32804,65535,27148
32756,65535,26903
32916,65535,27214
33169,65535,27054
33330,65535,27191
33428,65535,27133
33332,65535,27175
33137,65535,27172
32885,65535,26805
32644,65535,27173
32596,65535,26892
32688,65535,27124
32868,65535,27140
32988,65535,27055
32884,65535,27060
32656,65535,27081
32438,65535,26823
32312,65535,27109
32237,65535,27072
32261,65535,26778
32280,65535,27098
32369,65535,27101
32458,65535,27101
32528,65535,27077
32564,65535,26782
32573,65535,27133
32556,65535,27095
32598,65535,26821
32716,65535,27117
32756,65535,27045
32736,65535,27096
32679,65535,27165
32664,65535,27069
32712,65535,26813
32796,65535,27217
32824,65535,27174
32808,65535,26997
32770,65535,27221
32704,65535,27220
32629,65535,27143
32565,65535,26908
32513,65535,27217
32540,65535,26869
32636,65535,27210
32753,65535,26892
32836,65535,27229
32916,65535,26954
32925,65535,27196
32864,65535,26964
32756,65535,27176
32692,65535,26844
32702,65535,27204
32716,65535,26887
32743,65535,27183
32670,65535,26928
32588,65535,27213
32444,65535,27169
32372,65535,27046
32332,65535,27102
32352,65535,27093
32272,65535,26783
32256,65535,27085
32258,65535,26947
32336,65535,27127
32466,65535,27021
32676,65535,26714
32756,65535,27023
32720,65535,26904
32668,65535,27039
32616,65535,26939
32576,65535,26732
32556,65535,26946
32452,65535,26690
32392,65535,26897
32353,65535,26849
32277,65535,26542
32256,65535,26775
32216,65535,26775
32252,65535,26721
32352,65535,26527
32512,65535,26756
32596,65535,26653
32544,65535,26433
32512,65535,26681
32564,65535,26631
32525,65535,26437
32464,65535,26303
32416,65535,26524
32548,65535,26287
32736,65535,26429
32932,65535,26247
32848,65535,26415
32660,65535,26395
32512,65535,26205
32329,65535,26322
32206,65535,26202
32108,65535,26245
31972,65535,26057
31828,65535,26173
31836,65535,25957
31840,65535,26058
31880,65535,25694
31892,65535,25917
31904,65535,25764
31748,65535,25890
31471,65535,25783
31009,65535,25670
30532,65535,25700
30108,65535,25611
29672,65535,25271
29164,65535,25522
28849,65535,25454
28637,65535,25397
28532,65535,25336
28382,65535,25255
28280,65535,25261
28348,65535,25052
28487,65535,25050
28840,65535,24996
29496,65535,24733
30444,65535,24916
31788,65535,24747
33056,65535,24519
33872,65535,24694
34344,65535,24505
34302,65535,24436
34044,65535,24423
33748,65535,24053
33420,65535,24206
33080,65535,23932
32756,65535,24013
32569,65535,23716
32448,65535,23859
32404,65535,23676
32372,65535,23676
32400,65535,23524
32456,65535,23437
32544,65535,23398
32604,65535,23215
32592,65535,22948
32576,65535,23092
32548,65535,22930
32506,65535,22833
32524,65535,22474
32628,65535,22698
32784,65535,22543
32828,65535,22401
32829,65535,22061
32768,65535,22241
32613,65535,21988
32480,65535,22087
32384,65535,21969
32376,65535,21638
32408,65535,21741
32566,65535,21561
32720,65535,21192
32797,65535,21426
32710,65535,21255
32574,65535,20896
32456,65535,21108
32448,65535,20971
32560,65535,20636
32684,65535,20798
32697,65535,20413
32648,65535,20604
32568,65535,20253
32292,65535,20413
32220,65535,20221
32276,65535,20309
32348,65535,20087
32340,65535,20127
32376,65535,19985
32373,65535,19598
32380,65535,19815
32472,65535,19428
32716,65535,19649
32836,65535,19267
32781,65535,19470
32672,65535,19380
32624,65535,19024
32476,65535,19236
32304,65535,19070
32193,65535,19093
32076,65535,19041
32041,65535,18746
32088,65535,18892
32148,65535,18532
32208,65535,18723
32182,65535,18437
32144,65535,18617
32096,65535,18307
32109,65535,18454
32224,65535,18252
32329,65535,18295
32432,65535,18188
32416,65535,18212
32324,65535,18039
32225,65535,17991
32049,65535,17889
31976,65535,17673
31937,65535,17817
31960,65535,17652
31936,65535,17724
31980,65535,17582
32052,65535,17537
32036,65535,17426
31956,65535,17197
31968,65535,17341
31980,65535,17266
31936,65535,17246
31908,65535,17165
31884,65535,17055
31912,65535,16835
31960,65535,16989
32068,65535,16766
32137,65535,16890
32084,65535,16652
32084,65535,16735
32084,65535,16651
32074,65535,16344
32104,65535,16615
32176,65535,16221
32285,65535,16459
32328,65535,16133
32268,65535,16301
32161,65535,16295
31988,65535,16201
31888,65535,15964
31824,65535,15849
31800,65535,16071
31800,65535,15750
31816,65535,15980
31924,65535,15732
32104,65535,15858
32220,65535,15794
32188,65535,15839
32086,65535,15684
31989,65535,15737
31900,65535,15664
32004,65535,15548
32156,65535,15540
32337,65535,15524
32417,65535,15191
32436,65535,15451
32348,65535,15358
32308,65535,15165
32328,65535,15329
32440,65535,15015
32536,65535,15231
32544,65535,15119
32592,65535,15221
32636,65535,15087
32704,65535,15129
32772,65535,15080
32880,65535,15042
32893,65535,14983
32900,65535,14990
32832,65535,14955
32704,65535,14728
32676,65535,14915
32716,65535,14790
32840,65535,14857
32989,65535,14710
33096,65535,14813
33244,65535,14737
33284,65535,14434
33172,65535,14692
33100,65535,14529
33148,65535,14681
33124,65535,14558
33140,65535,14417
33124,65535,14538
33060,65535,14547
33076,65535,14391
33144,65535,14533
33184,65535,14417
33169,65535,14180
33152,65535,14414
33132,65535,14388
33108,65535,14134
33132,65535,14369
33204,65535,14337
33220,65535,14343
33128,65535,14315
33048,65535,14335
32988,65535,14250
32997,65535,14052
32976,65535,14325
32976,65535,14261
33060,65535,14252
33169,65535,14236
33260,65535,13975
33248,65535,14276
33184,65535,14087
33151,65535,14293
33148,65535,14211
33168,65535,14077
33078,65535,14256
32944,65535,14217
32860,65535,14048
32864,65535,14327
32884,65535,14242
32900,65535,14021
32969,65535,14317
33168,65535,14303
33312,65535,14340
33240,65535,14357
33004,65535,14318
32820,65535,14092
32745,65535,14409
32801,65535,14355
32952,65535,14186
33024,65535,14445
33068,65535,14444
33068,65535,14441
33056,65535,14195
33041,65535,14532
32984,65535,14556
32856,65535,14332
32868,65535,14593
33001,65535,14636
33044,65535,14541
32989,65535,14405
32872,65535,14717
32871,65535,14703
32860,65535,14712
32829,65535,14479
32828,65535,14808
32852,65535,14825
32884,65535,14861
32893,65535,14824
32965,65535,14633
33104,65535,14993
33232,65535,15008
33308,65535,14983
33326,65535,14798
33260,65535,14852
33176,65535,15137
33054,65535,15135
32952,65535,15149
32964,65535,14927
33036,65535,15275
32976,65535,15226
32976,65535,15204
32996,65535,15072
32996,65535,15357
33020,65535,15474
33036,65535,15471
33136,65535,15483
33304,65535,15588
33400,65535,15588
33512,65535,15527
33444,65535,15417
33196,65535,15724
32984,65535,15712
32924,65535,15498
32888,65535,15854
32800,65535,15916
32824,65535,15877
32828,65535,15836
32824,65535,15786
32812,65535,16057
32876,65535,16102
32948,65535,15872
33048,65535,16251
33017,65535,16263
32925,65535,16178
32888,65535,16352
32917,65535,16441
32992,65535,16450
33004,65535,16407
33024,65535,16324
33088,65535,16729
33154,65535,16745
33269,65535,16722
33247,65535,16623
33241,65535,16959
33176,65535,16966
33112,65535,16990
33088,65535,16784
33085,65535,17113
33104,65535,17188
33100,65535,17199
33096,65535,17200
33220,65535,17060
33332,65535,17458
33404,65535,17508
33432,65535,17490
33376,65535,17353
33320,65535,17327
33192,65535,17718
33052,65535,17702
33080,65535,17702
33092,65535,17687
33108,65535,17846
33105,65535,17829
33164,65535,17972
33222,65535,17924
33188,65535,17784
33140,65535,18074
33132,65535,18126
33220,65535,17911
33230,65535,18117
33164,65535,18161
33064,65535,18148
32956,65535,18040
32936,65535,18013
32964,65535,18275
33000,65535,18319
33068,65535,18278
33133,65535,18057
33282,65535,18413
33376,65535,18407
33376,65535,18376
33356,65535,18224
33280,65535,18426
33184,65535,18482
33092,65535,18426
33088,65535,18293
33064,65535,18508
33028,65535,18561
33080,65535,18388
33205,65535,18521
33316,65535,18551
33417,65535,18529
33468,65535,18339
33377,65535,18634
33296,65535,18612
33213,65535,18569
33118,65535,18521
33166,65535,18351
33196,65535,18654
33236,65535,18644
33220,65535,18702
33268,65535,18640
33292,65535,18591
33188,65535,18399
33116,65535,18676
33108,65535,18739
33028,65535,18743
32924,65535,18685
32872,65535,18529
32876,65535,18816
32916,65535,18807
32968,65535,18748
32936,65535,18628
32912,65535,18582
32952,65535,18880
33057,65535,18898
33140,65535,18658
33168,65535,18874
33088,65535,18933
32820,65535,18976
32348,65535,18903
31668,65535,18778
31080,65535,18975
30639,65535,19005
30252,65535,18997
30008,65535,19049
29752,65535,19091
29500,65535,19064
29268,65535,19044
29014,65535,19151
28857,65535,19213
28916,65535,19164
29224,65535,19054
29770,65535,19303
30584,65535,19325
31664,65535,19271
32940,65535,19175
34268,65535,19134
35252,65535,19388
35768,65535,19419
35790,65535,19300
35512,65535,19249
35012,65535,19202
34356,65535,19529
33745,65535,19585
33456,65535,19344
33212,65535,19651
33132,65535,19567
33168,65535,19341
33216,65535,19720
33192,65535,19737
33224,65535,19676
33184,65535,19656
33136,65535,19488
33144,65535,19836
33117,65535,19868
33140,65535,19840
33165,65535,19792
33124,65535,19651
33049,65535,19991
33033,65535,19956
33032,65535,19791
32960,65535,20057
32900,65535,20039
32886,65535,19813
32900,65535,20171
32888,65535,20125
32864,65535,19924
32872,65535,20216
32856,65535,20282
32860,65535,20100
32940,65535,20365
32960,65535,20384
32944,65535,20349
32980,65535,20159
33024,65535,20478
33096,65535,20506
33132,65535,20506
33064,65535,20532
32981,65535,20514
32916,65535,20389
32940,65535,20669
33024,65535,20742
33061,65535,20652
33064,65535,20557
33008,65535,20876
32944,65535,20926
32916,65535,20957
32908,65535,21031
32928,65535,21051
32788,65535,21046
32636,65535,21006
32568,65535,20862
32598,65535,21284
32520,65535,21325
32437,65535,21294
32421,65535,21354
32464,65535,21161
32544,65535,21525
32652,65535,21524
32737,65535,21513
32840,65535,21350
32985,65535,21677
32896,65535,21699
32572,65535,21511
32332,65535,21832
32388,65535,21908
32428,65535,21893
32424,65535,21945
32384,65535,21776
32360,65535,22081
32349,65535,22109
32344,65535,22171
32372,65535,22229
32372,65535,22180
32350,65535,22145
32240,65535,22049
32228,65535,22354
32344,65535,22391
32444,65535,22468
32496,65535,22431
32516,65535,22325
32508,65535,22542
32496,65535,22596
32508,65535,22581
32480,65535,22555
32380,65535,22383
32240,65535,22777
32172,65535,22802
32121,65535,22769
32088,65535,22644
32124,65535,22620
32144,65535,22866
32128,65535,22965
32105,65535,22940
32088,65535,22807
32064,65535,22720
32064,65535,23110
32081,65535,23079
32080,65535,23055
32140,65535,23000
32320,65535,22959
32513,65535,22961
32638,65535,22894
32676,65535,22932
32632,65535,23200
32452,65535,23261
32144,65535,23273
31952,65535,23284
31853,65535,23132
31946,65535,23039
32114,65535,23369
32225,65535,23421
32308,65535,23460
32384,65535,23375
32404,65535,23184
32460,65535,23581
32468,65535,23591
32462,65535,23541
32493,65535,23532
32600,65535,23430
32656,65535,23673
32696,65535,23726
32756,65535,23749
32860,65535,23819
32932,65535,23778
33000,65535,23635
33113,65535,23579
33204,65535,23921
33172,65535,24004
33148,65535,23984
33172,65535,24002
33252,65535,23999
33320,65535,23886
33388,65535,24152
33416,65535,24232
33360,65535,24256
33250,65535,24236
33181,65535,24148
33136,65535,24044
33172,65535,24449
33240,65535,24439
33352,65535,24487
33340,65535,24535
33184,65535,24577
33056,65535,24679
32956,65535,24623
32908,65535,24441
32925,65535,24721
32960,65535,24896
33028,65535,24867
33092,65535,24965
33120,65535,24965
33204,65535,24997
33238,65535,24964
33344,65535,24950
33416,65535,25180
33528,65535,25255
33624,65535,25274
33452,65535,25381
33312,65535,25377
33284,65535,25265
33192,65535,25181
33000,65535,25544
32977,65535,25642
32977,65535,25572
33001,65535,25420
32944,65535,25839
32860,65535,25839
32809,65535,25944
32780,65535,25956
32804,65535,25970
32772,65535,26157
32804,65535,26167
32836,65535,26261
32952,65535,26129
32988,65535,26309
32973,65535,26408
32970,65535,26457
33036,65535,26409
33100,65535,26569
33125,65535,26676
33096,65535,26765
32981,65535,26622
32840,65535,26854
32708,65535,26971
32628,65535,26804
32628,65535,27063
32704,65535,27064
32824,65535,26885
32886,65535,27208
32900,65535,27124
32960,65535,27393
32929,65535,27382
32824,65535,27135
32804,65535,27521
32760,65535,27561
32764,65535,27342
32812,65535,27783
32900,65535,27812
32976,65535,27781
33068,65535,27872
33152,65535,27958
33168,65535,28007
33132,65535,27741
32988,65535,28180
32920,65535,28184
32832,65535,28097
32760,65535,28327
32812,65535,28296
32968,65535,28389
33228,65535,28496
33252,65535,28529
32940,65535,28246
32520,65535,28679
32414,65535,28756
32409,65535,28660
32496,65535,28871
32672,65535,28849
32876,65535,28744
32991,65535,29015
32997,65535,29049
32992,65535,28881
32932,65535,29181
32840,65535,29183
32752,65535,29208
32704,65535,28996
32684,65535,29351
32748,65535,29389
32805,65535,29462
32888,65535,29453
32968,65535,29280
33016,65535,29640
33008,65535,29594
32974,65535,29446
32868,65535,29785
32888,65535,29776
32932,65535,29677
33004,65535,29927
32996,65535,29889
33040,65535,29776
33056,65535,30039
33116,65535,30087
33092,65535,30014
33044,65535,30164
33002,65535,30180
32964,65535,30020
32948,65535,30308
32950,65535,30367
32966,65535,30405
33102,65535,30497
33220,65535,30522
33172,65535,30409
