ECG,EDA,RR
32520,37084,32981
32372,37096,33005
32456,37097,33019
32532,37097,33021
32688,37092,33007
32896,37093,32997
33428,37056,33000
33980,37091,32996
34668,37095,32988
34965,37101,32976
35200,37109,32977
35612,37109,32965
36416,37127,32924
37548,37108,32890
38340,37148,32872
37984,37165,32887
37096,37188,32900
37068,37188,32924
37604,37182,32889
38216,37172,32895
38832,37164,32884
39912,37143,32877
40608,37135,32862
39780,37143,32791
38124,37153,32782
36352,37140,32740
34480,37160,32736
33032,37177,32714
32072,37175,32694
31504,37157,32677
31265,37165,32709
31077,37156,32718
30940,37161,32709
30904,37160,32666
30980,37169,32668
31064,37165,32600
31096,37165,32580
31048,37117,32574
31016,37149,32564
30936,37157,32592
30864,37119,32613
30772,37140,32588
30720,37143,32588
30780,37159,32594
30820,37148,32588
30924,37149,32580
30992,37148,32530
31045,37148,32530
30984,37143,32501
30932,37143,32514
30916,37136,32519
30920,37141,32553
30941,37121,32530
30964,37149,32519
31020,37152,32529
31156,37157,32470
31244,37159,32441
31256,37156,32426
31212,37153,32404
31184,37137,32412
31172,37135,32431
31080,37132,32396
31040,37144,32380
31020,37148,32356
31092,37118,32343
31204,37148,32263
31317,37146,32248
31264,37145,32236
31180,37128,32270
31104,37143,32256
31089,37127,32226
31041,37132,32214
31013,37101,32204
31008,37141,32196
31052,37151,32176
31156,37125,32166
31188,37140,32175
31100,37126,32144
31040,37143,32108
31064,37127,32108
30992,37127,32111
30949,37121,32133
30920,37137,32157
30912,37137,32152
30924,37132,32157
31004,37142,32132
31024,37127,32128
30989,37136,32182
30941,37125,32198
30924,37132,32214
30900,37087,32164
30880,37127,32213
30808,37137,32231
30820,37140,32255
30904,37144,32231
30984,37148,32225
31052,37143,32247
30996,37101,32274
30944,37133,32279
30876,37132,32310
30864,37128,32353
30844,37096,32341
30736,37149,32384
30720,37156,32439
30752,37148,32445
30810,37156,32484
30876,37144,32480
30800,37153,32493
30782,37151,32493
30793,37140,32556
30736,37148,32607
30664,37105,32617
30625,37156,32646
30620,37161,32676
30668,37118,32697
30792,37148,32734
30886,37157,32756
30900,37124,32736
30848,37144,32736
30828,37148,32788
30853,37145,32807
30821,37156,32840
30804,37154,32884
30876,37163,32908
30964,37164,32924
31077,37168,32944
31152,37147,32976
31180,37159,32988
31273,37141,32990
31308,37141,32967
31360,37148,32960
31460,37161,33025
31536,37113,33044
31740,37156,33052
31990,37161,33068
32249,37164,33076
32513,37164,33044
32706,37136,33020
32824,37141,33040
32924,37127,33018
33088,37148,33032
33224,37149,33056
33300,37127,33105
33420,37159,33029
33576,37151,32998
33760,37141,33046
33892,37148,33071
33952,37145,33044
34040,37127,33053
34116,37097,33001
34192,37118,32961
34200,37127,33017
34173,37127,33004
34213,37127,32929
34268,37127,32900
34444,37125,32908
34552,37124,32959
34484,37121,32931
34432,37095,32925
34452,37085,32860
34456,37114,32903
34420,37101,32871
34352,37119,32868
34368,37113,32785
34452,37121,32837
34548,37121,32761
34596,37120,32765
34576,37109,32796
34464,37111,32772
34464,37108,32751
34385,37117,32753
34332,37103,32669
34288,37116,32660
34268,37119,32671
34320,37119,32638
34396,37113,32699
34452,37116,32696
34420,37105,32695
34360,37100,32663
34308,37104,32668
34304,37103,32615
34248,37076,32609
34172,37118,32642
34140,37108,32647
34188,37108,32628
34280,37115,32632
34332,37127,32560
34268,37121,32606
34196,37106,32620
34149,37100,32612
34112,37108,32596
34060,37093,32608
33988,37113,32615
33980,37108,32550
34000,37109,32548
34088,37104,32598
34097,37109,32584
34068,37110,32594
34076,37095,32588
34072,37101,32581
34040,37096,32592
34000,37093,32543
33928,37095,32529
33908,37077,32599
33952,37095,32593
34016,37085,32592
34088,37093,32577
34036,37095,32584
34048,37086,32584
34044,37084,32580
34036,37069,32568
33968,37080,32564
33864,37076,32575
33776,37066,32581
33860,37087,32535
33948,37097,32525
33996,37084,32509
33948,37069,32500
33900,37073,32519
33872,37066,32559
33820,37064,32558
33814,37066,32548
33782,37071,32512
33804,37080,32493
33881,37080,32536
33960,37047,32532
33974,37071,32518
33901,37069,32527
33920,37075,32513
33904,37060,32480
33850,37054,32468
33756,37063,32452
33648,37077,32452
33604,37070,32440
33688,37067,32430
33780,37068,32458
33844,37070,32486
33789,37055,32478
33756,37060,32448
33772,37067,32455
33684,37023,32414
33576,37052,32402
33476,37063,32439
33460,37054,32431
33500,37072,32421
33568,37064,32424
33584,37060,32413
33564,37031,32404
33480,37055,32405
33392,37036,32373
33356,37021,32372
33286,37053,32381
33252,37053,32392
33236,37056,32372
33268,37052,32377
33324,37052,32368
33376,37036,32329
33364,37046,32301
33420,37033,32292
33481,37028,32328
33541,37036,32348
33500,37047,32316
33448,37023,32324
33428,37047,32279
33564,37040,32284
33648,37044,32321
33644,37037,32302
33620,37032,32308
33580,37020,32263
33596,37028,32244
33676,37035,32292
33632,37028,32281
33576,37023,32288
33568,37030,32253
33629,37036,32220
33736,37021,32284
33776,37025,32285
33748,37023,32273
33692,37021,32244
33645,37013,32241
33620,36980,32287
33565,37015,32277
33460,37008,32263
33518,37023,32263
33624,37020,32224
33696,37020,32214
33765,37013,32277
33684,37016,32263
33620,37012,32217
33588,36999,32240
33560,36999,32268
33528,36999,32261
33457,36999,32261
33416,36999,32277
33456,37009,32224
33548,36999,32276
33660,36994,32263
33668,36992,32233
33612,36988,32225
33586,36976,32277
33564,36987,32272
33522,36988,32269
33440,36991,32268
33444,36953,32229
33468,36967,32229
33573,36991,32263
33660,36986,32256
33584,36978,32263
33509,36968,32209
33432,36975,32200
33356,36967,32241
33272,36961,32256
33076,36973,32240
32784,36972,32240
32724,36965,32255
32924,36973,32196
33048,36972,32196
32984,36973,32228
32988,36957,32241
33388,36961,32227
34044,36953,32220
34528,36961,32247
34784,36980,32229
35164,36989,32233
35760,36999,32197
36788,36999,32191
37860,37006,32228
38288,37015,32218
37352,37033,32225
36280,37052,32228
36240,37047,32197
36772,37045,32172
37632,37048,32200
38668,37034,32216
40224,37008,32216
40880,37008,32201
39880,36999,32201
38400,37017,32192
36600,37007,32164
34868,37008,32130
33596,37013,32153
32696,37007,32169
32100,37031,32141
31776,37028,32153
31681,37025,32100
31684,37006,32140
31652,37015,32129
31596,37012,32121
31532,37007,32122
31518,36991,32116
31428,36995,32089
31324,36999,32064
31308,36999,32064
31372,36996,32077
31457,36996,32073
31572,36999,32117
31640,36991,32116
31608,36997,32105
31606,36984,32108
31580,36973,32117
31552,36957,32116
31444,36977,32125
31404,36985,32125
31420,36941,32125
31452,36981,32114
31572,36972,32117
31656,36968,32125
31704,36925,32127
31661,36956,32103
31589,36947,32066
31536,36949,32088
31488,36957,32100
31408,36942,32087
31488,36967,32064
31584,36960,32053
31756,36956,32033
31864,36948,32021
31928,36943,32006
31901,36948,31984
31857,36924,31983
31798,36942,31972
31732,36940,31908
31680,36933,31952
31668,36951,31940
31752,36945,31936
31873,36944,31940
31936,36948,31940
31920,36925,31924
31832,36932,31924
31744,36925,31931
31688,36920,31909
31622,36932,31890
31577,36920,31931
31640,36936,31947
31712,36936,31895
31726,36932,31948
31776,36929,31962
31744,36911,31957
31764,36924,31942
31744,36924,31935
31736,36917,31980
31636,36916,32005
31532,36924,32014
31508,36951,32030
31524,36943,31990
31572,36942,32007
31620,36925,32044
31553,36933,32021
31488,36912,32052
31560,36917,32097
31652,36924,32112
31656,36929,32104
31500,36932,32116
31460,36916,32128
31488,36901,32139
31592,36940,32156
31668,36929,32127
31676,36927,32140
31760,36909,32177
31792,36925,32196
31716,36912,32212
31597,36939,32204
31460,36928,32223
31520,36941,32242
31756,36935,32205
31904,36942,32204
31961,36934,32233
31950,36924,32288
31864,36917,32301
31728,36934,32303
31672,36933,32317
31684,36936,32337
31636,36932,32359
31724,36940,32372
31863,36944,32397
31864,36943,32368
31748,36956,32396
31704,36944,32384
31572,36936,32425
31628,36934,32485
31677,36940,32493
31716,36926,32532
31925,36941,32533
32068,36905,32540
32116,36943,32585
32204,36910,32644
32420,36932,32692
32664,36932,32735
32832,36932,32773
33120,36924,32813
33180,36932,32866
33240,36929,32925
33433,36921,32980
33616,36933,33000
33822,36935,33044
33960,36924,33108
33924,36921,33169
33956,36920,33167
34181,36915,33194
34332,36916,33250
34608,36902,33387
34812,36911,33445
34878,36916,33404
34902,36908,33460
34932,36889,33532
35018,36902,33662
35056,36908,33741
35176,36905,33764
35272,36895,33824
35348,36896,33904
35320,36892,33897
35202,36900,33956
35072,36906,33968
34996,36909,34028
35028,36905,34128
35144,36900,34223
35300,36913,34262
35376,36871,34311
35324,36892,34358
35205,36889,34404
35204,36893,34478
35100,36887,34436
34912,36896,34495
34926,36900,34615
35012,36896,34564
35104,36894,34577
35256,36900,34628
35260,36892,34663
35204,36887,34716
35224,36876,34764
35212,36869,34759
35103,36879,34828
34952,36868,34863
34814,36871,34881
34864,36884,34945
35064,36871,35052
35088,36871,35084
35040,36869,35105
35040,36871,35111
34964,36858,35128
34872,36853,35142
34764,36871,35068
34720,36880,35117
34768,36871,35128
34848,36884,35145
34956,36887,35161
34964,36861,35176
34912,36871,35206
34917,36868,35215
34924,36868,35249
34940,36863,35292
34892,36871,35343
34849,36871,35412
34816,36878,35396
34876,36880,35419
34929,36840,35416
34981,36868,35414
34916,36863,35429
34799,36871,35470
34752,36863,35392
34752,36853,35385
34716,36871,35372
34576,36846,35424
34486,36868,35511
34508,36871,35516
34576,36852,35508
34664,36868,35477
34660,36864,35472
34624,36868,35481
34672,36860,35512
34700,36853,35532
34616,36871,35436
34492,36871,35412
34440,36871,35476
34500,36869,35540
34712,36885,35496
34728,36844,35517
34661,36865,35436
34692,36864,35455
34578,36863,35528
34481,36858,35510
34380,36868,35420
34284,36871,35472
34336,36869,35524
34452,36871,35503
34488,36849,35513
34472,36870,35414
34272,36864,35383
34068,36853,35508
33992,36855,35479
34016,36855,35378
33948,36856,35409
33880,36871,35484
33896,36872,35445
33924,36856,35476
33972,36847,35328
33984,36869,35447
33984,36860,35444
33992,36869,35416
33920,36839,35436
33920,36863,35293
34052,36863,35364
34088,36871,35369
34056,36871,35396
34100,36871,35380
34196,36865,35368
34256,36871,35316
34188,36852,35308
34094,36868,35328
34004,36829,35223
33976,36855,35172
33956,36854,35191
33848,36868,35166
33840,36868,35125
33912,36871,35188
34016,36852,35229
34020,36869,35204
33924,36856,35140
33896,36861,35125
33904,36855,35110
33932,36847,35078
33888,36858,35071
33796,36863,35056
33808,36860,35044
33872,36869,35033
33784,36841,35020
33792,36860,35004
33749,36828,34989
33645,36858,34934
33632,36861,34912
33668,36812,34911
33501,36848,34902
33372,36868,34804
33424,36870,34785
33448,36861,34758
33512,36871,34682
33596,36824,34711
33656,36861,34708
33653,36861,34749
33584,36855,34681
33548,36837,34681
33488,36852,34581
33400,36867,34525
33436,36871,34541
33504,36850,34567
33573,36836,34522
33553,36865,34516
33540,36871,34405
33576,36868,34331
33552,36860,34428
33388,36847,34397
33241,36855,34260
32944,36844,34237
32580,36861,34298
32356,36839,34252
32416,36853,34236
32640,36836,34145
32613,36836,34176
32572,36836,34143
32972,36840,34143
33876,36845,34050
34542,36847,33983
34688,36864,34046
35152,36841,34047
35616,36890,34001
36228,36895,33976
37108,36889,33964
38028,36905,33943
37560,36927,33964
36064,36937,33833
35156,36956,33900
34972,36964,33860
35311,36975,33876
35804,36959,33772
37172,36940,33789
39036,36918,33824
39109,36916,33780
37976,36917,33752
36576,36918,33765
35276,36929,33663
34104,36917,33640
33108,36933,33696
32472,36939,33680
31988,36953,33661
31572,36956,33637
31332,36949,33625
31224,36949,33612
31184,36957,33608
31120,36948,33594
31076,36937,33528
31044,36957,33460
31022,36916,33466
30948,36944,33512
30938,36941,33476
31008,36956,33503
31096,36959,33464
31084,36934,33468
31085,36925,33442
30976,36925,33414
30904,36924,33405
30900,36932,33408
30876,36897,33339
30864,36935,33266
30972,36946,33316
31044,36927,33287
31120,36939,33225
31065,36932,33270
30984,36937,33252
30972,36889,33201
30920,36924,33197
30940,36927,33111
30952,36920,33064
30916,36925,33084
30908,36927,33069
30988,36932,33024
31076,36887,32999
31064,36929,32892
31056,36909,32935
31092,36901,32873
31150,36901,32825
31068,36904,32797
30912,36908,32753
30824,36925,32722
30804,36925,32639
30892,36916,32583
31008,36922,32600
31020,36919,32551
30839,36871,32508
30748,36905,32500
30792,36901,32396
30821,36892,32423
30740,36900,32404
30680,36908,32369
30648,36865,32359
30741,36909,32264
30844,36901,32309
30840,36861,32240
30768,36897,32239
30697,36888,32277
30696,36901,32231
30750,36888,32231
30672,36895,32229
30624,36910,32164
30684,36872,32208
30720,36919,32176
30732,36900,32172
30728,36903,32140
30769,36903,32112
30745,36857,32096
30700,36889,32125
30649,36894,32103
30572,36892,32060
30500,36904,32025
30520,36893,31998
30584,36871,32025
30656,36900,31997
30716,36903,31978
30688,36905,31956
30681,36901,31873
30732,36900,31870
30680,36893,31868
30660,36916,31826
30652,36863,31796
30738,36911,31770
30805,36910,31736
30852,36893,31672
30924,36911,31658
31036,36895,31650
31012,36895,31611
31040,36852,31585
31156,36895,31552
31052,36886,31513
30928,36904,31476
30920,36885,31456
31097,36903,31460
31308,36889,31428
31392,36903,31403
31408,36900,31376
31416,36885,31348
31452,36884,31333
31456,36889,31308
31484,36893,31289
31456,36900,31277
31585,36896,31237
31744,36904,31216
31944,36884,31198
32096,36888,31205
32132,36879,31180
32140,36870,31153
32192,36871,31141
32324,36840,31116
32320,36857,31100
32254,36853,31086
32225,36881,31064
32372,36854,31025
32556,36839,31025
32753,36868,31031
32928,36863,31012
33004,36852,30972
33036,36844,30992
33181,36857,30973
33248,36852,30948
33180,36837,30943
33240,36864,30965
33348,36860,30955
33392,36871,30943
33460,36865,30904
33518,36856,30917
33596,36868,30921
33605,36849,30932
33616,36861,30944
33516,36854,30940
33437,36861,30948
33408,36871,30913
33444,36863,30948
33444,36871,30933
33433,36871,30928
33394,36854,30916
33384,36869,30918
33348,36859,30944
33420,36860,30948
33456,36852,30949
33400,36862,30957
33412,36859,30959
33440,36865,30948
33532,36864,30951
33548,36866,30983
33540,36856,30983
33524,36864,30990
33508,36839,30984
33510,36858,31004
33365,36852,30989
33284,36856,30981
33268,36885,31027
33232,36852,31026
33164,36884,31028
33140,36871,31034
33112,36864,31024
33104,36871,31024
33125,36863,31040
33184,36867,31072
33245,36872,31079
33228,36877,31089
33164,36871,31084
33120,36870,31084
33145,36871,31092
33160,36869,31092
33169,36877,31102
33124,36871,31081
33076,36868,31076
33044,36854,31100
32992,36846,31119
32944,36868,31131
32930,36863,31117
32988,36860,31122
33085,36869,31129
33132,36871,31122
33140,36871,31128
33132,36861,31135
33096,36855,31103
33056,36852,31108
32977,36859,31119
32960,36836,31133
32960,36865,31124
33068,36870,31124
33120,36865,31101
33125,36865,31095
33104,36853,31125
33082,36855,31101
33120,36847,31111
33152,36853,31087
33076,36852,31072
33056,36857,31087
33040,36865,31099
33015,36871,31084
33077,36852,31028
33128,36861,31055
33144,36860,31044
33156,36871,31067
33108,36829,31062
33064,36871,31052
32960,36871,31045
32893,36863,31024
32876,36889,31024
32916,36892,31016
32956,36900,31009
32888,36862,30981
32900,36897,30989
32944,36892,31001
32928,36896,30993
32820,36868,30983
32758,36903,30991
32749,36917,30974
32780,36905,30965
32852,36928,30965
32905,36892,30964
32904,36916,30958
32906,36927,30924
32860,36920,30943
32804,36922,30932
32764,36929,30928
32645,36913,30933
32456,36921,30928
32396,36929,30935
32420,36932,30934
32580,36916,30941
32640,36913,30937
32652,36904,30932
32677,36904,30916
32700,36908,30918
32736,36868,30929
32692,36916,30928
32672,36905,30927
32720,36908,30926
32809,36905,30908
32864,36897,30921
32876,36909,30933
32880,36896,30932
32920,36895,30928
32924,36862,30932
32844,36885,30923
32808,36887,30936
32812,36880,30935
32797,36890,30937
32777,36900,30934
32752,36893,30942
32804,36886,30933
32788,36885,30956
32738,36884,30956
32790,36871,30945
32800,36871,30936
32694,36855,30933
32632,36847,30932
32652,36871,30953
32700,36887,30964
32808,36871,30958
32796,36871,30956
32712,36837,30954
32728,36869,30960
32672,36865,30935
32576,36845,30924
32496,36861,30940
32496,36869,30956
32612,36854,30940
32696,36859,30948
32744,36854,30940
32737,36825,30919
32684,36840,30901
32656,36843,30906
32656,36829,30928
32632,36839,30910
32560,36831,30900
32512,36839,30896
32524,36832,30881
32596,36841,30879
32636,36797,30836
32669,36836,30836
32688,36817,30826
32624,36790,30839
32520,36820,30828
32374,36820,30801
32060,36807,30786
31868,36826,30781
31964,36823,30760
32136,36820,30756
32172,36835,30740
32152,36839,30725
32584,36838,30724
33364,36826,30693
34000,36831,30688
34248,36829,30684
34612,36853,30685
34896,36848,30663
35392,36868,30644
36200,36877,30656
37088,36882,30644
36532,36900,30624
34968,36917,30625
33996,36926,30620
34116,36933,30599
34860,36897,30584
35736,36921,30573
37112,36900,30554
38928,36884,30534
39176,36868,30511
38164,36887,30489
36716,36885,30489
35137,36888,30462
33704,36867,30432
32548,36896,30418
31896,36895,30385
31276,36902,30376
30729,36909,30358
30532,36925,30332
30561,36916,30319
30664,36871,30288
30712,36913,30265
30712,36897,30247
30716,36900,30210
30680,36892,30188
30592,36900,30175
30456,36884,30136
30412,36905,30127
30468,36894,30108
30548,36901,30087
30644,36869,30061
30676,36900,30057
30684,36893,30028
30696,36897,30004
30704,36884,29988
30708,36871,29959
30620,36871,29936
30576,36879,29912
30620,36887,29902
30716,36848,29872
30836,36887,29860
30828,36871,29821
30772,36871,29792
30776,36858,29759
30829,36861,29729
30865,36860,29702
30858,36869,29668
30849,36832,29616
30920,36880,29599
30984,36870,29559
31045,36871,29533
31057,36886,29498
31024,36829,29461
30968,36871,29428
30936,36868,29388
30900,36871,29382
30816,36839,29352
30789,36880,29327
30792,36884,29313
30876,36901,29300
30960,36853,29278
30968,36885,29267
30932,36877,29227
30844,36880,29231
30808,36831,29223
30794,36863,29217
30748,36887,29221
30704,36881,29220
30748,36880,29215
30824,36889,29213
30932,36893,29206
30968,36855,29204
30897,36888,29197
30876,36871,29190
30893,36884,29185
30864,36887,29220
30860,36849,29213
30852,36889,29232
30760,36895,29236
30800,36905,29228
30846,36900,29206
30836,36896,29199
30796,36893,29172
30764,36896,29177
30752,36871,29153
30768,36897,29133
30756,36902,29160
30728,36895,29158
30764,36916,29145
30804,36903,29122
30920,36917,29090
30872,36918,29093
30848,36909,29063
30884,36892,29028
30932,36903,29004
30949,36857,28985
30916,36908,28956
30872,36900,28948
30920,36918,28935
31052,36900,28901
31135,36868,28884
31108,36911,28897
31072,36900,28897
31084,36905,28854
31072,36905,28828
31068,36904,28799
31017,36908,28816
31024,36927,28800
31100,36929,28744
31204,36929,28736
31312,36895,28724
31425,36921,28681
31440,36908,28693
31496,36911,28705
31524,36927,28713
31508,36910,28701
31500,36928,28672
31568,36929,28615
31676,36911,28588
31832,36935,28575
32064,36929,28604
32252,36933,28572
32384,36934,28564
32508,36925,28540
32576,36932,28504
32685,36924,28552
32788,36916,28551
32864,36913,28494
32932,36916,28470
33128,36929,28484
33352,36920,28455
33472,36908,28452
33516,36900,28439
33592,36884,28421
33680,36893,28405
33744,36857,28388
33797,36887,28444
33860,36897,28437
33908,36893,28377
33996,36893,28368
34140,36893,28367
34176,36889,28386
34128,36881,28386
34097,36885,28364
34080,36871,28401
34088,36865,28368
33996,36869,28351
33928,36877,28359
33964,36887,28352
34040,36849,28311
34097,36884,28324
34121,36869,28316
34104,36878,28303
34068,36855,28279
34048,36855,28285
34016,36869,28260
33920,36871,28261
33880,36871,28234
33824,36890,28236
33821,36885,28238
33864,36871,28228
33824,36881,28228
33776,36842,28224
33677,36868,28224
33620,36861,28256
33588,36868,28268
33508,36871,28272
33432,36871,28268
33436,36871,28249
33508,36876,28203
33564,36871,28196
33564,36873,28199
33508,36865,28197
33464,36865,28208
33468,36868,28178
33480,36836,28184
33444,36868,28192
33398,36866,28185
33388,36879,28181
33412,36865,28196
33448,36871,28191
33496,36871,28175
33476,36871,28153
33428,36871,28180
33376,36855,28177
33332,36869,28181
33252,36884,28191
33224,36845,28183
33228,36885,28158
33292,36884,28133
33348,36893,28148
33348,36884,28154
33308,36852,28186
33292,36877,28164
33296,36869,28180
33306,36871,28172
33256,36886,28171
33145,36882,28155
33108,36869,28146
33180,36891,28149
33308,36885,28228
33308,36879,28214
33264,36892,28228
33236,36886,28208
33224,36844,28160
33152,36865,28192
33012,36859,28163
32980,36889,28237
33004,36892,28202
33064,36900,28188
33144,36892,28191
33180,36895,28162
33132,36881,28248
33092,36885,28211
33036,36879,28175
33000,36871,28199
32944,36871,28191
32864,36885,28176
32836,36876,28179
32928,36900,28175
33034,36888,28226
33064,36895,28253
33044,36871,28188
33000,36871,28212
32944,36871,28260
32844,36877,28212
32805,36855,28234
32762,36882,28232
32736,36888,28226
32772,36871,28208
32840,36882,28191
32892,36871,28204
32841,36864,28172
32748,36854,28184
32688,36863,28172
32648,36863,28177
32572,36850,28149
32540,36866,28209
32644,36864,28220
32764,36831,28202
32884,36854,28156
32964,36852,28147
32985,36843,28144
32948,36846,28117
32902,36849,28099
32876,36836,28152
32900,36828,28167
32804,36857,28104
32804,36856,28093
32876,36854,28091
32984,36855,28076
33020,36869,28053
32936,36847,28084
32908,36863,28108
32856,36854,28040
32790,36852,28029
32672,36860,28015
32612,36871,28018
32584,36871,28012
32620,36844,27993
32720,36839,27988
32812,36862,28036
32820,36841,28033
32776,36836,27977
32744,36849,27966
32744,36828,27939
32719,36818,27961
32633,36853,27938
32640,36853,27924
32688,36856,27918
32792,36855,27896
32857,36844,27918
32828,36800,27966
32832,36837,27927
32808,36837,27872
32728,36823,27871
32664,36837,27857
32608,36845,27868
32624,36860,27833
32704,36836,27831
32776,36844,27822
32784,36845,27819
32704,36838,27810
32752,36832,27854
32744,36845,27884
32652,36847,27855
32512,36836,27797
32436,36841,27806
32436,36846,27782
32493,36860,27834
32524,36840,27845
32440,36855,27768
32188,36844,27771
32000,36845,27796
32100,36843,27774
32276,36841,27762
32332,36837,27756
32432,36837,27842
32924,36838,27812
33764,36847,27780
34700,36837,27788
35256,36855,27794
35500,36849,27796
35768,36848,27806
36416,36863,27815
37420,36871,27807
38302,36885,27807
38204,36907,27800
37020,36932,27865
36320,36944,27888
36596,36944,27892
37184,36946,27840
37848,36937,27844
38748,36895,27848
39996,36882,27842
40000,36876,27856
38624,36884,27852
36768,36903,27838
34868,36911,27864
33240,36912,27924
32144,36920,27892
31354,36916,27904
30816,36917,27884
30577,36908,27902
30464,36902,27876
30372,36889,27800
30300,36911,27793
30228,36871,27807
30270,36916,27800
30336,36907,27808
30405,36925,27803
30400,36879,27792
30332,36903,27788
30280,36892,27777
30292,36895,27849
30188,36900,27884
30185,36902,27879
30144,36895,27885
30160,36893,27871
30252,36909,27815
30376,36908,27815
30448,36864,27839
30416,36901,27809
30386,36903,27807
30400,36884,27810
30396,36901,27848
30376,36912,27885
30344,36914,27877
30384,36927,27850
30492,36916,27813
30628,36911,27751
30693,36924,27749
30676,36879,27736
30648,36900,27717
30656,36908,27700
30664,36906,27656
30610,36918,27630
30568,36925,27596
30560,36933,27573
30600,36932,27581
30748,36928,27529
30768,36935,27508
30741,36925,27535
30708,36927,27556
30686,36924,27494
30680,36927,27442
30644,36929,27452
30577,36936,27405
30500,36945,27404
30560,36924,27493
30660,36945,27440
30656,36943,27372
30668,36932,27360
30692,36919,27380
30656,36918,27334
30592,36925,27351
30521,36925,27358
30440,36924,27330
30462,36935,27330
30525,36932,27394
30604,36936,27356
30588,36935,27296
30528,36926,27321
30540,36927,27321
30493,36916,27284
30457,36921,27320
30352,36932,27329
30296,36901,27300
30272,36942,27385
30352,36949,27286
30477,36944,27276
30464,36943,27279
30356,36938,27300
30304,36924,27274
30308,36929,27300
30264,36937,27250
30192,36949,27308
30160,36951,27364
30152,36940,27262
30192,36959,27268
30332,36954,27268
30356,36935,27251
30272,36937,27244
30212,36956,27358
30241,36948,27265
30244,36949,27272
30128,36959,27285
30081,36959,27305
30156,36964,27318
30216,36965,27288
30317,36965,27340
30305,36961,27412
30333,36945,27388
30280,36952,27367
30260,36951,27350
30264,36965,27362
30200,36965,27390
30212,36957,27398
30296,36977,27424
30412,36967,27426
30608,36933,27413
30788,36957,27428
30853,36968,27440
30988,36965,27557
31144,36957,27548
31306,36961,27492
31496,36949,27556
31640,36935,27614
31876,36975,27630
32164,36976,27586
32404,36967,27600
32633,36924,27610
32804,36938,27646
32944,36927,27728
33116,36941,27716
33220,36942,27668
33285,36942,27735
33368,36956,27719
33456,36956,27805
33608,36949,27772
33826,36945,27814
33936,36951,27798
33976,36943,27913
33960,36933,27866
33924,36941,27876
34028,36929,27898
33992,36929,28005
33848,36940,27952
33860,36941,27984
33944,36951,27988
34124,36944,28087
34176,36951,28120
34124,36941,28108
34092,36939,28108
34096,36937,28137
34084,36934,28156
34040,36935,28186
33948,36941,28228
33912,36949,28255
33985,36953,28268
34048,36953,28332
34076,36950,28401
34024,36941,28369
33933,36936,28408
33920,36932,28452
33848,36937,28461
33720,36931,28532
33664,36937,28569
33632,36943,28580
33700,36949,28620
33780,36928,28672
33752,36944,28720
33688,36936,28768
33660,36935,28812
33604,36937,28828
33500,36932,28855
33556,36945,28874
33456,36938,28956
33424,36952,29010
33500,36951,29002
33588,36928,29029
33589,36949,29092
33520,36945,29165
33492,36935,29209
33468,36937,29212
33412,36941,29253
33344,36956,29294
33329,36949,29344
33284,36941,29377
33336,36919,29411
33468,36956,29494
33509,36957,29536
33456,36921,29552
33368,36913,29603
33316,36928,29651
33284,36943,29719
33220,36948,29740
33152,36953,29796
33184,36948,29832
33304,36965,29873
33430,36965,29920
33304,36957,29989
33156,36957,30044
33181,36941,30094
33288,36951,30117
33220,36964,30165
33060,36967,30211
32988,36944,30264
33056,36943,30302
33188,36973,30361
33337,36975,30402
33308,36969,30436
33200,36965,30452
33160,36957,30528
33184,36961,30588
33224,36949,30631
33104,36966,30695
33076,36967,30724
33099,36980,30783
33092,36981,30809
33108,36990,30864
33166,36986,30921
33176,36948,30969
33172,36989,31008
33124,36980,31063
33172,36981,31105
33108,36981,31150
33038,36984,31203
33076,36996,31248
33084,36988,31277
33140,36999,31316
33113,37005,31346
33072,36990,31413
32992,36998,31465
32924,36991,31500
32944,36991,31540
32940,36973,31589
32872,36988,31589
32860,36975,31673
32968,36999,31712
32972,36999,31740
32956,36996,31781
32912,36996,31817
32965,36999,31860
32880,36972,31857
32856,36993,31892
32724,37001,31959
32637,36999,31980
32708,37015,32024
32740,37014,32017
32788,37012,32096
32853,37026,32110
32773,37009,32135
32693,37019,32173
32608,36999,32208
32532,37012,32180
32388,37022,32237
32228,36999,32292
32366,36999,32312
32632,37004,32356
32696,37031,32327
32864,37020,32391
32828,37020,32444
32820,37017,32460
32780,37019,32502
32756,37021,32480
32676,37023,32500
32612,37037,32543
32636,37040,32612
32796,37053,32671
32968,37017,32693
32893,37044,32716
32936,37046,32748
32920,37029,32801
32885,37037,32829
32881,37045,32799
32832,37041,32839
32800,37045,32857
32808,37059,32903
32932,37062,32920
32984,37060,33013
32997,37053,33052
32916,37053,33081
32868,37047,33116
32924,37034,33151
32876,37044,33137
32812,37058,33146
32700,37060,33233
32776,37064,33269
32880,37064,33293
33008,37073,33332
32976,37036,33356
32879,37047,33376
32889,37067,33413
33012,37062,33447
33001,37066,33420
32809,37063,33400
32741,37062,33504
32992,37053,33548
33080,37080,33579
32980,37084,33532
32852,37077,33549
32932,37088,33539
32884,37089,33552
32772,37057,33561
32712,37086,33628
32612,37093,33705
32592,37057,33702
32646,37095,33725
32660,37108,33766
32714,37111,33700
32716,37100,33697
32788,37109,33772
32576,37100,33826
32238,37093,33840
32128,37090,33864
32237,37107,33866
32368,37112,33881
32622,37078,33893
33000,37069,33888
33728,37079,33902
34532,37100,33944
35296,37101,33848
35520,37100,33881
35940,37101,33896
36740,37103,33980
37768,37112,33998
38920,37127,33998
39784,37148,34016
39364,37173,33975
38504,37191,33918
38460,37198,34027
38600,37198,34039
38792,37194,34054
39144,37181,34037
40024,37175,34060
40516,37169,34050
39540,37188,34064
37621,37204,33996
35648,37197,33961
33872,37223,34017
32517,37231,34072
31569,37231,34048
30996,37228,34044
30802,37238,34068
30712,37212,33976
30584,37249,33982
30516,37236,33957
30465,37255,33934
30556,37220,33941
30692,37255,34005
30788,37255,34064
30748,37252,34032
30616,37255,34066
30532,37249,34011
30532,37249,34042
30474,37255,34085
30476,37271,34076
30544,37261,34065
30712,37271,34065
30752,37271,34096
30745,37272,34118
30724,37270,34108
30730,37260,34100
30657,37268,34151
30720,37231,34112
30725,37279,34119
30672,37270,34113
30688,37289,34116
30812,37249,34097
30882,37280,34113
30888,37297,34100
30764,37273,34089
30816,37277,34060
30764,37282,34060
30604,37294,34021
30340,37255,33998
30384,37295,33980
30599,37289,33957
30560,37312,33933
30676,37271,33925
30848,37301,33913
30924,37295,33828
30840,37285,33777
30792,37304,33852
30836,37253,33844
30708,37302,33816
30665,37310,33796
30549,37286,33780
30649,37280,33762
30844,37277,33703
30880,37319,33641
30765,37319,33669
30749,37309,33733
30768,37302,33692
30716,37316,33708
30648,37321,33639
30564,37328,33590
30544,37306,33641
30624,37344,33665
30724,37327,33647
30768,37343,33639
30720,37340,33620
30640,37303,33632
30672,37332,33556
30628,37332,33508
30528,37338,33576
30520,37347,33597
30573,37348,33569
30588,37359,33576
30620,37345,33588
30612,37359,33584
30604,37349,33528
30536,37344,33485
30470,37356,33546
30444,37353,33564
30372,37359,33512
30289,37356,33479
30333,37372,33529
30268,37379,33558
30440,37364,33556
30496,37376,33573
30460,37356,33569
30448,37330,33543
30485,37373,33569
30464,37373,33576
30316,37396,33573
30238,37373,33586
30288,37393,33603
30444,37396,33604
30560,37397,33620
30584,37397,33631
30489,37396,33554
30472,37404,33556
30501,37408,33583
30498,37401,33617
30436,37380,33656
30376,37372,33685
30420,37413,33701
30504,37415,33719
30680,37416,33736
30784,37408,33761
30792,37412,33780
30912,37412,33807
30928,37398,33816
31129,37426,33819
31164,37428,33841
31220,37428,33864
31440,37442,33876
31694,37408,33900
32045,37432,33934
32313,37425,33958
32516,37425,33972
32576,37430,33938
32624,37426,34025
32708,37398,34036
32900,37401,34032
33052,37407,34076
33328,37394,34039
33532,37443,34050
33652,37432,34135
33720,37404,34137
33808,37434,34151
33856,37420,34173
33872,37391,34224
33861,37383,34141
33844,37427,34214
33844,37409,34292
33914,37420,34295
34068,37423,34326
34156,37420,34376
34188,37421,34334
34108,37420,34344
34008,37397,34422
34080,37430,34488
34096,37439,34500
34036,37428,34528
34032,37434,34591
34073,37445,34552
34084,37452,34528
34080,37459,34636
34132,37447,34716
34125,37449,34724
34076,37449,34772
34044,37452,34744
34060,37444,34753
34048,37455,34820
33937,37457,34908
33976,37456,34941
34016,37468,34957
34157,37460,34999
34124,37461,35034
34008,37465,35079
33984,37452,35023
34000,37448,35030
33908,37454,35102
33877,37466,35199
33820,37471,35212
33900,37461,35186
33912,37468,35184
34016,37463,35268
34044,37476,35348
34044,37452,35335
34020,37461,35332
33968,37461,35424
33944,37463,35444
33824,37479,35452
33760,37444,35504
33816,37484,35544
33864,37484,35580
33912,37479,35479
33932,37485,35511
33896,37479,35532
33925,37469,35564
33916,37456,35617
33944,37479,35692
33860,37484,35769
33760,37495,35785
33664,37492,35764
33736,37473,35828
33824,37494,35853
33856,37476,35749
33936,37480,35845
33957,37479,35880
33950,37480,35940
33900,37485,35858
33768,37495,35908
33660,37493,36000
33669,37492,35994
33756,37500,36055
33784,37508,35927
33816,37503,36071
33868,37503,36053
33852,37501,36113
33776,37495,36008
33796,37501,36151
33704,37497,36121
33604,37509,36168
33600,37511,36100
33660,37511,36148
33728,37511,36200
33780,37511,36077
33756,37504,36192
33756,37471,36240
33732,37481,36205
33692,37509,36252
33588,37510,36140
33556,37517,36133
33628,37519,36205
33708,37492,36212
33810,37509,36280
33796,37511,36278
33744,37516,36252
33716,37522,36286
33676,37491,36224
33600,37524,36154
33537,37519,36300
33508,37522,36245
33494,37525,36293
33594,37519,36164
33710,37518,36287
33696,37519,36273
33656,37519,36151
33612,37511,36268
33572,37511,36255
33508,37524,36164
33438,37524,36119
33392,37525,36225
33472,37525,36197
33528,37511,36132
33576,37543,36092
33600,37535,36201
33580,37533,36162
33600,37525,36185
33624,37522,36028
33552,37536,36020
33452,37535,36108
33428,37532,36084
33456,37548,35982
33561,37556,36088
33700,37551,36048
33705,37540,36066
33652,37520,35941
33648,37533,35927
33612,37524,35988
33556,37528,35989
33460,37524,35972
33408,37540,35956
33432,37542,35820
33532,37534,35780
33606,37508,35888
33578,37541,35828
33588,37528,35828
33600,37529,35837
33608,37522,35719
33536,37533,35684
33464,37533,35648
33412,37534,35700
33486,37509,35680
33576,37544,35676
33668,37543,35553
33693,37540,35502
33632,37533,35609
33596,37535,35545
33532,37517,35448
33568,37535,35426
33548,37538,35492
33468,37549,35434
33457,37511,35437
33516,37557,35294
33628,37540,35266
33597,37549,35253
33560,37554,35285
33560,37545,35264
33480,37544,35145
33480,37551,35156
33416,37549,35196
33356,37521,35135
33420,37548,35128
33508,37548,35028
33616,37535,34953
33756,37532,35006
33725,37524,34983
33657,37516,34948
33600,37477,34948
33564,37511,34884
33436,37522,34875
33302,37532,34862
33256,37536,34744
33240,37545,34759
33301,37521,34756
33308,37540,34647
33248,37542,34646
33244,37526,34679
33216,37538,34621
33166,37528,34596
33048,37529,34492
33000,37535,34497
33076,37540,34525
33199,37551,34481
33368,37552,34412
33420,37551,34364
33428,37535,34412
33368,37541,34376
33388,37535,34384
33416,37537,34246
33310,37535,34265
33268,37549,34286
33272,37556,34268
33357,37556,34208
33461,37564,34153
33460,37575,34216
33408,37526,34205
33320,37555,34180
33282,37548,34156
33276,37559,34116
33204,37563,34102
33128,37568,34095
33088,37560,34074
33184,37580,34063
33272,37540,34044
33208,37581,34045
33153,37564,33961
33097,37550,33933
33068,37559,34004
33028,37564,33969
32960,37564,33980
32912,37556,33884
32944,37577,33952
33056,37576,33917
33126,37548,33940
33138,37572,33868
33112,37575,33878
33056,37572,33896
33036,37567,33867
33052,37564,33873
32996,37565,33808
32944,37557,33791
32904,37572,33848
32968,37574,33820
33032,37575,33799
33036,37568,33823
32992,37575,33740
32952,37572,33720
32944,37546,33777
32892,37567,33753
32796,37569,33716
32750,37572,33721
32805,37578,33671
32904,37567,33637
32980,37583,33598
33016,37565,33644
32941,37548,33665
32836,37575,33652
32672,37557,33628
32428,37570,33601
32172,37581,33584
32164,37572,33577
32348,37583,33561
32556,37572,33552
32736,37583,33536
33096,37561,33535
33764,37568,33455
34504,37565,33477
35016,37561,33494
35256,37572,33461
35552,37583,33460
36324,37599,33378
37448,37604,33346
38432,37620,33357
38272,37639,33412
36964,37661,33381
36184,37671,33326
36420,37668,33287
36884,37665,33287
37556,37660,33298
38284,37646,33309
39320,37638,33292
39444,37623,33287
38301,37639,33248
36708,37642,33220
34912,37641,33209
33362,37638,33188
32233,37661,33165
31440,37657,33060
31048,37655,33044
30808,37624,33076
30748,37661,33067
30848,37657,33047
30980,37653,32994
31112,37661,32973
31140,37661,32956
31108,37655,32895
31112,37620,32865
31104,37634,32916
31124,37639,32877
31068,37639,32836
31004,37617,32789
31024,37608,32782
31105,37620,32823
31168,37639,32797
31132,37632,32756
31066,37604,32751
31056,37636,32762
31004,37629,32733
30996,37630,32729
30976,37629,32726
30912,37639,32673
30896,37636,32650
31029,37639,32689
31180,37631,32637
31236,37628,32604
31256,37633,32638
31256,37627,32591
31264,37614,32586
31268,37616,32538
31292,37600,32536
31241,37625,32485
31240,37639,32477
31316,37620,32440
31436,37592,32425
31460,37621,32375
31444,37601,32332
31417,37604,32319
31420,37613,32341
31416,37584,32324
31336,37567,32302
31297,37605,32293
31296,37609,32261
31344,37620,32232
31416,37576,32226
31380,37588,32263
31280,37605,32260
31293,37597,32250
31325,37605,32260
31324,37556,32196
31312,37597,32213
31300,37607,32222
31344,37582,32239
31494,37606,32263
31598,37591,32263
31565,37607,32252
31524,37586,32257
31448,37545,32276
31388,37545,32248
31332,37556,32287
31264,37588,32285
31244,37596,32287
31288,37597,32296
31396,37598,32301
31508,37607,32316
31484,37569,32317
31422,37599,32284
31393,37588,32281
31349,37561,32301
31332,37588,32340
31292,37604,32336
31272,37612,32336
31320,37577,32300
31460,37612,32301
31504,37600,32297
31472,37613,32299
31392,37572,32316
31372,37597,32310
31360,37602,32324
31316,37601,32378
31236,37615,32364
31316,37579,32332
31452,37615,32357
31554,37617,32364
31604,37604,32385
31576,37613,32348
31464,37601,32344
31425,37594,32396
31450,37598,32381
31576,37599,32404
31572,37604,32357
31496,37608,32361
31520,37608,32372
31652,37604,32431
31800,37613,32441
31836,37612,32425
31776,37591,32471
31768,37572,32472
31812,37605,32481
31812,37605,32511
31768,37613,32492
31760,37576,32503
31869,37612,32558
32128,37620,32519
32385,37615,32584
32488,37625,32617
32548,37613,32644
32592,37607,32613
32637,37599,32646
32800,37596,32719
32876,37607,32737
33064,37605,32741
33224,37605,32753
33400,37613,32749
33644,37617,32838
33844,37619,32847
33952,37615,32828
34020,37601,32841
34140,37560,32942
34262,37592,32957
34288,37599,32992
34360,37605,32969
34493,37596,32972
34612,37587,33076
34744,37596,33095
34800,37596,33144
34772,37588,33137
34872,37552,33156
34916,37565,33172
34948,37567,33189
34888,37577,33264
34958,37588,33300
34972,37550,33360
35032,37583,33348
35080,37576,33356
35040,37570,33365
35064,37568,33480
35096,37569,33495
35116,37565,33532
35088,37549,33476
34977,37560,33578
34992,37568,33636
35044,37564,33647
35072,37567,33678
35156,37567,33673
35176,37565,33684
35112,37552,33764
35096,37553,33764
35028,37556,33799
34888,37561,33861
34808,37560,33898
34728,37564,33942
34744,37544,33884
34736,37573,33988
34724,37573,34008
34656,37560,33956
34624,37560,34013
34624,37552,34105
34661,37548,34108
34588,37553,34165
34460,37564,34090
34400,37565,34225
34488,37573,34220
34624,37568,34269
34712,37565,34207
34696,37561,34311
34680,37566,34332
34656,37559,34252
34676,37541,34372
34596,37548,34393
34452,37559,34322
34336,37543,34394
34380,37550,34384
34472,37566,34421
34552,37570,34452
34592,37564,34414
34572,37541,34477
34536,37544,34486
34488,37543,34495
34432,37553,34533
34346,37544,34445
34332,37548,34493
34404,37557,34529
34468,37524,34565
34576,37529,34465
34576,37549,34480
34528,37541,34527
34500,37533,34564
34540,37534,34559
34412,37543,34567
34252,37536,34588
34308,37541,34509
34384,37552,34484
34396,37549,34513
34376,37555,34572
34344,37548,34550
34292,37541,34572
34228,37528,34465
34180,37513,34572
34148,37525,34543
34064,37533,34551
34040,37538,34510
34089,37540,34445
34180,37540,34465
34208,37508,34444
34188,37533,34462
34140,37522,34502
34148,37524,34551
34016,37511,34528
33873,37524,34526
33784,37532,34550
33696,37532,34542
33700,37509,34524
33828,37505,34513
33976,37535,34521
33937,37521,34529
33920,37521,34528
33856,37517,34477
33799,37511,34449
33788,37525,34425
33793,37527,34496
33828,37505,34526
33900,37511,34512
33973,37532,34511
34056,37535,34525
34036,37524,34536
33944,37519,34454
33886,37522,34420
33860,37521,34468
33768,37524,34521
33678,37527,34496
33700,37498,34508
33752,37527,34520
33752,37521,34439
33744,37525,34404
33696,37535,34506
33680,37495,34484
33692,37511,34509
33696,37509,34441
33709,37508,34407
33600,37511,34504
33520,37516,34487
33530,37510,34488
33560,37507,34493
33668,37505,34436
33668,37509,34369
33628,37500,34420
33617,37478,34452
33588,37493,34466
33480,37502,34448
33437,37497,34439
33416,37500,34461
33412,37493,34372
33500,37508,34340
33632,37511,34366
33580,37484,34352
33496,37498,34352
33472,37492,34389
33428,37478,34372
33400,37487,34383
33400,37495,34386
33412,37500,34261
33428,37501,34354
33492,37511,34321
33576,37505,34340
33592,37487,34260
33500,37484,34289
33464,37484,34268
33400,37484,34260
33356,37485,34272
33428,37477,34197
33420,37492,34157
33364,37493,34174
33400,37501,34224
33444,37488,34183
33454,37492,34168
33432,37487,34156
33480,37484,34167
33508,37481,34149
33484,37490,34084
33380,37476,34098
33332,37492,34039
33400,37487,34055
33520,37455,34070
33578,37460,34051
33492,37481,34052
33400,37476,33991
33364,37477,33957
33364,37471,34021
33304,37471,33968
33304,37479,33969
33344,37476,33984
33360,37444,33886
33408,37476,33861
33460,37477,33864
33440,37484,33864
33376,37485,33908
33348,37473,33872
33376,37469,33888
33336,37476,33785
33236,37476,33788
33176,37479,33841
33196,37484,33804
33237,37484,33793
33308,37455,33796
33284,37437,33805
33168,37476,33735
33172,37471,33777
33185,37476,33715
33120,37440,33708
32984,37472,33695
32926,37479,33684
32929,37481,33649
32917,37469,33625
33028,37473,33636
33040,37477,33660
32948,37476,33673
32821,37473,33644
32769,37471,33668
32729,37471,33560
32656,37469,33616
32716,37481,33629
32804,37479,33609
32873,37476,33588
32928,37483,33600
32996,37444,33532
32952,37468,33484
32936,37458,33525
32992,37469,33536
33004,37452,33516
33008,37458,33511
33016,37469,33512
33020,37477,33500
33020,37450,33489
33084,37464,33480
33040,37463,33396
32976,37455,33382
32908,37444,33401
32900,37455,33425
32800,37461,33421
32652,37461,33380
32586,37461,33355
32584,37471,33320
32624,37468,33302
32708,37432,33344
32692,37465,33324
32672,37452,33314
32648,37421,33240
32652,37442,33218
32668,37442,33220
32596,37456,33205
32588,37455,33234
32600,37468,33217
32660,37456,33202
32684,37445,33175
32632,37449,33156
32652,37449,33144
32633,37412,33090
32557,37443,33103
32500,37441,33042
32460,37433,32987
32441,37452,32972
32497,37444,32984
32596,37432,32977
32657,37413,32982
32600,37451,32941
32592,37440,32910
32596,37443,32898
32600,37431,32868
32592,37415,32856
32500,37434,32832
32476,37444,32745
32428,37448,32732
32432,37449,32756
32392,37444,32736
32096,37433,32692
31744,37440,32685
31604,37420,32655
31674,37413,32629
31808,37409,32584
31808,37413,32508
31920,37423,32510
32524,37433,32457
33480,37439,32422
34188,37431,32429
34477,37436,32423
34980,37428,32391
35416,37436,32353
36036,37433,32342
36920,37446,32262
37460,37460,32256
36316,37480,32256
34784,37511,32206
34216,37501,32194
34428,37508,32121
35108,37492,32112
35540,37495,32078
36476,37452,32044
38056,37438,32036
38080,37450,32018
37048,37447,31970
35740,37456,31940
34400,37469,31909
33184,37476,31868
32310,37474,31829
31820,37468,31804
31316,37471,31744
30884,37456,31729
30676,37461,31695
30592,37452,31660
30484,37457,31604
30444,37468,31604
30446,37452,31561
30472,37460,31527
30580,37460,31480
30604,37452,31452
30596,37440,31439
30594,37444,31401
30556,37436,31375
30533,37424,31336
30496,37436,31304
30448,37432,31255
30424,37441,31235
30584,37432,31209
30676,37438,31174
30636,37428,31136
30572,37417,31108
30580,37425,31074
30576,37426,31032
30596,37426,31005
30552,37383,30958
30520,37429,30933
30580,37432,30919
30686,37404,30877
30800,37431,30834
30828,37426,30789
30796,37420,30766
30780,37413,30740
30764,37413,30698
30740,37400,30665
30692,37404,30632
30636,37415,30594
30669,37417,30584
30748,37401,30549
30844,37383,30520
30816,37418,30504
30784,37405,30489
30757,37397,30460
30720,37383,30445
30704,37405,30444
30636,37396,30430
30560,37415,30412
30660,37408,30416
30784,37399,30405
30788,37403,30400
30776,37396,30409
30760,37391,30414
30748,37383,30408
30700,37383,30405
30632,37383,30396
30580,37383,30397
30540,37383,30405
30580,37415,30428
30640,37404,30431
30692,37382,30425
30676,37383,30417
30608,37399,30420
30636,37383,30420
30672,37392,30429
30620,37336,30412
30508,37383,30434
30484,37399,30422
30565,37391,30414
30688,37380,30412
30796,37374,30394
30780,37381,30409
30673,37377,30398
30644,37375,30386
30672,37372,30376
30660,37316,30364
30592,37374,30359
30548,37374,30348
30572,37372,30337
30676,37375,30316
30736,37359,30294
30752,37362,30308
30860,37356,30286
30848,37353,30264
30816,37339,30256
30804,37359,30249
30772,37364,30248
30748,37355,30222
30820,37351,30209
30912,37367,30201
31044,37362,30188
31080,37364,30180
31080,37351,30159
31121,37315,30140
31128,37335,30149
31152,37332,30153
31134,37343,30127
31104,37292,30116
31156,37341,30114
31300,37341,30100
31433,37332,30095
31508,37325,30105
31512,37328,30089
31512,37287,30085
31521,37304,30076
31552,37300,30094
31556,37321,30084
31580,37318,30084
31676,37317,30076
31820,37304,30081
31944,37312,30082
32008,37293,30082
32028,37306,30072
32044,37290,30080
32088,37292,30076
32112,37290,30106
32109,37289,30100
32172,37295,30100
32244,37293,30105
32404,37255,30127
32584,37252,30119
32660,37292,30129
32682,37272,30131
32680,37271,30136
32681,37279,30160
32712,37276,30165
32704,37276,30176
32688,37273,30189
32720,37262,30215
32852,37276,30214
32990,37270,30235
33040,37264,30211
33012,37254,30260
32985,37252,30268
32976,37253,30268
32928,37255,30290
32800,37258,30298
32764,37283,30294
32944,37247,30304
32956,37271,30314
32972,37268,30316
32980,37255,30340
32964,37262,30352
32952,37255,30365
32928,37217,30372
32896,37253,30382
32829,37253,30396
32796,37255,30408
32856,37260,30447
32924,37263,30457
33001,37249,30465
32984,37252,30472
32964,37244,30500
32900,37245,30519
32860,37243,30530
32782,37236,30548
32700,37247,30564
32672,37253,30573
32688,37255,30607
32728,37255,30628
32828,37247,30647
32832,37239,30658
32776,37230,30665
32744,37246,30691
32780,37233,30724
32712,37241,30737
32630,37239,30765
32648,37236,30772
32652,37241,30784
32740,37240,30812
32836,37236,30844
32804,37231,30845
32764,37233,30884
32736,37217,30880
32780,37228,30908
32780,37204,30940
32688,37231,30956
32656,37233,30979
32632,37247,30988
32756,37239,30998
32836,37197,31042
32828,37241,31060
32800,37231,31068
32776,37223,31086
32780,37224,31081
32732,37233,31128
32628,37197,31153
32624,37228,31162
32676,37229,31165
32735,37229,31202
32868,37228,31216
32904,37223,31222
32848,37219,31244
32826,37213,31248
32776,37215,31252
32724,37217,31308
32708,37223,31317
32696,37236,31300
32768,37236,31349
32808,37225,31367
32936,37228,31357
32964,37216,31361
32928,37217,31381
32893,37210,31396
32868,37214,31436
32888,37183,31463
32816,37204,31460
32772,37225,31474
32797,37217,31461
32857,37204,31470
32993,37223,31517
33025,37223,31526
32982,37185,31546
32904,37208,31519
32868,37196,31568
32861,37188,31569
32764,37189,31590
32716,37189,31585
32780,37198,31588
32832,37204,31637
32928,37188,31639
32916,37180,31652
32922,37173,31668
32849,37162,31645
32792,37171,31688
32728,37177,31708
32672,37164,31716
32624,37180,31724
32692,37188,31693
32781,37177,31708
32842,37164,31764
32804,37175,31762
32776,37141,31781
32776,37171,31788
32720,37154,31809
32645,37172,31776
32552,37183,31804
32532,37177,31807
32621,37181,31808
32721,37181,31864
32728,37184,31857
32776,37180,31874
32736,37180,31881
32652,37175,31872
32605,37181,31912
32593,37184,31908
32536,37188,31923
32484,37188,31902
32576,37194,31892
32689,37180,31961
32753,37194,31949
32736,37197,31926
32724,37189,31985
32700,37188,31984
32696,37187,31968
32616,37196,31972
32528,37172,32009
32492,37184,32006
32524,37200,32024
32592,37188,31990
32636,37189,32002
32671,37191,32036
32681,37191,32025
32676,37180,32049
32656,37183,32036
32640,37190,32036
32582,37196,32008
32512,37197,31996
32560,37204,32031
32646,37199,32061
32700,37199,32056
32760,37192,32060
32694,37184,32048
32664,37188,32068
32664,37189,32020
32632,37180,32020
32604,37193,32020
32620,37191,32041
32612,37200,32087
32672,37198,32056
32737,37192,32093
32788,37186,32037
32784,37172,32083
32764,37140,32101
32700,37116,32098
32684,37111,32121
32622,37125,32076
32584,37153,32130
32640,37153,32135
32740,37151,32144
32860,37148,32112
32872,37143,32159
32857,37121,32172
32796,37127,32132
32776,37124,32193
32772,37117,32188
32704,37143,32201
32708,37136,32204
32772,37132,32214
32809,37127,32223
32876,37100,32237
32792,37094,32188
32740,37093,32253
32668,37085,32246
32609,37084,32271
32580,37104,32226
32576,37126,32290
32606,37125,32284
32612,37111,32311
32684,37127,32260
32769,37124,32324
32732,37121,32326
32678,37112,32274
32540,37101,32344
32580,37101,32349
32768,37093,32346
32693,37061,32358
32665,37101,32382
32864,37101,32332
32892,37104,32369
32992,37102,32407
33008,37095,32414
32896,37089,32440
32942,37095,32412
32933,37087,32452
32892,37090,32460
32766,37093,32484
32724,37088,32464
32804,37080,32492
32944,37100,32512
32972,37089,32536
32964,37049,32492
33016,37072,32564
32961,37060,32583
32852,37054,32597
32845,37063,32569
32716,37060,32631
32704,37072,32636
32716,37066,32668
32800,37068,32660
32876,37047,32677
32852,37064,32673
32812,37060,32676
32784,37048,32746
32761,37059,32788
32822,37056,32782
32808,37048,32820
32760,37071,32837
32730,37070,32868
32768,37054,32882
32848,37065,32901
32845,37023,32932
32828,37044,32884
32796,37037,32903
32728,37042,32997
32656,37040,33012
32604,37050,33032
32580,37052,33014
32672,37041,33001
32784,37036,33068
32929,37036,33119
32912,36999,33108
32784,37028,33108
32780,37029,33172
32696,37025,33175
32650,37031,33156
32628,37037,33147
32556,37031,33222
32548,37027,33236
32612,37026,33192
32588,37037,33276
32264,36999,33212
32172,37035,33240
32202,37022,33287
32352,37017,33348
32484,37005,33348
32572,37018,33382
32960,37012,33354
33760,37020,33329
34696,37025,33410
35308,37017,33427
35532,37025,33413
35692,37039,33448
36560,37030,33498
37788,37040,33480
38692,37044,33500
38596,37076,33532
37384,37103,33563
36648,37108,33524
37012,37118,33511
37480,37109,33508
37816,37093,33575
38204,37083,33624
39180,37056,33612
39504,37044,33640
38245,37056,33568
36476,37074,33548
34580,37076,33636
33016,37069,33613
31936,37092,33636
31272,37100,33655
30864,37095,33552
30645,37089,33628
30588,37036,33654
30566,37082,33663
30564,37068,33633
30452,37068,33663
30432,37077,33573
30504,37077,33682
30584,37089,33665
30628,37040,33688
30632,37067,33642
30656,37066,33663
30684,37055,33730
30624,37066,33716
30560,37068,33745
30400,37044,33716
30448,37061,33684
30416,37062,33776
30568,37054,33765
30720,37061,33744
30748,37049,33767
30673,37036,33828
30800,37024,33814
30836,37020,33792
30724,37021,33746
30614,37048,33772
30688,37017,33845
30829,37039,33840
30884,37036,33826
31032,37045,33808
31030,36999,33828
30981,37033,33733
30916,37031,33728
30884,37028,33720
30920,36983,33764
30848,37028,33756
30812,37027,33681
30937,37025,33664
30996,37024,33725
31040,37029,33689
31068,37025,33701
31045,37020,33637
30992,36999,33625
30936,36977,33674
31024,37001,33672
30940,36992,33621
30874,36999,33581
30830,37023,33669
30956,37025,33652
31032,37020,33655
31024,37029,33668
31005,37027,33559
31040,37009,33652
30933,37017,33624
30872,36999,33596
30900,37012,33566
30857,37013,33653
30900,37012,33628
30976,37021,33596
31016,37024,33584
31028,36999,33555
30958,37007,33597
30908,36992,33632
30864,36999,33611
30881,36972,33540
30884,36999,33625
30866,36996,33615
30822,36988,33588
30832,36990,33577
30924,36991,33640
30936,36991,33622
30895,36942,33600
30880,36973,33556
30816,36967,33618
30756,36977,33669
30708,36965,33653
30726,36980,33671
30780,36973,33682
30796,36981,33604
30900,36961,33668
30896,36973,33693
30844,36967,33671
30820,36965,33703
30816,36969,33708
30802,36964,33700
30732,36975,33669
30732,36989,33764
30816,36988,33684
30916,36990,33720
31036,36981,33796
31028,36989,33794
31064,36977,33822
31028,36980,33781
30988,36981,33799
30905,36983,33812
30928,36989,33888
30904,36985,33876
31048,36986,33920
31240,36994,33844
31308,36984,33900
31344,36980,33936
31352,36991,33957
31392,36990,33991
31454,36983,33997
31516,36983,33999
31552,36983,34014
31580,36984,34052
31900,36999,33972
32156,36999,33988
32364,36993,34084
32472,36980,34084
32600,36977,34119
32720,36980,34064
32918,36983,34127
33036,36977,34148
33068,36977,34102
33124,36987,34100
33316,36986,34104
33520,36980,34124
33764,36980,34228
33820,36981,34208
33813,36966,34238
33904,36964,34260
33936,36964,34189
33900,36952,34181
33852,36972,34295
33996,36973,34181
33948,36973,34289
34040,36972,34310
34096,36960,34295
34116,36961,34321
34253,36953,34349
34168,36951,34361
34120,36924,34253
34216,36957,34361
34056,36957,34354
34022,36958,34368
34044,36959,34391
34072,36959,34412
34140,36953,34324
34154,36956,34340
34180,36949,34392
34172,36938,34461
34041,36933,34436
34008,36937,34444
33925,36936,34455
33886,36940,34487
33966,36934,34512
33976,36936,34425
34012,36948,34419
34124,36940,34468
34144,36925,34552
34036,36930,34572
33920,36922,34500
33840,36919,34567
33836,36931,34612
33785,36940,34607
33864,36935,34533
33932,36908,34607
33972,36929,34641
33908,36925,34649
33880,36924,34677
33836,36920,34592
33789,36905,34664
33700,36921,34676
33640,36924,34717
33600,36925,34664
33656,36939,34620
33744,36932,34741
33760,36933,34773
33800,36921,34757
33784,36910,34799
33708,36927,34689
33608,36901,34736
33576,36917,34820
33524,36906,34801
33452,36933,34848
33504,36929,34757
33624,36929,34773
33760,36916,34823
33728,36928,34885
33760,36925,34852
33724,36916,34887
33684,36903,34834
33688,36901,34792
33572,36920,34879
33516,36913,34916
33574,36916,34917
33744,36918,34872
33804,36912,34884
33820,36912,34857
33756,36917,34832
33660,36871,34852
33636,36905,34863
33608,36901,34914
33524,36916,34968
33528,36885,34965
33660,36919,34951
33688,36909,34969
33768,36918,35005
33760,36904,34880
33737,36911,34904
33708,36903,34992
33556,36889,34956
33484,36871,34980
33388,36916,35009
33548,36909,34887
33668,36910,34999
33680,36900,35012
33884,36917,35000
33920,36907,34932
33804,36897,34976
33760,36893,34996
33689,36895,34940
33624,36901,34967
33532,36895,34993
33545,36903,35009
33641,36897,35021
33680,36904,34908
33628,36906,34997
33684,36896,34980
33724,36901,35012
33622,36896,34894
33556,36893,35005
33593,36889,34998
33496,36895,34917
33405,36901,34964
33420,36901,34988
33720,36900,34894
33888,36881,34860
33765,36887,34927
33740,36887,34928
33696,36884,34836
33586,36871,34892
33584,36871,34920
33508,36884,34884
33416,36884,34820
33380,36889,34793
33520,36879,34844
33636,36895,34871
33612,36880,34821
33580,36878,34809
33501,36871,34740
33416,36871,34815
33428,36871,34776
33428,36892,34788
33392,36893,34727
33260,36895,34653
33368,36871,34736
33416,36884,34756
33412,36903,34624
33436,36884,34712
33308,36871,34730
33284,36871,34727
33432,36871,34682
33392,36871,34692
33260,36885,34700
33288,36885,34588
33452,36885,34636
33492,36887,34660
33476,36884,34677
33432,36880,34572
33401,36871,34612
33373,36867,34647
33240,36871,34636
33192,36881,34588
33153,36893,34604
33260,36896,34663
33404,36899,34620
33464,36869,34612
33576,36891,34644
33524,36891,34511
33376,36871,34628
33376,36871,34601
33348,36871,34628
33172,36880,34504
33234,36879,34617
33294,36879,34593
33408,36884,34624
33432,36871,34481
33440,36843,34614
33424,36865,34576
33424,36861,34608
33380,36863,34494
33328,36865,34528
33284,36869,34600
33308,36840,34566
33268,36871,34562
33288,36881,34578
33280,36871,34474
33404,36871,34580
33468,36871,34567
33488,36853,34584
33440,36870,34522
33288,36862,34510
33184,36870,34532
33253,36871,34580
33264,36871,34582
33325,36869,34520
33236,36871,34551
33124,36871,34561
33288,36876,34580
33236,36880,34482
33096,36871,34596
33084,36861,34567
33105,36871,34524
33008,36884,34589
33068,36871,34597
33128,36893,34565
33061,36888,34565
33076,36880,34576
33196,36891,34516
33192,36886,34468
33224,36879,34492
33152,36855,34573
33084,36884,34577
33096,36886,34549
33177,36892,34557
33292,36903,34567
33332,36863,34548
33344,36899,34561
33208,36889,34567
33088,36878,34449
33220,36880,34452
33204,36899,34484
33092,36897,34535
33108,36892,34546
33028,36884,34510
33208,36903,34421
33436,36871,34524
33316,36845,34498
33118,36871,34518
33028,36868,34456
32984,36871,34460
32889,36868,34524
32861,36869,34495
32901,36868,34487
32984,36871,34505
32996,36871,34430
33052,36868,34407
33056,36865,34516
33008,36871,34479
32964,36855,34485
32920,36862,34479
32884,36869,34521
32784,36841,34517
32712,36868,34396
32892,36844,34416
33104,36847,34496
33056,36839,34485
33046,36868,34510
33008,36838,34523
32976,36852,34528
32952,36855,34530
32852,36853,34436
32804,36848,34389
32804,36869,34517
32852,36866,34487
32848,36871,34439
32880,36871,34412
32924,36856,34518
32896,36853,34510
32848,36855,34396
32749,36852,34527
32544,36853,34503
32260,36847,34521
32064,36868,34392
32045,36871,34512
32280,36865,34508
32440,36853,34445
32596,36853,34395
32712,36836,34503
33316,36847,34499
34013,36845,34510
34508,36854,34384
34844,36859,34510
35096,36871,34483
35564,36881,34509
36500,36885,34397
37544,36892,34516
38074,36909,34484
37080,36930,34446
36160,36927,34392
36440,36912,34486
37084,36933,34493
37764,36932,34482
38072,36930,34396
38765,36905,34428
39284,36904,34445
38456,36906,34476
36928,36911,34352
35140,36872,34372
33436,36921,34429
32201,36912,34396
31336,36916,34407
30832,36925,34277
30632,36920,34360
30652,36926,34325
30733,36913,34272
30776,36912,34324
30804,36911,34279
30728,36910,34276
30580,36865,34252
30608,36896,34255
30572,36900,34262
30464,36901,34130
30336,36909,34233
30432,36913,34211
30593,36900,34167
30716,36913,34108
30724,36903,34100
30649,36895,34169
30636,36892,34191
30576,36897,34165
30510,36893,34072
30460,36903,34169
30508,36901,34176
30510,36852,34087
30684,36897,34159
30792,36885,34132
30760,36884,34145
30664,36871,34005
30680,36871,34076
30768,36861,34097
30724,36871,34069
30620,36881,34036
30632,36868,34039
30745,36868,33956
30812,36858,33890
30876,36879,33885
30829,36839,33893
30785,36863,33860
30768,36861,33884
30704,36871,33872
30692,36845,33861
30680,36871,33865
30652,36870,33748
30672,36871,33780
30745,36871,33824
30821,36871,33806
30816,36869,33805
30796,36871,33695
30754,36855,33685
30728,36847,33751
30676,36861,33784
30588,36869,33756
30572,36840,33721
30680,36879,33717
30733,36872,33748
30796,36871,33764
30808,36828,33777
30776,36869,33664
30756,36858,33668
30724,36853,33768
30648,36863,33764
30612,36871,33763
30548,36860,33795
30588,36880,33798
30656,36869,33692
30728,36868,33774
30732,36871,33804
30692,36836,33799
30720,36824,33808
30656,36829,33798
30612,36846,33833
30588,36824,33778
30560,36831,33741
30572,36868,33844
30657,36885,33844
30702,36863,33884
30652,36879,33824
30708,36867,33788
30700,36865,33830
30692,36868,33900
30680,36883,33905
30676,36871,33940
30652,36897,33884
30668,36901,33856
30744,36871,33872
30768,36900,33917
30888,36893,33996
30856,36890,33979
30776,36888,34006
30804,36892,34028
30792,36902,33983
30772,36910,33941
30801,36909,33965
30908,36918,34084
30952,36921,34078
31028,36916,34040
31057,36913,34068
31160,36903,34156
31196,36906,34132
31204,36915,34172
31180,36919,34128
31140,36922,34145
31264,36916,34228
31348,36924,34260
31524,36924,34240
31708,36917,34280
31796,36879,34284
31876,36914,34311
31990,36893,34269
32128,36871,34269
32232,36918,34388
32284,36921,34382
32424,36893,34341
32604,36932,34433
32840,36920,34370
33041,36923,34357
33096,36912,34414
33188,36917,34478
33272,36908,34526
33336,36912,34473
33396,36911,34452
33504,36925,34584
33536,36917,34589
33633,36909,34541
33788,36909,34594
33892,36910,34613
33944,36908,34664
33956,36903,34612
33952,36894,34602
33964,36897,34716
33940,36893,34700
33888,36893,34758
33968,36907,34660
34068,36902,34771
34188,36901,34800
34256,36895,34784
34173,36885,34814
34118,36893,34842
34100,36871,34847
34092,36884,34881
34073,36871,34900
33976,36887,34856
34024,36892,34844
34088,36884,34871
34136,36893,34944
34212,36881,34990
34212,36884,34983
34156,36847,35023
34168,36871,35062
34120,36868,34952
34016,36871,34965
33968,36864,35079
33904,36868,35108
33967,36889,35144
34080,36877,35133
34160,36884,35140
34144,36885,35176
34084,36861,35207
34040,36871,35106
34040,36865,35165
33932,36865,35218
33812,36871,35256
33844,36836,35238
33900,36851,35292
33976,36871,35174
34048,36869,35286
34056,36862,35276
34017,36863,35335
33968,36849,35210
33912,36852,35336
33844,36847,35327
33757,36868,35268
33732,36864,35236
33796,36865,35368
33856,36871,35335
33892,36836,35335
33872,36861,35380
33792,36860,35284
33812,36863,35376
33804,36861,35369
33784,36863,35237
33668,36868,35381
33664,36860,35350
33720,36871,35230
33796,36871,35342
33840,36862,35344
33844,36871,35217
33820,36861,35233
33781,36836,35325
33776,36847,35271
33728,36863,35314
33632,36848,35245
33652,36841,35273
33684,36844,35248
33792,36871,35132
33856,36871,35216
33928,36855,35224
33896,36847,35068
33852,36853,35175
33800,36847,35144
33728,36845,35076
33688,36855,35021
33688,36855,35093
33712,36867,35079
33776,36861,34944
33870,36863,35016
33800,36860,35028
33828,36855,34943
33880,36852,34959
33872,36861,34882
33836,36852,34925
33756,36857,34908
33744,36871,34878
33772,36871,34800
33853,36865,34791
33920,36871,34798
33848,36861,34818
33904,36852,34666
33884,36844,34735
33808,36841,34740
33760,36854,34681
33680,36855,34694
33688,36863,34564
33744,36860,34597
33784,36860,34606
33872,36854,34492
33856,36852,34520
33864,36848,34465
33840,36847,34428
33820,36843,34454
33788,36845,34440
33724,36852,34336
33696,36854,34292
33772,36861,34348
33876,36855,34311
33957,36857,34285
33929,36846,34208
33864,36808,34128
33804,36834,34180
33788,36828,34184
33716,36836,34138
33628,36850,34115
33636,36855,34079
33696,36831,34092
33772,36847,33936
33828,36844,34037
33788,36839,33972
33796,36837,33980
33768,36831,33860
33732,36833,33900
33676,36832,33867
33644,36846,33876
33660,36828,33740
33728,36841,33812
33824,36844,33780
33864,36844,33767
33816,36836,33628
33776,36831,33621
33840,36792,33628
33757,36823,33609
33745,36818,33622
33664,36839,33614
33614,36842,33565
33692,36836,33580
33764,36829,33494
33816,36820,33447
33801,36804,33497
33784,36821,33469
33770,36805,33456
33736,36772,33365
33652,36815,33337
33576,36804,33404
33616,36815,33348
33636,36823,33346
33609,36822,33333
33668,36815,33227
33669,36815,33295
33593,36800,33270
33544,36806,33165
33500,36809,33240
33420,36814,33214
33372,36823,33114
33432,36825,33152
33524,36800,33164
33650,36817,33140
33752,36817,33127
33692,36807,33056
33596,36813,33022
33500,36809,33085
33436,36807,33072
33384,36802,33031
33248,36821,33025
33208,36815,32952
33292,36826,32932
33336,36817,32998
33400,36835,32973
33368,36824,32903
33332,36825,32921
33288,36799,32940
33228,36775,32910
33184,36822,32912
33153,36821,32820
33214,36820,32895
33312,36797,32868
33424,36808,32799
33493,36820,32861
33524,36823,32840
33524,36812,32751
33492,36815,32788
33468,36813,32764
33412,36815,32724
33392,36820,32743
33440,36789,32777
33520,36821,32749
33636,36812,32751
33708,36820,32664
33660,36821,32724
33592,36808,32719
33592,36807,32636
33573,36806,32692
33510,36812,32696
33464,36828,32677
33428,36831,32586
33448,36821,32648
33492,36820,32660
33584,36824,32656
33560,36819,32601
33608,36812,32623
33564,36815,32604
33484,36818,32560
33420,36817,32580
33380,36808,32586
33404,36813,32532
33500,36815,32580
33560,36815,32572
33608,36813,32498
33592,36804,32562
33484,36807,32549
33372,36799,32550
33332,36797,32454
33324,36807,32497
33292,36816,32516
33292,36823,32517
33332,36805,32449
33488,36812,32505
33552,36812,32487
33516,36806,32456
33480,36807,32445
33380,36777,32484
33348,36774,32473
33280,36813,32468
33184,36810,32404
33180,36823,32422
33232,36820,32437
33304,36812,32449
33288,36823,32348
33084,36820,32438
32784,36806,32410
32676,36804,32340
32752,36806,32410
32812,36802,32389
32752,36812,32404
32836,36820,32336
33381,36831,32393
34200,36838,32369
34824,36828,32386
35108,36843,32332
35468,36833,32337
36016,36837,32301
36956,36852,32332
37972,36865,32348
38292,36871,32348
37290,36888,32343
36328,36924,32342
36352,36926,32300
36900,36929,32344
37704,36908,32320
38256,36888,32338
39056,36871,32249
39764,36863,32314
39016,36863,32292
37628,36871,32288
36068,36884,32272
34556,36902,32263
33440,36896,32254
32712,36900,32181
32128,36885,32231
31706,36868,32215
31461,36855,32213
31404,36890,32174
31389,36888,32181
31244,36901,32177
31220,36871,32168
31304,36885,32116
31424,36884,32134
31481,36871,32133
31456,36841,32059
31392,36878,32116
31356,36871,32087
31304,36871,32057
31260,36871,32037
31288,36871,32065
31308,36871,32041
31334,36871,32044
31384,36871,31975
31460,36868,32028
31465,36867,32015
31493,36856,31957
31460,36860,31986
31348,36860,31952
31269,36855,31988
31205,36868,31968
31284,36871,31897
31352,36880,31948
31444,36864,31911
31464,36844,31909
31400,36868,31873
31448,36836,31860
31428,36871,31848
31376,36871,31772
31310,36887,31797
31278,36871,31780
31268,36871,31768
31360,36900,31735
31500,36878,31732
31520,36895,31719
31448,36871,31671
31416,36862,31669
31396,36851,31678
31362,36843,31660
31328,36855,31661
31296,36862,31608
31292,36868,31601
31340,36868,31645
31408,36871,31620
31408,36866,31625
31394,36865,31592
31400,36860,31623
31360,36865,31613
31360,36844,31572
31344,36852,31615
31316,36858,31593
31287,36868,31584
31324,36860,31563
31392,36863,31596
31390,36861,31600
31364,36856,31564
31328,36853,31589
31318,36863,31600
31280,36857,31593
31236,36864,31551
31152,36863,31590
31248,36869,31581
31317,36871,31585
31368,36867,31532
31358,36865,31552
31396,36861,31570
31393,36863,31556
31308,36852,31551
31256,36856,31525
31196,36853,31508
31184,36861,31551
31260,36865,31532
31316,36871,31528
31452,36868,31490
31464,36861,31511
31440,36860,31492
31428,36859,31492
31376,36854,31444
31364,36852,31492
31380,36856,31471
31396,36862,31469
31404,36869,31428
31468,36870,31453
31540,36871,31449
31552,36871,31437
31533,36863,31413
31524,36863,31454
31576,36860,31438
31584,36863,31448
31564,36871,31431
31557,36871,31438
31584,36871,31441
31608,36884,31431
31732,36891,31445
31824,36893,31468
31836,36871,31461
31832,36871,31473
31848,36871,31422
31956,36884,31453
32028,36849,31484
32040,36885,31492
32120,36896,31479
32256,36893,31484
32480,36893,31525
32652,36895,31525
32736,36896,31540
32782,36886,31543
32949,36887,31564
33057,36893,31548
33150,36897,31573
33241,36894,31604
33358,36903,31601
33512,36911,31620
33669,36901,31641
33784,36909,31652
33804,36897,31653
33830,36893,31672
33929,36885,31693
34010,36900,31712
34052,36901,31696
34000,36913,31704
34114,36909,31765
34232,36919,31768
34284,36912,31788
34324,36901,31770
34288,36909,31793
34280,36898,31829
34300,36884,31874
34252,36889,31889
34186,36904,31901
34140,36908,31924
34104,36921,31908
34284,36909,31932
34388,36911,31965
34354,36917,31977
34292,36909,32015
34220,36871,31982
34180,36876,31993
34124,36871,32053
34060,36911,32065
34032,36900,32097
34036,36913,32064
34096,36919,32132
34144,36915,32136
34148,36903,32124
34080,36901,32201
33992,36895,32204
33956,36884,32228
33921,36871,32211
33804,36889,32223
33720,36892,32305
33760,36901,32313
33880,36893,32263
34020,36888,32357
34092,36888,32375
34104,36881,32330
34069,36871,32404
33980,36868,32391
33960,36869,32414
33820,36871,32440
33736,36871,32484
33769,36884,32441
33868,36879,32500
33980,36871,32548
33980,36849,32544
33920,36871,32577
33868,36860,32548
33816,36848,32565
33728,36850,32615
33644,36861,32644
33588,36855,32608
33616,36866,32609
33692,36871,32624
33813,36870,32708
33804,36869,32712
33764,36837,32736
33696,36853,32761
33708,36846,32717
33696,36836,32733
33624,36844,32728
33576,36852,32748
33528,36852,32797
33600,36852,32842
33714,36847,32828
33697,36839,32863
33608,36839,32869
33612,36849,32801
33614,36839,32873
33602,36829,32894
33544,36831,32884
33472,36831,32900
33556,36836,32922
33628,36839,32862
33672,36832,32857
33652,36829,32917
33620,36813,32927
33596,36820,32909
33549,36791,32925
33524,36782,32938
33488,36816,32885
33348,36821,32856
33317,36833,32919
33376,36823,32939
33480,36831,32920
33569,36824,32901
33509,36821,32873
33465,36816,32860
33400,36813,32904
33372,36807,32906
33340,36818,32911
33308,36826,32830
33334,36817,32815
33396,36828,32823
33476,36820,32850
33488,36820,32897
33476,36812,32868
33416,36811,32862
33396,36813,32876
33332,36804,32811
33310,36805,32849
33248,36814,32860
33244,36823,32782
33324,36812,32804
33385,36808,32845
33484,36812,32824
33444,36812,32796
33388,36804,32773
33380,36805,32805
33368,36802,32825
33276,36804,32797
33208,36813,32806
33188,36835,32752
33277,36802,32719
33356,36829,32720
33360,36810,32775
33324,36804,32783
33292,36804,32757
33244,36802,32773
33217,36804,32700
33225,36805,32704
33180,36807,32757
33212,36820,32724
33292,36817,32744
33376,36829,32674
33380,36818,32652
33300,36785,32700
33212,36769,32708
33116,36807,32692
33052,36796,32684
32961,36797,32673
32916,36818,32663
32960,36800,32656
33036,36782,32661
33088,36825,32653
33041,36816,32573
33001,36805,32544
32988,36817,32534
32905,36815,32561
32834,36798,32589
32876,36796,32558
32932,36815,32546
33052,36816,32543
33148,36820,32486
33164,36825,32484
33144,36829,32485
33125,36815,32476
33181,36812,32476
33160,36815,32387
33116,36796,32428
33052,36811,32439
33048,36817,32359
33120,36830,32407
33164,36839,32372
33212,36829,32348
33224,36820,32292
33188,36808,32333
33148,36806,32319
33100,36805,32308
33036,36805,32252
32920,36807,32252
32868,36811,32279
32884,36821,32245
32984,36826,32236
33054,36824,32189
33048,36813,32184
33000,36817,32176
32980,36815,32180
32992,36813,32109
32968,36812,32113
32932,36815,32132
32908,36826,32103
32880,36815,32093
32940,36818,32025
33036,36809,32036
33068,36809,32033
32988,36812,32005
32940,36806,32001
32928,36801,31958
32916,36807,31964
32840,36809,31936
32796,36810,31920
32764,36813,31861
32842,36809,31838
32880,36791,31853
32868,36781,31836
32820,36804,31829
32808,36788,31776
32840,36781,31744
32780,36780,31751
32644,36785,31693
32512,36788,31708
32508,36788,31696
32472,36790,31680
32364,36781,31621
32076,36775,31644
31932,36775,31602
31940,36778,31562
32073,36780,31565
32064,36780,31565
32064,36788,31528
32532,36780,31509
33472,36775,31500
34156,36799,31486
34656,36802,31416
35264,36806,31436
35760,36808,31423
36576,36808,31383
37620,36821,31364
38172,36835,31388
37144,36853,31352
35941,36881,31348
35648,36897,31333
36064,36884,31317
36884,36884,31276
37276,36871,31261
37996,36853,31274
38836,36837,31244
38156,36844,31233
36868,36841,31216
35424,36854,31176
33988,36862,31156
32829,36852,31169
32076,36870,31149
31580,36871,31118
31133,36871,31116
30796,36829,31077
30648,36860,31045
30564,36816,31056
30472,36813,31042
30364,36809,31013
30357,36852,31015
30368,36832,30988
30424,36862,30964
30580,36869,30980
30540,36836,30958
30496,36809,30941
30444,36842,30903
30400,36805,30929
30364,36798,30918
30320,36844,30884
30280,36845,30868
30284,36844,30873
30332,36849,30861
30416,36846,30844
30464,36855,30840
30448,36841,30822
30424,36805,30794
30425,36846,30746
30464,36828,30751
30372,36839,30729
30260,36841,30701
30300,36853,30680
30396,36855,30647
30532,36861,30620
30574,36845,30609
30552,36852,30578
30513,36832,30554
30444,36829,30524
30416,36836,30495
30380,36846,30465
30400,36859,30461
30388,36860,30439
30420,36862,30398
30464,36852,30405
30488,36858,30385
30432,36839,30359
30404,36829,30343
30384,36786,30329
30332,36809,30328
30252,36794,30324
30228,36827,30310
30284,36841,30312
30284,36831,30313
30328,36836,30306
30344,36826,30300
30300,36822,30321
30336,36780,30312
30344,36820,30327
30240,36813,30324
30130,36817,30332
30066,36824,30350
30144,36831,30365
30221,36831,30345
30324,36832,30349
30317,36831,30378
30340,36824,30381
30312,36775,30398
30272,36807,30404
30228,36810,30424
30116,36821,30420
30048,36831,30433
30023,36793,30453
30068,36823,30457
30276,36820,30460
30320,36816,30460
30224,36827,30485
30158,36821,30493
30137,36826,30500
30148,36832,30501
30117,36839,30500
30076,36852,30522
30092,36844,30535
30204,36853,30537
30356,36855,30540
30364,36852,30553
30356,36845,30552
30340,36841,30548
30364,36843,30566
30400,36833,30573
30396,36855,30577
30436,36859,30585
30464,36860,30591
30560,36833,30580
30692,36863,30602
30749,36847,30604
30688,36860,30596
30688,36855,30612
30730,36846,30626
30752,36849,30634
30716,36855,30640
30740,36852,30644
30912,36853,30654
31052,36859,30655
31200,36862,30653
31257,36863,30654
31293,36849,30672
31328,36847,30662
31476,36848,30666
31588,36805,30684
31608,36843,30703
31614,36867,30700
31744,36863,30710
31924,36860,30711
32172,36857,30718
32328,36839,30745
32429,36844,30748
32504,36823,30740
32576,36836,30772
32665,36836,30776
32684,36836,30783
32704,36849,30796
32736,36837,30809
32876,36836,30816
33086,36837,30822
33176,36836,30850
33184,36833,30829
33164,36792,30848
33168,36796,30876
33189,36821,30904
33196,36820,30925
33216,36823,30942
33293,36821,30953
33332,36824,30954
33412,36833,30991
33432,36830,31017
33384,36825,31030
33352,36815,31052
33352,36813,31076
33316,36821,31066
33260,36806,31086
33185,36814,31143
33172,36820,31145
33236,36812,31169
33332,36821,31164
33332,36812,31181
33281,36812,31236
33256,36815,31239
33232,36814,31270
33136,36808,31262
33020,36823,31284
33008,36822,31348
33064,36793,31348
33100,36824,31384
33156,36823,31377
33136,36814,31444
33137,36813,31467
33128,36814,31495
33057,36821,31472
33018,36809,31540
32905,36821,31573
32856,36828,31567
32944,36839,31613
33052,36821,31652
33116,36836,31632
33076,36837,31663
33000,36822,31730
33062,36820,31748
33044,36829,31769
32980,36828,31804
32858,36830,31784
32825,36831,31855
32840,36829,31868
32908,36837,31901
32904,36837,31887
33012,36836,31901
33020,36821,31972
32980,36831,31983
32976,36831,32000
32952,36828,32039
32836,36793,32007
32740,36836,32039
32856,36839,32103
32948,36833,32105
33008,36839,32145
33100,36821,32116
33060,36822,32176
33016,36813,32192
32921,36810,32231
32808,36808,32190
32768,36804,32205
32696,36823,32270
32700,36828,32300
32928,36804,32316
33088,36828,32331
33032,36833,32279
32968,36828,32361
32982,36807,32376
32972,36807,32364
32969,36814,32397
32832,36808,32417
32852,36816,32407
32968,36820,32409
33076,36822,32476
33136,36812,32477
33040,36802,32513
33040,36815,32455
33080,36814,32508
33068,36807,32545
33018,36809,32556
32878,36804,32532
32764,36821,32592
32844,36815,32594
33072,36796,32561
33076,36825,32633
32988,36805,32609
32992,36806,32644
32981,36807,32654
32960,36803,32615
32893,36796,32677
32860,36816,32698
32876,36825,32630
32900,36831,32708
32924,36826,32671
33008,36829,32684
33052,36827,32741
33080,36826,32748
33000,36820,32709
32976,36808,32738
32944,36800,32750
32908,36809,32782
32840,36816,32748
32868,36816,32774
32936,36822,32741
33004,36820,32767
32984,36824,32793
32976,36806,32786
32960,36818,32809
32982,36804,32741
32812,36807,32749
32821,36811,32807
32804,36816,32796
32876,36813,32816
32980,36808,32749
33068,36808,32796
33029,36814,32799
32956,36807,32778
32828,36773,32789
32812,36804,32826
32764,36808,32800
32674,36813,32830
32580,36812,32786
32681,36812,32756
32784,36805,32807
32801,36804,32828
32761,36797,32736
32660,36804,32807
32654,36788,32824
32752,36796,32810
32812,36781,32828
32784,36776,32751
32844,36782,32813
32844,36791,32813
32908,36797,32840
32988,36780,32850
33068,36794,32815
33020,36777,32775
33044,36775,32844
33054,36776,32850
33053,36788,32848
32964,36791,32865
32884,36770,32891
32856,36796,32820
32876,36806,32815
33104,36797,32844
33112,36799,32900
33068,36791,32897
33012,36791,32854
32960,36784,32857
32908,36796,32937
32796,36798,32924
32789,36799,32949
32836,36786,32892
32948,36763,32968
33062,36792,32957
33100,36790,32935
33084,36785,32901
32968,36788,32936
32944,36783,32980
32816,36777,32978
32752,36785,32959
33008,36793,33048
33032,36800,33063
33096,36803,33052
33156,36795,33089
33116,36800,32996
33060,36784,33022
32960,36782,33100
32992,36794,33103
32980,36756,33108
32864,36803,33125
32852,36796,33100
32936,36797,33068
32960,36808,33076
33040,36807,33181
33084,36808,33159
33024,36807,33198
33052,36772,33140
33076,36804,33109
32932,36800,33128
32804,36799,33191
32768,36804,33212
32596,36828,33199
32461,36821,33222
32485,36831,33159
32620,36807,33144
32688,36775,33197
32740,36815,33240
32900,36807,33252
33420,36805,33253
34068,36808,33245
34656,36823,33268
35132,36838,33213
35496,36842,33266
36192,36847,33222
37196,36844,33193
38200,36848,33214
38844,36871,33221
38212,36868,33276
37216,36908,33284
37272,36927,33276
37800,36917,33292
38324,36920,33210
38807,36913,33284
39636,36885,33277
40168,36871,33248
39176,36884,33273
37476,36877,33189
35660,36882,33205
33880,36892,33245
32512,36909,33220
31568,36910,33193
31078,36904,33188
30996,36927,33177
31068,36917,33183
31012,36906,33145
30856,36905,33151
30724,36860,33049
30656,36906,33052
30740,36895,33124
30648,36909,33104
30548,36916,33087
30648,36893,33013
30676,36893,33090
30772,36908,33074
30776,36904,33080
30688,36899,33088
30644,36897,32996
30616,36889,33028
30588,36891,33063
30496,36901,33052
30472,36895,33060
30648,36903,32988
30804,36886,33048
30804,36871,33051
30760,36871,32982
30696,36870,33001
30696,36864,33015
30800,36865,33031
30652,36869,32975
30736,36870,32964
30773,36864,32968
30774,36871,32884
30816,36879,32893
30980,36871,32917
31077,36871,32879
30948,36860,32871
30872,36836,32775
30872,36833,32748
30932,36853,32806
30825,36831,32766
30776,36832,32703
30800,36832,32684
30860,36869,32709
30988,36861,32706
31028,36835,32632
31004,36860,32661
30941,36848,32612
30868,36855,32629
30784,36859,32609
30776,36864,32615
30764,36871,32550
30784,36871,32557
30810,36871,32581
30900,36862,32593
30828,36858,32495
30752,36852,32566
30713,36844,32538
30660,36836,32480
30652,36841,32548
30608,36857,32548
30564,36866,32463
30594,36871,32532
30656,36868,32519
30701,36857,32442
30700,36855,32519
30776,36852,32507
30801,36859,32440
30668,36853,32483
30540,36860,32503
30428,36871,32474
30493,36871,32433
30492,36868,32420
30504,36854,32482
30512,36868,32460
30392,36836,32440
30470,36840,32472
30456,36845,32452
30534,36822,32410
30492,36854,32408
30396,36870,32465
30416,36824,32458
30484,36871,32421
30601,36871,32381
30660,36869,32386
30728,36871,32453
30704,36868,32436
30716,36863,32437
30633,36862,32380
30486,36869,32451
30566,36868,32436
30638,36884,32445
30688,36887,32383
30760,36885,32452
30844,36877,32440
30776,36872,32423
30716,36871,32392
30800,36871,32467
30948,36864,32457
30860,36871,32475
30804,36887,32421
30884,36887,32492
30896,36897,32484
31077,36893,32469
31344,36892,32474
31516,36889,32505
31582,36876,32534
31804,36878,32513
32040,36871,32532
32152,36885,32557
32196,36871,32519
32328,36845,32546
32541,36844,32589
32828,36852,32600
33024,36871,32530
33145,36848,32612
33228,36846,32618
33230,36867,32581
33381,36868,32608
33504,36837,32657
33565,36863,32649
33640,36869,32670
33760,36866,32629
33880,36866,32690
33993,36832,32705
34060,36829,32636
34056,36852,32724
34060,36844,32718
34144,36845,32733
34200,36843,32680
34140,36840,32732
33984,36847,32768
34073,36854,32759
34108,36861,32785
34140,36853,32708
34225,36844,32792
34184,36839,32798
34108,36840,32824
34041,36804,32752
33980,36833,32804
33872,36820,32836
33884,36852,32844
33968,36855,32864
34036,36853,32881
34084,36846,32844
34036,36836,32892
33966,36828,32921
33924,36824,32845
33876,36820,32897
33828,36824,32943
33772,36831,32928
33644,36836,32947
33656,36837,33008
33752,36839,32997
34052,36830,32975
33912,36796,33009
33720,36815,33065
33684,36820,33071
33796,36809,33088
33704,36815,33111
33600,36815,33132
33516,36788,33096
33652,36824,33076
33688,36812,33183
33844,36815,33168
33752,36781,33214
33684,36806,33142
33656,36810,33222
33660,36801,33274
33672,36812,33212
33564,36822,33269
33578,36814,33311
33580,36815,33360
33620,36825,33278
33608,36817,33401
33669,36815,33406
33652,36804,33364
33604,36807,33437
33612,36806,33464
33604,36798,33502
33492,36812,33463
33468,36804,33476
33540,36804,33519
33660,36817,33566
33616,36814,33618
33588,36804,33549
33652,36796,33604
33612,36772,33671
33716,36784,33676
33750,36802,33684
33576,36805,33732
33552,36807,33640
33596,36808,33687
33613,36815,33758
33688,36821,33772
33712,36807,33773
33668,36803,33799
33600,36801,33829
33628,36792,33728
33662,36817,33777
33548,36816,33840
33477,36784,33860
33608,36837,33864
33672,36832,33852
33684,36829,33864
33724,36826,33876
33716,36836,33887
33704,36816,33893
33677,36820,33900
33696,36831,33903
33628,36842,33860
33521,36821,33844
33592,36852,33916
33696,36855,33918
33693,36837,33945
33621,36847,33849
33600,36842,33905
33820,36836,33916
33860,36832,33952
33792,36833,33846
33684,36847,33932
33561,36847,33945
33580,36819,33888
33653,36824,33844
33724,36821,33857
33640,36849,33908
33744,36836,33877
33768,36836,33829
33688,36839,33916
33528,36836,33918
33436,36853,33893
33453,36829,33913
33572,36825,33836
33632,36857,33799
33660,36847,33785
33624,36852,33828
33620,36839,33778
33664,36821,33877
33576,36847,33864
33460,36855,33865
33332,36854,33864
33308,36857,33784
33428,36854,33804
33441,36863,33831
33428,36871,33837
33372,36871,33781
33332,36868,33737
33520,36863,33836
33470,36865,33824
33280,36857,33712
33336,36863,33732
33440,36862,33824
33528,36865,33812
33560,36871,33788
33688,36871,33813
33664,36868,33705
33500,36869,33789
33576,36858,33792
33632,36860,33808
33560,36861,33745
33492,36868,33705
33512,36871,33778
33568,36871,33816
33672,36868,33799
33764,36877,33825
33848,36871,33742
33792,36870,33730
33640,36871,33836
33496,36868,33799
33516,36870,33831
33528,36871,33756
33501,36881,33744
33472,36887,33833
33521,36871,33831
33516,36871,33804
33608,36871,33828
33628,36877,33840
33548,36871,33749
33504,36871,33737
33452,36858,33831
33332,36882,33812
33472,36884,33812
33388,36876,33833
33452,36888,33788
33532,36889,33772
33464,36887,33799
33369,36876,33806
33452,36876,33827
33384,36887,33718
33320,36887,33722
33316,36894,33776
33132,36885,33806
33168,36863,33773
33348,36868,33793
33380,36901,33799
33181,36900,33713
33144,36888,33693
33140,36891,33760
33112,36880,33750
33044,36891,33781
32936,36901,33679
32780,36900,33700
32764,36889,33760
32688,36902,33740
32520,36900,33744
32420,36896,33684
32536,36886,33693
32668,36888,33730
32692,36885,33732
32668,36877,33689
33044,36901,33660
33652,36906,33700
34196,36868,33740
34721,36905,33744
35256,36917,33724
35800,36926,33720
36760,36923,33641
37748,36926,33741
38384,36935,33724
37716,36958,33678
36769,36981,33693
36884,36984,33724
37664,36997,33746
38488,36980,33726
39100,36967,33709
39956,36943,33716
40492,36936,33718
39428,36941,33649
37784,36944,33616
35912,36953,33652
33984,36972,33689
32652,36980,33685
31776,36975,33654
31486,36980,33639
31180,36987,33604
31096,36977,33545
31056,36972,33636
30844,36949,33600
30752,36949,33618
30820,36953,33557
30824,36960,33521
30688,36956,33589
30848,36933,33559
30936,36944,33512
30948,36935,33510
30916,36965,33526
30848,36961,33551
30776,36949,33551
30780,36957,33524
30753,36944,33538
30670,36960,33553
30756,36959,33447
30912,36967,33501
30950,36967,33510
30928,36967,33509
30840,36940,33508
30832,36940,33494
30913,36932,33500
30964,36942,33412
30952,36945,33468
30920,36904,33453
30824,36967,33408
30776,36967,33374
31124,36957,33424
31280,36946,33381
31128,36940,33392
31100,36940,33310
31052,36933,33279
30992,36935,33230
30992,36945,33256
30962,36951,33268
30880,36952,33257
30924,36949,33224
31034,36958,33206
31080,36953,33189
31056,36956,33189
31008,36950,33120
30942,36940,33116
30900,36945,33154
30936,36948,33141
30868,36910,33127
30776,36955,33125
30852,36948,33119
30908,36949,33108
30972,36951,33133
30984,36945,33044
30886,36942,33076
30908,36943,33124
30880,36925,33102
30780,36906,33122
30732,36949,33127
30668,36956,33079
30710,36957,33080
30656,36957,33061
30840,36940,33076
30784,36940,33068
30704,36951,33076
30768,36932,33083
30768,36921,33076
30692,36925,33138
30608,36943,33183
30552,36953,33189
30624,36948,33188
30668,36957,33190
30740,36934,33212
30692,36909,33218
30650,36908,33204
30624,36941,33212
30612,36943,33232
30552,36941,33244
30480,36957,33240
30476,36967,33261
30488,36961,33228
30664,36957,33193
30708,36964,33208
30658,36951,33225
30636,36935,33220
30672,36955,33226
30716,36904,33248
30661,36942,33313
30628,36943,33348
30616,36949,33344
30632,36956,33348
30784,36965,33362
30956,36948,33380
30932,36955,33405
30913,36908,33416
30936,36948,33446
30920,36940,33396
30908,36949,33404
30888,36956,33397
30936,36964,33452
31076,36924,33487
31240,36961,33530
31308,36953,33551
31444,36949,33540
31569,36944,33576
31668,36934,33552
31768,36936,33524
31884,36944,33560
31990,36951,33641
32126,36965,33628
32293,36943,33660
32526,36949,33698
32756,36938,33711
32924,36951,33733
33054,36941,33761
33192,36927,33797
33253,36948,33754
33329,36936,33755
33380,36948,33745
33508,36940,33805
33617,36944,33862
33716,36940,33897
33897,36928,33912
33960,36935,33933
33992,36939,33957
34056,36925,33972
34084,36932,34000
34080,36919,34008
34032,36935,33988
34037,36943,34053
34108,36932,34053
34216,36940,34107
34280,36932,34063
34260,36924,34077
34268,36932,34052
34248,36924,34089
34264,36925,34196
34208,36920,34204
34132,36927,34212
34117,36933,34226
34148,36933,34272
34196,36903,34291
34252,36933,34308
34264,36924,34333
34252,36916,34244
34172,36917,34247
34116,36913,34311
34052,36916,34364
34020,36921,34404
33992,36916,34354
33985,36935,34324
34048,36932,34404
34112,36933,34469
34088,36893,34460
34056,36927,34496
34024,36917,34428
34012,36916,34452
33984,36917,34536
33884,36924,34512
33825,36924,34548
33872,36927,34566
34016,36921,34468
34029,36913,34468
33984,36924,34473
33977,36913,34580
33980,36925,34583
33956,36908,34597
33925,36889,34620
33848,36893,34645
33848,36909,34550
33892,36921,34640
33996,36939,34661
34080,36924,34668
34036,36924,34638
34041,36913,34674
34068,36912,34588
34048,36917,34669
33944,36916,34673
33892,36905,34660
33852,36925,34687
33888,36938,34692
34000,36936,34712
34076,36936,34596
34060,36926,34703
33972,36921,34703
33952,36924,34604
33912,36929,34712
33864,36932,34695
33804,36925,34704
33780,36928,34724
33804,36911,34616
33952,36943,34740
33976,36932,34695
33960,36935,34704
33904,36932,34669
33836,36925,34660
33857,36919,34614
33793,36897,34709
33720,36890,34724
33740,36933,34695
33785,36901,34735
33908,36920,34613
33956,36926,34632
33908,36909,34703
33825,36916,34696
33828,36905,34709
33866,36906,34613
33824,36911,34621
33728,36921,34706
33673,36927,34660
33696,36915,34660
33812,36892,34647
33908,36918,34684
33878,36925,34630
33856,36919,34650
33820,36905,34580
33792,36917,34566
33712,36913,34507
33676,36894,34617
33620,36933,34616
33578,36924,34512
33736,36923,34497
33856,36917,34457
33856,36913,34476
33836,36906,34526
33840,36892,34528
33792,36908,34496
33720,36919,34501
33652,36896,34500
33616,36887,34489
33580,36924,34396
33712,36922,34367
33820,36918,34439
33760,36903,34426
33695,36918,34389
33700,36908,34404
33744,36911,34324
33684,36911,34271
33645,36919,34266
33672,36933,34319
33653,36924,34340
33728,36927,34311
33807,36916,34282
33724,36925,34297
33612,36919,34176
33576,36893,34165
33544,36911,34245
33428,36885,34239
33289,36919,34222
33213,36918,34208
33273,36924,34176
33368,36933,34170
33428,36903,34116
33452,36916,34050
33543,36912,34143
33584,36916,34140
33580,36916,34101
33584,36911,34084
33532,36901,34085
33516,36892,34086
33504,36905,33958
33600,36924,33993
33756,36919,34008
33756,36913,34016
33720,36914,33930
33736,36916,33992
33760,36903,33968
33732,36902,33953
33589,36910,33960
33533,36919,33959
33580,36921,33948
33628,36916,33936
33704,36924,33924
33756,36919,33828
33692,36896,33790
33572,36878,33807
33522,36904,33765
33500,36902,33760
33480,36916,33741
33428,36889,33733
33472,36916,33724
33524,36917,33720
33596,36911,33764
33614,36904,33764
33573,36904,33752
33552,36900,33748
33521,36885,33748
33516,36911,33733
33414,36916,33741
33436,36911,33706
33449,36876,33701
33536,36924,33700
33600,36910,33700
33596,36911,33676
33536,36911,33684
33558,36901,33620
33602,36892,33565
33468,36904,33622
33320,36900,33633
33294,36894,33610
33344,36912,33628
33440,36916,33524
33512,36915,33577
33512,36871,33593
33517,36909,33564
33477,36909,33550
33390,36902,33569
33300,36903,33471
33164,36917,33492
32961,36924,33518
32788,36922,33514
32888,36912,33424
33132,36916,33488
33232,36918,33479
33189,36924,33489
33352,36919,33441
33948,36916,33470
34548,36916,33437
34812,36945,33432
35180,36964,33440
35712,36967,33353
36656,36972,33400
37848,36985,33404
38808,36975,33388
38592,37004,33352
37556,37025,33332
37032,37028,33388
37524,37039,33348
38280,37028,33362
38972,37028,33280
39740,37016,33257
40704,37006,33221
40440,37007,33214
39064,36983,33200
37416,37004,33220
35692,37017,33244
34177,36984,33228
33124,37020,33156
32400,37028,33151
31952,37040,33176
31732,37037,33132
31736,37045,33095
31796,37028,33037
31773,37032,33092
31700,37024,33017
31644,37005,32992
31580,37012,33031
31528,37025,33019
31424,37023,32984
31416,37020,32997
31404,37017,32974
31472,37037,32960
31572,37037,32916
31552,37028,32885
31532,37028,32927
31490,37012,32895
31496,36983,32884
31452,37015,32868
31340,37021,32863
31348,37017,32776
31388,37020,32788
31476,37021,32812
31556,37024,32804
31564,37020,32775
31500,36983,32744
31440,37012,32698
31452,37013,32649
31400,37012,32649
31260,37017,32660
31216,37008,32623
31252,37028,32608
31356,37033,32544
31434,37025,32518
31388,37014,32516
31392,37022,32487
31384,37007,32448
31344,37004,32426
31316,37004,32373
31240,37028,32317
31228,37024,32311
31253,37029,32325
31296,37017,32308
31308,37012,32300
31300,37017,32268
31336,37004,32263
31376,37001,32190
31352,37017,32228
31252,36989,32221
31132,37013,32200
31012,37012,32191
31032,37013,32192
31108,37024,32136
31142,37021,32134
31108,37022,32168
31100,37012,32148
31124,37012,32103
31092,37020,32159
31052,37015,32144
30976,37028,32104
30940,37030,32129
31044,37025,32148
31104,37021,32132
31124,37037,32140
31108,37039,32092
31060,37036,32089
31064,37029,32133
30992,36991,32125
30880,37022,32134
30804,37028,32085
30816,37036,32127
30848,37030,32116
30908,37037,32101
30976,37029,32116
30980,37033,32074
30958,37001,32111
30877,37023,32124
30848,37017,32079
30902,37016,32067
30828,37024,32054
30825,37044,32068
30900,37023,32085
31008,37014,32100
31118,37036,32057
31128,37038,32088
31076,37024,32100
31016,37036,32064
30952,37017,32053
30948,37040,32076
30936,37049,32093
30932,37049,32092
31044,37053,32097
31176,37038,32101
31316,37047,32097
31396,37029,32076
31352,37036,32063
31332,37028,32085
31368,37021,32092
31368,37044,32116
31348,37050,32105
31404,37015,32100
31556,37028,32118
31724,37029,32157
31892,37059,32156
32021,37038,32158
32108,37050,32159
32220,37044,32174
32292,37037,32173
32384,37055,32208
32512,37052,32167
32601,37044,32214
32752,37059,32241
32972,37049,32236
33216,37044,32253
33368,37040,32279
33478,37046,32252
33592,37049,32262
33616,37046,32320
33617,37042,32327
33616,37052,32300
33712,37052,32333
33837,37050,32361
33968,37058,32378
34149,37044,32341
34236,37032,32414
34192,37032,32412
34212,37025,32412
34266,37033,32450
34264,37033,32458
34176,37032,32436
34148,37051,32496
34080,37020,32483
34188,37012,32488
34348,37017,32557
34336,37008,32573
34332,37015,32551
34264,36999,32597
34224,37037,32613
34164,37028,32645
34060,37039,32584
33996,37037,32660
34020,37045,32681
34064,37044,32702
34108,37031,32692
34112,37044,32671
34068,37026,32757
34000,37016,32775
33968,37020,32781
33948,37016,32820
33852,36999,32788
33904,37012,32860
33964,37023,32855
34062,37025,32814
34072,37013,32893
34028,37015,32903
33953,36983,32877
33888,36993,32940
33826,36965,32940
33840,36999,32917
33844,37005,32939
33860,37010,32989
33904,37011,33021
33984,37008,32952
33985,36975,33050
33876,36969,33038
33892,36994,33081
33880,36985,33006
33869,36991,33084
33852,36982,33093
33772,36956,33078
33772,36998,33053
33828,36987,33136
33896,36981,33140
33944,36980,33156
33932,36978,33188
33880,36975,33117
33870,36972,33141
33824,36964,33204
33808,36956,33212
33732,36967,33205
33744,36981,33218
33804,36973,33238
33844,36975,33158
33924,36972,33192
33972,36967,33248
33960,36961,33253
33888,36967,33173
33860,36943,33254
33840,36961,33264
33728,36956,33247
33696,36952,33224
33756,36964,33276
33788,36974,33287
33904,36961,33307
33880,36965,33241
33844,36961,33216
33796,36959,33292
33780,36959,33278
33680,36960,33274
33628,36964,33308
33597,36972,33211
33596,36968,33295
33664,36940,33287
33772,36965,33281
33768,36951,33268
33772,36962,33261
33788,36925,33260
33704,36945,33272
33636,36948,33189
33544,36949,33218
33472,36959,33268
33456,36966,33245
33476,36964,33257
33552,36959,33173
33594,36958,33250
33625,36961,33216
33644,36948,33236
33605,36925,33161
33564,36951,33140
33476,36955,33146
33460,36956,33205
33525,36956,33193
33572,36956,33148
33616,36956,33108
33560,36953,33177
33524,36935,33166
33568,36940,33121
33532,36956,33085
33452,36957,33119
33432,36956,33117
33488,36933,33127
33521,36949,33127
33548,36954,33030
33588,36959,33044
33556,36953,33088
33542,36951,33060
33560,36935,33070
33552,36935,32983
33453,36900,33052
33308,36911,33026
33304,36956,33020
33304,36925,32953
33316,36953,32928
33348,36948,32966
33308,36951,32958
33276,36937,32956
33212,36937,32892
33164,36935,32896
33092,36932,32921
33012,36944,32892
32912,36959,32900
32857,36948,32819
32948,36956,32868
33044,36942,32837
33096,36945,32836
33100,36916,32760
33160,36940,32740
33208,36931,32712
33156,36947,32711
33092,36924,32725
33100,36943,32744
33112,36951,32721
33208,36948,32695
33300,36952,32684
33308,36941,32687
33334,36936,32596
33280,36943,32572
33248,36933,32601
33180,36932,32601
33065,36929,32586
33088,36935,32548
33088,36938,32500
33084,36936,32544
33120,36935,32540
33124,36920,32511
33080,36924,32494
33029,36913,32493
33000,36907,32437
33028,36924,32414
32940,36919,32383
32928,36924,32380
32928,36924,32383
32984,36924,32382
33076,36913,32385
33072,36880,32365
33032,36881,32352
32994,36908,32350
32952,36911,32276
32964,36905,32300
32920,36908,32317
32888,36924,32296
32884,36920,32253
32948,36917,32273
33012,36925,32255
32992,36921,32233
32984,36912,32239
32932,36913,32209
32888,36911,32212
32852,36908,32148
32753,36916,32196
32688,36921,32172
32744,36917,32120
32812,36925,32124
32881,36908,32119
32834,36909,32125
32736,36909,32052
32656,36917,32041
32560,36916,32078
32484,36910,32061
32192,36897,32044
31872,36900,32002
31880,36924,31973
32118,36921,31999
32234,36913,31993
32209,36911,31973
32352,36908,31966
32976,36896,31916
33708,36908,31900
34077,36919,31917
34408,36935,31908
34916,36932,31881
35716,36945,31880
36757,36945,31845
37812,36965,31820
37788,36980,31844
36553,36989,31820
35812,36996,31801
35944,36989,31796
36560,36988,31737
37286,36993,31752
37804,36989,31733
38856,36972,31722
38984,36975,31668
37980,36957,31657
36657,36948,31665
35140,36944,31641
33685,36975,31584
32624,36977,31607
31881,36975,31572
31260,36973,31554
30776,36986,31534
30677,36998,31500
30766,36991,31484
30800,36984,31492
30744,36982,31461
30676,36967,31444
30612,36959,31436
30568,36961,31394
30501,36972,31392
30476,36948,31388
30482,36927,31364
30501,36935,31359
30564,36972,31324
30592,36967,31311
30548,36951,31308
30522,36951,31311
30500,36942,31296
30456,36948,31285
30412,36933,31280
30365,36957,31252
30320,36960,31239
30372,36938,31236
30496,36927,31224
30606,36957,31204
30616,36947,31166
30575,36933,31144
30560,36940,31114
30588,36933,31089
30524,36917,31052
30454,36948,31020
30476,36947,30989
30544,36943,30953
30606,36966,30929
30684,36952,30900
30628,36940,30857
30604,36959,30830
30590,36924,30817
30548,36932,30788
30552,36941,30769
30460,36953,30732
30396,36919,30724
30424,36928,30700
30531,36967,30688
30612,36948,30671
30584,36942,30652
30548,36938,30646
30484,36941,30640
30448,36932,30626
30388,36953,30612
30304,36956,30600
30309,36929,30588
30412,36949,30592
30592,36965,30589
30560,36957,30582
30426,36935,30582
30428,36901,30567
30420,36901,30576
30329,36940,30574
30292,36932,30565
30224,36946,30561
30150,36948,30564
30216,36953,30548
30324,36956,30543
30444,36954,30549
30341,36941,30546
30204,36957,30530
30168,36952,30529
30168,36957,30517
30152,36965,30500
30124,36919,30496
30116,36966,30501
30192,36972,30496
30296,36964,30488
30364,36973,30468
30332,36960,30466
30296,36956,30452
30284,36949,30450
30281,36960,30436
30256,36981,30425
30112,36945,30412
30128,36942,30420
30356,36980,30413
30438,36977,30405
30508,36979,30392
30548,36964,30388
30392,36974,30376
30438,36957,30364
30548,36965,30373
30600,36972,30359
30596,36986,30348
30702,36988,30360
30832,36998,30348
30896,36965,30321
30952,36991,30359
30988,36983,30348
31072,36977,30343
31217,36982,30336
31230,36988,30348
31172,36980,30343
31132,36977,30332
31182,36980,30360
31328,36987,30337
31436,36989,30332
31640,36989,30324
31892,36981,30333
32068,36944,30348
31988,36964,30340
32101,36965,30340
32112,36964,30350
32100,36964,30342
32180,36974,30367
32356,36972,30375
32540,36968,30381
32680,36959,30388
32776,36967,30397
32824,36961,30422
32876,36951,30438
32936,36958,30460
32964,36959,30466
32960,36959,30489
32996,36965,30508
33088,36949,30505
33233,36967,30548
33389,36964,30597
33408,36961,30608
33492,36948,30636
33524,36942,30656
33477,36954,30678
33416,36951,30709
33344,36948,30756
33348,36964,30772
33416,36957,30800
33553,36955,30814
33620,36947,30868
33560,36946,30888
33504,36949,30913
33476,36948,30932
33516,36944,30956
33484,36949,31015
33360,36948,31033
33201,36964,31040
33224,36956,31065
33504,36956,31124
33576,36964,31154
33452,36956,31191
33368,36920,31219
33388,36957,31250
33384,36944,31282
33336,36944,31316
33248,36959,31331
33176,36968,31355
33320,36965,31414
33388,36967,31446
33472,36965,31473
33569,36958,31488
33488,36944,31508
33384,36918,31580
33348,36952,31597
33364,36948,31626
33220,36956,31629
33216,36958,31666
33336,36960,31721
33388,36965,31738
33480,36961,31732
33524,36967,31788
33332,36952,31826
33204,36949,31840
33236,36940,31879
33320,36948,31861
33288,36957,31900
33228,36964,31948
33292,36972,31976
33448,36961,32005
33524,36964,31988
33486,36965,31996
33456,36964,32064
33388,36948,32084
33340,36945,32078
33277,36956,32085
33224,36957,32149
33208,36962,32151
33284,36961,32151
33344,36966,32164
33494,36956,32220
33476,36957,32225
33356,36959,32252
33328,36961,32217
33248,36945,32288
33296,36956,32293
33324,36950,32314
33272,36959,32303
33324,36961,32341
33488,36964,32328
33504,36961,32350
33450,36960,32375
33448,36957,32396
33338,36948,32406
33308,36942,32425
33304,36955,32381
33232,36965,32438
33188,36933,32452
33184,36967,32453
33440,36956,32420
33452,36964,32466
33312,36952,32486
33228,36960,32492
33140,36918,32506
33072,36943,32522
33156,36949,32460
33224,36959,32534
33120,36957,32528
33205,36960,32557
33276,36973,32505
33276,36966,32564
33244,36920,32580
33196,36956,32557
33216,36956,32581
33236,36948,32540
33292,36945,32556
33208,36949,32614
33104,36916,32588
33157,36948,32614
33116,36951,32558
33172,36952,32572
33104,36956,32620
32964,36948,32612
32968,36949,32612
33068,36937,32608
33028,36947,32548
32988,36951,32592
32936,36949,32610
33056,36953,32621
33080,36965,32568
33064,36965,32580
33036,36943,32612
33056,36917,32623
33060,36949,32609
33028,36940,32621
33016,36932,32581
32900,36951,32576
32841,36961,32579
32864,36951,32544
32956,36956,32552
33013,36948,32600
33024,36950,32541
33028,36951,32539
32945,36936,32581
32873,36934,32577
32804,36939,32501
32748,36943,32537
32728,36943,32546
32759,36941,32549
32850,36940,32500
32892,36935,32539
32976,36936,32512
32904,36927,32487
32908,36933,32456
32976,36926,32480
32872,36932,32492
32672,36943,32486
32586,36956,32476
32504,36948,32489
32520,36953,32416
32504,36955,32482
32508,36940,32465
32556,36942,32476
32473,36948,32436
32421,36936,32407
32405,36940,32421
32325,36941,32449
32288,36959,32448
32525,36954,32440
32809,36924,32452
32856,36957,32445
32858,36963,32424
32844,36951,32432
32796,36952,32414
32840,36948,32429
32708,36956,32433
32640,36933,32392
32728,36972,32379
32748,36967,32360
32808,36969,32364
32908,36977,32397
32928,36956,32413
32772,36958,32409
32737,36948,32412
32756,36965,32365
32724,36957,32340
32606,36966,32361
32534,36969,32408
32596,36975,32390
32628,36981,32407
32712,36981,32340
32840,36981,32404
32908,36969,32404
32812,36956,32373
32764,36966,32364
32708,36973,32404
32492,36974,32407
32548,36984,32404
32756,36990,32380
32876,36991,32348
32908,36978,32406
32828,36977,32397
32832,36981,32415
32801,36975,32354
32772,36979,32380
32816,36980,32423
32775,36980,32404
32836,36957,32413
32852,36983,32421
32840,36978,32383
32944,36992,32367
32960,36969,32372
32900,36972,32420
32796,36981,32410
32788,36973,32413
32761,36980,32428
32842,36980,32421
32752,36984,32428
32736,36989,32382
32829,36972,32389
32756,36998,32431
32588,36967,32453
32424,36952,32438
32216,36969,32456
32104,36981,32406
32184,36972,32461
32276,36964,32417
32352,36976,32429
32676,36977,32484
33344,36983,32496
34140,36972,32476
34692,36972,32455
34980,36976,32485
35212,36989,32538
35796,36996,32542
36797,36998,32543
37912,37015,32548
38452,37011,32561
37568,37056,32565
36564,37078,32580
36824,37055,32578
37472,37072,32596
38140,37052,32555
38549,37049,32549
39104,37032,32608
39600,37029,32597
38632,37041,32604
37112,37052,32537
35336,37057,32605
33688,37069,32582
32569,37064,32548
31692,37076,32503
31168,37069,32565
30968,37056,32532
30788,37023,32528
30648,37061,32531
30552,37070,32513
30568,37057,32510
30578,37057,32449
30512,37070,32431
30637,37050,32425
30760,37050,32402
30694,37039,32396
30492,37044,32404
30557,37036,32449
30580,37044,32441
30484,36999,32415
30468,37041,32415
30408,37047,32389
30408,37033,32401
30598,37049,32333
30776,37037,32374
30768,37023,32363
30692,36999,32364
30688,36993,32297
30740,37036,32308
30704,37044,32313
30636,36999,32304
30720,37044,32228
30776,37036,32268
30958,37025,32221
30972,37024,32208
30964,37015,32135
30920,37027,32140
30844,37021,32094
30976,36986,32088
31040,37031,32050
30984,37039,31973
30968,37032,32005
31084,37028,31956
31132,36997,31937
31040,37029,31852
30968,37022,31878
30856,37021,31840
30864,37005,31818
30992,37015,31759
30892,36983,31726
30848,37014,31748
30972,37020,31722
31076,37017,31689
31012,37023,31633
31012,37020,31649
31008,37011,31617
31072,37019,31564
30968,37012,31580
30944,37015,31559
30916,36998,31500
30784,37028,31528
30741,37005,31490
30876,37029,31460
31090,37008,31434
31116,37028,31446
30984,37028,31424
30884,36996,31409
30924,36981,31370
30916,37023,31373
30944,37031,31365
30953,37025,31334
30932,37038,31333
30944,37044,31288
31033,37038,31308
31036,37038,31284
31004,37031,31267
31008,36988,31238
30912,37025,31226
30864,37041,31232
30864,37028,31220
30844,37045,31202
30956,37014,31181
31348,37041,31180
31392,37044,31166
31156,37036,31167
30965,37049,31152
31036,37023,31133
31136,36998,31116
31032,37053,31133
30888,37040,31120
30932,37052,31098
31065,37052,31095
31141,37058,31088
31212,37060,31084
31240,37053,31070
31204,37060,31083
31222,37061,31076
31324,37037,31068
31380,37062,31036
31196,37060,31044
31172,37070,31042
31252,37074,31060
31440,37075,31050
31552,37068,31048
31412,37064,31031
31404,37059,31044
31420,37060,31050
31600,37052,31037
31580,37060,31031
31600,37036,31038
31756,37060,31060
31964,37039,31056
32132,37063,31064
32284,37029,31068
32316,37061,31071
32384,37053,31060
32536,37052,31064
32620,37057,31049
32696,37055,31057
32844,37030,31062
32888,37062,31062
33076,37060,31079
33200,37065,31068
33290,37060,31071
33432,37055,31072
33538,37045,31073
33560,37047,31064
33556,37050,31060
33592,37038,31061
33640,37038,31053
33768,37049,31072
33749,37053,31077
33788,37021,31066
33840,37051,31068
33840,37049,31052
33828,37036,31076
33808,37024,31065
33688,37028,31075
33670,37028,31065
33668,37039,31073
33685,37039,31074
33848,37044,31081
33984,37039,31084
34093,37036,31082
34012,37020,31085
33960,37025,31077
33858,36999,31084
33776,37036,31093
33676,37039,31097
33653,37039,31100
33684,37037,31076
33760,37039,31116
33808,37036,31120
33684,37051,31132
33848,37036,31100
33884,37028,31124
33737,37021,31143
33632,37023,31144
33558,37031,31152
33401,37036,31184
33466,37041,31198
33556,37047,31216
33625,37055,31221
33732,37046,31225
33600,37047,31239
33552,37036,31256
33608,37037,31273
33664,37039,31272
33568,37047,31292
33436,37051,31272
33472,37050,31317
33780,37053,31332
33916,37042,31349
33744,37049,31362
33548,37057,31368
33544,37047,31397
33630,37044,31407
33868,37037,31422
33732,37041,31432
33272,37053,31449
33218,37060,31440
33412,37060,31444
33548,37063,31463
33672,37056,31476
33612,37058,31509
33592,37036,31535
33668,37054,31552
33704,37041,31568
33648,37049,31591
33484,37021,31588
33476,37037,31613
33468,37069,31628
33500,37069,31638
33552,37071,31665
33701,37063,31673
33688,37059,31684
33504,37057,31692
33389,37055,31717
33356,37031,31728
33544,37036,31718
33557,37025,31719
33524,37077,31732
33645,37070,31742
33693,37064,31760
33520,37061,31777
33548,37061,31781
33668,37047,31793
33568,37056,31804
33348,37055,31806
33334,37063,31812
33377,37056,31814
33518,37071,31868
33500,37050,31866
33444,37069,31869
33420,37060,31876
33672,37061,31881
33637,37060,31884
33482,37032,31870
33481,37040,31858
33460,37065,31836
33388,37063,31901
33444,37073,31884
33484,37049,31878
33468,37071,31896
33484,37064,31892
33568,37057,31885
33530,37060,31877
33456,37066,31870
33440,37065,31836
33372,37071,31820
33369,37070,31824
33496,37069,31833
33612,37070,31806
33621,37071,31804
33532,37069,31804
33460,37058,31793
33508,37060,31804
33584,37060,31807
33428,37076,31805
33205,37085,31794
33248,37076,31801
33384,37073,31799
33556,37078,31737
33428,37053,31728
33180,37076,31748
33328,37077,31772
33600,37061,31764
33536,37063,31745
33380,37064,31750
33324,37039,31748
33452,37048,31744
33564,37052,31724
33508,37076,31720
33400,37060,31721
33436,37036,31716
33437,37068,31726
33204,37062,31716
33128,37060,31716
33276,37064,31716
33216,37068,31716
33188,37064,31719
33200,37074,31710
33148,37077,31709
33060,37061,31684
33076,37065,31673
33065,37060,31677
33028,37025,31693
33032,37030,31692
32988,37065,31705
32941,37047,31709
32925,37052,31717
32916,37072,31719
32996,37057,31716
33084,37047,31717
33040,37041,31727
32864,37068,31729
32936,37045,31737
33008,37028,31744
32972,37062,31709
32864,37068,31740
33006,37057,31765
32932,37087,31777
33056,37065,31780
33144,37063,31765
33200,37064,31774
33257,37064,31810
33144,37061,31818
33128,37073,31798
33392,37072,31860
33400,37067,31860
33100,37071,31884
32980,37087,31895
33028,37078,31912
33040,37072,31925
33148,37068,31943
33272,37063,31906
33148,37063,31937
32956,37060,31973
32928,37065,32021
32918,37070,32029
32964,37077,32009
33056,37076,32053
33156,37085,32090
33294,37047,32101
33544,37069,32124
33408,37061,32121
33088,37060,32116
32996,37055,32162
32928,37060,32210
32932,37068,32217
33004,37071,32252
33133,37044,32216
33277,37075,32284
33304,37060,32303
33164,37052,32308
32985,37065,32344
32972,37060,32327
33020,37040,32381
33004,37060,32397
32854,37063,32388
32832,37054,32385
32888,37068,32448
33036,37065,32473
33080,37028,32487
33068,37060,32509
33086,37048,32460
33060,37046,32550
32976,37045,32544
32864,37059,32576
32780,37060,32528
32704,37044,32612
32464,37069,32614
32392,37064,32577
32485,37065,32652
32596,37053,32653
32632,37060,32676
32672,37063,32629
32948,37040,32724
33488,37031,32712
34101,37061,32681
34440,37077,32709
34749,37084,32770
35460,37077,32773
36437,37095,32748
37428,37097,32804
38340,37096,32821
38272,37119,32862
37200,37134,32812
36640,37144,32880
37068,37167,32880
37956,37156,32916
38645,37157,32862
38933,37148,32932
39528,37127,32932
39236,37126,32917
38044,37122,32908
36552,37120,32978
34920,37132,32998
33449,37146,33001
32365,37157,32992
31684,37161,33018
31296,37159,32988
31200,37159,32958
31200,37158,32996
31172,37117,33057
31142,37117,33057
31084,37143,33070
31068,37127,33046
31028,37140,33026
30964,37159,33052
30944,37153,33070
31012,37149,33093
31076,37149,33149
31096,37157,33162
31064,37111,33164
31068,37141,33175
31040,37140,33188
31040,37126,33142
30984,37136,33220
30932,37100,33241
30944,37137,33233
31048,37140,33268
31072,37140,33269
31172,37127,33212
31180,37124,33229
31176,37119,33300
31168,37119,33280
31162,37120,33304
31100,37127,33220
31036,37147,33245
31052,37152,33279
31148,37148,33300
31272,37160,33297
31348,37132,33244
31336,37127,33282
31320,37111,33300
31320,37141,33317
31304,37149,33236
31228,37117,33303
31172,37152,33316
31170,37164,33332
31212,37164,33284
31308,37165,33350
31348,37164,33356
31324,37172,33338
31268,37159,33317
31304,37153,33386
31284,37151,33428
31248,37165,33444
31196,37170,33479
31205,37168,33415
31296,37177,33430
31364,37175,33525
31364,37177,33557
31324,37188,33563
31268,37183,33574
31268,37185,33612
31274,37183,33541
31288,37188,33647
31202,37185,33655
31166,37196,33693
31300,37213,33653
31285,37205,33629
31332,37204,33748
31368,37190,33659
31328,37191,33719
31312,37175,33776
31262,37191,33793
31200,37152,33812
31109,37196,33814
31120,37185,33808
31177,37206,33812
31262,37160,33824
31328,37199,33840
31324,37190,33844
31264,37182,33845
31216,37183,33848
31200,37181,33857
31169,37169,33879
31132,37193,33881
31180,37156,33895
31304,37193,33864
31373,37195,33880
31472,37205,33887
31504,37204,33852
31481,37196,33876
31432,37159,33832
31432,37165,33796
31450,37189,33782
31448,37181,33835
31404,37188,33892
31456,37190,33882
31588,37197,33901
31689,37196,33790
31708,37199,33864
31716,37184,33882
31732,37188,33869
31741,37152,33889
31740,37143,33836
31728,37156,33868
31756,37199,33876
31925,37198,33840
32068,37185,33798
32128,37183,33883
32184,37150,33892
32264,37183,33887
32356,37179,33927
32400,37176,33812
32500,37180,33905
32512,37180,33908
32633,37184,33932
32828,37181,33873
33048,37176,33864
33204,37174,33940
33292,37176,33988
33320,37152,33990
33376,37145,33990
33430,37127,33959
33420,37157,33933
33420,37172,34020
33460,37177,34069
33600,37163,34053
33760,37170,34100
33916,37166,34014
33940,37160,34090
33936,37156,34151
33964,37156,34157
33961,37118,34194
33964,37124,34120
33896,37157,34231
33948,37157,34235
34006,37149,34220
34104,37148,34220
34120,37136,34332
34133,37141,34342
34097,37137,34361
34108,37095,34391
34092,37133,34435
34045,37125,34469
33960,37141,34504
33964,37140,34465
34028,37167,34453
34132,37159,34487
34128,37153,34621
34164,37148,34652
34116,37143,34695
34080,37137,34663
34092,37149,34672
34064,37147,34737
33977,37140,34861
33952,37151,34874
34036,37144,34932
34088,37149,34983
34096,37142,34940
34084,37116,34969
34068,37137,35111
34012,37124,35119
33984,37124,35177
33952,37136,35253
33884,37151,35156
33881,37132,35188
33945,37145,35268
34068,37147,35380
34116,37143,35444
34108,37124,35469
34052,37138,35541
33996,37120,35591
33980,37132,35511
33916,37132,35591
33880,37133,35729
33873,37140,35740
33828,37149,35784
33988,37148,35853
34064,37112,35904
34032,37140,35854
33992,37124,35877
33933,37127,35928
33916,37135,36050
33812,37140,36129
33724,37133,36156
33736,37151,36108
33846,37119,36148
34000,37148,36164
34044,37147,36213
34020,37127,36228
33960,37127,36280
33876,37127,36359
33884,37108,36500
33848,37117,36487
33788,37104,36549
33820,37140,36609
33857,37139,36648
33944,37124,36703
34004,37149,36616
34005,37116,36655
33932,37127,36687
33886,37117,36728
33852,37127,36729
33796,37124,36772
33732,37117,36915
33720,37141,36973
33776,37140,36972
33876,37143,37009
33972,37132,36948
33940,37132,36925
33881,37125,36992
33925,37126,37012
33882,37127,37133
33796,37114,37190
33696,37135,37217
33700,37149,37193
33769,37140,37241
33804,37141,37271
33873,37137,37157
33864,37127,37319
33860,37139,37270
33844,37124,37349
33866,37120,37218
33792,37135,37397
33672,37141,37352
33740,37140,37297
33812,37143,37316
33872,37133,37448
33892,37140,37463
33844,37119,37463
33764,37133,37400
33680,37127,37415
33660,37137,37432
33636,37127,37473
33584,37147,37495
33580,37147,37372
33624,37111,37521
33692,37153,37496
33744,37137,37399
33752,37151,37520
33712,37132,37479
33696,37132,37556
33694,37124,37502
33648,37133,37511
33556,37143,37537
33568,37119,37399
33609,37140,37543
33724,37148,37471
33750,37151,37527
33704,37149,37508
33696,37148,37377
33661,37135,37396
33660,37134,37476
33624,37146,37434
33556,37140,37479
33576,37153,37328
33660,37159,37396
33680,37160,37447
33728,37165,37412
33676,37156,37396
33588,37167,37420
33524,37156,37248
33496,37164,37345
33404,37154,37397
33400,37159,37296
33396,37167,37352
33380,37159,37231
33472,37174,37284
33520,37173,37297
33536,37169,37156
33476,37161,37244
33484,37160,37239
33452,37124,37239
33381,37165,37068
33309,37171,37189
33232,37174,37113
33248,37172,37157
33272,37183,37157
33326,37183,37004
33308,37172,36994
33269,37172,37072
33288,37160,37039
33237,37167,37068
33152,37169,37006
33076,37133,36988
32972,37151,37013
32988,37145,36858
33084,37181,36980
33184,37191,36916
33208,37172,36876
33276,37188,36909
33320,37185,36782
33288,37164,36768
33308,37184,36854
33200,37191,36805
33144,37184,36824
33160,37199,36692
33229,37198,36789
33260,37200,36727
33248,37197,36724
33236,37186,36605
33252,37191,36663
33276,37169,36685
33284,37169,36604
33160,37188,36598
33053,37184,36600
32956,37190,36590
33044,37194,36445
33096,37188,36417
33096,37191,36509
33164,37180,36524
33153,37148,36452
33152,37183,36476
33070,37191,36308
32990,37181,36388
32956,37188,36396
32984,37191,36236
33092,37191,36358
33196,37183,36337
33204,37198,36220
33168,37167,36256
33140,37157,36241
33108,37183,36116
33068,37172,36197
33009,37175,36152
33004,37177,36181
32976,37189,36061
33048,37197,36093
33128,37188,36113
33104,37185,36045
33057,37173,36068
33032,37165,35901
32992,37172,35972
32956,37185,35966
32928,37185,35943
32908,37190,35914
32920,37191,35919
32993,37191,35812
33028,37181,35735
33008,37175,35852
32856,37181,35800
32760,37173,35697
32572,37174,35796
32216,37147,35778
31916,37148,35742
31975,37156,35693
32184,37177,35565
32252,37170,35687
32416,37165,35645
32865,37180,35500
33570,37167,35620
34068,37156,35560
34212,37181,35572
34564,37197,35458
35100,37209,35433
35948,37224,35528
37070,37237,35460
37700,37249,35472
36757,37268,35349
35616,37287,35448
35308,37287,35388
35740,37292,35401
36732,37266,35292
37245,37255,35343
37880,37263,35356
38796,37244,35213
38396,37249,35331
37360,37240,35270
36072,37253,35255
34596,37236,35246
33344,37242,35146
32524,37252,35124
31962,37244,35206
31488,37255,35152
31156,37255,35160
31054,37268,35092
31084,37269,35014
31132,37246,35092
31148,37249,35073
31137,37246,35057
31111,37237,34964
31116,37247,34900
31040,37231,34882
30960,37239,34959
30952,37239,34927
30948,37233,34928
30976,37249,34837
31036,37222,34791
31096,37201,34793
31153,37228,34857
31220,37228,34796
31196,37223,34812
31160,37220,34703
31040,37228,34653
30968,37235,34760
31004,37221,34695
31050,37232,34703
31113,37229,34685
31204,37223,34657
31212,37228,34502
31168,37231,34572
31140,37223,34528
31140,37220,34511
31145,37221,34412
31109,37229,34334
31074,37238,34396
31196,37236,34390
31336,37189,34269
31404,37219,34292
31424,37216,34284
31354,37225,34293
31316,37216,34169
31324,37221,34172
31245,37216,34228
31152,37228,34181
31148,37200,34188
31232,37207,34110
31372,37229,34060
31442,37235,34124
31361,37222,34133
31260,37231,34144
31200,37223,34028
31140,37220,34128
31108,37220,34101
31070,37229,34140
31032,37229,34023
31104,37236,34110
31236,37233,34137
31308,37223,34124
31325,37221,34079
31288,37230,34045
31236,37228,34076
31280,37207,34159
31312,37192,34140
31298,37228,34162
31280,37231,34097
31292,37241,34117
31300,37228,34152
31336,37237,34188
31358,37230,34065
31332,37227,34180
31356,37239,34159
31393,37226,34180
31400,37232,34089
31288,37231,34167
31236,37221,34158
31300,37231,34074
31384,37239,34132
31553,37238,34132
31613,37236,34085
31576,37229,34116
31604,37220,34112
31600,37220,34064
31589,37228,34084
31584,37232,34084
31568,37235,34101
31600,37222,33974
31676,37213,34076
31733,37204,34087
31744,37228,33980
31756,37228,34081
31776,37189,34060
31860,37180,34000
31869,37223,33991
31833,37234,34079
31840,37236,34028
31892,37233,34066
31980,37229,33992
32052,37237,33950
32109,37232,34060
32176,37223,34052
32204,37215,33949
32221,37213,34055
32220,37223,34045
32220,37231,33990
32360,37239,33982
32521,37245,34084
32609,37252,34087
32672,37237,34012
32768,37242,34022
32768,37236,34081
32804,37223,34092
32833,37222,34008
32864,37231,34120
32904,37232,34101
33021,37212,34133
33172,37238,34034
33356,37239,34149
33480,37236,34137
33500,37227,34100
33505,37228,34082
33536,37213,34156
33645,37224,34092
33712,37202,34188
33704,37223,34212
33796,37228,34140
33900,37230,34223
33960,37236,34241
34048,37229,34144
34128,37220,34252
34156,37212,34204
34164,37221,34168
34140,37199,34256
34084,37201,34286
34060,37186,34288
34040,37223,34317
34012,37221,34212
34084,37220,34305
34204,37212,34340
34204,37212,34319
34176,37209,34357
34164,37191,34244
34112,37172,34343
33985,37204,34342
33904,37213,34376
33860,37209,34273
33900,37207,34288
33981,37192,34296
34032,37198,34295
34004,37204,34329
33989,37202,34420
33928,37200,34392
33876,37189,34432
33840,37197,34344
33816,37196,34333
33832,37212,34424
33846,37191,34452
33908,37205,34440
33940,37201,34475
33888,37188,34423
33828,37200,34468
33788,37193,34468
33749,37192,34512
33736,37180,34420
33640,37199,34500
33588,37194,34500
33700,37203,34464
33780,37203,34460
33768,37184,34541
33744,37202,34555
33728,37190,34468
33704,37192,34439
33660,37165,34479
33596,37190,34565
33464,37197,34524
33476,37196,34532
33516,37188,34545
33604,37169,34476
33700,37167,34459
33688,37185,34549
33671,37191,34567
33632,37191,34433
33600,37188,34550
33512,37186,34532
33452,37199,34463
33409,37196,34455
33420,37172,34532
33476,37196,34500
33540,37192,34492
33572,37191,34516
33524,37184,34372
33476,37189,34452
33468,37182,34476
33424,37180,34425
33380,37181,34452
33356,37191,34311
33392,37197,34425
33468,37200,34380
33500,37162,34321
33452,37188,34302
33388,37188,34326
33340,37191,34304
33313,37148,34308
33252,37180,34181
33196,37188,34144
33220,37191,34116
33256,37197,34167
33324,37199,34092
33384,37188,34116
33400,37182,34104
33340,37178,34089
33287,37184,34072
33269,37156,33975
33212,37183,33927
33132,37172,33972
33108,37182,33927
33140,37157,33884
33232,37192,33863
33288,37183,33841
33264,37172,33748
33194,37185,33725
33100,37172,33661
33052,37152,33679
32960,37172,33644
32932,37177,33631
32924,37180,33502
32950,37183,33527
32992,37189,33497
33053,37189,33428
33020,37179,33392
32996,37179,33398
32944,37169,33357
32924,37164,33318
32888,37178,33292
32804,37181,33218
32741,37193,33132
32757,37201,33172
32804,37191,33140
32888,37152,33058
32884,37180,32991
32832,37183,33030
32772,37185,32969
32736,37179,32949
32652,37185,32832
32590,37191,32838
32576,37193,32833
32668,37193,32793
32728,37191,32708
32800,37195,32636
32776,37165,32616
32708,37188,32636
32681,37189,32601
32640,37181,32564
32572,37189,32460
32476,37190,32450
32432,37199,32390
32466,37206,32413
32560,37200,32353
32612,37204,32345
32576,37207,32274
32526,37196,32253
32468,37207,32215
32421,37199,32161
32352,37200,32135
32293,37213,32097
32310,37215,32032
32428,37223,31990
32565,37220,32015
32680,37213,31971
32684,37214,31912
32692,37196,31876
32648,37204,31860
32644,37229,31836
32628,37220,31808
32602,37220,31751
32620,37229,31700
32712,37231,31692
32820,37233,31672
32872,37229,31610
32777,37231,31593
32692,37221,31591
32673,37214,31544
32644,37212,31516
32544,37221,31495
32440,37236,31437
32452,37228,31450
32468,37208,31407
32516,37224,31375
32560,37223,31332
32596,37228,31303
32564,37180,31309
32532,37216,31288
32516,37207,31252
32476,37221,31220
32420,37214,31202
32384,37229,31151
32429,37237,31165
32540,37233,31129
32620,37212,31111
32598,37228,31093
32516,37216,31050
32493,37205,31035
32448,37213,31034
32400,37225,31022
32336,37201,30999
32336,37229,30980
32360,37229,30957
32428,37216,30924
32532,37228,30913
32496,37220,30920
32448,37196,30900
32414,37205,30880
32372,37184,30847
32316,37220,30846
32264,37223,30823
32236,37231,30813
32285,37204,30812
32368,37230,30809
32376,37228,30800
32286,37231,30783
32176,37231,30772
31925,37197,30743
31632,37180,30750
31500,37213,30740
31536,37222,30756
31697,37236,30749
31800,37231,30744
32084,37223,30727
32820,37228,30731
33740,37228,30708
34368,37221,30726
34724,37225,30724
35228,37200,30706
35720,37236,30717
36592,37253,30727
37672,37265,30712
38220,37269,30727
37228,37307,30701
36148,37316,30725
35896,37318,30727
36168,37306,30708
36852,37308,30727
37120,37286,30724
37756,37284,30720
38488,37265,30727
37776,37294,30708
36552,37281,30712
35160,37300,30710
33728,37304,30700
32488,37295,30692
