ECG,EDA,RR
32132,43472,33647
32520,43481,33573
33204,43487,33604
33757,43496,33551
33972,43508,33584
34332,43524,33495
34696,43516,33444
35228,43468,33437
35964,43527,33415
36256,43550,33390
35028,43570,33399
33360,43567,33352
32852,43588,33372
33296,43609,33300
34284,43607,33287
35240,43599,33324
36060,43587,33216
37652,43556,33172
37880,43550,33221
36936,43545,33143
35652,43548,33125
34208,43527,33057
32876,43521,33012
31965,43570,33012
31476,43558,32976
31137,43518,32995
30884,43504,32908
30757,43476,32908
30700,43479,32815
30688,43484,32781
30656,43508,32750
30620,43541,32726
30544,43543,32754
30577,43548,32625
30600,43543,32572
30660,43540,32596
30688,43463,32508
30688,43545,32489
30661,43520,32478
30636,43494,32421
30600,43511,32412
30560,43524,32372
30536,43524,32416
30552,43520,32296
30596,43527,32354
30688,43473,32224
30724,43489,32271
30684,43523,32140
30672,43527,32101
30693,43506,32052
30709,43505,32077
30624,43519,32021
30572,43527,32072
30584,43527,31936
30660,43527,31922
30724,43527,31844
30776,43527,31790
30784,43524,31773
30757,43500,31716
30744,43508,31751
30736,43511,31692
30692,43509,31695
30604,43525,31608
30636,43463,31685
30704,43488,31554
30765,43521,31544
30728,43503,31534
30720,43509,31444
30717,43452,31391
30720,43464,31420
30700,43487,31333
30636,43512,31397
30573,43508,31268
30584,43513,31277
30632,43527,31372
30712,43462,31244
30712,43473,31296
30700,43517,31200
30696,43508,31212
30720,43493,31125
30681,43509,31120
30605,43509,31185
30576,43457,31120
30620,43526,31188
30676,43527,31097
30744,43512,31116
30785,43527,31036
30808,43526,31078
30788,43508,31049
30804,43508,31128
30808,43516,31021
30776,43517,31064
30732,43526,30994
30728,43527,31056
30804,43468,30937
30872,43527,30916
30912,43527,30960
30896,43527,30916
30880,43524,31004
30888,43521,30896
30900,43511,30983
30836,43516,30873
30812,43527,30952
30828,43527,30846
30900,43527,30756
31004,43527,30804
31017,43527,30764
31004,43527,30784
31024,43527,30717
31040,43470,30776
31060,43535,30844
31028,43550,30704
30980,43527,30733
31049,43548,30680
31124,43543,30696
31218,43561,30775
31264,43551,30727
31276,43541,30670
31276,43524,30688
31349,43524,30708
31362,43524,30672
31324,43540,30611
31300,43479,30685
31296,43493,30665
31364,43500,30733
31449,43492,30681
31496,43489,30727
31525,43486,30661
31552,43548,30717
31602,43527,30704
31624,43543,30719
31624,43503,30710
31572,43551,30727
31620,43548,30719
31732,43552,30836
31888,43541,30749
32012,43556,30820
32096,43488,30733
32152,43556,30788
32196,43537,30693
32288,43534,30736
32268,43548,30770
32272,43552,30756
32368,43489,30895
32468,43548,30806
32609,43561,30868
32692,43564,30769
32762,43534,30804
32840,43540,30868
32908,43527,30837
32920,43540,30945
32904,43548,30892
32892,43559,31013
32952,43561,30900
33016,43552,30947
33142,43564,30876
33176,43552,30948
33194,43543,31087
33180,43540,30944
33184,43536,31022
33196,43536,30952
33112,43541,31036
33076,43535,31015
33108,43553,31108
33204,43505,31069
33248,43567,31079
33240,43543,31191
33200,43541,31111
33192,43551,31183
33192,43543,31119
33176,43484,31189
33096,43476,31166
33084,43547,31269
33092,43520,31220
33120,43541,31352
33172,43552,31265
33176,43553,31319
33172,43527,31296
33180,43527,31402
33126,43543,31352
33072,43492,31442
33016,43548,31364
32962,43559,31381
32976,43505,31531
33008,43511,31452
33064,43519,31452
33088,43513,31514
33056,43550,31524
33020,43564,31580
32984,43539,31530
32981,43534,31623
32932,43564,31573
32912,43564,31665
32928,43551,31621
33008,43573,31720
33076,43565,31682
33092,43567,31737
33060,43563,31708
33068,43550,31787
33072,43540,31749
33088,43554,31784
33020,43550,31925
32975,43564,31859
32988,43527,31887
33068,43536,31856
33184,43557,31874
33216,43512,31997
33184,43505,31950
33216,43516,32058
33210,43557,31993
33224,43557,32109
33149,43559,32016
33120,43572,32060
33136,43566,32032
33172,43566,32045
33268,43573,32184
33306,43565,32106
33344,43552,32156
33332,43545,32103
33336,43548,32126
33328,43559,32256
33280,43557,32184
33216,43559,32253
33216,43557,32217
33232,43549,32208
33336,43544,32273
33390,43548,32262
33368,43548,32253
33302,43481,32300
33345,43540,32302
33312,43551,32372
33236,43545,32321
33192,43551,32415
33220,43540,32327
33284,43542,32317
33356,43527,32412
33368,43524,32371
33332,43526,32476
33284,43521,32386
33292,43527,32365
33260,43516,32428
33224,43520,32436
33200,43527,32517
33208,43535,32438
33281,43541,32493
33340,43540,32445
33364,43481,32436
33332,43537,32453
33316,43527,32460
33312,43527,32552
33248,43510,32501
33200,43524,32566
33208,43527,32496
33224,43472,32550
33284,43548,32468
33368,43527,32495
33384,43527,32519
33368,43520,32489
33320,43525,32480
33285,43463,32496
33232,43500,32484
33220,43527,32517
33164,43516,32545
33168,43516,32519
33214,43524,32597
33264,43526,32490
33316,43473,32493
33310,43495,32560
33264,43504,32502
33228,43511,32556
33224,43510,32508
33180,43484,32566
33077,43503,32478
33052,43513,32503
33124,43512,32561
33192,43476,32506
33220,43481,32584
33208,43519,32516
33220,43503,32509
33192,43500,32462
33164,43491,32484
33108,43498,32574
33076,43500,32517
33085,43503,32576
33116,43509,32492
33180,43478,32498
33200,43505,32596
33157,43494,32500
33148,43492,32529
33148,43452,32486
33156,43444,32513
33120,43447,32506
33064,43456,32610
33048,43461,32535
33108,43500,32612
33164,43479,32530
33180,43511,32549
33212,43510,32516
33168,43495,32549
33120,43499,32537
33084,43476,32590
33028,43480,32517
32968,43501,32559
32996,43476,32647
33056,43485,32563
33120,43496,32583
33134,43492,32549
33136,43492,32583
33108,43445,32556
33090,43493,32596
33056,43492,32617
33013,43477,32562
32940,43488,32587
32952,43497,32673
32972,43451,32606
33032,43443,32688
33056,43493,32586
33052,43493,32621
33016,43476,32579
33028,43485,32624
33007,43493,32600
32942,43480,32662
32896,43473,32586
32924,43476,32604
32960,43488,32619
33008,43495,32601
33028,43495,32685
33012,43484,32582
33028,43481,32620
33000,43477,32585
32953,43479,32593
32908,43460,32580
32876,43487,32676
32864,43467,32620
32894,43481,32604
32980,43472,32594
33004,43477,32573
33005,43464,32612
32973,43473,32596
32944,43421,32660
32956,43447,32604
32900,43452,32700
32852,43484,32624
32879,43484,32681
32938,43485,32613
32996,43486,32580
33016,43479,32633
32980,43485,32636
32960,43464,32585
32916,43466,32618
32896,43449,32628
32856,43439,32676
32832,43487,32647
32848,43489,32698
32860,43472,32642
32912,43470,32708
32924,43468,32607
32900,43473,32615
32844,43460,32677
32813,43449,32621
32816,43464,32698
32804,43469,32636
32754,43479,32672
32752,43481,32620
32800,43481,32668
32928,43481,32641
32916,43479,32677
32877,43436,32637
32860,43436,32689
32812,43440,32676
32776,43449,32753
32696,43467,32676
32636,43448,32727
32636,43447,32679
32668,43503,32760
32716,43492,32706
32704,43495,32760
32684,43487,32704
32632,43477,32756
32624,43468,32710
32645,43478,32727
32668,43492,32681
32604,43493,32724
32684,43501,32685
32788,43503,32762
32893,43447,32709
32943,43449,32781
32948,43492,32708
32976,43495,32713
32996,43495,32760
32988,43480,32725
32956,43489,32716
32892,43497,32773
32912,43497,32732
32932,43509,32744
32984,43510,32712
33016,43463,32740
32996,43497,32724
32956,43517,32733
32920,43522,32816
32905,43492,32757
32872,43517,32811
32792,43524,32744
32765,43516,32820
32832,43527,32762
32928,43527,32815
32974,43462,32751
32936,43527,32754
32936,43523,32712
32929,43503,32740
32916,43505,32718
32860,43495,32767
32796,43508,32735
32784,43522,32740
32804,43526,32804
32876,43527,32764
32912,43504,32815
32888,43527,32736
32888,43516,32781
32892,43502,32744
32880,43505,32768
32844,43518,32732
32765,43520,32749
32792,43469,32736
32828,43501,32764
32908,43527,32788
32942,43508,32775
32904,43499,32846
32876,43501,32793
32896,43511,32820
32836,43505,32782
32736,43452,32825
32676,43519,32804
32676,43522,32885
32692,43512,32817
32700,43512,32885
32712,43505,32803
32592,43511,32792
32394,43497,32816
32296,43509,32824
32404,43500,32902
32476,43510,32826
32572,43524,32880
32709,43466,32813
33080,43500,32825
33736,43520,32817
34272,43525,32836
34420,43527,32816
34454,43527,32842
34708,43527,32922
35272,43548,32865
36064,43521,32884
36652,43556,32860
36064,43615,32964
34596,43636,32855
34060,43647,32852
34550,43647,32964
35388,43636,32895
36244,43618,32961
37132,43599,32900
38564,43576,32964
38980,43578,32900
37840,43601,32953
36256,43615,32868
34566,43608,32956
33120,43608,32888
32152,43606,32946
31484,43613,32863
31140,43597,32848
31020,43581,32885
30984,43586,32870
30956,43588,32849
30948,43592,32948
30932,43597,32872
30972,43592,32900
31076,43584,32893
31084,43577,32865
31064,43575,32848
31040,43564,32877
31036,43544,32901
31064,43527,32916
31004,43558,32888
31004,43575,32879
31004,43575,32968
31024,43579,32928
31072,43557,32976
31128,43557,32909
31136,43556,33006
31152,43551,32961
31140,43543,33026
31114,43540,32966
31064,43549,32920
31040,43543,32980
31036,43544,32940
31108,43549,32955
31210,43540,32956
31256,43541,33021
31292,43527,32920
31268,43517,32903
31240,43525,32988
31236,43527,32877
31196,43535,32902
31184,43542,32836
31244,43524,32861
31308,43527,32817
31332,43533,32837
31372,43527,32808
31380,43527,32876
31345,43527,32768
31332,43488,32753
31292,43479,32762
31232,43527,32736
31168,43550,32736
31156,43549,32820
31196,43541,32750
31296,43527,32788
31337,43527,32724
31297,43524,32764
31280,43520,32685
31248,43516,32685
31220,43525,32768
31172,43527,32700
31128,43540,32652
31148,43548,32741
31172,43553,32697
31240,43552,32753
31308,43554,32665
31285,43548,32743
31284,43536,32664
31256,43527,32639
31218,43517,32669
31198,43524,32693
31156,43527,32647
31184,43527,32631
31220,43527,32645
31286,43520,32630
31344,43527,32732
31324,43527,32647
31312,43519,32604
31292,43527,32695
31270,43524,32628
31232,43527,32698
31192,43540,32608
31177,43543,32692
31254,43549,32610
31297,43553,32692
31312,43542,32610
31293,43544,32686
31244,43476,32596
31265,43520,32676
31272,43541,32602
31228,43540,32676
31188,43540,32597
31208,43543,32676
31244,43548,32596
31348,43551,32662
31424,43546,32590
31460,43527,32568
31456,43527,32644
31436,43506,32597
31416,43476,32676
31364,43520,32604
31364,43548,32613
31380,43543,32568
31476,43550,32590
31556,43556,32569
31600,43552,32625
31588,43504,32631
31616,43548,32644
31592,43540,32716
31600,43527,32642
31616,43546,32727
31684,43551,32636
31685,43492,32661
31772,43516,32634
31944,43495,32673
32064,43549,32661
32144,43558,32689
32204,43525,32661
32288,43527,32685
32400,43527,32701
32468,43541,32708
32472,43552,32678
32608,43557,32740
32745,43556,32738
32896,43556,32800
33028,43495,32735
33124,43548,32747
33212,43549,32748
33284,43536,32855
33396,43500,32791
33396,43519,32860
33440,43518,32805
33504,43520,32872
33632,43527,32824
33812,43516,32894
33860,43527,32808
33869,43524,32836
33890,43508,32940
33920,43496,32879
33924,43508,32926
33901,43500,32868
33876,43500,32942
33912,43511,32899
33988,43511,32976
34042,43498,32924
34096,43501,32968
34056,43444,32952
34060,43452,33029
34048,43492,32972
34012,43492,33001
33943,43485,32981
33861,43476,32997
33886,43485,32996
33912,43487,33040
33992,43479,33117
33996,43491,33084
33996,43484,33158
33968,43476,33110
34008,43460,33188
33972,43415,33150
33912,43444,33204
33864,43485,33160
33856,43493,33237
33900,43493,33225
33932,43473,33292
33952,43482,33252
33924,43471,33316
33873,43460,33287
33838,43409,33351
33796,43421,33336
33748,43431,33388
33696,43440,33360
33660,43481,33436
33721,43474,33405
33784,43479,33425
33816,43470,33408
33788,43452,33412
33748,43463,33453
33701,43463,33436
33653,43460,33476
33624,43458,33508
33552,43463,33506
33552,43473,33497
33604,43474,33556
33710,43479,33549
33748,43436,33623
33716,43451,33584
33636,43468,33621
33636,43464,33604
33656,43460,33614
33580,43453,33612
33556,43453,33647
33568,43454,33636
33572,43463,33647
33672,43456,33656
33736,43459,33693
33696,43452,33676
33652,43455,33695
33636,43453,33692
33636,43450,33710
33616,43399,33756
33545,43416,33752
33561,43454,33789
33620,43458,33750
33688,43433,33808
33684,43444,33766
33672,43440,33821
33652,43437,33785
33624,43448,33836
33632,43445,33797
33597,43421,33851
33516,43436,33813
33540,43437,33874
33624,43457,33828
33661,43420,33835
33692,43447,33831
33656,43440,33844
33672,43389,33887
33668,43436,33858
33637,43426,33879
33562,43429,33924
33508,43414,33876
33476,43447,33888
33528,43445,33929
33617,43429,33892
33654,43429,33897
33608,43431,33888
33569,43428,33910
33580,43366,33925
33580,43382,33917
33512,43420,33933
33460,43429,33927
33440,43431,33973
33493,43429,33929
33561,43431,33980
33564,43425,33926
33592,43396,33925
33576,43431,33912
33530,43423,33929
33505,43423,33961
33476,43431,33937
33396,43428,33962
33380,43380,33974
33416,43375,33936
33496,43396,33964
33572,43399,33919
33540,43452,33917
33500,43420,33874
33468,43423,33907
33436,43392,33932
33393,43434,33927
33360,43430,33902
33372,43441,33888
33440,43455,33932
33492,43436,33853
33504,43399,33891
33454,43445,33883
33420,43423,33920
33377,43437,33850
33372,43376,33872
33334,43436,33872
33296,43428,33868
33260,43431,33910
33280,43399,33852
33404,43440,33852
33432,43445,33916
33376,43441,33868
33357,43444,33853
33329,43429,33869
33304,43372,33883
33244,43439,33829
33184,43431,33880
33196,43444,33893
33232,43431,33902
33296,43444,33868
33332,43436,33879
33316,43432,33933
33305,43384,33890
33320,43436,33902
33292,43429,33897
33248,43432,33908
33198,43446,33910
33200,43453,33920
33252,43439,33927
33316,43453,33910
33328,43399,33925
33309,43448,33936
33268,43444,33927
33221,43432,33937
33220,43444,33959
33220,43413,33944
33120,43399,33993
33112,43460,33948
33176,43461,33956
33228,43463,33968
33240,43412,33974
33224,43474,34012
33220,43439,33966
33204,43469,33976
33156,43468,33988
33116,43460,33972
33056,43460,33991
33012,43462,34007
33076,43479,33988
33165,43436,34020
33196,43486,34021
33148,43474,33980
33152,43429,33999
33144,43468,34055
33132,43479,33995
33093,43471,33997
33012,43478,34052
33036,43492,33987
33073,43492,34020
33128,43495,34012
33164,43436,34064
33156,43476,34020
33149,43485,34022
33120,43474,34080
33116,43431,34012
33052,43494,34031
33020,43499,34037
33025,43503,34104
33064,43513,34076
33092,43500,34044
33132,43500,34055
33104,43477,34118
33064,43508,34073
33040,43484,34081
33040,43489,34084
32984,43503,34135
32956,43468,34102
32936,43500,34121
32964,43504,34109
33048,43475,34167
33056,43516,34114
33044,43497,34143
33016,43503,34148
33000,43492,34191
33000,43505,34164
32948,43503,34160
32888,43509,34208
32888,43513,34156
32913,43527,34191
32956,43508,34191
32960,43518,34244
32924,43456,34196
32884,43516,34213
32860,43508,34234
32848,43511,34226
32780,43508,34240
32729,43478,34260
32720,43527,34240
32754,43516,34268
32780,43522,34268
32780,43518,34311
32764,43500,34296
32760,43508,34292
32799,43460,34300
32832,43496,34342
32823,43476,34297
32780,43492,34318
32788,43502,34340
32870,43501,34342
32972,43453,34352
33020,43505,34347
33016,43489,34364
33016,43493,34397
33000,43439,34366
32984,43479,34413
32956,43501,34370
32924,43492,34384
32904,43432,34406
32964,43470,34436
33032,43500,34416
33048,43494,34436
33018,43484,34410
33028,43469,34447
33038,43484,34464
32960,43465,34436
32864,43465,34461
32804,43476,34420
32796,43477,34472
32825,43421,34511
32864,43431,34477
32940,43479,34523
32928,43456,34480
32901,43463,34497
32888,43460,34532
32892,43444,34522
32820,43455,34508
32760,43399,34528
32752,43404,34464
32808,43463,34512
32880,43441,34551
32920,43437,34510
32916,43436,34547
32912,43438,34510
32892,43444,34525
32900,43422,34553
32884,43437,34516
32816,43439,34522
32788,43407,34540
32820,43445,34533
32876,43437,34551
32934,43439,34505
32892,43389,34524
32896,43399,34528
32908,43429,34525
32888,43413,34567
32808,43433,34517
32696,43389,34517
32648,43444,34549
32608,43431,34514
32464,43438,34516
32328,43454,34532
32360,43439,34505
32526,43423,34520
32684,43369,34524
32760,43423,34543
32968,43431,34532
33468,43385,34520
33984,43444,34560
34240,43453,34511
34400,43463,34533
34700,43457,34506
35156,43420,34520
35948,43436,34526
36628,43500,34524
36404,43502,34541
34928,43527,34496
33996,43551,34508
34308,43527,34519
35193,43557,34506
36257,43544,34508
37060,43555,34468
38372,43469,34479
39136,43511,34476
38308,43519,34439
36824,43503,34445
35124,43516,34439
33512,43527,34420
32392,43540,34429
31738,43542,34380
31424,43518,34393
31272,43521,34396
31220,43513,34332
31188,43516,34336
31184,43444,34308
31176,43477,34311
31144,43511,34293
31087,43503,34287
31060,43515,34311
31120,43518,34260
31215,43470,34273
31236,43523,34222
31233,43497,34213
31220,43497,34244
31212,43431,34196
31200,43509,34192
31160,43484,34191
31106,43502,34156
31092,43480,34168
31168,43513,34114
31230,43495,34116
31280,43457,34143
31296,43487,34061
31316,43478,34089
31306,43472,34114
31300,43423,34036
31278,43473,34046
31240,43487,34036
31248,43463,34032
31312,43495,33996
31392,43468,34007
31412,43492,33953
31369,43480,33948
31360,43460,33913
31336,43407,33939
31334,43468,33852
31304,43461,33844
31268,43468,33884
31292,43479,33805
31337,43428,33807
31392,43478,33748
31424,43487,33758
31425,43479,33732
31412,43428,33741
31428,43469,33695
31408,43457,33685
31352,43477,33640
31300,43416,33632
31284,43476,33668
31312,43485,33564
31404,43423,33588
31436,43485,33620
31420,43489,33540
31432,43476,33559
31428,43472,33500
31384,43476,33503
31357,43485,33470
31292,43480,33482
31300,43493,33484
31332,43473,33421
31388,43488,33447
31440,43446,33479
31420,43492,33392
31388,43471,33403
31384,43478,33429
31381,43455,33361
31340,43491,33369
31264,43476,33379
31248,43479,33356
31288,43470,33392
31364,43484,33335
31408,43492,33354
31388,43455,33300
31380,43468,33308
31332,43484,33252
31316,43468,33271
31265,43494,33274
31236,43472,33260
31248,43503,33309
31292,43500,33249
31344,43494,33228
31368,43498,33240
31376,43452,33220
31384,43469,33200
31416,43476,33159
31408,43495,33193
31400,43492,33161
31392,43491,33236
31400,43509,33156
31472,43446,33164
31546,43495,33144
31584,43511,33168
31560,43496,33151
31584,43485,33155
31596,43487,33198
31620,43460,33156
31576,43500,33200
31552,43497,33135
31564,43503,33141
31592,43460,33220
31716,43492,33129
31812,43495,33159
31812,43495,33236
31818,43463,33162
31860,43496,33159
31924,43494,33247
31976,43496,33191
31972,43495,33181
32048,43527,33248
32138,43500,33207
32312,43516,33206
32457,43516,33293
32533,43500,33217
32632,43525,33244
32714,43524,33297
32804,43487,33236
32849,43531,33260
32936,43549,33328
33032,43557,33293
33210,43559,33290
33388,43512,33349
33560,43559,33358
33644,43564,33414
33720,43549,33352
33800,43556,33405
33880,43517,33349
33904,43567,33412
33924,43581,33480
34000,43524,33412
34152,43582,33452
34256,43520,33453
34324,43568,33519
34316,43576,33454
34272,43576,33514
34288,43572,33567
34228,43572,33535
34186,43527,33545
34120,43590,33645
34128,43577,33564
34204,43584,33615
34252,43599,33600
34272,43596,33647
34180,43583,33628
34168,43525,33676
34172,43551,33712
34172,43588,33706
34168,43568,33757
34096,43591,33751
34096,43590,33767
34112,43599,33836
34176,43548,33816
34220,43596,33877
34197,43577,33850
34132,43583,33926
34076,43572,33902
34028,43580,33927
33940,43577,33974
33880,43565,33993
33892,43572,34080
33941,43527,34032
33960,43603,34048
33948,43572,34124
33916,43527,34124
33928,43582,34188
33916,43550,34165
33881,43559,34237
33840,43556,34224
33788,43527,34244
33796,43573,34245
33836,43572,34308
33888,43527,34358
33972,43580,34348
33916,43556,34401
33864,43553,34399
33844,43492,34444
33813,43548,34516
33776,43534,34500
33700,43550,34537
33676,43503,34526
33712,43567,34580
33784,43548,34636
33880,43541,34636
33885,43536,34657
33844,43534,34720
33824,43526,34691
33802,43476,34724
33724,43534,34741
33656,43518,34765
33672,43540,34823
33728,43476,34820
33836,43481,34860
33905,43524,34872
33888,43527,34892
33902,43527,34903
33888,43524,34927
33888,43501,34960
33840,43500,34999
33748,43524,34999
33740,43508,35042
33760,43527,35032
33840,43518,35055
33848,43516,35054
33833,43511,35093
33844,43456,35092
33813,43472,35132
33832,43508,35136
33784,43496,35161
33724,43501,35169
33672,43501,35191
33752,43504,35197
33816,43465,35217
33840,43500,35237
33792,43501,35236
33760,43503,35257
33752,43438,35255
33748,43488,35284
33692,43489,35296
33637,43494,35320
33625,43496,35302
33708,43492,35324
33776,43492,35344
33798,43493,35349
33772,43485,35357
33736,43461,35364
33744,43476,35384
33700,43481,35374
33660,43429,35397
33588,43476,35417
33568,43476,35410
33600,43480,35436
33644,43450,35416
33700,43487,35431
33708,43487,35437
33720,43420,35447
33700,43478,35457
33684,43471,35455
33652,43481,35468
33568,43487,35476
33528,43476,35472
33578,43487,35487
33616,43436,35444
33632,43481,35485
33636,43476,35503
33628,43467,35477
33636,43480,35501
33646,43465,35505
33604,43476,35492
33512,43461,35502
33536,43491,35501
33568,43493,35508
33592,43478,35512
33616,43478,35513
33558,43476,35527
33488,43415,35508
33441,43432,35528
33400,43476,35496
33376,43468,35516
33324,43474,35520
33298,43429,35508
33332,43484,35528
33408,43481,35511
33488,43479,35525
33492,43473,35494
33532,43470,35512
33520,43460,35516
33452,43457,35520
33388,43445,35527
33344,43476,35494
33318,43455,35510
33300,43482,35532
33384,43468,35513
33432,43475,35527
33448,43454,35534
33468,43464,35522
33448,43454,35524
33440,43468,35528
33376,43455,35517
33248,43460,35526
33248,43479,35540
33316,43476,35514
33372,43460,35528
33412,43464,35540
33440,43475,35528
33416,43457,35540
33380,43467,35524
33312,43452,35548
33228,43463,35540
33152,43451,35540
33152,43472,35559
33180,43469,35532
33241,43460,35551
33312,43468,35549
33308,43456,35541
33320,43468,35556
33320,43447,35556
33260,43463,35552
33212,43466,35580
33137,43452,35564
33116,43465,35569
33120,43407,35568
33196,43464,35572
33264,43466,35577
33220,43411,35580
33197,43476,35581
33176,43452,35591
33141,43437,35583
33104,43452,35599
33024,43455,35591
32989,43460,35598
32992,43469,35592
33052,43412,35604
33084,43421,35598
33102,43468,35615
33076,43448,35615
33092,43445,35620
33084,43428,35608
33045,43445,35622
32952,43452,35620
32932,43428,35620
32960,43462,35621
33036,43452,35624
33084,43461,35615
33072,43428,35623
33008,43457,35630
32948,43436,35620
32880,43444,35625
32804,43452,35628
32776,43457,35622
32791,43466,35614
32906,43447,35620
33044,43464,35645
33104,43460,35626
33116,43456,35629
33134,43399,35633
33164,43437,35624
33157,43468,35632
33096,43476,35625
33016,43460,35638
33016,43473,35637
33064,43428,35622
33128,43484,35624
33184,43474,35636
33160,43476,35631
33136,43421,35632
33140,43477,35616
33152,43469,35631
33056,43474,35622
32960,43481,35629
32984,43494,35630
33032,43492,35629
33076,43476,35622
33048,43453,35629
32996,43488,35636
32988,43473,35636
32988,43472,35620
33024,43476,35631
32988,43476,35655
32964,43469,35624
33028,43488,35633
33096,43503,35637
33108,43478,35624
33148,43489,35632
33196,43492,35628
33216,43492,35628
33184,43447,35630
33128,43489,35636
33036,43484,35632
32938,43489,35637
32900,43447,35645
32904,43515,35625
32976,43481,35636
33008,43508,35620
33004,43502,35630
32988,43485,35624
32988,43500,35620
32976,43492,35628
32928,43500,35636
32880,43444,35615
32856,43516,35620
32864,43516,35626
32908,43502,35621
32932,43506,35624
32888,43509,35609
32788,43495,35623
32512,43493,35614
32221,43495,35622
32140,43500,35607
32216,43487,35613
32284,43495,35620
32308,43509,35604
32582,43468,35607
33204,43484,35608
33824,43505,35598
34012,43500,35608
34124,43503,35557
34400,43461,35604
34793,43532,35629
35456,43557,35612
36212,43559,35608
36017,43572,35620
34444,43592,35615
33364,43608,35617
33360,43622,35584
34020,43596,35609
35168,43596,35627
36036,43576,35584
37420,43572,35600
38576,43565,35588
38116,43564,35591
36976,43568,35600
35668,43576,35572
34336,43565,35574
33192,43564,35572
32464,43556,35557
31992,43556,35557
31612,43497,35540
31404,43557,35549
31316,43564,35517
31320,43567,35513
31308,43548,35508
31333,43552,35492
31384,43548,35493
31383,43543,35452
31350,43527,35449
31348,43527,35436
31340,43525,35420
31284,43525,35410
31292,43527,35398
31284,43532,35374
31288,43548,35356
31332,43517,35348
31380,43527,35317
31364,43527,35308
31344,43452,35271
31392,43508,35271
31412,43493,35249
31378,43500,35232
31348,43516,35212
31336,43460,35192
31360,43524,35180
31421,43524,35180
31460,43508,35129
31476,43500,35140
31480,43445,35128
31472,43488,35090
31452,43479,35084
31456,43492,35048
31388,43495,35044
31366,43503,35042
31444,43479,34976
31516,43513,34965
31580,43508,34967
31572,43517,34930
31516,43496,34910
31460,43501,34889
31425,43503,34841
31396,43497,34852
31356,43501,34840
31328,43511,34792
31368,43460,34788
31440,43486,34759
31496,43501,34753
31476,43501,34760
31464,43454,34724
31432,43493,34725
31410,43500,34692
31389,43492,34676
31333,43501,34661
31324,43444,34664
31381,43525,34661
31437,43501,34594
31484,43519,34631
31440,43502,34652
31420,43511,34616
31445,43489,34629
31434,43500,34580
31392,43448,34591
31316,43514,34584
31280,43508,34580
31332,43508,34580
31357,43476,34548
31380,43527,34557
31365,43517,34520
31344,43508,34511
31306,43522,34508
31312,43485,34484
31292,43516,34505
31236,43516,34436
31224,43524,34439
31264,43537,34393
31328,43487,34393
31380,43536,34340
31370,43511,34333
31356,43527,34319
31366,43460,34289
31376,43488,34294
31400,43527,34232
31380,43525,34215
31392,43541,34237
31412,43524,34156
31493,43545,34141
31560,43524,34156
31616,43527,34073
31621,43460,34053
31576,43527,34065
31588,43513,34021
31556,43526,33974
31544,43527,34009
31516,43527,33927
31544,43527,33924
31632,43527,33874
31722,43476,33841
31752,43508,33812
31810,43512,33799
31844,43518,33764
31824,43520,33776
31820,43527,33727
31793,43524,33753
31800,43541,33664
31868,43524,33645
31972,43527,33676
32024,43524,33596
32093,43503,33592
32153,43527,33544
32212,43516,33551
32320,43516,33508
32372,43501,33556
32392,43524,33436
32472,43519,33462
32602,43478,33430
32740,43520,33463
32816,43527,33344
32912,43466,33336
32988,43520,33305
33052,43476,33306
33134,43508,33365
33156,43524,33265
33180,43524,33252
33244,43516,33256
33350,43476,33212
33460,43526,33196
33556,43517,33193
33600,43500,33169
33644,43492,33204
33660,43500,33135
33672,43503,33144
33644,43503,33105
33597,43483,33109
33592,43519,33041
33632,43512,33049
33728,43500,33028
33760,43508,33072
33729,43500,32957
33680,43497,33004
33664,43450,33005
33625,43444,32992
33548,43487,33058
33480,43492,32974
33484,43480,33008
33504,43494,32957
33536,43488,32952
33600,43493,32925
33584,43492,32933
33564,43476,32969
33520,43481,32948
33493,43461,32940
33440,43484,32912
33364,43485,32877
33376,43433,32901
33428,43492,32976
33488,43476,32894
33500,43478,32895
33460,43487,32908
33420,43486,32900
33404,43465,32893
33392,43468,32948
33328,43471,32876
33264,43476,32901
33224,43463,32833
33244,43469,32848
33288,43472,32824
33303,43476,32852
33300,43421,32909
33280,43448,32836
33265,43476,32840
33224,43468,32820
33224,43465,32788
33164,43464,32805
33136,43457,32796
33180,43470,32807
33220,43472,32764
33248,43413,32788
33245,43427,32758
33216,43452,32775
33208,43471,32740
33184,43463,32751
33152,43438,32775
33092,43452,32740
33064,43468,32807
33124,43456,32724
33180,43466,32704
33230,43462,32726
33233,43399,32783
33192,43460,32743
33148,43452,32811
33132,43452,32693
33108,43436,32687
33052,43440,32753
33044,43470,32673
33048,43476,32688
33104,43468,32684
33141,43463,32762
33120,43449,32695
33088,43455,32768
33056,43397,32669
33060,43428,32717
33060,43442,32687
33056,43452,32712
33028,43446,32655
33016,43448,32668
33080,43463,32741
33110,43460,32668
33088,43420,32679
33056,43416,32669
33045,43449,32749
33020,43439,32673
32984,43444,32728
32912,43420,32647
32856,43429,32660
32861,43457,32615
32908,43441,32631
32970,43445,32680
32964,43388,32647
32940,43436,32661
32912,43420,32615
32876,43423,32628
32784,43375,32655
32716,43436,32629
32688,43420,32605
32736,43428,32668
32820,43429,32574
32864,43421,32599
32880,43429,32636
32896,43367,32544
32896,43423,32548
32852,43406,32609
32788,43367,32597
32720,43415,32504
32684,43420,32511
32720,43431,32592
32736,43414,32502
32768,43404,32484
32768,43420,32564
32784,43416,32472
32756,43364,32485
32760,43390,32441
32724,43415,32460
32648,43416,32519
32645,43404,32422
32686,43431,32388
32760,43367,32444
32804,43408,32388
32784,43424,32436
32760,43399,32390
32762,43412,32448
32758,43412,32329
32724,43429,32327
32676,43416,32426
32652,43416,32332
32684,43415,32352
32752,43429,32263
32800,43415,32296
32772,43420,32356
32760,43420,32266
32768,43421,32357
32792,43384,32270
32750,43436,32239
32669,43404,32337
32644,43431,32214
32644,43393,32226
32712,43433,32256
32752,43428,32276
32744,43437,32173
32736,43429,32203
32708,43423,32276
32676,43407,32186
32644,43421,32167
32580,43396,32261
32544,43414,32173
32592,43431,32214
32636,43428,32125
32669,43436,32148
32636,43429,32140
32580,43412,32196
32528,43408,32147
32484,43335,32122
32440,43399,32226
32372,43391,32132
32380,43384,32135
32376,43356,32204
32424,43368,32116
32444,43360,32109
32392,43296,32215
32392,43350,32117
32460,43335,32124
32486,43271,32101
32504,43332,32198
32489,43308,32094
32488,43317,32092
32546,43309,32081
32648,43304,32186
32732,43309,32064
32748,43244,32089
32728,43287,32106
32712,43271,32154
32756,43265,32084
32724,43269,32139
32672,43260,32048
32652,43266,32049
32648,43237,32132
32726,43248,32023
32780,43216,32055
32744,43226,32077
32668,43224,31989
32684,43216,32012
32684,43143,32089
32624,43204,31997
32580,43196,31984
32580,43195,32100
32632,43196,31969
32688,43184,31990
32709,43196,32061
32714,43132,31956
32692,43176,31984
32696,43179,32030
32692,43109,32007
32666,43169,31958
32616,43143,31972
32588,43152,31913
32593,43157,31924
32644,43103,31895
32700,43154,31932
32692,43131,32020
32688,43121,31908
32664,43104,31918
32664,43087,31961
32608,43102,31943
32541,43096,31916
32520,43076,31884
32532,43037,32007
32588,43077,31872
32672,43079,31909
32676,43062,31879
32644,43053,31941
32634,43013,31984
32604,43045,31892
32524,43033,31900
32400,43033,31988
32336,42988,31903
32252,43031,31886
32108,43015,31988
32080,42980,31876
32221,43005,31884
32360,42994,31945
32428,42988,31868
32464,42989,31877
32809,42975,31992
33440,42956,31888
34068,42981,31888
34432,42997,31957
34708,42992,31909
35072,43000,31913
35756,43004,31884
36620,43012,31868
37324,43012,31900
36848,43039,31948
35428,43055,31916
34852,43071,31924
35305,43060,31908
36052,43066,31887
36816,43053,31884
37736,43024,31909
39056,43004,31873
39132,42964,31852
37856,43012,31846
36224,43014,31820
34373,43007,31922
32756,43015,31781
31704,43015,31793
31056,43015,31884
30808,43015,31772
30740,42982,31768
30721,43007,31785
30710,42945,31749
30692,43015,31804
30680,42980,31683
30648,42991,31677
30560,42948,31776
30540,42973,31686
30549,42989,31717
30616,42980,31622
30676,42937,31629
30632,42982,31720
30644,42980,31637
30604,42953,31678
30608,42964,31644
30549,42887,31620
30520,42967,31597
30506,42957,31626
30498,42958,31599
30630,42956,31672
30692,42953,31580
30724,42892,31583
30693,42887,31525
30672,42940,31526
30672,42942,31548
30676,42938,31520
30616,42935,31530
30604,42929,31493
30660,42927,31495
30752,42935,31470
30812,42927,31513
30804,42934,31463
30796,42929,31544
30784,42887,31404
30764,42919,31382
30736,42906,31345
30712,42917,31348
30716,42927,31357
30752,42929,31345
30816,42898,31406
30878,42933,31311
30864,42875,31367
30828,42934,31270
30828,42935,31301
30804,42924,31245
30784,42938,31236
30696,42940,31317
30664,42886,31164
30708,42951,31204
30804,42924,31173
30869,42935,31281
30840,42926,31134
30820,42895,31144
30788,42864,31207
30772,42925,31162
30748,42916,31145
30664,42919,31093
30632,42924,31124
30648,42860,31212
30700,42940,31085
30788,42918,31134
30776,42917,31204
30760,42916,31086
30770,42929,31111
30752,42928,31161
30736,42929,31038
30664,42945,31108
30628,42887,31076
30684,42948,31182
30752,42940,31047
30812,42953,31056
30797,42893,31053
30759,42953,31128
30732,42942,30997
30720,42943,31032
30686,42886,31045
30620,42940,30970
30620,42943,31018
30648,42950,30997
30706,42940,31089
30776,42953,30959
30788,42955,30957
30784,42960,30983
30756,42901,30977
30752,42964,30984
30713,42980,30908
30642,42969,30965
30632,42988,30951
30656,42940,31058
30724,43004,30900
30764,43004,30953
30796,42996,31053
30780,43004,30932
30776,42951,30916
30798,43012,31060
30788,43000,30914
30788,43015,30926
30784,42977,31053
30836,43053,30914
30912,43049,30990
31018,43044,30948
31030,43045,31040
31112,43029,31072
31204,43044,30961
31301,43046,31010
31384,43060,31113
31460,43052,30996
31600,43061,31012
31744,43076,31149
31936,43057,31012
32217,43044,31069
32344,43055,31030
32464,43063,31108
32640,43056,31212
32748,43047,31111
32872,43055,31124
32936,43015,31236
33016,43084,31209
33152,43068,31143
33324,43070,31164
33492,43077,31312
33616,43005,31238
33676,43064,31258
33744,43063,31209
33829,43047,31252
33852,43055,31256
33815,43054,31306
33852,43063,31407
33916,43065,31300
34000,43015,31364
34092,43064,31345
34100,43052,31398
34092,43047,31520
34068,43053,31436
34044,43049,31544
34036,43004,31453
34000,43055,31563
33956,43057,31501
33960,43069,31593
34024,43052,31532
34096,43060,31608
34080,43012,31525
34049,43069,31548
34036,43040,31700
34028,43055,31618
34008,43054,31652
33924,43053,31618
33892,43060,31677
33904,43015,31784
33944,43079,31736
34012,43040,31814
34000,43063,31748
33928,43062,31863
33908,43066,31808
33900,42997,31878
33836,43055,31854
33742,43079,31924
33704,43076,31887
33740,43080,31927
33796,43076,31947
33856,43068,32026
33828,43068,31993
33808,43070,32084
33804,43066,32076
33780,43062,32190
33728,43081,32128
33640,43044,32184
33600,43085,32140
33640,43078,32202
33692,43076,32311
33780,43076,32261
33752,43015,32263
33716,43076,32311
33664,43073,32330
33672,43060,32343
33636,43060,32417
33560,43078,32398
33524,43073,32519
33540,43079,32494
33616,43077,32580
33697,43068,32528
33700,43079,32602
33664,43079,32548
33656,43079,32585
33668,43073,32714
33640,43049,32623
33536,43076,32693
33520,43089,32716
33528,43083,32785
33604,43033,32740
33664,43087,32760
33673,43072,32870
33676,43073,32795
33620,43068,32852
33600,43065,32852
33584,43015,32929
33536,43072,32936
33516,43079,32934
33552,43015,32946
33588,43076,33044
33668,43076,32970
33652,43009,33000
33634,43064,33093
33604,43053,33031
33628,43052,33068
33569,43068,33143
33520,43060,33124
33480,43078,33081
33538,43068,33126
33601,43061,33142
33668,43070,33146
33652,43079,33207
33608,43076,33209
33600,43057,33200
33600,43015,33192
33584,43076,33271
33512,43069,33204
33496,43076,33246
33532,43092,33238
33588,43076,33319
33608,43049,33280
33570,43086,33284
33552,43079,33273
33524,43021,33351
33533,43068,33270
33456,43079,33300
33404,43100,33284
33368,43088,33361
33372,43055,33276
33440,43111,33311
33528,43084,33327
33500,43097,33321
33472,43089,33304
33453,43078,33287
33420,43090,33368
33388,43066,33284
33326,43084,33287
33284,43109,33369
33348,43097,33301
33396,43067,33278
33437,43116,33364
33440,43111,33264
33444,43076,33287
33376,43077,33277
33309,43101,33348
33248,43103,33254
33216,43119,33284
33188,43127,33328
33204,43132,33253
33248,43133,33269
33292,43132,33300
33272,43132,33257
33234,43125,33245
33216,43134,33316
33192,43125,33228
33148,43139,33255
33053,43144,33218
32981,43154,33264
32968,43103,33204
33012,43164,33225
33108,43144,33253
33080,43157,33228
33045,43152,33216
33002,43156,33275
32976,43141,33180
32938,43144,33219
32892,43164,33175
32832,43104,33207
32864,43175,33196
33005,43156,33193
33120,43170,33245
33152,43156,33162
33196,43111,33167
33216,43116,33168
33220,43152,33158
33224,43159,33212
33188,43164,33158
33164,43172,33174
33228,43177,33161
33276,43143,33172
33336,43167,33162
33309,43169,33225
33284,43109,33140
33248,43159,33164
33204,43158,33169
33216,43111,33118
33176,43146,33138
33120,43172,33207
33142,43163,33151
33220,43175,33164
33212,43172,33151
33184,43125,33157
33192,43175,33133
33161,43162,33196
33140,43156,33130
33116,43116,33143
33056,43132,33185
33056,43181,33148
33080,43172,33188
33132,43173,33131
33180,43143,33125
33124,43181,33220
33064,43164,33136
33012,43164,33159
33008,43108,33125
32964,43176,33149
32916,43173,33168
32912,43124,33125
32960,43186,33164
33010,43188,33144
33088,43139,33201
33106,43188,33164
33093,43172,33157
33080,43143,33132
32968,43151,33146
32932,43188,33221
32876,43180,33180
32840,43193,33228
32856,43164,33153
32864,43200,33159
32894,43191,33201
32860,43207,33161
32816,43201,33183
32716,43186,33252
32484,43197,33156
32277,43182,33175
32325,43212,33199
32404,43201,33189
32548,43223,33252
32594,43165,33190
32877,43217,33188
33420,43212,33224
34056,43220,33200
34424,43230,33253
34624,43214,33184
34892,43233,33204
35404,43260,33185
36284,43271,33218
37136,43295,33206
37164,43319,33287
36028,43325,33193
35229,43348,33241
35556,43340,33206
36368,43296,33201
37175,43336,33263
37980,43324,33204
39228,43316,33204
39524,43309,33263
38349,43319,33183
36732,43316,33188
35032,43271,33265
33448,43313,33167
32312,43325,33182
31564,43270,33238
31204,43328,33157
30980,43309,33153
30900,43333,33119
30840,43319,33132
30892,43317,33133
30943,43325,33122
31004,43326,33127
31008,43303,33110
30989,43337,33132
30948,43322,33101
30924,43303,33156
30908,43325,33076
30844,43264,33096
30844,43340,33029
30884,43329,33068
30964,43322,33153
31028,43325,33070
31005,43335,33084
31012,43326,33153
30996,43316,33069
31012,43321,33092
30985,43269,33104
30913,43296,33104
30872,43341,33149
30920,43324,33065
30966,43327,33096
31032,43309,33159
31065,43332,33069
31052,43271,33079
31044,43332,33109
31048,43323,33080
31036,43328,33077
30964,43338,33068
30976,43325,33060
31020,43343,33120
31072,43279,33045
31148,43340,33089
31158,43328,33022
31148,43343,33069
31141,43347,32999
31136,43284,33055
31093,43342,32985
31028,43343,32943
30984,43350,32948
30985,43356,32965
31061,43365,32940
31152,43344,33021
31172,43365,32933
31144,43351,33003
31128,43357,32952
31112,43356,33004
31076,43352,32936
31016,43324,32968
30996,43348,32913
31005,43375,32919
31076,43359,32968
31112,43316,32921
31124,43365,32943
31096,43365,32996
31070,43368,32933
31024,43375,32998
31004,43301,32916
30944,43388,32916
30948,43365,32961
30980,43372,32933
31040,43385,32996
31101,43332,32951
31100,43396,33004
31076,43389,32929
31044,43380,32965
31040,43375,32932
30997,43376,32918
30928,43328,32885
30880,43394,32903
30892,43391,32968
30940,43399,32912
30973,43412,32950
30960,43361,32909
30948,43409,32941
30956,43420,32864
30948,43405,32900
30924,43420,32964
30860,43357,32879
30848,43445,32856
30844,43436,32916
30888,43446,32872
30948,43441,32903
30960,43447,32857
30948,43437,32860
30960,43438,32897
30960,43444,32877
30936,43452,32944
30920,43453,32868
30917,43473,32900
30968,43482,32871
31048,43472,32959
31136,43490,32887
31140,43484,32887
31128,43489,32969
31165,43488,32878
31216,43428,32903
31236,43485,32968
31213,43511,32894
31264,43500,32937
31344,43516,33017
31512,43524,32951
31700,43516,33015
31836,43519,32959
31948,43517,32990
32064,43502,32972
32213,43511,33064
32352,43460,32988
32420,43508,33031
32532,43524,33018
32692,43521,33044
32876,43524,33102
33064,43527,33041
33185,43479,33045
33293,43527,33132
33388,43536,33073
33440,43524,33089
33492,43527,33116
33512,43527,33095
33548,43527,33154
33644,43542,33141
33788,43550,33189
33896,43503,33156
33953,43512,33201
33984,43508,33156
34028,43527,33151
34016,43526,33176
34016,43527,33175
33968,43544,33209
33952,43527,33224
33968,43548,33237
34044,43508,33278
34136,43557,33244
34140,43550,33308
34112,43557,33294
34085,43554,33334
34048,43552,33324
34048,43551,33408
33980,43556,33344
33917,43564,33388
33888,43572,33381
33924,43564,33404
33984,43564,33484
33988,43572,33453
33948,43518,33505
33916,43568,33477
33897,43556,33517
33880,43572,33484
33836,43569,33585
33832,43580,33549
33856,43527,33602
33920,43584,33572
34000,43580,33616
33960,43564,33601
33960,43565,33644
33949,43564,33653
33950,43565,33703
33920,43578,33696
33840,43574,33742
33788,43595,33748
33768,43585,33773
33808,43588,33844
33864,43548,33819
33820,43597,33860
33776,43590,33856
33776,43595,33900
33772,43588,33886
33752,43597,33911
33712,43594,33940
33680,43614,33917
33728,43582,33951
33784,43618,34006
33836,43609,34008
33824,43604,34079
33792,43610,34020
33792,43600,34020
33796,43605,34069
33764,43615,34060
33712,43620,34096
33694,43629,34158
33696,43618,34141
33740,43631,34193
33824,43633,34168
33796,43588,34228
33712,43598,34197
33700,43636,34248
33700,43616,34213
33688,43617,34220
33636,43628,34213
33580,43592,34236
33629,43652,34225
33680,43625,34245
33748,43647,34252
33741,43649,34272
33720,43636,34276
33708,43629,34292
33732,43623,34296
33716,43642,34337
33622,43600,34311
33596,43648,34356
33620,43655,34311
33628,43655,34346
33676,43652,34371
33676,43655,34353
33668,43620,34404
33636,43607,34364
33633,43668,34368
33604,43661,34350
33564,43655,34360
33540,43668,34388
33580,43687,34388
33644,43687,34436
33696,43621,34398
33684,43679,34399
33672,43664,34369
33664,43671,34388
33641,43665,34369
33616,43680,34390
33544,43684,34407
33488,43687,34385
33484,43669,34412
33556,43678,34458
33632,43621,34407
33584,43693,34405
33572,43663,34460
33552,43669,34420
33556,43670,34461
33524,43676,34399
33460,43690,34407
33420,43678,34391
33436,43684,34412
33452,43684,34400
33480,43687,34428
33464,43694,34389
33448,43639,34412
33468,43688,34454
33453,43684,34406
33408,43700,34420
33332,43710,34447
33304,43719,34402
33348,43684,34431
33436,43716,34392
33496,43716,34404
33492,43724,34428
33468,43685,34406
33444,43716,34415
33433,43708,34393
33390,43704,34428
33284,43714,34383
33216,43724,34388
33177,43751,34413
33220,43740,34380
33296,43724,34407
33256,43732,34437
33264,43714,34378
33260,43724,34385
33260,43717,34414
33216,43670,34397
33120,43743,34396
33104,43732,34393
33183,43743,34438
33260,43702,34380
33316,43744,34397
33280,43740,34439
33268,43685,34381
33292,43724,34417
33288,43724,34444
33304,43728,34404
33228,43719,34412
33220,43749,34428
33284,43743,34404
33388,43732,34417
33465,43744,34405
33493,43743,34444
33464,43684,34417
33428,43740,34437
33420,43740,34420
33390,43750,34440
33360,43748,34429
33318,43744,34461
33337,43755,34442
33372,43749,34460
33388,43756,34431
33380,43692,34477
33344,43735,34446
33344,43751,34469
33308,43742,34516
33260,43756,34465
33180,43757,34506
33164,43751,34464
33180,43756,34480
33224,43720,34524
33313,43752,34497
33316,43751,34525
33278,43744,34489
33221,43748,34502
33244,43750,34480
33264,43759,34510
33212,43766,34528
33180,43773,34500
33164,43762,34444
33208,43772,34512
33292,43765,34532
33284,43728,34541
33297,43772,34542
33285,43761,34520
33260,43769,34526
33242,43735,34559
33157,43772,34540
33104,43783,34551
33129,43780,34556
33160,43783,34559
33186,43790,34529
33152,43780,34566
33088,43764,34548
32960,43772,34554
32748,43773,34548
32644,43781,34599
32712,43783,34565
32832,43796,34614
32862,43733,34587
32896,43783,34601
33176,43819,34576
33656,43816,34566
34032,43813,34608
34136,43813,34575
34352,43834,34594
34684,43847,34591
35260,43823,34605
36004,43892,34584
36520,43916,34617
35752,43943,34597
34396,43951,34644
33920,43958,34616
34506,43940,34622
35684,43956,34612
36820,43945,34567
38156,43933,34608
39528,43922,34648
39372,43928,34605
38168,43922,34596
36648,43928,34652
35076,43943,34605
33668,43885,34624
32706,43937,34572
32088,43941,34596
31708,43917,34551
31520,43916,34564
31426,43927,34543
31400,43935,34554
31444,43903,34591
31504,43895,34541
31556,43945,34559
31524,43911,34524
31476,43925,34543
31428,43876,34504
31396,43880,34516
31352,43920,34494
31256,43932,34500
31252,43905,34457
31222,43951,34460
31328,43927,34499
31412,43938,34444
31449,43922,34436
31413,43909,34413
31424,43932,34385
31460,43916,34396
31488,43925,34389
31453,43916,34431
31461,43916,34366
31488,43919,34350
31544,43929,34336
31620,43941,34311
31604,43911,34333
31532,43932,34354
31520,43917,34302
31517,43919,34333
31516,43925,34260
31448,43929,34295
31396,43879,34216
31433,43956,34194
31508,43948,34183
31624,43940,34160
31624,43949,34180
31612,43940,34149
31616,43945,34103
31597,43918,34098
31541,43928,34025
31476,43893,34045
31436,43948,34023
31449,43953,34044
31488,43959,33991
31541,43933,34020
31540,43958,33959
31492,43940,33962
31476,43940,33929
31476,43960,33944
31476,43952,33933
31460,43920,33990
31440,43972,33895
31440,43979,33916
31477,43919,33956
31504,43992,33873
31473,43993,33903
31400,43981,33941
31364,43986,33916
31360,43976,33962
31412,43996,33890
31388,43959,33880
31348,44020,33956
31389,44012,33888
31484,43992,33900
31564,44028,33948
31596,44020,33945
31588,44024,33879
31536,44008,33914
31476,44039,33969
31440,44030,33885
31413,44036,33904
31380,44039,33958
31360,44061,33902
31356,44023,33902
31408,44039,33935
31440,44063,33887
31436,44068,33897
31436,44004,33901
31432,44039,33912
31456,44069,33980
31420,44061,33881
31373,44079,33917
31364,44093,33901
31492,44085,33953
31624,44084,33917
31672,44055,33900
31661,44089,33985
31623,44079,33892
31616,44032,33921
31616,44098,33977
31628,44088,33984
31644,44105,33932
31656,44108,33909
31644,44125,34012
31684,44116,33901
31716,44133,33948
31648,44071,33965
31669,44097,33932
31684,44141,33961
31716,44148,34029
31773,44157,33956
31817,44140,33959
31956,44155,34016
32136,44116,33975
32241,44181,33988
32348,44151,34073
32420,44165,33972
32536,44117,34028
32704,44164,34042
32821,44164,34069
32908,44167,34061
32964,44132,34117
33064,44152,34055
33184,44196,34101
33316,44188,34137
33425,44172,34175
33529,44134,34112
33636,44183,34157
33724,44180,34128
33817,44165,34153
33888,44181,34194
33981,44183,34199
34041,44192,34212
34138,44177,34183
34204,44197,34223
34216,44159,34297
34232,44191,34233
34212,44188,34257
34220,44180,34337
34293,44160,34324
34242,44167,34311
34216,44197,34389
34260,44136,34354
34336,44167,34429
34364,44192,34386
34352,44197,34438
34373,44173,34424
34432,44188,34492
34429,44197,34454
34368,44156,34505
34254,44192,34477
34220,44204,34525
34232,44199,34500
34260,44207,34548
34280,44199,34624
34240,44197,34588
34228,44143,34662
34194,44204,34612
34165,44195,34647
34120,44196,34693
34048,44215,34732
34004,44188,34730
34008,44196,34784
34052,44215,34781
34072,44231,34789
34080,44183,34823
34072,44196,34864
34080,44148,34863
34060,44207,34871
34040,44209,34948
33980,44164,34901
33904,44221,34948
33929,44218,34964
33968,44225,35008
33988,44201,35010
33964,44223,35033
33980,44212,35103
33956,44223,35058
33964,44197,35105
33980,44189,35108
33980,44216,35174
33992,44193,35162
34012,44229,35189
34040,44231,35231
34116,44231,35219
34100,44243,35244
34044,44223,35280
34012,44232,35268
33972,44215,35308
33940,44237,35350
33904,44249,35371
33848,44240,35335
33896,44249,35377
33936,44252,35380
34013,44261,35444
34008,44258,35405
34024,44247,35436
34021,44252,35479
33952,44252,35456
33828,44208,35484
33712,44268,35527
33656,44271,35492
33696,44257,35522
33780,44278,35577
33812,44257,35529
33848,44269,35561
33848,44284,35559
33804,44228,35577
33764,44287,35620
33696,44276,35594
33624,44288,35623
33600,44308,35580
33689,44305,35626
33693,44309,35660
33772,44324,35627
33768,44301,35628
33748,44264,35662
33688,44325,35620
33688,44304,35636
33692,44316,35672
33696,44312,35643
33640,44340,35636
33584,44346,35647
33528,44335,35624
33524,44348,35636
33480,44341,35636
33496,44354,35631
33468,44341,35649
33488,44348,35613
33509,44308,35620
33516,44344,35615
33472,44368,35633
33460,44376,35608
33512,44375,35590
33600,44380,35591
33632,44364,35612
33604,44389,35564
33584,44359,35564
33564,44354,35565
33525,44374,35564
33436,44388,35591
33372,44372,35552
33368,44412,35544
33352,44415,35532
33340,44420,35485
33300,44413,35518
33240,44391,35508
33196,44420,35534
33144,44405,35492
33108,44413,35488
33057,44377,35503
33024,44441,35484
32996,44423,35466
33040,44445,35460
33104,44455,35444
33112,44423,35453
33120,44460,35464
33136,44446,35422
33130,44448,35436
33142,44421,35422
33128,44470,35413
33096,44474,35437
33113,44464,35396
33225,44487,35388
33348,44432,35366
33364,44488,35372
33334,44464,35356
33280,44473,35352
33260,44480,35391
33224,44455,35325
33156,44480,35324
33144,44510,35352
33156,44512,35308
33196,44501,35308
33236,44512,35329
33268,44522,35313
33256,44500,35256
33208,44504,35268
33184,44452,35248
33188,44524,35284
33120,44496,35217
33040,44517,35209
33028,44528,35237
33062,44541,35214
33116,44544,35212
33100,44476,35202
33084,44529,35180
33120,44544,35189
33117,44533,35156
33086,44551,35140
33028,44535,35128
32964,44564,35124
32948,44551,35108
32948,44568,35093
33024,44513,35073
33044,44583,35068
33044,44580,35077
33012,44573,35022
33004,44568,35045
32996,44573,34981
32924,44550,34983
32860,44591,35028
32856,44589,34949
32916,44599,34944
32972,44607,34985
32988,44577,34893
32920,44606,34908
32884,44596,34891
32816,44605,34934
32708,44625,34872
32533,44609,34835
32248,44631,34832
31988,44573,34868
32000,44640,34768
32184,44617,34772
32300,44639,34745
32220,44639,34788
32268,44652,34732
32728,44640,34763
33376,44660,34664
33604,44628,34669
33708,44700,34719
34080,44703,34601
34564,44732,34616
35292,44676,34660
36156,44749,34552
36140,44751,34556
34692,44775,34604
33616,44729,34486
33612,44775,34485
34328,44799,34473
35438,44793,34431
36516,44775,34485
38180,44772,34368
39165,44717,34385
38516,44761,34336
37260,44752,34381
35812,44746,34333
34368,44748,34260
33156,44757,34256
32328,44764,34204
31752,44772,34254
31316,44768,34127
31133,44761,34150
31064,44772,34109
31024,44773,34156
30948,44711,34014
30896,44744,34009
30852,44756,33973
30828,44700,33980
30756,44770,33998
30724,44780,33861
30696,44780,33873
30712,44765,33822
30796,44740,33842
30800,44772,33742
30794,44780,33735
30784,44772,33799
30776,44757,33663
30792,44700,33630
30752,44767,33679
30710,44773,33540
30768,44708,33559
30824,44788,33487
30852,44775,33510
30830,44711,33518
30828,44780,33361
30824,44759,33378
30796,44765,33297
30772,44780,33316
30724,44769,33334
30668,44768,33188
30692,44708,33140
30744,44780,33231
30844,44781,33060
30880,44780,33012
30820,44727,33088
30796,44777,32965
30796,44773,32951
30794,44772,32831
30736,44716,32804
30692,44802,32783
30716,44788,32764
30748,44743,32796
30821,44801,32637
30792,44789,32657
30792,44716,32722
30776,44772,32549
30760,44788,32550
30732,44791,32628
30664,44788,32466
30596,44799,32477
30616,44807,32408
30672,44807,32450
30724,44788,32420
30716,44821,32439
30688,44790,32391
30656,44807,32438
30656,44813,32292
30616,44795,32303
30580,44808,32421
30536,44807,32301
30544,44824,32357
30593,44825,32210
30620,44827,32228
30606,44828,32351
30588,44780,32188
30560,44807,32208
30584,44812,32316
30592,44834,32184
30500,44771,32176
30420,44855,32124
30428,44837,32157
30528,44855,32119
30616,44863,32212
30612,44836,32101
30572,44831,32036
30573,44836,32057
30576,44839,32053
30564,44855,32084
30521,44837,32068
30520,44852,32028
30576,44866,32100
30634,44873,31941
30732,44855,31969
30780,44866,31934
30816,44807,31924
30845,44857,32052
30844,44857,31852
30853,44856,31895
30820,44877,31949
30790,44868,31901
30872,44878,31865
30924,44881,31916
31028,44884,31824
31088,44823,31812
31096,44881,31940
31112,44870,31775
31148,44887,31828
31164,44884,31909
31144,44895,31748
31120,44895,31764
31218,44829,31919
31310,44912,31732
31456,44892,31777
31508,44893,31879
31564,44893,31743
31654,44900,31778
31722,44885,31773
31816,44854,31857
31852,44901,31708
31900,44900,31786
32017,44896,31856
32161,44839,31712
32328,44864,31789
32369,44902,31905
32452,44876,31729
32527,44873,31764
32604,44864,31828
32670,44825,31805
32724,44885,31845
32788,44868,31743
32876,44873,31815
33000,44879,31817
33140,44866,31936
33221,44861,31808
33284,44852,31808
33328,44847,31958
33324,44847,31860
33340,44854,31872
33313,44788,31852
33336,44862,31994
33380,44852,31845
33444,44852,31881
33532,44853,32021
33556,44828,31892
33520,44844,31940
33484,44831,32048
33472,44828,31925
33452,44783,31940
33378,44829,32106
33310,44833,31987
33316,44828,32117
33384,44837,31972
33444,44781,32020
33436,44788,32157
33406,44836,32028
33376,44823,32064
33372,44823,32165
33332,44773,32132
33248,44824,32233
33196,44829,32113
33164,44825,32154
33236,44828,32129
33324,44830,32172
33324,44821,32249
33272,44788,32225
33220,44822,32217
33200,44807,32367
33164,44807,32300
33092,44775,32304
33036,44828,32365
33049,44817,32361
33124,44825,32454
33152,44824,32360
33172,44812,32368
33152,44783,32492
33133,44796,32452
33113,44799,32535
33097,44764,32426
33064,44804,32503
33028,44800,32586
33048,44807,32493
33077,44775,32529
33152,44782,32528
33149,44796,32553
33140,44807,32548
33140,44789,32625
33101,44784,32740
33120,44775,32660
33056,44796,32737
33000,44740,32682
33024,44790,32751
33080,44806,32652
33160,44793,32724
33210,44789,32820
33177,44791,32741
33172,44791,32768
33124,44744,32866
33108,44785,32797
33060,44788,32813
33028,44799,32836
33024,44751,32815
33092,44806,32941
33193,44789,32860
33216,44797,32976
33184,44788,32892
33144,44724,32970
33148,44793,32884
33148,44773,32896
33080,44781,33026
33044,44774,32902
33048,44796,32932
33089,44780,32988
33120,44792,32977
33152,44728,32963
33150,44790,33024
33152,44773,32983
33168,44768,33060
33166,44751,33008
33100,44768,33076
33061,44773,32992
33040,44708,33045
33068,44783,32972
33093,44758,33004
33128,44713,33008
33097,44765,33125
33096,44756,33013
33068,44759,33012
33048,44694,33065
33020,44768,33045
32972,44759,33088
32965,44775,33060
33013,44781,33036
33076,44748,33020
33110,44764,33140
33077,44772,33001
33068,44748,33031
33080,44701,33008
33062,44751,33109
33004,44748,32993
32964,44709,33004
32956,44764,33117
32976,44752,32988
33036,44757,33030
33069,44704,33028
33044,44749,33096
33060,44740,32989
33048,44749,32974
33076,44689,33051
33056,44740,32980
32988,44748,32972
32968,44692,33076
33000,44708,32956
33012,44757,32950
32992,44745,33076
32964,44749,32944
32900,44721,32971
32848,44695,32912
32848,44724,33006
32772,44764,32895
32692,44744,32909
32692,44752,32941
32752,44772,32919
32797,44761,32958
32800,44751,32999
32776,44764,32882
32806,44716,32873
32864,44765,32909
32900,44744,32893
32864,44760,32854
32868,44775,32973
32880,44714,32849
32953,44782,32836
33028,44780,32934
33084,44777,32853
33064,44748,32953
33056,44749,32836
33052,44753,32868
33056,44749,32789
33000,44719,32808
32953,44768,32903
32952,44736,32805
32965,44766,32817
33025,44711,32924
33044,44784,32799
33028,44765,32809
33012,44760,32881
32968,44711,32780
32904,44769,32781
32868,44774,32828
32840,44772,32768
32820,44774,32775
32860,44781,32872
32936,44772,32740
32988,44771,32800
32992,44769,32858
33008,44709,32764
32957,44768,32752
32932,44756,32756
32864,44774,32887
32808,44728,32764
32822,44756,32748
32880,44772,32861
32941,44728,32752
32956,44774,32785
32912,44772,32724
32880,44772,32732
32884,44768,32858
32848,44753,32743
32760,44769,32836
32720,44780,32730
32720,44716,32720
32760,44780,32835
32832,44765,32757
32832,44780,32799
32804,44735,32711
32772,44751,32790
32750,44765,32689
32737,44763,32718
32668,44760,32676
32566,44713,32708
32480,44775,32829
32356,44766,32708
32320,44771,32688
32396,44732,32649
32524,44761,32700
32621,44744,32755
32640,44747,32644
32932,44684,32692
33532,44708,32692
34124,44767,32697
34528,44772,32737
34772,44774,32629
35068,44789,32687
35656,44792,32764
36548,44797,32655
37372,44801,32716
37268,44800,32653
35868,44813,32676
35036,44856,32598
35388,44854,32624
36204,44862,32654
37068,44867,32629
38260,44800,32684
39788,44823,32604
40012,44817,32505
38640,44807,32620
36844,44808,32577
34932,44820,32642
33212,44821,32536
31982,44821,32508
31272,44829,32618
30952,44823,32532
30878,44835,32588
30908,44827,32468
30922,44807,32441
30896,44799,32432
30861,44796,32464
30836,44804,32396
30756,44799,32441
30708,44796,32396
30728,44751,32484
30749,44790,32381
30836,44804,32417
30881,44804,32348
30873,44804,32303
30864,44780,32316
30880,44764,32417
30842,44764,32296
30780,44760,32281
30724,44767,32332
30736,44767,32313
30820,44703,32412
30908,44693,32295
30944,44750,32385
30920,44746,32273
30920,44720,32375
30928,44732,32256
30948,44724,32316
30928,44668,32208
30880,44735,32234
30888,44733,32161
30944,44716,32240
31044,44716,32139
31080,44724,32071
31072,44709,32193
31057,44684,32072
31046,44679,32057
31005,44689,31968
30916,44679,31920
30852,44684,32004
30852,44689,31895
30928,44692,31901
31016,44621,31800
31085,44629,31812
31093,44619,31751
31064,44621,31852
31056,44670,31725
31092,44671,31801
31060,44664,31652
30980,44669,31568
30941,44653,31633
30982,44669,31560
31072,44677,31544
31117,44668,31487
31108,44655,31564
31096,44607,31452
31012,44655,31540
30936,44663,31390
30933,44645,31428
30882,44663,31324
30872,44671,31308
30948,44679,31246
31032,44657,31257
31044,44677,31186
31000,44660,31293
30984,44636,31209
30976,44647,31304
30973,44647,31150
30928,44652,31129
30824,44653,31087
30808,44655,31024
30901,44665,31064
31040,44660,30989
31060,44665,31100
31084,44604,30954
31064,44671,30972
31052,44664,30957
31028,44668,30912
30984,44668,30996
30904,44674,30920
30880,44679,31009
30952,44693,30861
31084,44609,30885
31160,44684,30777
31216,44670,30814
31196,44664,30791
31176,44677,30826
31212,44665,30821
31236,44621,30796
31264,44644,30758
31312,44685,30940
31391,44692,30844
31472,44679,30907
31508,44676,30780
31416,44648,30838
31348,44663,30924
31280,44661,30915
31324,44672,30965
31368,44616,30902
31324,44692,30941
31374,44688,30910
31456,44684,30983
31544,44700,31038
31637,44700,31076
31740,44647,31218
31808,44625,31133
31892,44676,31267
31920,44701,31183
32088,44697,31341
32216,44696,31239
32352,44678,31401
32520,44693,31328
32754,44672,31399
32912,44695,31345
32960,44679,31364
33024,44679,31492
33108,44669,31475
33252,44679,31655
33400,44679,31576
33501,44684,31660
33641,44703,31666
33792,44700,31720
34001,44636,31710
34148,44668,31742
34268,44685,31941
34348,44688,31895
34388,44695,31929
34424,44681,31950
34376,44687,31977
34368,44692,32123
34396,44692,32156
34456,44692,32292
34468,44678,32224
34496,44677,32271
34525,44676,32484
34616,44663,32420
34616,44633,32469
34580,44658,32657
34512,44655,32613
34504,44668,32696
34528,44668,32764
34564,44652,32822
34540,44647,32948
34484,44652,32982
34444,44638,33136
34516,44647,33112
34561,44640,33129
34580,44629,33253
34512,44633,33325
34468,44641,33491
34448,44645,33478
34452,44636,33639
34416,44584,33628
34424,44629,33712
34414,44641,33744
34520,44630,33865
34548,44636,33911
34592,44632,33940
34580,44642,34033
34472,44647,34092
34441,44639,34191
34508,44639,34245
34580,44633,34328
34560,44620,34421
34464,44616,34556
34396,44621,34540
34388,44622,34692
34444,44624,34693
34444,44631,34776
34428,44637,34820
34460,44644,34877
34488,44628,34973
34452,44631,35053
34444,44649,35128
34400,44644,35167
34412,44613,35283
34404,44589,35308
34388,44581,35372
34385,44581,35414
34316,44637,35484
34340,44647,35588
34404,44636,35625
34440,44621,35665
34384,44655,35728
34276,44653,35792
34264,44628,35832
34373,44620,35908
34388,44612,35959
34348,44596,36007
34284,44585,36068
34280,44604,36103
34388,44584,36144
34376,44654,36220
34436,44649,36252
34416,44647,36310
34397,44576,36334
34324,44583,36376
34276,44582,36437
34148,44581,36470
34128,44626,36527
34204,44636,36556
34372,44653,36619
34488,44647,36645
34504,44616,36685
34428,44612,36719
34360,44630,36756
34304,44621,36798
34208,44609,36820
34108,44623,36871
34036,44629,36903
34104,44606,36943
34172,44616,36965
34256,44621,37012
34256,44620,37026
34244,44620,37064
34252,44623,37085
34234,44606,37119
34272,44600,37152
34240,44620,37173
34125,44615,37198
34044,44631,37184
34060,44623,37270
34136,44616,37285
34177,44616,37295
34136,44615,37351
34150,44596,37364
34220,44590,37383
34260,44592,37431
34308,44607,37448
34208,44612,37484
34100,44567,37500
34004,44593,37519
33944,44621,37544
33932,44625,37572
33940,44616,37589
33960,44610,37604
34040,44599,37637
34078,44596,37639
33993,44600,37684
33964,44614,37682
33812,44615,37734
33684,44619,37753
33620,44608,37776
33688,44612,37796
33684,44606,37788
33641,44600,37837
33564,44551,37821
33576,44543,37856
33588,44588,37889
33664,44532,37869
33732,44581,37924
33790,44601,37928
33840,44605,37969
33864,44591,37980
33832,44596,37989
33824,44567,38023
33876,44585,38012
33856,44576,38057
33784,44581,38074
33686,44597,38057
33710,44598,38106
33828,44597,38096
33964,44600,38144
34044,44594,38151
33997,44592,38172
33972,44596,38188
33956,44577,38180
33828,44589,38204
33616,44531,38216
33548,44595,38212
33624,44560,38252
33717,44596,38240
33752,44597,38272
33656,44602,38296
33672,44536,38255
33788,44548,38330
33817,44589,38342
33808,44532,38332
33688,44527,38354
33496,44551,38336
33460,44551,38382
33540,44575,38373
33676,44607,38424
33701,44589,38429
33636,44596,38407
33652,44587,38452
33560,44566,38425
33500,44568,38484
33460,44577,38492
33392,44573,38494
33388,44580,38503
33428,44583,38484
33484,44572,38501
33544,44575,38487
33576,44551,38547
33572,44544,38543
33552,44551,38508
33524,44539,38543
33468,44548,38493
33381,44551,38558
33316,44572,38573
33292,44568,38533
33260,44576,38564
33036,44560,38549
32708,44556,38584
32656,44548,38527
32744,44533,38591
32788,44532,38592
32688,44542,38606
32772,44539,38613
33364,44543,38568
34008,44551,38596
34236,44551,38575
34464,44577,38622
34832,44581,38628
35264,44592,38624
35892,44601,38636
36628,44612,38593
36256,44643,38640
34580,44655,38617
33548,44679,38661
33700,44677,38621
34672,44676,38660
35920,44612,38661
37272,44588,38669
39112,44596,38658
39768,44599,38671
38900,44604,38663
37508,44613,38665
36072,44607,38628
34758,44591,38678
33685,44577,38684
33040,44583,38632
32572,44581,38661
32148,44551,38613
31816,44537,38663
31620,44597,38662
31532,44590,38597
31428,44592,38641
31348,44604,38594
31368,44536,38628
31416,44604,38568
31464,44599,38600
31476,44591,38589
31440,44585,38596
31428,44588,38597
31424,44524,38521
31404,44542,38560
31380,44576,38509
31312,44576,38538
31304,44571,38524
31380,44564,38516
31420,44573,38457
31388,44560,38485
31332,44559,38438
31324,44551,38471
31334,44564,38396
31324,44492,38407
31276,44512,38345
31284,44516,38369
31332,44521,38278
31372,44526,38308
31385,44575,38245
31392,44573,38240
31420,44551,38185
31436,44549,38189
31368,44516,38175
31332,44540,38095
31312,44551,38104
31292,44551,38028
31280,44544,38030
31284,44551,38013
31329,44499,37989
31348,44544,37960
31312,44542,37929
31264,44543,37909
31244,44538,37892
31246,44517,37844
31234,44529,37784
31136,44537,37810
31096,44544,37748
31104,44484,37752
31148,44544,37740
31172,44544,37720
31144,44517,37689
31132,44520,37692
31104,44520,37679
31052,44518,37668
31048,44524,37657
30993,44526,37624
30980,44477,37625
31020,44551,37597
31100,44540,37604
31112,44547,37576
31066,44529,37598
31012,44513,37595
30948,44532,37570
30908,44460,37583
30846,44497,37574
30838,44532,37577
30876,44512,37564
30936,44516,37533
31009,44516,37548
31036,44524,37516
31006,44452,37532
31016,44512,37533
31024,44479,37476
30960,44498,37511
30912,44480,37487
30832,44502,37485
30832,44495,37444
30916,44505,37449
31005,44456,37448
31028,44496,37423
30964,44460,37415
30944,44480,37364
30956,44425,37382
30972,44485,37350
30912,44476,37341
30856,44476,37333
30840,44487,37280
30912,44496,37280
31024,44479,37268
31056,44491,37221
31056,44480,37229
31077,44433,37205
31084,44468,37167
31108,44487,37149
31108,44423,37152
31101,44449,37136
31113,44512,37100
31162,44508,37097
31229,44508,37084
31289,44494,37068
31312,44492,37056
31316,44436,37037
31384,44494,36972
31460,44489,36998
31480,44506,36991
31520,44439,36970
31600,44465,36965
31748,44517,36942
31912,44512,36920
32036,44497,36924
32120,44464,36908
32212,44436,36897
32324,44425,36883
32464,44445,36871
32524,44492,36864
32578,44436,36831
32676,44460,36839
32844,44497,36812
33012,44505,36820
33140,44496,36803
33180,44501,36797
33244,44468,36803
33280,44484,36773
33360,44471,36781
33376,44476,36796
33329,44485,36773
33348,44487,36769
33388,44488,36767
33492,44484,36780
33564,44420,36766
33560,44412,36772
33556,44415,36773
33543,44408,36788
33544,44392,36790
33488,44422,36790
33428,44476,36800
33416,44477,36797
33468,44484,36826
33544,44470,36808
33544,44476,36839
33528,44471,36836
33472,44471,36828
33476,44460,36840
33408,44461,36854
33317,44409,36855
33268,44463,36872
33260,44464,36884
33296,44463,36897
33352,44469,36879
33388,44457,36913
33328,44463,36896
33294,44452,36922
33264,44460,36913
33242,44453,36926
33200,44468,36933
33136,44479,36954
33137,44481,36902
33176,44468,36948
33248,44441,36940
33244,44484,36959
33192,44453,36951
33188,44465,36969
33180,44453,36972
33124,44437,36975
33088,44412,36980
33056,44437,36988
33072,44452,36974
33108,44487,36997
33180,44492,36997
33212,44490,37012
33176,44478,36997
33156,44468,37015
33184,44463,37020
33188,44475,37020
33160,44476,37024
33089,44477,37020
33068,44486,37044
33104,44476,37029
33176,44474,37041
33232,44480,37037
33205,44462,37048
33204,44468,37047
33184,44461,37056
33192,44462,37044
33148,44471,37052
33060,44461,37056
33060,44405,37059
33116,44479,37044
33184,44464,37069
33212,44473,37069
33169,44464,37065
33148,44413,37063
33133,44463,37064
33113,44462,37064
33080,44455,37065
32969,44450,37077
32952,44460,37038
33012,44463,37073
33084,44465,37046
33124,44460,37076
33109,44445,37064
33100,44413,37076
33092,44380,37063
33126,44420,37070
33110,44392,37070
33108,44431,37052
33084,44446,37072
33072,44456,37039
33124,44439,37061
33152,44453,37063
33134,44436,37064
33104,44433,37060
33078,44429,37056
33112,44428,37072
33089,44406,37044
33025,44439,37064
33040,44420,37063
33064,44436,37053
33124,44428,37054
33156,44428,37056
33112,44369,37055
33096,44373,37053
33092,44422,37053
33053,44420,37053
32984,44423,37047
32956,44399,37016
32964,44417,37032
33000,44420,37012
33068,44388,37020
33092,44423,37012
33102,44411,36989
33080,44396,36999
33032,44409,36968
32992,44340,36977
32936,44359,36944
32862,44414,36962
32876,44404,36932
32892,44404,36926
32928,44401,36903
32968,44400,36905
32940,44328,36869
32876,44348,36886
32852,44381,36863
32892,44380,36836
32832,44390,36831
32768,44373,36804
32768,44389,36820
32804,44396,36802
32852,44391,36777
32908,44335,36756
32900,44387,36743
32836,44391,36734
32817,44373,36724
32780,44381,36700
32701,44373,36672
32588,44380,36674
32540,44373,36652
32576,44377,36632
32656,44377,36583
32662,44375,36598
32648,44375,36568
32628,44367,36565
32600,44366,36553
32592,44295,36541
32536,44300,36524
32432,44335,36503
32472,44375,36489
32576,44368,36463
32702,44350,36461
32776,44352,36432
32780,44358,36423
32784,44344,36404
32788,44341,36396
32800,44344,36362
32764,44359,36349
32718,44300,36320
32768,44311,36316
32864,44295,36292
32973,44365,36280
32988,44367,36256
32948,44349,36248
32926,44335,36205
32897,44332,36205
32898,44334,36180
32847,44340,36164
32756,44341,36167
32740,44340,36116
32760,44343,36110
32808,44337,36065
32844,44332,36069
32832,44324,36052
32884,44337,36029
32868,44327,36020
32848,44327,36001
32788,44324,35975
32736,44288,35975
32736,44340,35903
32772,44348,35918
32812,44316,35919
32845,44320,35884
32850,44325,35888
32840,44329,35826
32824,44268,35824
32802,44335,35796
32724,44295,35790
32644,44324,35789
32633,44327,35737
32692,44332,35719
32724,44311,35706
32780,44274,35681
32768,44324,35665
32744,44295,35652
32700,44325,35615
32684,44314,35607
32628,44324,35598
32576,44263,35557
32576,44278,35557
32624,44277,35508
32664,44286,35517
32672,44268,35477
32628,44316,35492
32580,44311,35433
32468,44329,35434
32288,44325,35389
32116,44325,35388
32197,44316,35335
32380,44327,35335
32492,44317,35271
32584,44348,35254
32928,44332,35261
33668,44323,35206
34500,44325,35180
35112,44313,35192
35408,44317,35069
35608,44351,35100
36020,44357,35092
36889,44333,35042
37788,44388,35020
37992,44415,34960
36720,44423,34948
35664,44429,34975
35700,44437,34901
36024,44396,34910
36584,44439,34823
37472,44412,34804
39036,44400,34786
39812,44397,34753
38772,44365,34753
36961,44409,34662
34972,44376,34657
33124,44396,34597
31816,44392,34576
31000,44391,34532
30512,44397,34528
30280,44391,34491
30172,44388,34485
30168,44389,34394
30200,44391,34353
30280,44382,34385
30332,44391,34305
30332,44337,34311
30288,44374,34225
30272,44352,34200
30272,44295,34144
30241,44340,34101
30168,44328,34100
30149,44303,34063
30192,44377,34060
30256,44380,34030
30320,44375,34077
30308,44360,33983
30316,44327,33940
30318,44350,33990
30328,44285,33928
30304,44284,33897
30256,44345,33890
30268,44360,33852
30301,44352,33886
30368,44358,33844
30412,44324,33908
30400,44341,33816
30420,44294,33783
30420,44354,33865
30432,44344,33766
30376,44304,33796
30356,44295,33708
30360,44346,33733
30392,44293,33660
30464,44346,33692
30512,44353,33581
30508,44329,33568
30504,44344,33592
30520,44289,33521
30513,44344,33501
30432,44340,33460
30369,44304,33500
30360,44339,33380
30408,44335,33358
30472,44292,33406
30484,44279,33332
30472,44343,33332
30468,44305,33237
30448,44317,33227
30404,44256,33300
30372,44333,33200
30352,44321,33188
30368,44324,33132
30372,44260,33132
30448,44317,33076
30504,44312,33063
30476,44316,33024
30473,44252,33033
30420,44268,32989
30416,44308,33025
30360,44287,32948
30276,44236,32966
30245,44311,33034
30308,44301,32932
30348,44287,32932
30394,44294,32856
30392,44295,32823
30348,44212,32821
30344,44280,32791
30329,44276,32822
30297,44272,32764
30236,44293,32855
30230,44221,32724
30220,44307,32730
30285,44284,32661
30292,44224,32758
30256,44295,32653
30232,44271,32712
30188,44280,32605
30180,44223,32620
30108,44279,32535
30040,44284,32478
30041,44236,32505
30084,44277,32597
30136,44295,32436
30165,44282,32495
30116,44271,32413
30084,44270,32501
30081,44277,32396
30068,44276,32340
30008,44253,32390
29980,44292,32327
29980,44292,32324
29996,44290,32404
30032,44304,32341
30076,44286,32398
30080,44292,32270
30072,44293,32304
30080,44220,32260
30084,44245,32289
30093,44284,32211
30117,44287,32212
30176,44295,32263
30336,44292,32238
30550,44295,32325
30770,44292,32220
30948,44271,32237
31152,44272,32164
31380,44276,32162
31596,44196,32133
31782,44277,32170
31964,44268,32280
32152,44279,32174
32396,44270,32270
32676,44280,32136
32894,44261,32204
33032,44252,32135
33216,44255,32246
33381,44240,32116
33548,44244,32076
33664,44249,32092
33708,44251,32056
33836,44223,32092
33956,44263,32092
34097,44239,32055
34220,44245,32031
34294,44232,32092
34332,44233,32067
34370,44175,32169
34412,44231,32067
34408,44220,32169
34336,44220,32054
34320,44236,32156
34400,44191,32057
34480,44233,32161
34520,44228,32058
34496,44212,32144
34484,44218,32026
34468,44222,31995
34444,44213,32020
34384,44168,32068
34332,44231,32056
34288,44228,32084
34316,44228,32033
34388,44228,32007
34412,44217,32108
34384,44212,32048
34349,44215,32101
34316,44205,32060
34276,44167,32070
34205,44217,32160
34140,44204,32093
34152,44204,32148
34164,44221,32103
34192,44172,32236
34216,44226,32151
34193,44212,32213
34176,44204,32160
34132,44203,32253
34108,44203,32164
34052,44207,32231
34000,44207,32165
33944,44216,32316
33998,44225,32213
34040,44225,32180
34052,44221,32240
34069,44223,32209
34064,44206,32308
34028,44212,32257
34000,44200,32356
33936,44189,32326
33892,44199,32401
33868,44225,32346
33905,44221,32312
33976,44204,32382
33992,44213,32390
33980,44204,32517
33968,44196,32444
33952,44197,32548
33940,44190,32457
33868,44207,32548
33828,44205,32464
33796,44142,32440
33856,44159,32492
33912,44192,32476
33928,44212,32540
33927,44174,32591
33893,44189,32558
33842,44188,32616
33829,44173,32589
33784,44185,32695
33729,44184,32588
33725,44189,32575
33760,44196,32665
33804,44199,32620
33824,44191,32636
33768,44185,32631
33736,44177,32668
33696,44169,32699
33700,44172,32657
33656,44189,32734
33592,44184,32680
33588,44151,32705
33641,44189,32756
33708,44181,32712
33764,44189,32775
33732,44183,32681
33712,44180,32682
33704,44184,32726
33697,44184,32685
33632,44151,32695
33548,44183,32644
33524,44215,32720
33528,44204,32828
33608,44212,32733
33668,44215,32757
33636,44220,32733
33608,44214,32828
33572,44209,32721
33560,44228,32760
33516,44160,32708
33456,44200,32684
33449,44216,32736
33480,44248,32692
33532,44245,32711
33569,44224,32684
33560,44245,32703
33536,44250,32672
33501,44236,32689
33512,44228,32724
33452,44253,32711
33396,44261,32710
33376,44263,32679
33380,44257,32657
33420,44200,32690
33456,44212,32654
33452,44260,32692
33464,44261,32636
33444,44229,32645
33440,44245,32732
33404,44261,32680
33324,44214,32755
33292,44279,32656
33320,44283,32676
33376,44276,32615
33436,44262,32638
33437,44271,32660
33409,44257,32631
33376,44261,32714
33374,44237,32621
33360,44204,32707
33292,44276,32581
33280,44268,32599
33304,44263,32628
33344,44257,32592
33368,44249,32620
33348,44190,32548
33292,44247,32566
33240,44239,32506
33180,44218,32516
33088,44222,32636
33024,44213,32501
33004,44174,32588
33040,44180,32505
33092,44225,32528
33124,44224,32440
33112,44208,32454
33052,44212,32471
32988,44196,32462
32981,44191,32460
33024,44197,32368
33016,44199,32412
33052,44200,32505
33124,44184,32377
33208,44167,32352
33272,44196,32388
33296,44191,32351
33336,44180,32409
33364,44183,32332
33320,44167,32418
33305,44163,32289
33292,44165,32263
33300,44176,32377
33308,44128,32247
33320,44181,32247
33368,44182,32181
33380,44176,32181
33392,44166,32220
33376,44165,32174
33352,44157,32263
33288,44164,32119
33176,44167,32142
33144,44175,32095
33149,44108,32058
33279,44158,32100
33336,44175,32067
33264,44150,32129
33248,44156,31976
33217,44103,31989
33208,44154,32100
33184,44132,31921
33112,44137,31929
33062,44152,32036
33100,44101,31913
33160,44148,31876
33207,44151,31872
33181,44093,31932
33168,44125,31852
33164,44121,31949
33136,44132,31775
33092,44112,31799
32972,44128,31858
32968,44141,31716
33016,44093,31746
33064,44141,31828
33120,44135,31709
33069,44129,31638
33044,44142,31670
33038,44124,31756
33004,44120,31660
32924,44130,31720
32860,44124,31620
32804,44121,31673
32808,44116,31597
32868,44132,31610
32880,44133,31488
32820,44069,31541
32624,44118,31644
32472,44132,31481
32528,44124,31511
32688,44129,31422
32824,44116,31460
32952,44127,31461
33236,44135,31406
33936,44116,31532
34788,44136,31388
35500,44140,31334
35836,44136,31335
36028,44148,31300
36464,44157,31345
37432,44165,31276
38424,44182,31284
39128,44209,31232
38524,44213,31262
37449,44236,31361
37384,44253,31260
37408,44252,31286
37556,44253,31198
38100,44240,31196
39340,44220,31165
40424,44221,31196
39536,44220,31146
37452,44233,31238
35240,44241,31120
33336,44244,31186
31936,44233,30985
31068,44237,31038
30636,44236,31137
30502,44149,30940
30493,44216,30923
30484,44212,30925
30437,44230,30860
30416,44223,30964
30440,44216,30849
30465,44212,30846
30496,44208,30711
30498,44205,30726
30460,44207,30823
30468,44189,30710
30456,44207,30670
30440,44197,30711
30410,44196,30617
30373,44200,30645
30400,44201,30725
30480,44205,30544
30536,44133,30577
30524,44196,30701
30528,44190,30572
30540,44160,30619
30532,44167,30493
30528,44173,30531
30468,44189,30529
30468,44183,30498
30528,44188,30442
30604,44191,30486
30660,44159,30540
30685,44124,30471
30660,44125,30557
30645,44136,30452
30628,44153,30561
30604,44175,30414
30540,44160,30360
30508,44188,30351
30532,44126,30311
30618,44188,30309
30688,44164,30428
30652,44136,30285
30644,44181,30392
30648,44188,30196
30629,44193,30248
30608,44180,30135
30536,44205,30160
30516,44196,30072
30526,44201,30128
30556,44196,30049
30645,44167,30087
30632,44172,30020
30624,44181,30060
30616,44168,30009
30596,44181,30060
30536,44176,29986
30468,44196,30142
30448,44196,30062
30460,44196,30132
30528,44196,30045
30600,44181,30160
30584,44183,29988
30580,44183,30148
30558,44174,30009
30524,44181,30092
30476,44184,29974
30436,44181,29886
30424,44188,29959
30416,44189,29908
30472,44184,29997
30520,44181,29872
30476,44184,29941
30500,44184,29834
30436,44183,29971
30360,44183,29877
30324,44188,29904
30256,44181,29823
30232,44166,29785
30200,44204,29948
30246,44140,29797
30276,44197,29761
30276,44183,29762
30249,44183,29859
30232,44197,29780
30196,44196,29857
30168,44207,29781
30136,44160,29664
30124,44189,29728
30156,44149,29700
30197,44212,29860
30236,44212,29732
30220,44201,29643
30221,44198,29746
30228,44161,29733
30200,44197,29853
30145,44214,29703
30088,44199,29644
30060,44217,29730
30094,44140,29753
30124,44220,29709
30192,44213,29708
30200,44215,29652
30196,44201,29758
30240,44197,29760
30304,44204,29653
30380,44197,29744
30456,44200,29668
30576,44196,29760
30808,44212,29703
31056,44204,29766
31320,44217,29703
31552,44165,29940
31752,44167,29784
32024,44221,29868
32248,44220,29826
32444,44212,29880
32620,44205,29794
32813,44200,29862
33044,44215,29812
33276,44215,29981
33492,44223,29828
33640,44157,29828
33780,44215,29806
33948,44201,29908
34072,44192,29823
34169,44200,29935
34204,44213,29902
34313,44205,30025
34424,44204,29936
34501,44208,30087
34632,44215,29978
34664,44204,30160
34693,44140,29976
34704,44199,30048
34725,44196,30116
34704,44204,30118
34632,44207,30053
34628,44188,30145
34666,44207,30128
34704,44207,30306
34728,44191,30185
34720,44199,30325
34716,44209,30297
34684,44196,30241
34629,44204,30348
34576,44196,30312
34493,44217,30393
34460,44212,30360
34464,44220,30460
34517,44212,30428
34528,44213,30528
34508,44213,30501
34476,44213,30620
34464,44153,30581
34452,44150,30697
34396,44142,30672
34311,44196,30847
34272,44212,30783
34272,44212,30828
34316,44197,30817
34336,44196,30906
34304,44183,30879
34296,44209,30864
34248,44205,30948
34217,44199,30925
34168,44204,31021
34085,44215,30988
34052,44164,31076
34093,44157,31062
34148,44204,31215
34173,44208,31152
34184,44189,31311
34173,44189,31239
34148,44196,31280
34144,44181,31261
34120,44188,31429
34021,44196,31341
33976,44181,31351
33976,44199,31552
34020,44197,31448
34056,44181,31424
34029,44192,31629
34024,44140,31508
34004,44183,31525
33960,44183,31580
33860,44180,31584
33800,44180,31725
33797,44175,31655
33836,44175,31616
33916,44184,31708
33960,44185,31688
33944,44181,31870
33920,44189,31732
33882,44125,31740
33844,44187,31901
33808,44176,31824
33720,44167,31784
33694,44197,31970
33728,44141,31857
33820,44180,31908
33854,44196,31863
33848,44140,32054
33828,44189,31952
33832,44172,31917
33832,44173,31972
33784,44191,31950
33680,44188,32050
33661,44205,32031
33668,44196,32142
33712,44193,32068
33776,44181,32184
33728,44167,32097
33692,44189,32132
33665,44167,32157
33680,44177,32120
33653,44180,32117
33608,44183,32214
33568,44189,32181
33596,44183,32142
33633,44197,32316
33688,44199,32210
33668,44191,32178
33652,44156,32228
33592,44167,32196
33576,44167,32242
33548,44116,32229
33480,44177,32356
33440,44183,32284
33473,44175,32249
33512,44189,32404
33552,44181,32303
33536,44164,32428
33496,44174,32325
33480,44184,32289
33460,44120,32429
33392,44181,32321
33336,44161,32356
33288,44183,32300
33308,44196,32429
33372,44125,32356
33428,44135,32388
33428,44145,32340
33421,44183,32336
33396,44174,32452
33344,44167,32329
33300,44167,32296
33249,44167,32380
33264,44181,32334
33289,44180,32441
33332,44164,32321
33356,44184,32310
33320,44183,32428
33304,44157,32309
33292,44144,32300
33274,44167,32261
33256,44160,32423
33208,44176,32285
33212,44135,32307
33220,44176,32250
33260,44181,32384
33284,44180,32300
33268,44167,32240
33252,44167,32269
33236,44160,32250
33208,44149,32385
33176,44183,32255
33136,44180,32225
33088,44185,32262
33088,44172,32228
33145,44185,32277
33204,44182,32229
33176,44121,32365
33120,44148,32244
33132,44119,32308
33168,44145,32232
33118,44165,32196
33060,44175,32351
33060,44173,32204
33092,44167,32206
33140,44189,32311
33168,44155,32232
33176,44184,32179
33141,44175,32245
33141,44164,32180
33116,44166,32225
33044,44167,32197
32960,44167,32306
32960,44175,32189
33016,44167,32213
33088,44167,32180
33156,44167,32173
33148,44185,32268
33116,44177,32172
33088,44101,32198
33084,44154,32220
33004,44165,32153
32916,44164,32135
32853,44167,32197
32892,44156,32172
32924,44181,32279
32948,44180,32157
32908,44172,32181
32904,44167,32157
32869,44167,32229
32844,44183,32192
32754,44185,32279
32660,44120,32156
32638,44125,32225
32601,44165,32140
32596,44143,32160
32736,44128,32143
32836,44133,32158
32852,44132,32180
32902,44128,32186
32916,44167,32302
32896,44135,32228
32860,44137,32293
32848,44151,32228
32904,44199,32197
32984,44200,32348
33064,44196,32272
33044,44177,32361
33056,44201,32270
33052,44181,32310
32992,44205,32265
32928,44197,32428
32877,44198,32303
32842,44200,32300
32888,44213,32373
32932,44213,32370
32940,44205,32432
32964,44199,32370
32944,44196,32382
32928,44201,32502
32916,44199,32399
32904,44196,32391
32836,44181,32540
32837,44140,32444
32852,44144,32528
32916,44164,32468
32948,44150,32508
32960,44150,32444
32956,44138,32494
32928,44196,32480
32924,44182,32490
32876,44196,32542
32812,44151,32500
32752,44204,32596
32758,44210,32528
32868,44204,32484
32952,44151,32503
32960,44148,32490
32940,44164,32519
32928,44191,32508
32916,44204,32532
32884,44197,32556
32760,44178,32668
32748,44167,32596
32748,44172,32687
32846,44159,32588
32873,44167,32657
32880,44180,32612
32858,44221,32614
32888,44204,32741
32832,44212,32644
32756,44180,32753
32636,44159,32684
32580,44221,32746
32492,44167,32702
32380,44167,32812
32405,44175,32715
32640,44224,32781
32796,44216,32732
32840,44220,32789
33029,44220,32760
33561,44220,32780
34284,44228,32804
34892,44239,32793
35264,44236,32870
35468,44256,32836
35864,44260,32895
36776,44264,32887
37840,44287,32977
38476,44295,32925
37732,44327,32984
36392,44351,32942
36232,44354,33076
36536,44359,32972
36960,44374,32968
37596,44356,33053
38900,44335,33025
40168,44324,33094
39488,44333,33029
37598,44320,33020
35512,44335,33156
33568,44310,33062
32068,44320,33115
31168,44340,33084
30752,44332,33167
30680,44295,33092
30672,44319,33175
30672,44279,33100
30692,44335,33138
30688,44311,33088
30689,44326,33086
30632,44327,33183
30560,44336,33116
30528,44329,33188
30560,44328,33120
30624,44320,33219
30696,44333,33120
30672,44295,33116
30648,44240,33196
30672,44236,33157
30644,44288,33172
30624,44305,33172
30580,44316,33245
30577,44320,33236
30632,44321,33324
30692,44287,33252
30756,44311,33293
30744,44300,33392
30752,44292,33332
30760,44280,33373
30776,44292,33364
30764,44292,33356
30703,44276,33412
30668,44303,33392
30712,44300,33460
30781,44313,33428
30844,44309,33513
30872,44244,33450
30868,44253,33446
30880,44247,33465
30812,44279,33468
30736,44311,33527
30576,44316,33481
30673,44320,33560
30740,44316,33492
30792,44292,33567
30776,44309,33510
30788,44324,33581
30808,44319,33506
30820,44297,33549
30832,44308,33529
30776,44324,33538
30666,44324,33652
30650,44313,33604
30704,44280,33620
30772,44317,33628
30796,44332,33636
30816,44319,33625
30804,44324,33741
30805,44324,33711
30828,44333,33720
30784,44318,33798
30660,44340,33764
30704,44335,33767
30760,44332,33856
30765,44329,33799
30856,44350,33837
30844,44348,33919
30804,44351,33866
30796,44351,33948
30760,44341,33916
30700,44325,33973
30656,44340,33940
30628,44344,33996
30640,44341,33966
30720,44340,33983
30756,44359,34016
30722,44343,34021
30704,44351,34110
30688,44278,34062
30704,44282,34166
30660,44295,34132
30620,44327,34212
30608,44294,34160
30580,44292,34167
30652,44287,34229
30721,44284,34228
30684,44295,34278
30700,44333,34282
30684,44346,34340
30676,44340,34324
30633,44329,34364
30568,44340,34412
30576,44321,34425
30572,44347,34504
30659,44356,34501
30704,44359,34572
30688,44344,34555
30700,44319,34597
30700,44359,34658
30700,44359,34660
30672,44351,34692
30624,44357,34711
30628,44362,34758
30664,44315,34792
30729,44361,34798
30796,44369,34856
30852,44359,34884
30932,44360,34932
30996,44354,34959
31048,44361,34997
31128,44370,35044
31196,44372,35063
31336,44370,35137
31512,44365,35140
31752,44380,35175
32012,44368,35184
32160,44371,35236
32336,44317,35264
32488,44372,35296
32634,44361,35349
32780,44368,35357
32880,44369,35413
33016,44364,35413
33172,44370,35462
33312,44351,35463
33501,44356,35516
33604,44367,35580
33696,44335,35565
33740,44342,35621
33824,44310,35664
33852,44341,35666
33836,44356,35724
33858,44356,35719
33904,44362,35764
33984,44359,35808
34040,44364,35820
34056,44328,35876
34064,44356,35874
34112,44349,35914
34112,44346,35975
34084,44340,35964
33989,44351,35988
33960,44354,36033
33976,44365,36052
34000,44356,36088
34012,44350,36100
33996,44369,36132
33969,44357,36162
33948,44357,36116
33924,44353,36203
33888,44349,36231
33837,44352,36251
33796,44356,36270
33820,44365,36297
33880,44310,36248
33924,44348,36330
33925,44327,36357
33840,44295,36359
33821,44336,36397
33816,44354,36385
33764,44329,36408
33700,44338,36444
33672,44359,36428
33664,44295,36452
33708,44367,36474
33756,44354,36465
33692,44351,36484
33657,44348,36484
33672,44345,36493
33668,44348,36501
33652,44295,36508
33580,44365,36525
33535,44360,36500
33584,44353,36532
33633,44361,36551
33664,44349,36538
33656,44359,36538
33640,44350,36549
33604,44345,36546
33588,44292,36552
33544,44359,36540
33444,44359,36543
33380,44354,36532
33432,44365,36540
33532,44367,36532
33620,44308,36533
33604,44375,36532
33588,44350,36508
33536,44356,36507
33556,44295,36504
33516,44359,36500
33445,44349,36487
33412,44365,36492
33434,44372,36460
33468,44383,36464
33508,44368,36460
33508,44352,36439
33504,44352,36436
33540,44358,36407
33548,44358,36404
33516,44302,36367
33436,44308,36372
33420,44324,36368
33412,44342,36336
33465,44385,36342
33521,44377,36311
33513,44356,36305
33484,44369,36288
33440,44375,36260
33464,44372,36265
33448,44372,36236
33413,44373,36240
33404,44377,36244
33413,44383,36212
33504,44375,36204
33600,44390,36172
33597,44390,36178
33536,44381,36184
33548,44373,36164
33488,44367,36172
33454,44368,36132
33369,44388,36135
33344,44383,36109
33360,44384,36103
33392,44390,36058
33513,44387,36084
33500,44353,36057
33525,44324,36052
33524,44332,36060
33481,44376,36028
33428,44373,36000
33372,44374,35991
33348,44385,35978
33356,44392,35985
33429,44399,35943
33489,44374,35941
33440,44380,35913
33420,44393,35906
33424,44388,35904
33416,44356,35872
33376,44372,35886
33296,44388,35840
33256,44399,35844
33252,44404,35817
33356,44396,35820
33452,44340,35828
33440,44367,35796
33397,44407,35812
33344,44380,35777
33316,44389,35782
33312,44415,35748
33248,44405,35764
33200,44414,35738
33225,44367,35703
33260,44404,35724
33345,44420,35703
33338,44429,35719
33288,44414,35687
33288,44408,35693
33246,44413,35669
33217,44428,35663
33180,44375,35649
33152,44447,35656
33144,44439,35609
33240,44444,35623
33272,44391,35628
33252,44452,35599
33268,44437,35604
33276,44431,35578
33292,44428,35588
33300,44388,35561
33192,44400,35556
33124,44455,35564
33156,44468,35526
33202,44467,35536
33260,44449,35512
33257,44463,35508
33256,44456,35524
33241,44399,35492
33204,44420,35496
33172,44465,35486
33100,44469,35492
33060,44477,35460
33056,44477,35461
33156,44482,35436
33240,44486,35428
33224,44477,35372
33174,44471,35428
33137,44469,35452
33164,44458,35392
33152,44490,35392
33084,44485,35416
33084,44480,35360
33108,44484,35366
33133,44492,35365
33204,44432,35349
33185,44496,35364
33160,44500,35312
33108,44472,35311
33100,44485,35325
33084,44431,35276
33036,44504,35274
32972,44500,35272
32992,44506,35249
33049,44492,35287
33100,44506,35222
33088,44502,35218
33060,44437,35198
33068,44511,35212
33016,44500,35236
32956,44492,35192
32884,44484,35224
32872,44500,35173
32894,44516,35210
32974,44524,35162
33052,44524,35172
33022,44516,35146
32984,44505,35142
32932,44488,35127
32889,44500,35124
32840,44500,35101
32760,44537,35113
32724,44541,35128
32702,44532,35096
32725,44532,35116
32770,44543,35079
32780,44544,35108
32792,44536,35068
32772,44538,35103
32689,44536,35049
32624,44488,35089
32506,44551,35009
32516,44570,35040
32576,44572,35070
32728,44573,35020
32816,44575,35060
32848,44577,35020
32920,44566,35053
32880,44581,34996
32881,44565,34982
32876,44551,34972
32808,44580,35012
32788,44576,34973
32832,44573,35019
32908,44604,34968
33004,44615,34965
32996,44580,34948
32964,44596,34991
32924,44597,34937
32912,44560,34988
32900,44599,34912
32890,44621,34964
32813,44564,34916
32804,44604,34954
32816,44628,34904
32857,44636,34948
32844,44629,34901
32864,44604,34952
32880,44612,34888
32816,44612,34936
32814,44561,34893
32770,44628,34903
32752,44628,34852
32764,44631,34857
32844,44635,34865
32872,44632,34859
32784,44636,34911
32836,44633,34852
32856,44628,34921
32828,44631,34840
32796,44616,34841
32720,44636,34863
32664,44638,34846
32576,44602,34876
32732,44616,34820
32832,44652,34836
32764,44647,34806
32726,44635,34820
32770,44640,34876
32804,44636,34839
32692,44648,34888
32656,44656,34828
32628,44660,34888
32620,44671,34821
32689,44613,34884
32720,44610,34828
32703,44603,34838
32652,44609,34807
32588,44671,34788
32497,44671,34807
32420,44669,34797
32184,44664,34805
32084,44672,34879
32264,44633,34789
32476,44697,34810
32637,44673,34860
32736,44687,34789
33192,44633,34828
33852,44660,34865
34438,44693,34832
34689,44711,34894
34828,44733,34834
35192,44748,34865
36110,44732,34809
37152,44772,34823
37840,44798,34910
37072,44812,34866
35860,44828,34909
35844,44828,34855
36452,44833,34856
37060,44844,34880
37544,44807,34860
38848,44832,34861
39924,44833,34847
39184,44837,34919
37504,44828,34855
35476,44836,34908
33568,44831,34847
32208,44828,34880
31334,44833,34830
30868,44843,34793
30628,44852,34844
30572,44844,34796
30596,44856,34807
30676,44861,34782
30728,44794,34796
30752,44823,34768
30676,44789,34839
30657,44791,34801
30592,44858,34797
30565,44844,34781
30488,44857,34772
30504,44861,34852
30532,44844,34796
30616,44862,34828
30696,44860,34813
30732,44855,34818
30712,44873,34865
30688,44861,34844
30708,44868,34917
30696,44807,34882
30608,44807,34944
30620,44802,34908
30652,44824,34988
30684,44853,34948
30748,44887,35002
30752,44893,34980
30696,44880,35055
30720,44868,35016
30756,44856,35064
30724,44870,35014
30639,44886,35016
30633,44895,35084
30684,44899,35040
30748,44879,35064
30804,44911,35020
30760,44884,35040
30748,44893,34999
30740,44892,35036
30672,44831,35069
30712,44845,35008
30608,44916,35028
30596,44921,34984
30612,44925,34999
30701,44932,34981
30764,44925,34996
30758,44925,35038
30760,44929,35013
30784,44932,35060
30796,44892,35012
30712,44925,35014
30612,44956,35003
30468,44959,35012
30584,44967,35084
30684,44972,35041
30736,44983,35103
30732,44980,35042
30740,44965,35052
30772,44959,35079
30748,44967,35089
30748,44983,35084
30588,44980,35135
30556,44932,35116
30592,44993,35152
30688,45004,35180
30748,44998,35183
30749,44996,35240
30752,44980,35232
30721,44988,35271
30672,44989,35261
30660,44988,35304
30626,45002,35284
30560,45020,35322
30552,45020,35335
30636,44949,35348
30684,45004,35423
30664,45041,35380
30596,45021,35420
30632,45017,35400
30672,45023,35436
30588,44965,35517
30513,44985,35492
30507,45037,35554
30498,45049,35520
30596,45040,35564
30741,45040,35559
30800,45050,35604
30676,45053,35628
30736,45041,35646
30648,45044,35701
30800,45053,35697
30800,44988,35748
30792,45008,35732
30844,45061,35749
30932,45063,35780
31000,45060,35796
31020,45057,35830
30992,45060,35893
31001,45063,35864
31004,45000,35892
31069,45044,35919
30992,45080,35937
30944,45074,35969
31048,45087,35980
31168,45085,36016
31224,45077,35992
31252,45048,36039
31376,45093,36065
31424,45095,36061
31516,45063,36080
31644,45088,36111
31736,45096,36160
31848,45053,36122
31992,45118,36178
32176,45116,36166
32372,45103,36190
32468,45100,36186
32537,45085,36221
32640,45092,36204
32764,45093,36218
32832,45047,36249
32892,45111,36248
32956,45108,36289
33072,45112,36276
33224,45124,36266
33376,45116,36268
33424,45093,36301
33500,45095,36292
33516,45100,36324
33508,45040,36252
33582,45117,36300
33568,45110,36341
33510,45110,36316
33508,45108,36337
33569,45119,36317
33676,45126,36343
33700,45118,36385
33700,45049,36348
33684,45127,36357
33692,45109,36384
33652,45111,36377
33584,45116,36389
33544,45132,36377
33520,45125,36380
33564,45133,36408
33660,45134,36404
33676,45139,36436
33632,45133,36412
33616,45063,36444
33568,45085,36420
33528,45119,36460
33412,45143,36452
33272,45156,36480
33348,45154,36479
33428,45150,36488
33460,45134,36480
33445,45144,36504
33436,45148,36539
33412,45076,36533
33377,45142,36552
33324,45153,36524
33237,45164,36565
33220,45156,36548
33260,45167,36573
33352,45168,36565
33372,45140,36575
33332,45157,36604
33285,45161,36583
33204,45167,36614
33220,45161,36603
33254,45165,36576
33212,45181,36608
33192,45181,36607
33220,45191,36629
33252,45181,36608
33332,45184,36596
33280,45127,36606
33320,45116,36601
33296,45188,36615
33252,45188,36596
33196,45169,36614
33160,45157,36597
33072,45191,36576
33116,45191,36606
33116,45196,36576
33166,45196,36612
33232,45215,36588
33264,45167,36596
33240,45220,36581
33124,45207,36580
33116,45204,36585
33000,45220,36615
33040,45220,36584
33052,45219,36615
33085,45220,36581
33128,45225,36599
33136,45228,36569
33125,45222,36556
33113,45181,36588
33124,45191,36552
33024,45216,36577
32972,45237,36552
32933,45245,36576
32884,45238,36540
32944,45236,36540
32972,45237,36527
33016,45244,36529
32924,45239,36516
32952,45248,36538
32976,45244,36492
32960,45242,36480
32904,45261,36484
32876,45252,36482
32916,45261,36479
32944,45276,36445
32940,45237,36420
32832,45215,36425
32880,45271,36392
32840,45265,36397
32824,45272,36372
32800,45260,36386
32824,45267,36340
32784,45280,36346
32764,45287,36300
32782,45300,36308
32590,45279,36268
32776,45284,36288
32784,45287,36252
32772,45281,36281
32696,45240,36220
32742,45284,36232
32685,45319,36184
32664,45309,36176
32552,45312,36135
32636,45319,36143
32752,45319,36100
32772,45316,36127
32809,45285,36048
32793,45318,36053
32777,45309,36033
32724,45311,36015
32700,45349,36033
32606,45319,35988
32632,45340,36008
32701,45351,35940
32748,45352,35964
32764,45335,35904
32768,45340,35877
32668,45283,35860
32669,45351,35869
32632,45348,35832
32585,45361,35840
32536,45364,35790
32548,45351,35800
32609,45380,35759
32692,45356,35749
32693,45372,35740
32604,45373,35708
32608,45318,35703
32634,45308,35695
32504,45380,35708
32440,45380,35658
32416,45388,35615
32466,45335,35636
32504,45412,35596
32542,45380,35637
32540,45399,35582
32480,45340,35575
32488,45341,35547
32436,45412,35572
32472,45415,35514
32440,45413,35528
32408,45422,35476
32416,45429,35455
32480,45369,35477
32508,45372,35436
32476,45394,35441
32442,45431,35404
32456,45428,35406
32448,45429,35393
32438,45380,35345
32364,45457,35376
32320,45447,35316
32360,45448,35327
32392,45469,35303
32460,45444,35320
32448,45473,35284
32428,45447,35287
32404,45465,35244
32396,45428,35261
32392,45479,35303
32304,45487,35240
32244,45481,35217
32272,45492,35277
32340,45503,35201
32432,45504,35164
32364,45439,35200
32316,45490,35252
32296,45509,35197
32276,45523,35215
32280,45501,35165
32112,45526,35132
32048,45520,35168
32061,45528,35152
32100,45534,35182
32172,45544,35124
32132,45552,35092
32044,45552,35158
32016,45550,35116
32068,45511,35160
32144,45565,35101
32056,45572,35105
32064,45575,35060
32157,45572,35062
32232,45591,35132
32280,45520,35056
32284,45539,35020
32284,45596,35053
32240,45575,35008
32244,45588,35031
32240,45606,35088
32111,45591,35034
32148,45608,35076
32204,45623,35000
32268,45593,35069
32256,45624,34989
32250,45625,35020
32244,45637,34977
32253,45644,34975
32262,45621,35044
32229,45645,34967
32144,45585,35012
32040,45671,34948
32057,45660,34996
32100,45671,34921
32133,45607,34929
32160,45684,34940
32168,45671,34936
32144,45670,35015
32156,45612,34922
32152,45660,34921
32000,45687,34996
32012,45628,34940
32120,45700,34996
32120,45703,34909
32156,45703,34956
32160,45701,34917
32128,45696,34924
32128,45704,35014
32166,45692,34948
32116,45703,34948
32032,45671,34909
31996,45724,34935
31992,45711,35020
32052,45733,34946
32096,45732,35009
32076,45737,34967
32060,45679,35012
32032,45737,34959
32036,45732,34996
32038,45735,34927
31952,45748,34988
31929,45698,34935
31872,45775,34996
31908,45768,34941
31861,45781,34940
31748,45765,34921
31528,45780,34908
31392,45765,34993
31516,45756,34926
31652,45756,34972
31580,45786,34885
31636,45797,34867
32032,45809,34900
32608,45807,34873
33088,45821,34912
33360,45831,34908
33552,45831,34868
33965,45856,34940
34884,45860,34860
35916,45892,34823
36524,45853,34836
35776,45927,34813
34652,45953,34893
34952,45981,34822
35916,45988,34773
36908,45981,34781
37793,45956,34757
38944,45941,34769
39505,45940,34728
38368,45912,34748
36529,45972,34687
34616,45964,34689
32800,45983,34716
31618,45988,34648
30956,45989,34712
30556,45991,34620
30340,45942,34681
30332,46005,34560
30324,45991,34612
30318,45989,34485
30288,46012,34471
30236,46016,34402
30224,46022,34384
30270,46007,34336
30321,46008,34416
30321,46012,34287
30336,45956,34263
30360,46005,34212
30344,46021,34241
30332,46012,34152
30264,46018,34216
30250,46020,34125
30292,46036,34148
30410,46046,34022
30468,46040,33983
30465,45985,33954
30460,46052,33915
30476,46044,33897
30472,46044,33869
30468,46036,33956
30448,46005,33824
30408,46068,33880
30384,46068,33772
30464,46014,33701
30532,46077,33717
30520,46079,33624
30524,46081,33615
30460,46060,33529
30488,46087,33568
30500,46061,33440
30468,46087,33360
30424,46024,33349
30485,46117,33276
30516,46124,33333
30552,46119,33220
30520,46132,33262
30448,46136,33108
30540,46101,33159
30552,46116,32997
30524,46077,33045
30452,46149,32928
30390,46136,32948
30398,46157,32839
30468,46164,32820
30532,46158,32775
30505,46173,32717
30480,46111,32641
30502,46113,32720
30496,46164,32629
30432,46183,32653
30264,46186,32528
30233,46124,32484
30333,46207,32544
30392,46208,32461
30384,46215,32549
30421,46162,32391
30388,46239,32391
30384,46215,32245
30390,46220,32263
30388,46236,32167
30332,46183,32176
30316,46233,32120
30340,46260,32151
30400,46273,32097
30436,46269,32190
30400,46215,32026
30380,46247,32020
30428,46277,31957
30470,46255,31987
30454,46299,32076
30404,46302,31913
30344,46301,31864
30373,46280,32000
30421,46300,31751
30508,46328,31784
30529,46332,31746
30512,46271,31750
30480,46336,31804
30516,46333,31720
30508,46324,31824
30456,46340,31640
30420,46284,31692
30489,46372,31554
30560,46353,31595
30678,46367,31745
30732,46324,31552
30741,46389,31617
30780,46391,31525
30790,46367,31608
30820,46375,31552
30820,46388,31684
30836,46400,31554
30884,46348,31663
30928,46384,31522
31044,46428,31627
31088,46435,31516
31060,46431,31632
31140,46432,31502
31208,46400,31560
31240,46447,31445
31230,46439,31546
31260,46455,31414
31352,46471,31463
31472,46439,31495
31616,46468,31502
31688,46471,31549
31717,46397,31473
31784,46471,31389
31871,46471,31463
31933,46471,31388
31976,46471,31473
31992,46420,31473
32076,46442,31488
32232,46509,31520
32352,46503,31509
32436,46511,31584
32517,46428,31458
32548,46517,31548
32584,46513,31489
32604,46525,31641
32604,46516,31449
32640,46521,31486
32661,46557,31652
32749,46560,31536
32854,46562,31477
32852,46549,31510
32864,46560,31663
32884,46500,31490
32852,46561,31541
32852,46552,31495
32812,46565,31552
32804,46516,31680
32838,46520,31543
32908,46564,31518
32960,46599,31540
32932,46599,31641
32888,46592,31577
32900,46590,31612
32904,46540,31627
32884,46613,31736
32844,46599,31653
32800,46620,31751
32793,46588,31631
32836,46636,31772
32892,46599,31700
32900,46628,31792
32852,46629,31716
32852,46632,31812
32840,46620,31713
32868,46629,31784
32808,46636,31704
32728,46612,31836
32736,46668,31720
32789,46647,31866
32884,46584,31891
32900,46661,31836
32852,46652,32007
32856,46644,31903
32836,46654,32007
32820,46652,31929
32764,46661,31974
32733,46679,31910
32772,46628,31996
32832,46690,31946
32912,46675,32032
32886,46621,32187
32880,46688,32039
32928,46676,32100
32924,46681,32041
32908,46629,32128
32852,46703,32090
32848,46692,32165
32893,46697,32176
32948,46719,32240
33012,46703,32304
32988,46705,32214
32984,46676,32253
32948,46698,32258
32948,46700,32300
32932,46685,32442
32901,46720,32300
32877,46716,32354
32908,46694,32245
32976,46740,32318
33028,46735,32258
33060,46709,32369
33034,46727,32268
33025,46735,32350
33026,46665,32326
33012,46720,32429
32941,46751,32336
32948,46733,32497
32996,46757,32397
33024,46759,32396
33136,46703,32388
33124,46726,32517
33084,46764,32414
33012,46757,32421
32992,46756,32382
33008,46759,32319
32968,46777,32533
32936,46716,32357
32953,46776,32332
33040,46789,32412
33081,46791,32365
33076,46763,32326
33086,46777,32514
33124,46764,32365
33096,46780,32328
33088,46792,32337
33045,46796,32286
33024,46800,32468
33044,46740,32325
33108,46781,32220
33157,46804,32285
33168,46783,32239
33184,46792,32420
33164,46800,32286
33152,46807,32232
33112,46805,32257
33076,46809,32217
33054,46821,32116
33080,46788,32312
33153,46809,32148
33224,46817,32105
33240,46820,32205
33200,46812,32129
33148,46756,32076
33144,46772,32084
33112,46836,31990
33060,46800,32152
33040,46818,32022
33089,46833,31985
33104,46772,31935
33146,46841,31818
33112,46836,31908
33092,46825,31828
33074,46820,31856
33086,46751,31702
33060,46823,31772
33040,46844,31668
33048,46845,31734
33056,46850,31697
33132,46851,31809
33228,46847,31568
33233,46781,31615
33225,46775,31502
33208,46791,31596
33200,46844,31488
33164,46852,31649
33092,46848,31492
33080,46855,31540
33068,46845,31432
33124,46855,31566
33188,46847,31420
33200,46868,31480
33208,46819,31344
33172,46853,31417
33196,46855,31343
33176,46853,31433
33112,46807,31328
33064,46828,31300
33060,46871,31263
33117,46868,31256
33204,46847,31133
33192,46876,31238
33146,46878,31196
33128,46864,31361
33128,46855,31192
33100,46868,31093
33016,46865,31276
32961,46864,31176
33024,46881,31174
33112,46813,31119
33188,46800,31012
33188,46823,31120
33180,46799,31071
33176,46869,31221
33252,46878,31076
33248,46876,30997
33212,46837,31204
33212,46874,31032
33253,46876,31007
33364,46880,31111
33440,46884,31030
33388,46907,31039
33348,46896,30909
33320,46893,31124
33304,46864,31028
33344,46855,30992
33325,46892,30976
33280,46896,30894
33260,46909,31020
33268,46909,30910
33292,46897,31032
33276,46836,30937
33268,46833,31105
33284,46837,31031
33308,46845,30954
33316,46912,31007
33308,46893,30925
33280,46900,31042
33317,46913,30926
33344,46939,31044
33404,46901,31133
33397,46908,31007
33384,46924,31077
33364,46924,30984
33357,46840,31117
33372,46924,31013
33332,46916,31108
33284,46928,31141
33308,46933,31136
33348,46940,31138
33452,46940,31215
33464,46908,31332
33440,46920,31168
33376,46938,31320
33308,46933,31189
33280,46855,31280
33232,46928,31192
33176,46932,31320
33204,46943,31444
33248,46948,31342
33281,46934,31447
33280,46957,31348
33288,46941,31417
33248,46945,31348
33088,46879,31453
32797,46956,31389
32552,46940,31500
32524,46948,31449
32604,46964,31548
32532,46909,31600
32505,46975,31644
32620,46971,31738
32944,46972,31653
33212,46975,31600
33308,46960,31696
33564,46983,31633
33896,46997,31740
34524,46996,31684
35376,46969,31841
36036,47028,31833
35356,47050,31945
34416,47073,31868
34400,47079,31800
35284,47057,31908
36596,47052,31882
37700,47005,31948
38612,47032,31912
39324,47012,31996
38972,47029,31948
37932,47028,32041
36621,47028,32000
35204,47023,32153
33944,47032,32156
33100,47020,32057
32548,46964,32188
32168,47028,32200
31900,47028,32121
31712,47032,32292
31696,47036,32245
31744,47048,32305
31836,47044,32244
31804,47021,32208
31772,46973,32272
31744,47020,32222
31706,47032,32335
31700,47038,32300
31660,47028,32409
31648,47031,32335
31674,47023,32382
31710,47050,32350
31784,47057,32464
31832,47041,32390
31904,47021,32556
31918,47031,32442
31860,47044,32567
31816,46996,32415
31856,47028,32577
31884,47060,32497
31908,47063,32610
31818,47071,32480
31812,47069,32492
31772,47048,32641
31728,47045,32515
31760,47036,32472
31836,47041,32636
31900,47039,32572
31844,47051,32682
31776,47045,32594
31792,47029,32700
31848,47064,32600
31892,47061,32613
31925,47045,32623
31933,47048,32704
31912,46996,32634
31924,47032,32753
31916,47065,32624
31876,47056,32621
31844,47054,32644
31879,47073,32656
31980,47060,32822
32032,47050,32700
32060,47056,32641
32032,47057,32723
31980,46976,32684
31936,47056,32764
31904,47007,32808
31837,47041,32965
31792,47077,32884
31812,47050,32876
31878,47073,32902
31948,47077,32897
31996,47079,33116
31968,47064,33001
31968,47074,32994
31932,47004,33117
31900,47028,33150
31824,47061,33269
31818,47092,33208
31903,47089,33301
31984,47076,33287
32088,47092,33366
32176,47057,33365
32220,47105,33380
32194,47080,33473
32068,47084,33480
31920,47033,33576
31836,47111,33562
31753,47110,33727
31780,47108,33702
31880,47111,33872
32029,47111,33805
32148,47111,33940
32213,47045,33897
32244,47048,33968
32293,47104,33927
32372,47136,33957
32329,47110,34095
32284,47125,34105
32317,47072,34172
32332,47160,34119
32436,47111,34204
32540,47149,34232
32648,47148,34292
32688,47143,34446
32708,47140,34344
32736,47148,34394
32726,47142,34391
32608,47173,34460
32573,47162,34481
32685,47168,34540
32800,47120,34545
32884,47180,34660
32964,47188,34653
33044,47170,34748
33037,47168,34756
33088,47124,34925
33066,47191,34874
33085,47161,35005
33104,47204,34949
33140,47133,35089
33133,47124,35016
33164,47140,35049
33148,47202,35199
33160,47185,35180
33160,47180,35308
33160,47127,35284
33168,47215,35358
33192,47201,35324
33316,47208,35444
33510,47221,35420
33628,47148,35581
33661,47215,35524
33705,47220,35594
33736,47209,35624
33832,47196,35640
33884,47205,35732
33884,47174,35712
33888,47231,35773
33966,47209,35820
33964,47230,35903
34032,47239,35905
34181,47239,35984
34264,47173,35988
34264,47180,36090
34209,47165,36060
34180,47245,36161
34148,47239,36141
34168,47247,36173
34217,47260,36314
34304,47265,36260
34284,47204,36375
34236,47231,36344
34164,47229,36329
34040,47284,36409
34093,47273,36405
34132,47277,36492
34112,47278,36473
34072,47292,36592
34052,47296,36540
34036,47306,36560
34080,47304,36673
34069,47312,36639
34038,47316,36697
34021,47239,36663
34032,47287,36688
33992,47349,36802
33900,47320,36756
33856,47332,36757
33860,47351,36871
33954,47344,36831
33980,47357,36871
33924,47364,36871
33864,47364,36905
33884,47296,36988
33904,47367,36949
33920,47377,36948
33980,47393,37032
33988,47391,37013
33924,47348,37018
33901,47416,37061
33921,47383,37048
33901,47400,37101
33904,47404,37108
33896,47380,37132
33840,47420,37157
33768,47441,37221
33600,47446,37196
33636,47449,37200
33632,47451,37281
33552,47455,37252
33572,47469,37253
33644,47464,37330
33644,47477,37320
33700,47476,37302
33752,47472,37400
33744,47487,37366
33688,47495,37359
33652,47495,37444
33664,47517,37418
33744,47524,37478
33796,47453,37445
33828,47463,37460
33789,47525,37500
33708,47534,37504
33608,47528,37573
33572,47533,37553
33628,47532,37607
33632,47540,37587
33584,47555,37639
33544,47554,37598
33588,47492,37628
33568,47524,37644
33488,47553,37639
33486,47529,37710
33544,47494,37700
33580,47509,37725
33536,47536,37734
33460,47564,37745
33461,47579,37799
33477,47593,37775
33572,47623,37782
33572,47623,37836
33544,47644,37800
33536,47637,37830
33536,47615,37863
33452,47572,37853
33384,47586,37837
33350,47613,37889
33340,47645,37886
33400,47612,37895
33444,47620,37908
33441,47681,37923
33413,47693,37900
33413,47687,37980
33430,47695,37976
33440,47696,37937
33376,47702,37956
33360,47717,37988
33316,47733,37991
33308,47734,37968
33360,47741,37952
33360,47751,38000
33344,47748,37961
33308,47751,37944
33280,47751,38023
33192,47764,37957
33092,47772,37956
33056,47780,38007
33040,47789,37956
33124,47797,37956
33236,47833,37936
33273,47824,37982
33288,47837,37932
33304,47832,37942
33288,47845,37936
33272,47844,37957
33204,47853,37895
33200,47826,37904
33228,47873,37900
33316,47868,37913
33384,47873,37870
33364,47895,37911
33344,47879,37845
33264,47892,37845
33232,47896,37836
33244,47876,37805
33198,47896,37801
33148,47908,37743
33136,47912,37799
33108,47933,37748
33113,47860,37790
33104,47903,37733
33144,47935,37711
33172,47918,37700
33157,47920,37684
33188,47949,37724
33152,47945,37676
33088,47950,37702
33044,47959,37639
33066,47972,37663
33132,47909,37598
33189,47912,37591
33116,47991,37592
33084,47944,37548
33064,47981,37600
33056,47992,37529
32958,47940,37564
32920,48015,37500
32904,48024,37440
32956,48033,37481
32996,48046,37432
33028,48027,37423
32992,48026,37364
32960,48016,37351
32970,48024,37336
32936,48037,37301
32904,48045,37364
32896,48048,37260
32886,48002,37225
32884,48090,37221
32886,48092,37180
32896,48100,37196
32872,48087,37164
32824,48088,37196
32718,48092,37101
32496,48098,37080
32160,48108,37127
31884,48124,37035
31848,48068,36972
31988,48135,36975
31968,48156,36944
31820,48129,36986
31956,48135,36932
32544,48152,36998
33168,48161,36892
33416,48110,36929
33844,48198,36844
34384,48231,36856
35044,48248,36816
35841,48263,36782
36760,48277,36781
36536,48319,36828
35313,48324,36724
34548,48340,36704
34584,48328,36668
35172,48332,36688
35812,48329,36710
37200,48324,36615
38628,48319,36572
38708,48328,36676
37672,48329,36574
36372,48336,36588
35152,48285,36516
34000,48279,36476
33012,48285,36485
32320,48269,36460
31768,48280,36543
31288,48303,36452
30982,48303,36474
30889,48292,36455
30900,48304,36396
30896,48303,36342
30820,48301,36436
30784,48391,36356
30753,48389,36412
30733,48340,36345
30672,48388,36412
30636,48404,36324
30620,48412,36359
30632,48412,36292
30684,48420,36253
30700,48423,36373
30652,48417,36269
30648,48421,36336
30644,48423,36228
30660,48414,36201
30640,48436,36294
30621,48415,36188
30612,48412,36148
30688,48409,36260
30736,48444,36128
30716,48448,36081
30708,48469,36089
30744,48423,36095
30732,48454,36044
30724,48468,35994
30716,48484,36068
30665,48484,36003
30668,48498,36004
30733,48504,35911
30824,48505,35876
30832,48519,36001
30824,48464,35824
30812,48439,35835
30836,48505,35805
30853,48432,35748
30856,48485,35701
30844,48488,35740
30828,48553,35661
30872,48564,35684
30892,48508,35620
30892,48544,35580
30909,48565,35704
30892,48528,35556
30908,48498,35548
30940,48484,35476
30888,48576,35615
30849,48580,35513
30844,48597,35487
30932,48601,35455
31006,48596,35591
31012,48607,35449
30996,48612,35442
30984,48605,35566
31012,48615,35472
31008,48608,35468
30948,48629,35414
30896,48622,35581
30920,48644,35495
31004,48645,35447
31080,48647,35623
31078,48647,35504
31048,48640,35557
31080,48647,35512
31076,48623,35672
31116,48653,35608
31076,48637,35625
31049,48663,35636
31052,48673,35624
31136,48688,35749
31212,48685,35671
31268,48707,35650
31352,48695,35813
31374,48695,35705
31389,48696,35869
31392,48647,35752
31396,48647,35732
31420,48732,35788
31508,48724,35789
31578,48740,35917
31686,48673,35794
31764,48656,35832
31824,48728,35815
31924,48741,35868
31984,48741,35847
31988,48743,35935
32000,48749,35822
32032,48708,35814
32120,48717,35917
32252,48709,35876
32396,48775,35908
32504,48780,35847
32556,48788,35880
32594,48781,35929
32632,48718,35841
32716,48799,35836
32709,48799,35960
32712,48812,35868
32772,48775,35823
32864,48748,35968
32956,48828,35829
33032,48836,35844
33080,48825,35772
33108,48832,35940
33120,48824,35797
33132,48828,35761
33148,48840,35863
33160,48853,35805
33228,48860,35729
33300,48869,35792
33416,48860,35720
33465,48869,35869
33504,48788,35777
33520,48845,35844
33568,48866,35718
33588,48864,35693
33600,48876,35772
33608,48879,35732
33644,48864,35733
33728,48900,35743
33832,48888,35677
33904,48892,35772
33948,48892,35719
33976,48903,35788
33988,48902,35668
33996,48903,35684
33960,48925,35684
33928,48927,35656
33956,48882,35788
34009,48928,35698
34088,48929,35617
34084,48871,35688
34040,48928,35744
34068,48932,35702
34032,48934,35658
33985,48864,35820
33916,48881,35727
33860,48945,35812
33852,48928,35695
33872,48935,35830
33940,48941,35680
33944,48932,35645
33949,48941,35716
33928,48943,35679
33892,48943,35812
33848,48940,35717
33782,48947,35821
33748,48964,35716
33736,48968,35812
33744,48985,35705
33836,48935,35808
33828,48935,35711
33804,48920,35705
33804,48940,35726
33744,48994,35685
33708,48984,35645
33684,48997,35770
33660,48996,35664
33629,49012,35727
33648,49015,35641
33724,49009,35617
33760,49029,35684
33761,49019,35609
33748,49012,35718
33744,49031,35652
33744,49028,35760
33684,49029,35637
33632,49042,35574
33661,49048,35662
33748,49053,35588
33824,49048,35733
33812,49060,35620
33764,49046,35649
33765,49052,35582
33756,49060,35663
33752,49056,35553
33700,49061,35499
33676,49018,35524
33689,49080,35552
33760,49084,35504
33848,49095,35560
33848,49069,35492
33860,49080,35438
33868,49084,35457
33872,49072,35409
33870,49071,35508
33864,49080,35432
33856,49082,35512
33832,49088,35385
33940,49054,35367
34046,49096,35385
34072,49096,35356
34068,49087,35469
34056,49088,35300
34084,49092,35257
34077,49093,35392
34012,49088,35260
34004,49104,35187
34004,49108,35257
34044,49108,35220
34136,49073,35121
34128,49096,35156
34112,49104,35098
34132,49108,35197
34116,49108,35125
34100,49124,35012
34084,49132,35068
34040,49100,35040
34020,49125,35145
34060,49135,34988
34118,49121,35088
34116,49094,34919
34076,49150,34927
34028,49141,34882
33948,49132,34928
33880,49060,34819
33828,49140,34823
33776,49149,34777
33768,49151,34782
33776,49156,34720
33828,49149,34668
33792,49132,34660
33740,49156,34702
33736,49159,34592
33764,49159,34556
33829,49109,34640
33860,49103,34528
33870,49093,34524
33872,49172,34405
33984,49191,34619
34096,49180,34431
34108,49172,34439
34068,49159,34368
34036,49188,34495
34036,49191,34340
34028,49156,34262
34040,49116,34439
34012,49196,34270
34001,49192,34268
34020,49205,34213
34054,49206,34205
34056,49207,34164
34032,49207,34276
33984,49207,34100
33920,49205,34068
33884,49204,34164
33784,49207,34021
33732,49216,34021
33756,49208,33917
33856,49205,33929
33936,49231,34028
33965,49226,33881
33960,49232,33804
33952,49231,33948
33932,49242,33869
33856,49216,33764
33784,49159,33764
33700,49253,33664
33680,49196,33844
33724,49253,33647
33792,49268,33589
33772,49255,33737
33740,49252,33638
33725,49245,33530
33724,49248,33393
33700,49245,33560
33620,49268,33415
33568,49252,33327
33552,49287,33448
33549,49287,33332
33648,49285,33396
33648,49296,33220
33656,49261,33089
33596,49256,33297
33584,49277,33148
33532,49287,33094
33456,49300,33073
33376,49236,32904
33280,49233,32988
33132,49255,32889
33004,49247,32980
33053,49268,32908
33180,49255,32838
33272,49236,32661
33224,49269,32796
33380,49304,32725
33940,49324,32665
34688,49337,32668
35364,49349,32608
35926,49332,32550
36180,49376,32569
36492,49389,32505
37312,49401,32324
38222,49404,32498
38936,49415,32373
38400,49444,32236
37520,49441,32260
37552,49409,32324
38152,49466,32229
38844,49476,32152
39740,49458,32105
41356,49447,32142
41704,49447,32044
40168,49432,32165
38008,49382,32020
35808,49441,31884
33848,49468,32068
32392,49467,31916
31566,49452,31765
31088,49465,31926
30892,49484,31820
30804,49444,31686
30768,49461,31721
30708,49456,31583
30676,49458,31751
30644,49464,31623
30584,49461,31554
30536,49487,31423
30520,49496,31603
30560,49496,31516
30604,49493,31333
30621,49492,31509
30624,49495,31449
30608,49484,31270
30580,49466,31530
30588,49406,31348
30548,49409,31313
30517,49446,31393
30478,49468,31304
30538,49415,31156
30620,49413,31256
30648,49376,31239
30624,49373,31128
30640,49377,31188
30648,49442,31154
30646,49450,31014
30608,49447,31220
30572,49458,31079
30586,49460,30905
30612,49452,31053
30664,49436,30972
30672,49432,30804
30668,49413,31017
30620,49437,30902
30624,49424,30876
30614,49428,30806
30584,49444,30649
30524,49449,30743
30500,49452,30605
30516,49436,30773
30616,49448,30668
30624,49433,30457
30612,49435,30588
30580,49435,30421
30559,49425,30567
30548,49415,30522
30504,49424,30476
30444,49432,30462
30436,49415,30286
30453,49445,30431
30516,49452,30380
30520,49460,30369
30484,49459,30332
30452,49365,30270
30416,49424,30127
30392,49424,30374
30336,49432,30241
30288,49403,30164
30309,49451,30068
30344,49372,30215
30384,49364,30152
30368,49432,29988
30368,49380,30159
30364,49401,30116
30336,49381,29928
30304,49351,30209
30244,49373,30070
30180,49358,29860
30204,49458,30111
30244,49450,29981
30284,49453,29839
30240,49454,29988
30184,49444,29929
30164,49447,29768
30140,49430,29908
30096,49436,29868
30024,49437,29669
29966,49433,29813
29988,49415,29764
29988,49430,29579
30052,49437,29772
30068,49405,29700
30044,49436,29570
30052,49432,29604
30008,49368,29682
29980,49440,29628
29965,49448,29425
29960,49472,29605
29956,49474,29526
30004,49466,29431
30061,49463,29473
30057,49456,29411
30052,49448,29324
30068,49452,29429
30086,49440,29381
30120,49452,29221
30114,49461,29373
30124,49439,29321
30188,49391,29234
30300,49389,29298
30428,49401,29240
30552,49404,29248
30712,49382,29263
30900,49397,29180
31072,49424,29358
31238,49448,29220
31412,49447,29110
31609,49453,29188
31813,49457,29020
32120,49464,29228
32424,49460,29164
32644,49456,29037
32820,49440,29183
33024,49444,29138
33222,49372,28951
33398,49408,29133
33529,49451,29064
33648,49450,29041
33792,49461,29084
33944,49450,29107
34064,49454,28905
34156,49436,29112
34272,49437,29085
34392,49416,28909
34400,49434,29062
34376,49441,29044
34420,49432,29000
34441,49446,29103
34428,49439,28956
34488,49420,29145
34605,49424,29020
34620,49434,29101
34596,49424,29023
34520,49415,28900
34576,49415,29092
34584,49432,28912
34480,49382,29036
34368,49426,28910
34336,49444,29060
34360,49415,28916
34468,49434,29104
34433,49426,29005
34404,49424,28822
34396,49415,29024
34321,49415,28938
34156,49420,29101
34072,49432,28979
34072,49356,29102
34292,49388,28973
34416,49459,29088
34400,49447,28968
34324,49436,29094
34260,49440,28980
34197,49432,28929
34192,49445,28953
34152,49358,28857
34068,49428,28940
34020,49450,28773
34044,49456,28927
34044,49460,28805
34202,49456,28925
34289,49415,28768
34268,49476,28902
34164,49442,28752
33972,49447,28924
33876,49448,28748
33928,49407,28905
33764,49393,28917
33784,49484,28952
33786,49478,28932
33852,49472,28845
33860,49468,28932
33952,49408,28997
34032,49479,28964
33913,49474,28837
33840,49479,28964
33772,49475,28807
33796,49478,28983
33836,49415,28816
33933,49441,29000
33940,49503,28878
33964,49473,29025
33788,49472,28892
33933,49478,29036
33866,49476,28925
33920,49415,29092
33604,49496,28948
33380,49493,29116
33489,49511,29006
33844,49517,29156
34004,49440,29017
33776,49517,29205
33624,49524,29158
33724,49489,29199
33837,49511,29305
34048,49500,29231
33840,49519,29360
33306,49528,29404
33268,49511,29436
33521,49543,29616
33692,49524,29532
33600,49540,29589
33500,49477,29463
33431,49540,29656
33469,49529,29560
33448,49530,29750
33292,49472,29872
33204,49550,29777
33192,49549,29972
33268,49556,29859
33308,49540,30025
33156,49543,29935
33084,49543,30073
33216,49467,30069
33284,49549,30180
33184,49532,30336
33144,49543,30262
33168,49567,30429
33204,49556,30337
33484,49543,30436
33716,49591,30374
33560,49575,30404
33472,49575,30284
33492,49580,30492
33468,49524,30584
33484,49596,30404
33412,49613,30536
33504,49597,30490
33536,49548,30471
33544,49628,30579
33561,49612,30508
33585,49605,30612
33648,49540,30632
33628,49601,30639
33572,49621,30692
33516,49608,30516
33461,49629,30634
33260,49564,30800
33408,49654,30580
33453,49654,30673
33372,49653,30656
33268,49652,30679
33364,49647,30703
33464,49572,30831
33300,49623,30588
33128,49653,30724
33242,49641,30884
33392,49671,30726
33328,49669,30757
33340,49615,30916
33360,49689,30689
33312,49671,30796
33384,49664,30819
33412,49687,30836
33376,49671,30986
33212,49671,30772
33540,49684,30863
33292,49671,30976
32877,49695,30757
32920,49709,30924
33208,49695,30945
33360,49660,31081
33016,49708,30825
33088,49700,30983
33428,49635,31065
33157,49716,30863
32800,49719,31044
32916,49640,31116
32928,49742,30920
32800,49721,31093
32572,49736,31183
32597,49732,30945
32612,49724,31045
32596,49711,31109
32738,49732,30972
33076,49709,31111
33092,49727,31098
33328,49663,31141
34093,49764,31184
34932,49757,30999
35220,49764,31144
35140,49719,31252
35580,49799,31128
36580,49805,31177
37616,49808,30991
38788,49836,31128
38908,49860,30981
38200,49836,31103
38396,49888,31248
38510,49903,30941
39348,49911,31092
40436,49901,31092
41484,49887,30917
42252,49857,31041
40928,49812,31020
38340,49860,31074
35920,49869,30965
33284,49889,31033
31572,49824,30860
31032,49895,30892
30568,49885,30689
29704,49886,30829
29068,49903,30880
30456,49877,30688
31716,49865,30708
30518,49871,30581
29381,49868,30660
29424,49881,30703
30490,49841,30565
30440,49875,30516
30082,49796,30284
30520,49868,30375
30520,49857,30244
30465,49844,30327
30684,49861,30136
31069,49792,30188
30080,49865,29956
29884,49860,30073
30029,49792,29984
29928,49892,29983
30062,49885,29989
30384,49869,29790
30420,49828,29895
29872,49847,29895
30080,49838,29740
30596,49864,29849
29880,49861,29814
28869,49781,29745
28596,49885,29793
28052,49864,29832
28508,49879,29673
29006,49869,29780
29377,49877,29554
29804,49856,29646
29584,49880,29438
29304,49788,29572
30032,49868,29465
31592,49856,29485
31580,49885,29548
