ECG,EDA,RR
34132,17049,40358
34152,17037,40383
34196,17029,40582
34196,16996,40000
34250,16968,40396
34396,16896,40002
34528,16877,40343
34583,16902,40284
34564,16933,40388
34556,16943,40255
34516,17011,40308
34512,17045,39957
34456,17055,40045
34452,17008,40036
34444,16968,39961
34480,16914,40000
34488,16879,39976
34497,16881,39808
34484,16910,40021
34424,16957,39476
34356,17028,39757
34316,17056,39780
34252,17047,39740
34180,17009,39801
34032,16972,39624
33912,16924,39697
33808,16902,39584
33728,16926,39463
33624,16903,39461
33556,16952,39448
33508,17013,39452
33340,17059,39348
33156,17076,39276
33048,16999,39164
32960,16977,39229
32908,16917,39326
32852,16884,39196
32756,16898,39261
32584,16941,39101
32472,17005,39132
32313,17019,38988
32148,17053,38692
32088,17060,39058
32088,17014,38905
32048,16972,38986
31984,16916,38804
31984,16887,38812
32004,16908,38391
31976,16935,38583
31856,16975,38655
31740,17036,38624
31694,17073,38716
31736,17077,38220
31768,17033,38487
31856,16992,38540
31984,16937,38431
32032,16911,38526
32084,16883,38373
31988,16916,38453
31872,16983,38248
31776,17047,38202
31704,17080,38214
31692,17071,38276
31740,17029,38068
31785,16988,38093
31784,16933,38164
31816,16903,37700
31836,16895,37864
31848,16935,38081
31816,16974,37841
31656,17030,37873
31588,17068,37816
31564,17066,37727
31620,17082,37884
31764,17015,37653
31840,16955,37680
31832,16917,37592
31800,16920,37668
31816,16957,37241
31821,17012,37413
31776,17063,37582
31732,17095,37366
31696,17090,37407
31720,17055,37222
31784,17004,37349
31816,16944,36988
31818,16926,37183
31813,16913,37324
31780,16952,36980
31704,16996,37090
31576,17061,37124
31532,17110,37046
31492,17103,36959
31496,17086,36929
31564,17009,36871
31608,16958,36813
31660,16919,36814
31696,16932,36837
31672,16981,36892
31629,17042,36624
31556,17065,36794
31536,17103,36468
31492,17098,36576
31464,17065,36636
31496,17025,36629
31540,16972,36588
31629,16943,36329
31636,16959,36517
31584,16999,36355
31548,17048,36479
31472,17080,36396
31456,17116,36417
31368,17109,36088
31364,17081,36293
31370,17034,36388
31376,16980,36205
31432,16946,36215
31442,16973,36169
31432,16994,36173
31428,17053,36196
31340,17117,36157
31244,17158,36248
31169,17159,35877
31164,17127,36020
31133,17082,36110
31192,17026,35722
31336,16993,35872
31386,16996,35860
31416,17055,35800
31388,17049,35812
31292,17101,35838
31176,17146,35765
31160,17146,35701
31086,17117,35748
31048,17079,35742
31084,17021,35746
31200,16989,35678
31310,16994,35652
31268,17031,35644
31228,17084,35710
31168,17161,35602
31132,17164,35638
31034,17166,35241
30968,17138,35377
30976,17098,35384
31092,17040,35423
31188,17007,35464
31204,17026,35388
31164,17040,35344
31044,17087,35365
30932,17145,35400
30868,17197,35079
30840,17208,35380
30828,17179,35097
30885,17112,35257
30972,17057,34991
31056,17037,35109
31068,17041,35244
31040,17064,34880
30984,17117,35026
30892,17191,35026
30828,17237,35093
30752,17209,35036
30732,17184,34996
30800,17150,34742
30888,17108,35028
30948,17043,34883
30984,17040,34884
30940,17075,34933
30938,17124,35044
30936,17188,34894
31008,17225,34995
30992,17229,34868
30938,17207,34896
30872,17172,34552
30789,17112,34801
30840,17085,34790
30880,17088,34776
30816,17156,34689
30756,17148,34628
30776,17207,34700
30728,17246,34405
30632,17269,34766
30588,17233,34639
30452,17191,34676
30412,17148,34588
30420,17084,34516
30472,17089,34428
30584,17135,34245
30636,17175,34454
30668,17252,34476
30648,17298,34554
30628,17308,34421
30564,17250,34464
30588,17199,34108
30632,17149,34258
30672,17111,34244
30657,17107,34176
30608,17145,34156
30564,17212,34311
30524,17278,34234
30461,17337,34119
30436,17306,34300
30425,17291,34145
30457,17268,33980
30460,17175,34228
30506,17154,34085
30516,17149,33980
30476,17194,34141
30386,17218,34024
30236,17297,33900
30032,17343,33892
29900,17325,33956
29877,17312,33839
29868,17263,33936
29972,17223,33853
30165,17188,33839
30588,17158,33829
31148,17204,33718
31814,17262,33813
32876,17308,33765
34448,17362,33729
36360,17361,33705
38604,17358,33641
41104,17333,33644
43096,17223,33695
44152,17189,33618
44432,17199,33518
43652,17260,33468
41878,17266,33346
39232,17330,33413
36480,17397,33373
34392,17391,33380
32568,17383,33220
31301,17298,33444
30732,17257,33420
30456,17225,33524
30104,17237,33392
29856,17240,33375
29620,17298,33285
29404,17360,33205
29220,17401,33287
29100,17408,33188
28970,17348,33129
28916,17322,33081
28824,17271,33116
28709,17246,33100
28596,17249,33036
28532,17303,32945
28468,17314,32996
28328,17380,32996
28246,17435,32956
28292,17424,32858
28276,17402,33136
28352,17370,32784
28440,17302,32975
28567,17268,32748
28644,17280,33093
28632,17289,32972
28589,17335,33073
28537,17403,32958
28520,17453,32816
28510,17454,32901
28488,17425,32895
28540,17388,32873
28608,17333,32848
28736,17295,32748
28776,17316,32704
28740,17310,32596
28696,17367,32806
28584,17433,32733
28549,17476,32716
28588,17486,32676
28660,17464,32613
28720,17401,32576
28792,17347,32476
28948,17309,32500
28992,17323,32538
28986,17361,32605
28961,17381,32492
28884,17440,32452
28840,17486,32448
28872,17500,32420
28928,17484,32374
28964,17434,32379
29020,17376,32350
29120,17348,32260
29128,17328,32247
29196,17356,32088
29224,17404,32350
29256,17479,32317
29260,17524,32380
29248,17537,32301
29320,17521,32383
29400,17449,32292
29424,17394,32380
29464,17353,32260
29504,17359,32230
29512,17384,32025
29532,17447,32342
29504,17484,32233
29472,17529,32141
29468,17544,32148
29564,17533,32207
29680,17497,32300
29742,17415,32212
29736,17368,32173
29816,17377,31980
29904,17405,32292
29984,17462,32007
30000,17522,32085
29956,17576,32094
29920,17576,32167
29940,17560,32181
29988,17520,32186
30048,17432,32150
30168,17396,32185
30336,17407,32231
30464,17429,32152
30532,17492,32097
30517,17528,32086
30481,17575,32178
30521,17575,32215
30568,17558,32288
30633,17511,32203
30708,17462,32254
30828,17423,32198
30896,17432,32284
30944,17453,32124
30996,17510,32220
31036,17568,32257
31072,17612,32244
31048,17607,32311
31161,17572,32052
31308,17526,32137
31452,17473,32153
31580,17433,32256
31640,17443,32262
31661,17476,32287
31613,17519,32297
31560,17569,32181
31488,17617,32245
31420,17636,32247
31502,17605,32229
31584,17561,32272
31668,17498,32328
31756,17460,32429
31784,17455,32343
31722,17476,32452
31588,17528,32364
31452,17588,32269
31285,17645,32278
31204,17644,32263
31108,17620,32278
31044,17574,32376
31060,17516,32309
31020,17479,32317
30956,17470,32265
30832,17500,32557
30568,17549,32468
30424,17613,32491
30268,17677,32445
30149,17650,32273
30070,17637,32457
29984,17602,32524
29940,17557,32517
29880,17511,32585
29744,17473,32505
29700,17517,32372
29604,17556,32647
29540,17626,32581
29514,17682,32505
29516,17673,32557
29472,17644,32613
29460,17608,32613
29476,17575,32517
29568,17502,32421
29616,17496,32769
29596,17540,32688
29566,17575,32762
29564,17649,32620
29516,17678,32468
29520,17687,32820
29504,17666,32709
29520,17645,32548
29612,17559,32868
29712,17522,32754
29826,17517,32750
29886,17556,32775
29837,17612,32693
29804,17641,32760
29740,17685,32716
29696,17706,32747
29760,17682,32831
29844,17647,32838
29892,17599,32943
30008,17564,32840
30082,17518,32863
30128,17549,32876
30056,17600,32940
30052,17663,32868
30032,17722,32783
29988,17735,32758
29952,17715,32877
30024,17697,32890
30162,17589,32912
30284,17554,32900
30344,17551,32904
30432,17580,32942
30448,17638,32946
30432,17708,32974
30404,17717,32774
30464,17740,32940
30476,17711,32871
30517,17668,32948
30644,17624,33005
30740,17585,32969
30784,17549,32998
30804,17575,32992
30764,17627,33099
30724,17681,32756
30716,17733,33060
30745,17751,32796
30748,17716,32996
30840,17673,32932
31024,17616,32996
31108,17580,33031
31189,17581,32993
31236,17599,32935
31232,17645,33007
31232,17702,33102
31248,17764,32784
31244,17754,32973
31240,17729,32988
31288,17687,33031
31380,17637,32878
31488,17610,33038
31552,17621,32940
31528,17596,33039
31492,17650,33111
31400,17718,33021
31337,17769,32976
31340,17799,32937
31388,17744,32805
31412,17699,33044
31489,17640,32832
31557,17602,33081
31552,17594,32804
31552,17631,33046
31552,17689,32949
31548,17719,32840
31596,17767,33085
31748,17778,33060
31796,17764,33068
31868,17726,33017
31912,17662,32922
31956,17633,33158
32004,17621,33056
32036,17658,33033
32048,17697,33060
32072,17749,33162
32064,17804,33055
32085,17817,33068
32068,17774,32988
32096,17723,32942
32120,17685,32984
32142,17626,32864
32040,17632,33157
32004,17679,33040
32108,17682,32921
32168,17746,33159
32224,17805,33053
32236,17830,33088
32268,17774,33021
32352,17732,32956
32436,17679,32943
32564,17634,32956
32576,17636,32965
32544,17655,32924
32496,17712,33055
32476,17749,32932
32432,17795,33090
32468,17808,32884
32456,17797,33016
32500,17769,33008
32656,17704,32998
32713,17667,32968
32672,17665,33033
32672,17706,33010
32644,17698,32996
32648,17767,32861
32626,17828,33193
32696,17843,33116
32772,17812,33228
32825,17776,33127
32908,17730,33215
32988,17653,33108
33000,17639,33076
33004,17676,33031
33008,17725,33023
33065,17799,33201
33000,17823,32905
33020,17831,33181
33060,17816,32932
33121,17777,33272
33196,17721,32937
33216,17678,33054
33264,17661,33095
33300,17678,33159
33304,17723,33197
33204,17796,33148
33080,17844,33101
33117,17863,33166
33224,17859,33109
33244,17775,33133
33316,17721,33108
33404,17700,33294
33468,17668,33064
33396,17717,33236
33356,17726,33100
33344,17791,33175
33284,17875,33085
33268,17855,33071
33350,17828,32932
33465,17797,33238
33548,17759,33174
33594,17685,33148
33632,17670,33051
33688,17707,33172
33656,17754,33240
33580,17837,33152
33548,17840,33071
33600,17881,33038
33612,17862,33038
33660,17809,33135
33709,17768,33188
33760,17762,33101
33764,17678,32983
33753,17704,33120
33660,17759,33133
33600,17847,33022
33624,17855,33201
33673,17872,33129
33696,17858,33127
33654,17832,33024
33596,17753,32865
33530,17728,33161
33492,17714,33080
33584,17760,32973
33696,17759,33140
33824,17838,33079
33920,17892,32985
34200,17885,33058
34752,17865,33069
35492,17831,33108
36800,17804,33030
38776,17778,33024
41104,17701,32942
43716,17733,32808
45808,17802,33149
47600,17833,33031
48800,17890,33129
49448,17926,33056
49128,17922,33087
47856,17952,33028
45668,17772,32952
42925,17728,32917
40372,17713,32932
38156,17740,32900
36272,17793,32912
35128,17862,32956
34492,17947,32877
34040,17892,32887
33708,17892,32876
33484,17841,33032
33292,17786,32897
33138,17730,32988
32984,17728,32927
32766,17756,32906
32544,17810,32872
32360,17879,32922
32217,17890,32870
32128,17897,32842
32124,17880,32862
32169,17852,32836
32285,17801,32840
32380,17764,32951
32444,17718,32943
32496,17748,32913
32500,17794,32834
32448,17869,32936
32352,17892,32948
32377,17915,32933
32512,17903,32756
32620,17900,32965
32636,17791,32927
32704,17749,32871
32720,17730,32911
32724,17756,32725
32704,17812,33094
32700,17886,32988
32701,17896,33066
32724,17917,32996
32796,17911,33022
32773,17861,32973
32869,17826,32884
33004,17748,32940
33044,17730,32972
33040,17772,32989
33088,17803,32960
33112,17854,33052
33108,17917,32933
33048,17952,33029
33116,17959,32944
33216,17860,33037
33252,17846,32704
33392,17793,32809
33436,17769,32844
33456,17811,32852
33464,17799,32832
33492,17855,32808
33470,17905,32788
33476,17940,32822
33469,17916,32711
33540,17893,32989
33592,17853,32714
33616,17819,32844
33640,17743,32797
33660,17760,32981
33672,17804,32972
33654,17863,33012
33608,17932,33004
33624,17991,32908
33720,17909,32917
33780,17868,32927
33856,17821,33008
33917,17768,32937
33964,17769,33020
33992,17792,33020
33984,17871,33044
33988,17860,33014
33952,17920,33045
33888,17955,32962
33856,17927,32984
33952,17890,32844
34096,17859,33164
34190,17764,33108
34229,17771,32940
34280,17781,33237
34341,17839,33116
34332,17917,33239
34332,17920,33145
34384,17941,33157
34492,17924,33049
34606,17885,33127
34668,17860,33175
34800,17795,33189
34864,17791,33189
34916,17792,32970
34984,17846,33325
35084,17876,33229
35128,17923,33176
35144,17949,33188
35184,17927,33142
35328,17897,33193
35428,17851,33036
35508,17813,33182
35620,17796,33177
35660,17821,33228
35621,17826,33209
35600,17895,33159
35588,17960,33269
35580,17985,33393
35612,17989,33287
35672,17886,33213
35776,17866,33193
35840,17809,33287
35816,17799,33388
35803,17786,33333
35804,17828,33249
35760,17905,33287
35684,17947,33238
35604,17988,33228
35604,17937,33132
35628,17899,33460
35652,17851,33373
35588,17804,33337
35528,17799,33274
35416,17793,33213
35300,17829,33279
35172,17889,33152
35057,17950,33504
34904,17989,33378
34788,18001,33486
34692,17899,33404
34600,17860,33354
34564,17829,33383
34552,17772,33334
34496,17799,33365
34320,17839,33385
34166,17908,33428
34096,17943,33484
34040,17959,33421
33940,17951,33536
33948,17924,33185
34048,17863,33436
34140,17828,33340
34212,17823,33423
34208,17788,33495
34113,17833,33432
34080,17911,33364
34108,17953,33388
34140,17980,33469
34140,17964,33329
34184,17928,33328
34204,17894,33405
34265,17793,33445
34304,17775,33377
34328,17794,33437
34356,17833,33213
34372,17886,33406
34388,17944,33445
34380,17971,33471
34360,17960,33441
34392,17921,33368
34456,17864,33433
34448,17820,33552
34540,17819,33244
34612,17791,33344
34652,17844,33208
34592,17904,33479
34552,17975,33336
34508,18029,33399
34444,17951,33380
34452,17910,33412
34548,17860,33407
34636,17820,33428
34692,17793,33543
34716,17808,33260
34740,17865,33284
34692,17936,33316
34582,17947,33407
34528,17973,33361
34548,17954,33300
34600,17910,33396
34668,17857,33493
34700,17809,33380
34716,17792,33261
34684,17823,33129
34648,17856,33248
34632,17903,33280
34568,17961,33367
34556,17996,33389
34608,17974,33133
34660,17945,33464
34676,17887,33129
34740,17840,33241
34848,17810,33381
34910,17830,33353
34900,17896,33462
34924,17892,33093
34792,17949,33341
34728,17976,33231
34744,17969,33325
34820,17934,33284
34900,17901,33295
34984,17847,33388
35052,17817,33330
35048,17828,33445
34976,17876,33319
34940,17897,33335
34908,17951,33319
34884,17984,33332
34872,17976,33263
34892,17948,33165
34920,17876,33332
34908,17814,33074
34916,17798,33247
34928,17831,33215
34932,17857,33230
34896,17924,33226
34836,18022,33348
34780,17980,33317
34860,17985,33261
34961,17944,33244
35020,17919,33082
35044,17815,33436
35082,17804,33294
35120,17833,33083
35108,17849,33449
35056,17897,33318
34944,17959,33268
34880,18004,33280
34916,17988,33169
34988,17964,33442
35020,17876,33346
35072,17824,33383
35132,17815,33218
35156,17855,33308
35124,17851,33344
35056,17911,33213
34980,17992,33320
34948,17985,33375
35005,17975,33276
35044,17948,33076
35088,17913,33425
35096,17855,33309
35148,17845,33428
35188,17814,33316
35112,17857,33240
35132,17916,33204
35100,17988,33165
35120,18035,33341
35120,17976,33287
35196,17938,33309
35304,17880,33287
35380,17828,33349
35396,17799,33261
35440,17826,33246
35392,17866,33222
35312,17932,33025
35220,17998,33342
35160,17991,33020
35124,17972,33302
35100,17936,33224
35132,17893,33351
35200,17832,33233
35254,17820,33260
35264,17847,33218
35256,17895,33167
35252,17906,33197
35152,17972,33088
35112,18012,33167
35184,17992,33084
35208,17959,33092
35184,17909,33105
35244,17854,33197
35244,17833,33308
35300,17809,33166
35372,17867,33036
35404,17933,33168
35360,17978,33180
35276,18006,33271
35284,18043,33159
35301,17942,33084
35308,17911,33109
35320,17856,33082
35332,17833,33159
35360,17837,33241
35356,17864,33168
35252,17919,33177
35164,17969,33046
35104,17992,32924
35040,17990,33279
35024,17969,33149
35084,17930,33148
35132,17841,33036
35164,17809,33051
35152,17841,33121
35164,17866,33200
35144,17920,33149
35060,18008,33051
35008,17989,33031
35040,17982,33049
35084,17948,33020
35116,17920,32900
35196,17849,33225
35240,17847,33145
35228,17858,33184
35173,17888,32968
35128,17941,33004
35013,17995,33153
34956,18037,33098
35012,17984,33090
35072,17934,33137
35144,17893,33181
35188,17836,33104
35164,17831,33216
35172,17828,33112
35097,17892,33153
34972,17902,33068
34772,17975,32856
34588,18014,33214
34520,17998,33051
34604,17983,33068
34816,17889,32866
35032,17841,33212
35272,17823,32900
35672,17842,32996
36256,17925,32876
36936,17901,33111
38264,17969,32959
40176,18000,33068
42472,17984,33135
44928,17972,33096
46940,17884,33084
48640,17833,33110
49728,17810,33176
50000,17826,32913
49296,17866,33060
47700,17902,33184
45308,17972,32852
42630,18016,32976
40288,18014,33060
38240,17956,33105
36640,17921,33191
35724,17831,33097
35174,17809,33148
34737,17817,33089
34376,17866,33128
34036,17934,33081
33712,17956,33183
33485,17992,33072
33272,17994,33148
33133,17942,33060
33032,17893,33163
32954,17829,33061
32940,17811,33036
32960,17821,33071
32944,17869,33023
32888,17927,33012
32820,17992,33089
32816,17989,33058
32873,17981,33160
32940,17945,33031
32960,17898,33141
33065,17842,33021
33160,17837,32800
33165,17809,33062
33140,17845,32889
33140,17899,32943
33096,17974,32906
33036,18001,32950
32992,18007,32903
33068,17988,32976
33116,17892,33060
33244,17848,33088
33324,17810,32850
33360,17844,33202
33344,17844,33092
33316,17905,32985
33292,17972,33080
33296,18015,32895
33321,18036,33176
33373,17940,33073
33440,17889,33135
33381,17843,33072
33396,17804,33076
33444,17838,33012
33568,17843,32937
33652,17912,32961
33604,17972,32933
33560,18021,32964
33600,17974,32838
33652,17942,33132
33672,17894,33028
33756,17839,33133
33820,17816,33020
33844,17836,33092
33748,17838,33029
33708,17884,33098
33712,17951,33020
33656,17989,33037
33664,17986,33010
33712,17969,32937
33829,17888,32942
33864,17826,32772
33902,17795,33088
33964,17812,32988
33968,17857,33040
34012,17905,32975
34057,17973,32921
34116,18025,32932
34124,17968,32847
34120,17952,32840
34148,17898,32720
34245,17842,32929
34301,17814,32695
34336,17839,33036
34368,17834,32935
34344,17887,32836
34294,17954,32896
34240,18003,32902
34300,17970,32903
34389,17932,32880
34444,17903,32775
34540,17828,32836
34534,17802,32798
34596,17808,32879
34624,17846,32967
34548,17912,32847
34600,17974,32840
34760,17976,32676
34868,17966,32828
34844,17927,32652
34896,17879,32728
34984,17825,32700
35168,17800,32862
35268,17802,32576
35312,17848,32822
35320,17892,32685
35324,17961,32761
35308,17993,32669
35316,18020,32717
35348,17927,32583
35392,17879,32836
35408,17825,32669
35441,17800,32775
35460,17797,32871
35472,17833,32600
35460,17881,32681
35417,17959,32688
35384,18004,32801
35336,17959,32857
35284,17912,32809
35296,17869,32693
35288,17880,32840
35320,17828,32569
35336,17845,32756
35300,17806,32764
35202,17877,32775
35140,17941,32701
35028,17985,32720
34872,18001,32852
34777,17909,32826
34704,17862,32903
34652,17801,32832
34488,17766,32749
34324,17775,32775
34192,17829,32833
34064,17861,32916
33989,17935,32840
33856,17974,32921
33841,17983,32841
33788,17907,32925
33712,17858,32758
33636,17802,32810
33584,17781,32832
33488,17773,32880
33444,17824,32836
33472,17879,32892
33468,17905,32858
33432,17933,32796
33401,17938,32873
33412,17908,32800
33464,17869,32801
33552,17821,32806
33614,17791,32924
33632,17815,33020
33604,17836,32816
33576,17894,32909
33532,17894,32852
33504,17924,32938
33462,17926,32944
33497,17941,32929
33528,17839,32936
33592,17780,33040
33661,17762,32741
33718,17768,32913
33772,17815,32828
33772,17828,32829
33744,17891,32847
33684,17934,32958
33652,17950,32937
33688,17877,32988
33653,17832,32940
33698,17772,32964
33786,17745,32716
33792,17741,32940
33788,17780,32740
33772,17848,32952
33792,17871,32938
33756,17908,33049
33741,17920,32935
33808,17882,33060
33848,17852,32948
33876,17765,33021
33864,17720,32952
33816,17725,33001
33796,17762,32722
33828,17820,32925
33932,17876,32832
33904,17927,32845
33974,17936,32739
34036,17863,32852
34016,17811,32812
34096,17764,32997
34152,17738,32719
34184,17751,33028
34144,17745,32772
34092,17798,32975
34056,17859,32845
34028,17901,32869
34064,17908,32828
34088,17884,32903
34140,17804,32785
34228,17757,32879
34296,17713,32999
34300,17728,32988
34248,17763,33100
34118,17785,32986
34016,17850,33085
33964,17890,33018
34008,17903,33087
34020,17876,33020
34092,17793,32916
34144,17737,32966
34252,17700,33043
34276,17700,33158
34204,17736,32824
34164,17804,33079
34200,17889,32826
34256,17875,33150
34272,17884,33040
34260,17839,32853
34304,17789,33209
34336,17738,33124
34388,17718,33164
34412,17692,33127
34404,17725,33108
34408,17787,33125
34384,17839,33064
34336,17919,33061
34376,17870,32964
34388,17838,33167
34432,17828,33079
34484,17722,32988
34508,17696,33173
34478,17718,33167
34484,17712,33156
34433,17759,33214
34400,17817,33287
34376,17868,33247
34332,17868,33188
34328,17860,33274
34352,17773,33295
34425,17721,33318
34460,17694,33314
34432,17711,33256
34348,17701,33248
34336,17756,33340
34364,17839,33409
34408,17844,33317
34416,17842,33220
34372,17836,33263
34324,17773,33284
34336,17738,33393
34436,17663,33390
34516,17729,33294
34480,17726,33461
34476,17803,33423
34468,17805,33236
34452,17848,33550
34424,17861,33461
34424,17837,33542
34448,17805,33236
34472,17693,33568
34460,17658,33460
34456,17653,33565
34448,17712,33484
34416,17741,33497
34412,17813,33271
34405,17837,33552
34460,17852,33488
34560,17837,33388
34552,17746,33397
34592,17692,33262
34560,17645,33381
34452,17663,33360
34380,17688,33409
34340,17759,33495
34365,17781,33429
34312,17832,33373
34288,17852,33479
34256,17789,33424
34280,17764,33564
34389,17712,33485
34496,17640,33396
34536,17657,33440
34528,17687,33469
34548,17727,33469
34576,17796,33240
34576,17852,33588
34548,17814,33486
34516,17780,33416
34464,17732,33372
34521,17700,33380
34652,17639,33415
34700,17639,33400
34645,17685,33360
34624,17726,33396
34612,17793,33477
34504,17835,33600
34520,17863,33257
34516,17768,33536
34516,17736,33436
34548,17700,33503
34540,17620,33445
34542,17623,33375
34496,17666,33492
34436,17693,33396
34360,17751,33381
34308,17801,33268
34360,17812,33607
34412,17801,33460
34440,17716,33247
34436,17680,33620
34452,17632,33508
34508,17674,33412
34584,17637,33380
34568,17682,33484
34524,17743,33484
34440,17801,33419
34340,17796,33445
34273,17774,33429
34324,17704,33420
34328,17646,33509
34436,17621,33620
34476,17619,33518
34480,17668,33489
34412,17671,33532
34400,17732,33472
34364,17781,33429
34312,17794,33493
34324,17764,33527
34312,17735,33495
34336,17694,33457
34388,17589,33460
34348,17597,33442
34276,17629,33360
34164,17663,33668
33988,17723,33542
33876,17772,33468
33896,17799,33637
34032,17739,33574
34172,17701,33476
34396,17668,33609
34812,17582,33581
35360,17588,33460
36200,17640,33606
37737,17721,33364
39600,17711,33560
41916,17761,33336
44184,17822,33575
45984,17720,33477
47328,17722,33500
48064,17645,33486
47944,17636,33391
46900,17572,33660
45052,17606,33608
42592,17654,33652
40260,17740,33576
38220,17736,33358
36448,17745,33622
35292,17717,33544
34672,17673,33524
34236,17632,33608
33876,17561,33726
33692,17564,33636
33500,17590,33548
33273,17650,33525
33064,17681,33409
32808,17728,33774
32592,17758,33652
32464,17737,33562
32384,17660,33776
32325,17605,33564
32281,17615,33677
32288,17554,33590
32308,17588,33566
32320,17637,33495
32336,17706,33721
32328,17720,33707
32398,17734,33760
32446,17716,33722
32464,17674,33640
32504,17614,33655
32552,17551,33738
32592,17539,33853
32608,17586,33742
32596,17625,33556
32584,17730,33759
32572,17715,33712
32513,17740,33814
32568,17724,33610
32588,17641,33876
32604,17597,33799
32696,17548,33636
32729,17551,33944
32732,17595,33844
32757,17597,33748
32718,17663,33751
32721,17716,33582
32744,17759,33852
32748,17696,33739
32788,17656,33733
32799,17575,33949
32880,17540,33824
32984,17530,33781
32968,17580,33728
32924,17597,33840
32924,17666,33756
32928,17693,33900
32944,17718,33829
32944,17696,33852
32988,17624,33632
33069,17572,33932
33108,17540,33804
33084,17557,33861
33068,17551,33821
33004,17606,33927
32936,17701,33901
32896,17684,33848
33004,17711,34055
33100,17692,33854
33144,17679,33964
33184,17560,33951
33208,17537,33861
33216,17533,33978
33210,17534,33956
33181,17596,33914
33156,17657,34023
33143,17675,33856
33188,17701,34139
33228,17674,34012
33264,17645,33812
33332,17553,34151
33380,17519,34033
33428,17520,33865
33392,17558,34206
33384,17629,34116
33377,17634,34182
33336,17671,34092
33364,17697,33988
33432,17671,34239
33464,17668,34132
33512,17550,34044
33592,17519,34272
33660,17516,34143
33708,17524,33924
33728,17587,34284
33692,17651,34144
33676,17668,33924
33692,17692,34284
33716,17679,34175
33852,17606,34100
34008,17553,34276
34124,17522,34183
34220,17495,33969
34268,17517,34340
34264,17572,34117
34260,17648,34212
34264,17664,34258
34292,17678,34173
34333,17661,34140
34392,17617,34144
34476,17552,34116
34540,17524,34264
34560,17482,34257
34592,17520,34269
34560,17589,34276
34440,17615,34276
34373,17672,34202
34408,17678,34191
34488,17665,34233
34460,17641,34244
34494,17534,34069
34492,17501,34439
34508,17496,34330
34437,17507,34461
34292,17554,34356
34168,17616,34412
34024,17681,34336
33972,17704,34277
33925,17633,34252
33880,17598,34396
33844,17565,34273
33782,17487,34496
33684,17502,34396
33524,17526,34159
33344,17614,34417
33120,17607,34384
32956,17676,34166
32884,17675,34424
32880,17670,34500
32880,17584,34407
32860,17536,34180
32848,17501,34478
32821,17500,34382
32748,17543,34340
32632,17549,34431
32536,17606,34182
32440,17671,34543
32404,17660,34439
32448,17632,34380
32460,17593,34336
32516,17552,34200
32588,17513,34534
32580,17540,34452
32568,17506,34486
32556,17559,34377
32524,17607,34493
32508,17661,34346
32520,17682,34533
32528,17635,34508
32640,17594,34460
32724,17540,34400
32776,17519,34252
32724,17483,34646
32724,17504,34540
32680,17558,34526
32644,17630,34537
32580,17652,34524
32540,17688,34292
32580,17652,34536
32688,17631,34540
32760,17540,34439
32828,17501,34668
32820,17509,34557
32784,17569,34402
32792,17562,34675
32792,17639,34548
32772,17687,34487
32780,17675,34665
32796,17671,34552
32804,17619,34511
32820,17585,34500
32856,17501,34629
32876,17505,34467
32900,17556,34688
32864,17573,34569
32847,17626,34376
32833,17686,34610
32844,17725,34663
32892,17659,34671
32908,17617,34728
32924,17567,34552
32980,17548,34684
32956,17509,34500
32952,17561,34596
32932,17580,34733
32896,17647,34694
32872,17686,34716
32884,17720,34627
32896,17708,34736
32940,17626,34695
32961,17580,34740
33028,17551,34711
33024,17519,34701
33045,17544,34765
33012,17607,34677
32952,17678,34819
32916,17699,34774
32904,17716,34620
32956,17697,34937
32978,17649,34823
33012,17604,34904
33048,17559,34841
33132,17559,34917
33120,17596,34818
33100,17609,34788
33116,17669,34793
33092,17719,34608
33060,17752,34989
33084,17756,34887
33144,17663,35015
33176,17614,34914
33213,17584,34820
33232,17553,34917
33212,17575,34928
33164,17628,34993
33112,17699,34920
33080,17748,34851
33033,17773,34820
33036,17781,34773
33084,17679,34950
33120,17625,34695
33156,17585,35015
33180,17581,34964
33196,17623,34874
33180,17636,35029
33112,17713,34974
32992,17780,34884
32992,17763,35112
33032,17747,34968
33082,17702,34927
33108,17660,34941
33156,17614,35012
33196,17610,34973
33210,17616,34855
33216,17660,35136
33112,17723,35023
33048,17797,35012
33040,17803,34944
33004,17797,34951
33060,17763,34924
33200,17662,35060
33264,17625,35172
33268,17627,34804
33256,17642,35041
33221,17701,35006
33200,17748,34964
33144,17821,35070
33124,17806,35189
33116,17783,35076
33132,17752,34841
33112,17700,35252
33181,17653,34877
33164,17643,35175
33080,17687,34880
33002,17744,35206
32900,17766,34900
32864,17816,35309
32924,17854,35207
32992,17831,35129
33056,17801,35193
33136,17749,35175
33200,17712,35185
33281,17661,35175
33338,17685,35177
33346,17738,34988
33332,17799,35388
33342,17852,35303
33288,17904,35288
33280,17839,35326
33324,17803,35328
33364,17766,35327
33412,17734,35289
33424,17684,35097
33404,17708,35424
33312,17761,35396
33248,17823,35367
33164,17896,35308
33168,17943,35158
33160,17863,35553
33172,17823,35454
33169,17772,35604
33172,17749,35453
33158,17716,35228
33160,17740,35515
33140,17796,35484
33128,17870,35550
33048,17897,35503
32988,17932,35648
32984,17916,35597
33008,17852,35519
33044,17806,35668
33128,17761,35637
33180,17764,35556
33137,17766,35788
33080,17814,35468
32992,17870,35760
32860,17928,35714
32808,17949,35708
32880,17957,35772
32989,17879,35749
33084,17836,35682
33156,17799,35776
33144,17765,35797
33108,17794,35871
33125,17834,35733
33140,17913,35657
33109,17967,35945
32976,17987,35676
32788,17985,35928
32636,17963,35904
32620,17852,36025
32684,17818,35964
32780,17807,35929
32980,17837,35904
33132,17908,35708
33412,17927,36108
33940,17987,35983
34576,18029,35820
35712,17981,35988
37484,17956,36022
39584,17900,36106
42108,17876,36069
44320,17820,36239
45916,17878,36033
46884,17918,36165
47092,18025,35921
46312,18011,36239
44720,18026,36127
42496,18036,36197
40204,17989,36193
38172,17960,36304
36224,17860,36258
34848,17852,36369
34120,17871,36274
33564,17943,36208
33188,17995,36172
32873,18054,36230
32633,18084,36300
32416,18032,36324
32261,17998,36302
32136,17949,36348
32009,17902,36064
31880,17875,36399
31724,17903,36320
31564,17951,36316
31480,18009,36349
31404,18076,36316
31352,18088,36445
31304,18084,36429
31360,18055,36495
31460,18022,36429
31561,17927,36157
31616,17924,36548
31624,17948,36453
31644,18016,36231
31688,18036,36605
31732,18112,36452
31776,18117,36471
31856,18118,36638
31948,18037,36575
32044,18000,36701
32100,17950,36557
32057,17945,36516
32028,17975,36572
32020,18026,36380
31980,18114,36756
31910,18142,36543
31861,18146,36333
31900,18136,36741
31941,18111,36608
31944,18029,36341
31980,17995,36564
32008,17990,36561
31994,18001,36539
32032,18052,36676
32068,18139,36573
32076,18145,36565
32148,18170,36535
32184,18149,36495
32248,18132,36521
32312,18080,36492
32348,18011,36429
32413,18015,36336
32428,18056,36681
32408,18058,36548
32318,18135,36457
32296,18188,36572
32389,18202,36565
32504,18189,36691
32580,18156,36611
32644,18081,36460
32696,18033,36644
32752,18039,36612
32688,18055,36719
32636,18106,36636
32640,18169,36753
32650,18208,36641
32652,18242,36653
32636,18236,36564
32652,18164,36376
32708,18113,36645
32776,18064,36652
32836,18054,36708
32912,18078,36655
32956,18146,36620
32986,18207,36644
32988,18290,36651
32908,18251,36660
32904,18239,36653
32928,18213,36694
32968,18155,36676
33036,18115,36717
33108,18078,36816
33180,18096,36751
33232,18159,36868
33228,18215,36743
33217,18284,36871
33152,18284,36764
33169,18267,36700
33268,18244,36720
33406,18184,36712
33468,18150,36728
33552,18102,36716
33518,18128,36809
33532,18185,36700
33568,18235,36743
33552,18308,36542
33588,18306,36919
33652,18300,36815
33712,18256,36837
33736,18212,36697
33824,18178,36796
33920,18126,36952
33996,18146,36812
34000,18199,36938
33960,18253,36804
33908,18322,36793
33816,18351,36768
33736,18328,36743
33716,18302,36946
33721,18226,36729
33784,18183,36836
33836,18182,36808
33860,18173,36768
33844,18237,36824
33726,18306,36565
33652,18329,36881
33612,18371,36788
33577,18357,36579
33532,18303,36885
33473,18249,36768
33396,18204,36596
33272,18201,36964
33080,18193,36760
32920,18240,36529
32812,18316,36910
32697,18373,36852
32596,18381,36840
32449,18380,36764
32288,18317,36861
32164,18268,36826
32128,18222,36836
32076,18220,36861
32008,18228,36881
31918,18272,36825
31820,18335,36624
31680,18409,36849
31576,18396,37015
31544,18393,36902
31528,18358,36917
31512,18308,36903
31576,18258,36836
31608,18225,36868
31596,18249,36802
31576,18295,36960
31416,18342,36909
31308,18405,37050
31296,18444,36890
31324,18404,36825
31424,18360,37040
31552,18308,36934
31656,18258,36917
31728,18240,36905
31734,18264,36832
31690,18318,37045
31640,18377,36933
31564,18447,36960
31519,18436,36798
31496,18420,36916
31492,18382,36924
31492,18340,36869
31584,18287,36847
31653,18268,36871
31576,18293,36868
31469,18329,36876
31485,18372,36975
31480,18437,36861
31440,18466,36797
31536,18464,36871
31640,18433,36836
31684,18348,36900
31736,18292,36808
31788,18276,36821
31812,18289,36837
31804,18335,36766
31749,18394,36784
31736,18470,36524
31768,18478,36916
31820,18475,36804
31874,18435,36756
31920,18389,36688
31984,18334,36701
32016,18317,36665
32010,18339,36473
31976,18388,36888
31884,18446,36760
31840,18464,36719
31833,18494,36679
31852,18475,36688
31912,18436,36605
31976,18394,36397
32044,18344,36740
31997,18333,36630
31965,18374,36372
31956,18364,36769
31916,18425,36525
31896,18501,36317
31880,18511,36724
31968,18507,36494
32084,18484,36409
32064,18397,36687
32100,18346,36541
32137,18332,36456
32168,18356,36480
32220,18405,36423
32200,18468,36388
32152,18491,36184
32076,18518,36569
32064,18518,36433
32044,18477,36332
32000,18441,36502
31976,18357,36393
32012,18333,36425
32048,18349,36301
32081,18396,36038
32036,18462,36420
32012,18540,36245
32016,18529,36092
32064,18519,36373
32124,18487,36221
32196,18432,36173
32256,18387,36138
32249,18376,36164
32140,18365,36077
32004,18410,36165
32021,18472,36103
32036,18541,36161
32005,18574,36025
32084,18524,35975
32056,18486,36008
32040,18433,36052
32110,18402,36009
32172,18367,36068
32208,18393,35972
32176,18429,36021
32149,18480,35940
32124,18551,36024
32108,18579,35884
32124,18543,35967
32088,18501,35857
32044,18457,35816
32080,18407,35826
32165,18373,35847
32216,18405,35777
32164,18453,35680
32149,18481,35729
32068,18540,35496
32012,18564,35679
32052,18552,35607
32124,18510,35577
32132,18468,35386
32160,18420,35740
32160,18390,35596
32124,18430,35343
32144,18441,35692
32208,18493,35497
32216,18561,35541
32228,18612,35352
32248,18565,35624
32244,18528,35425
32284,18486,35470
32340,18439,35473
32420,18427,35410
32440,18407,35156
32428,18471,35415
32349,18519,35471
32266,18591,35370
32244,18592,35369
32204,18572,35284
32221,18553,35045
32192,18502,35333
32201,18452,35214
32264,18403,35263
32284,18415,35287
32216,18465,35221
32164,18511,35167
32125,18587,35156
32112,18604,34998
32112,18602,35268
32064,18576,35116
32030,18495,34936
32084,18430,35084
32160,18406,35062
32236,18422,35180
32260,18480,35057
32224,18531,35152
32112,18589,34751
32028,18617,34916
31972,18607,34838
32036,18590,35076
32132,18498,34948
32208,18446,34936
32240,18439,34889
32204,18449,34929
32176,18501,34834
32148,18531,34732
32040,18589,34849
31901,18634,34784
31760,18621,34751
31637,18589,34670
31570,18533,34660
31644,18484,34632
31808,18429,34407
31973,18439,34713
32352,18482,34636
32876,18552,34600
33594,18606,34510
34828,18649,34552
36504,18637,34632
38592,18574,34437
40972,18517,34501
43392,18495,34486
45080,18460,34420
45792,18501,34316
45572,18537,34292
44200,18613,34232
41912,18656,34308
39104,18665,34177
36736,18659,34380
34892,18580,34305
33380,18538,34232
32620,18477,34205
32240,18453,34236
31956,18485,34134
31644,18530,34077
31380,18545,33927
31200,18612,34232
31040,18638,34108
30912,18642,33941
30776,18596,33988
30712,18534,34046
30600,18472,34159
30565,18452,34016
30438,18473,33916
30365,18517,33927
30332,18553,33967
30316,18611,33936
30208,18656,33881
30132,18641,33679
30092,18611,33962
30160,18540,33892
30292,18477,33777
30364,18466,33876
30412,18481,33850
30456,18521,33929
30412,18576,33812
30420,18633,33837
30376,18666,33777
30384,18671,33861
30408,18599,33757
30512,18551,33818
30524,18496,33700
30533,18473,33588
30554,18492,33732
30564,18513,33632
30536,18572,33524
30456,18636,33660
30400,18661,33324
30420,18655,33653
30512,18600,33481
30552,18552,33292
30640,18492,33316
30784,18465,33217
30777,18485,33404
30740,18532,33107
30680,18585,33286
30656,18661,33265
30646,18657,33287
30712,18648,33231
30784,18614,33197
30836,18579,33057
30860,18500,33153
30957,18476,32961
31034,18494,33210
31032,18517,32976
31078,18575,33060
31076,18650,33040
31064,18662,32974
31080,18661,32772
31092,18638,32978
31068,18566,32891
31008,18504,32741
31041,18479,33000
31092,18507,32912
31093,18532,32906
31064,18592,32848
30972,18639,32641
30890,18670,32871
30928,18660,32775
30992,18633,32708
31145,18597,32679
31312,18505,32668
31361,18476,32647
31444,18501,32633
31488,18537,32613
31464,18604,32596
31464,18670,32647
31460,18672,32620
31460,18662,32529
31512,18629,32628
31516,18591,32704
31572,18542,32581
31636,18517,32509
31717,18492,32528
31748,18532,32350
31714,18599,32623
31708,18656,32516
31728,18703,32359
31780,18695,32425
31884,18648,32550
31956,18607,32420
31968,18561,32496
32024,18490,32377
32096,18496,32439
32168,18540,32340
32248,18589,32323
32264,18664,32257
32244,18686,32262
32280,18695,32140
32393,18629,32319
32466,18596,32196
32552,18529,32216
32596,18513,32128
32600,18506,32012
32604,18541,31992
32584,18601,31861
32568,18689,32143
32516,18679,32043
32456,18679,31913
32472,18653,31937
32560,18608,31861
32628,18527,31852
32661,18497,31719
32584,18502,31848
32497,18567,31788
32420,18604,31780
32300,18677,31684
32188,18708,31921
32112,18676,31838
32024,18656,31721
31980,18605,31756
31912,18556,31570
31804,18496,31864
31680,18511,31769
31560,18552,31680
31461,18609,31684
31285,18681,31604
31056,18685,31800
30942,18687,31700
30840,18655,31517
30696,18620,31745
30636,18537,31660
30560,18497,31674
30536,18512,31624
30476,18549,31719
30348,18599,31609
30206,18671,31598
30088,18689,31574
30088,18701,31560
30084,18660,31621
30074,18597,31495
30112,18541,31519
30137,18519,31417
30108,18549,31538
30060,18550,31508
29980,18604,31517
29944,18679,31461
29900,18692,31359
29945,18679,31364
29948,18660,31255
29970,18607,31504
29997,18565,31407
30056,18499,31310
30048,18528,31406
30052,18558,31398
30040,18615,31416
29928,18691,31346
29860,18695,31167
29828,18686,31432
29877,18655,31290
29936,18625,31127
30028,18534,31377
30068,18508,31289
30074,18517,31247
30076,18551,31180
30052,18605,31140
30044,18677,31116
30044,18703,31124
30104,18708,31096
30172,18675,31192
30244,18598,31081
30300,18541,31160
30340,18511,31065
30336,18527,31049
30336,18575,31136
30312,18604,31144
30220,18663,31121
30204,18711,31022
30316,18696,31048
30377,18675,30943
30460,18601,31141
30520,18561,31052
30564,18527,30926
30584,18549,30941
30576,18567,31032
30612,18619,30996
30609,18685,31012
30528,18700,31057
30572,18690,30997
30632,18656,31033
30664,18617,30800
30720,18557,30905
30820,18518,30848
30908,18533,30908
30877,18572,30821
30840,18645,30888
30860,18663,30768
30852,18700,30952
30816,18716,30929
30824,18663,30991
30856,18617,30900
30860,18567,30996
30862,18542,30893
30868,18516,30920
30848,18567,30896
30856,18619,30936
30884,18706,30871
30881,18705,30753
30913,18708,30762
30916,18661,30704
30904,18604,30925
30996,18556,30858
31104,18533,30936
31102,18519,30861
31090,18560,30829
31084,18628,30871
30984,18666,30899
30924,18698,30865
30960,18706,30889
31068,18667,30857
31152,18631,30877
31228,18542,30846
31260,18526,30702
31244,18545,30765
31212,18551,30696
31160,18604,30916
31220,18662,30660
31196,18713,30751
31228,18713,30752
31188,18657,30840
31220,18609,30734
31328,18567,30821
31376,18511,30839
31388,18520,30950
31352,18564,30844
31308,18637,30737
31276,18685,30873
31239,18718,30864
31240,18694,30848
31276,18658,30864
31332,18619,30734
31420,18593,30936
31520,18518,30870
31544,18526,30733
31544,18566,30871
31492,18624,30688
31456,18665,30924
31388,18696,30854
31376,18703,30678
31384,18684,30908
31396,18604,30868
31432,18551,30716
31464,18531,30801
31517,18543,30772
31508,18563,30948
31440,18620,30900
31376,18660,30785
31360,18697,30829
31392,18710,30927
31480,18655,30796
31532,18610,30999
31568,18572,30935
31688,18515,30769
31708,18533,31044
31696,18573,30936
31680,18602,30784
31668,18664,30957
31612,18721,30869
31660,18698,30978
31742,18676,30977
31780,18604,30975
31884,18564,30876
31990,18508,31009
32032,18524,30932
32020,18546,31012
31961,18600,30815
31896,18673,31092
31830,18696,31033
31792,18693,30920
31836,18673,31079
31856,18604,31050
31917,18564,31042
31932,18504,30876
31960,18525,30992
31928,18543,31012
31908,18596,30885
31892,18665,31163
31896,18688,31009
31888,18693,30926
31888,18682,31005
31929,18599,31209
32084,18554,31140
32172,18529,31026
32156,18514,31233
32064,18567,31072
32000,18596,31157
31920,18674,30998
31892,18692,31074
31961,18704,31218
31984,18645,31140
32012,18607,31190
32081,18566,31324
32172,18513,31239
32184,18505,31204
32204,18548,31263
32176,18588,31245
32096,18673,31148
31964,18689,31205
31789,18705,31296
31664,18648,31230
31676,18624,31263
31784,18541,31096
32028,18520,31367
32157,18504,31289
32428,18546,31127
32860,18586,31228
33368,18667,31384
34256,18692,31440
35924,18708,31352
37960,18644,31192
40356,18620,31308
42740,18537,31444
44764,18528,31400
46352,18501,31408
47202,18574,31308
47144,18583,31427
46092,18656,31448
44152,18723,31426
41500,18674,31441
38936,18649,31364
36728,18628,31508
34792,18532,31497
33532,18517,31368
32864,18496,31530
32415,18540,31408
32000,18576,31527
31620,18649,31444
31328,18693,31436
31104,18671,31329
30916,18647,31588
30712,18609,31549
30532,18541,31550
30432,18522,31420
30340,18499,31652
30216,18540,31533
30125,18579,31417
30084,18655,31628
30080,18695,31471
30096,18675,31571
30172,18645,31506
30292,18585,31575
30420,18533,31612
30536,18495,31513
30597,18498,31608
30620,18540,31542
30592,18575,31742
30552,18650,31668
30488,18682,31615
30416,18663,31733
30469,18638,31722
30521,18617,31549
30624,18537,31780
30688,18508,31684
30693,18491,31572
30692,18540,31804
30664,18594,31692
30652,18633,31796
30612,18678,31742
30625,18663,31804
30632,18645,31820
30664,18608,31745
30752,18520,31817
30864,18494,31812
30920,18489,31829
30948,18534,31750
30953,18593,31812
30920,18628,31640
30913,18677,31879
30924,18663,31829
30976,18639,31895
31024,18598,31783
31096,18519,32005
31162,18491,31911
31158,18526,31844
31141,18533,32031
31140,18591,31981
31056,18639,31797
31016,18691,32087
31040,18665,31976
31112,18638,31918
31213,18612,32180
31280,18532,31994
31340,18500,32127
31342,18480,32044
31288,18530,32212
31288,18564,32071
31340,18638,32168
31416,18679,32111
31456,18657,32230
31488,18641,32229
31548,18593,32180
31576,18518,32304
31660,18499,32244
31712,18487,32284
31744,18535,32182
31680,18559,32284
31640,18625,32300
31656,18657,32106
31656,18665,32282
31716,18668,32311
31816,18577,32364
31952,18529,32252
32016,18477,32391
32028,18486,32377
31984,18506,32180
32022,18574,32371
32056,18639,32518
32072,18651,32415
32180,18670,32438
32244,18615,32336
32252,18591,32506
32268,18506,32465
32364,18484,32455
32460,18465,32260
32500,18510,32517
32493,18572,32429
32532,18613,32510
32576,18668,32393
32608,18649,32509
32660,18628,32530
32658,18584,32420
32728,18498,32613
32789,18472,32424
32840,18497,32546
32856,18491,32455
32824,18567,32452
32820,18628,32329
32813,18637,32668
32792,18647,32452
32780,18601,32568
32824,18570,32576
32912,18496,32405
32948,18469,32502
32992,18460,32628
32928,18501,32592
32844,18557,32492
32717,18633,32524
32648,18636,32608
32641,18652,32519
32608,18602,32660
32552,18567,32742
32528,18492,32604
32464,18468,32642
32360,18452,32601
32212,18487,32560
32116,18551,32484
32066,18592,32758
31973,18644,32576
31841,18628,32700
31696,18604,32600
31672,18540,32836
31656,18492,32730
31644,18484,32629
31624,18452,32665
31620,18496,32749
31585,18525,32655
31498,18591,32829
31408,18616,32775
31404,18616,32688
31440,18597,32864
31476,18536,32774
31536,18484,32573
31556,18439,32868
31536,18453,32794
31524,18507,32660
31440,18522,32719
31364,18577,32900
31360,18617,32765
31380,18637,32838
31468,18573,32916
31525,18536,32852
31604,18473,32668
31664,18432,32897
31688,18458,32844
31636,18456,32676
31644,18519,32972
31628,18567,32866
31604,18617,32641
31668,18617,32960
31712,18572,32842
31696,18529,32783
31709,18486,33001
31796,18428,32780
31868,18469,32893
31876,18469,32805
31800,18530,32792
31741,18557,32804
31698,18612,32868
31704,18615,32677
31776,18565,33000
31848,18524,32903
31918,18477,32852
32028,18414,32871
32005,18421,32807
32000,18473,32892
31976,18493,32920
31877,18565,32808
31792,18586,32856
31800,18601,32924
31804,18601,32959
31888,18514,32900
31993,18461,32752
32076,18404,33021
32084,18415,32940
32064,18444,33034
32028,18510,32933
32028,18543,33042
32012,18593,32933
32030,18596,33039
32054,18570,32728
32124,18493,33012
32188,18439,32796
32196,18407,33018
32232,18416,32725
32240,18428,33060
32305,18473,32736
32276,18543,32983
32224,18591,32929
32233,18608,33052
32220,18535,32774
32210,18512,32996
32224,18443,32757
32356,18409,32873
32445,18389,32732
32412,18413,32992
32336,18472,32973
32336,18552,32919
32384,18559,32915
32372,18576,32863
32386,18544,32877
32412,18485,32812
32460,18417,32877
32544,18377,32937
32568,18393,32985
32548,18418,33036
32496,18475,32956
32476,18511,33068
32377,18544,32968
32373,18571,33030
32372,18541,32957
32360,18470,32887
32408,18428,32916
32472,18381,32933
32596,18364,33028
32600,18397,32957
32572,18445,33047
32540,18507,32924
32548,18559,33023
32544,18564,32773
32526,18552,32877
32568,18465,32821
32628,18413,32838
32700,18361,32685
32684,18358,32900
32661,18404,32743
32620,18444,32899
32569,18516,32718
32508,18577,32865
32464,18528,32917
32552,18501,32908
32604,18466,32980
32668,18396,32904
32748,18362,32972
32769,18370,32903
32788,18373,32962
32720,18415,32906
32612,18500,32916
32557,18525,32892
32584,18541,32917
32620,18535,32880
32656,18439,32804
32709,18394,32796
32704,18367,32700
32708,18333,32823
32722,18363,32869
32724,18417,32840
32672,18487,32871
32596,18505,32942
32592,18504,32857
32656,18494,32695
32752,18444,32775
32856,18404,32647
32912,18324,32985
32896,18318,32868
32917,18353,32997
32884,18410,32873
32828,18452,32887
32772,18499,32853
32668,18509,32785
32625,18480,32769
32664,18413,32748
32668,18389,32876
32677,18375,32902
32688,18311,32866
32660,18360,32976
32636,18392,32869
32640,18460,32900
32656,18516,32757
32708,18529,32808
32764,18460,32881
32788,18404,32871
32793,18351,32906
32836,18310,32744
32820,18324,32790
32789,18326,32716
32777,18374,32804
32788,18455,32633
32812,18490,32902
32884,18525,32848
32936,18442,32933
32932,18399,32837
33012,18345,32861
33072,18309,32832
33088,18316,32747
33040,18315,32722
32928,18371,32644
32908,18432,32716
32862,18492,32708
32840,18468,32847
32856,18450,32796
32900,18435,32693
33002,18324,32684
33036,18303,32664
33044,18295,32853
32978,18325,32701
32964,18348,32732
32948,18405,32698
32981,18457,32826
32952,18477,32636
32960,18428,32831
33008,18375,32613
33088,18317,32673
33172,18272,32703
33144,18288,32700
33125,18321,32770
33054,18343,32676
33000,18407,32696
32976,18468,32676
32976,18441,32667
32944,18415,32540
32948,18380,32873
33004,18345,32775
33024,18262,32808
33032,18264,32757
33004,18316,32668
32900,18325,32887
32880,18396,32725
32840,18460,32541
32760,18435,32812
32628,18410,32749
32560,18387,32733
32664,18303,32773
32852,18254,32692
33032,18253,32681
33184,18295,32658
33496,18310,32653
33997,18383,32496
34628,18439,32852
35892,18423,32737
37700,18410,32744
39969,18374,32633
42524,18282,32524
44660,18254,32758
46368,18252,32708
47544,18316,32813
47964,18309,32484
47392,18402,32815
45968,18439,32698
43760,18463,32756
41068,18386,32552
38744,18337,32572
36718,18304,32500
35028,18244,32588
34020,18261,32565
33412,18247,32556
32944,18316,32557
32536,18373,32569
32160,18388,32560
31852,18401,32655
31616,18390,32708
31415,18341,32652
31228,18271,32717
31104,18222,32645
30985,18222,32673
30920,18248,32386
30864,18309,32697
30749,18343,32592
30666,18398,32694
30636,18405,32541
30716,18391,32690
30832,18320,32588
30864,18270,32572
30944,18233,32597
31028,18231,32681
31084,18236,32578
31100,18289,32698
31080,18343,32596
31052,18401,32662
31057,18410,32366
31060,18357,32477
31133,18316,32484
31180,18265,32551
31212,18222,32516
31192,18221,32583
31192,18221,32472
31200,18279,32505
31196,18351,32433
31160,18367,32551
31153,18398,32556
31196,18351,32598
31304,18312,32500
31348,18263,32420
31416,18199,32448
31404,18201,32508
31457,18228,32566
31492,18257,32484
31501,18310,32440
31540,18380,32384
31544,18384,32263
31581,18343,32452
31648,18315,32263
31660,18244,32380
31696,18210,32378
31766,18178,32484
31776,18208,32298
31732,18260,32503
31672,18334,32492
31608,18352,32557
31596,18366,32492
31624,18354,32391
31712,18287,32472
31776,18228,32479
31800,18187,32460
31836,18186,32364
31854,18196,32505
31860,18249,32464
31804,18345,32263
31756,18340,32576
31778,18358,32480
31845,18339,32498
31892,18314,32445
31944,18215,32372
32028,18176,32380
32125,18173,32325
32188,18208,32385
32180,18235,32244
32072,18300,32465
32020,18341,32292
32040,18352,32437
32172,18348,32396
32240,18271,32421
32319,18237,32357
32328,18193,32518
32388,18151,32440
32432,18184,32556
32472,18240,32454
32468,18315,32508
32445,18325,32465
32496,18341,32545
32574,18318,32464
32688,18285,32511
32780,18204,32456
32860,18181,32352
32894,18175,32369
32917,18170,32359
32968,18220,32430
32992,18291,32356
32960,18352,32352
32944,18331,32284
33008,18313,32423
33040,18281,32359
33057,18202,32372
33080,18174,32329
33136,18161,32420
33173,18200,32353
33196,18213,32424
33172,18278,32495
33132,18327,32452
33088,18348,32369
33072,18296,32236
33140,18253,32368
33192,18217,32372
33220,18180,32408
33218,18137,32388
33204,18168,32384
33188,18229,32397
33180,18277,32471
33020,18333,32407
32940,18351,32402
32933,18335,32388
32872,18249,32543
32848,18212,32526
32808,18161,32662
32696,18159,32572
32588,18159,32647
32432,18202,32592
32320,18277,32514
32216,18338,32487
32108,18321,32383
32100,18311,32604
32044,18277,32612
31972,18189,32624
31920,18144,32608
31844,18148,32412
31808,18149,32749
31778,18204,32607
31732,18277,32450
31688,18301,32641
31656,18329,32574
31684,18303,32687
31728,18265,32789
31756,18183,32709
31728,18131,32794
31784,18123,32745
31772,18166,32812
31668,18198,32515
31624,18258,32719
31608,18315,32568
31640,18305,32844
31706,18288,32760
31757,18248,32703
31776,18232,32775
31892,18120,32797
31936,18118,32756
31929,18145,32707
31892,18207,32708
31884,18243,32696
31872,18304,32866
31852,18311,32588
31872,18277,32900
31920,18229,32836
31925,18176,32804
31944,18149,32716
31992,18109,32615
31944,18149,32910
31896,18204,32840
31924,18230,32813
31916,18294,32796
31924,18306,32724
31932,18300,32714
31956,18227,32704
31992,18183,32740
32016,18156,32716
32044,18098,32815
32056,18138,32608
32056,18197,32841
32080,18231,32604
32029,18282,32868
31988,18307,32846
31968,18262,32903
31988,18230,32839
32092,18176,32748
32216,18139,32796
32232,18095,32678
32292,18129,32817
32256,18187,32608
32228,18221,32948
32220,18292,32854
32176,18300,32910
32196,18303,32841
32224,18223,32749
32288,18184,32713
32352,18109,32733
32400,18092,32772
32396,18127,32594
32292,18184,32946
32208,18220,32825
32192,18287,32714
32246,18279,32940
32321,18279,32736
32366,18209,32821
32357,18164,32775
32432,18122,32799
32484,18089,32671
32492,18114,32871
32476,18177,32612
32480,18239,32941
32440,18262,32829
32368,18284,32724
32376,18260,32848
32432,18234,32597
32508,18151,32838
32614,18094,32577
32672,18094,32840
32636,18117,32813
32640,18176,32884
32560,18204,32805
32468,18259,32704
32484,18277,32825
32572,18282,32571
32580,18205,32871
32584,18157,32754
32649,18100,32541
32672,18087,32884
32685,18116,32789
32592,18182,32716
32540,18196,32732
32564,18269,32612
32580,18272,32662
32592,18260,32628
32644,18249,32664
32680,18132,32617
32728,18100,32681
32748,18070,32744
32744,18108,32656
32736,18168,32747
32700,18194,32512
32648,18254,32828
32644,18261,32708
32648,18258,32518
32704,18212,32833
32724,18127,32726
32748,18105,32608
32780,18084,32668
32764,18095,32476
32733,18153,32813
32656,18204,32701
32648,18237,32725
32680,18268,32647
32712,18260,32622
32708,18187,32682
32772,18132,32724
32800,18085,32684
32852,18092,32655
32828,18084,32648
32772,18144,32589
32788,18212,32570
32776,18238,32661
32744,18257,32789
32792,18256,32669
32808,18181,32687
32820,18128,32669
32825,18079,32753
32904,18095,32663
32924,18074,32764
32886,18139,32653
32824,18212,32644
32708,18228,32612
32604,18265,32538
32613,18245,32585
32692,18222,32528
32816,18123,32518
32888,18079,32399
32876,18079,32629
32872,18110,32492
32897,18121,32573
32880,18175,32680
32860,18233,32463
32820,18247,32631
32836,18231,32364
32888,18180,32561
32880,18148,32454
32900,18073,32656
32920,18047,32364
32850,18083,32470
32792,18121,32495
32744,18192,32572
32768,18223,32464
32828,18245,32672
32849,18246,32577
32885,18173,32584
32940,18125,32567
32940,18071,32612
32888,18068,32328
32864,18068,32608
32780,18110,32543
32728,18164,32604
32716,18228,32429
32712,18263,32592
32688,18213,32544
32756,18169,32596
32829,18129,32316
32848,18068,32639
32820,18077,32519
32818,18063,32439
32772,18118,32468
32740,18182,32292
32700,18245,32623
32732,18225,32525
32768,18221,32439
32844,18178,32436
32916,18149,32405
32960,18057,32412
33032,18041,32485
33057,18071,32500
33056,18129,32448
33040,18157,32397
32989,18211,32471
32936,18234,32468
32896,18236,32460
32968,18164,32420
32992,18111,32225
33008,18063,32517
32940,18069,32432
32885,18054,32351
32920,18101,32415
32965,18162,32334
32920,18227,32516
32870,18224,32321
32804,18215,32431
32824,18183,32437
32924,18154,32424
32980,18050,32343
32908,18052,32324
32896,18063,32317
32888,18114,32329
32836,18207,32248
32780,18203,32512
32764,18232,32412
32756,18237,32308
32808,18154,32365
32896,18116,32177
32952,18052,32329
32964,18033,32322
32932,18068,32263
32856,18116,32468
32792,18142,32364
32832,18212,32278
32844,18233,32316
32780,18201,32388
32728,18162,32276
32768,18116,32457
32876,18045,32353
32888,18034,32156
32820,18089,32340
32669,18090,32312
32456,18165,32263
32304,18226,32263
32348,18218,32128
32556,18207,32460
32776,18171,32356
33020,18098,32176
33496,18057,32448
34096,18031,32316
34812,18055,32108
36228,18084,32388
38064,18153,32335
40264,18228,32224
42529,18208,32222
44392,18200,32218
45880,18164,32280
46808,18153,32095
47016,18040,32376
46296,18053,32321
44772,18096,32388
42464,18083,32263
39921,18164,32104
37720,18228,32389
35700,18208,32210
34200,18205,32304
33390,18153,32208
32940,18104,32415
32600,18054,32085
32256,18021,32338
31929,18056,32196
31700,18102,32304
31508,18133,32193
31276,18199,32176
31096,18233,32292
30952,18190,32361
30825,18146,32303
30809,18113,32350
30812,18060,32276
30828,18068,32245
30808,18047,32175
30852,18084,32195
30856,18152,32249
30868,18184,32152
30796,18229,32352
30816,18205,32088
30952,18173,32304
31016,18095,32326
30972,18050,32432
30980,18051,32369
31001,18037,32398
31020,18084,32356
31020,18132,32377
30912,18196,32332
30860,18230,32189
30912,18183,32474
31008,18167,32394
31136,18111,32330
31220,18037,32500
31280,18017,32452
31292,18054,32524
31220,18097,32446
31184,18134,32348
31180,18190,32477
31184,18222,32460
31188,18188,32364
31212,18143,32432
31316,18098,32396
31469,18048,32544
31578,18029,32317
31596,18049,32548
31600,18081,32516
31568,18127,32589
31564,18192,32543
31540,18232,32476
31544,18186,32668
31616,18162,32560
31684,18137,32511
31712,18033,32618
31744,18036,32645
31792,18044,32644
31800,18104,32614
31752,18129,32508
31728,18192,32712
31684,18209,32678
31664,18183,32537
31668,18157,32824
31724,18117,32740
31832,18037,32644
31952,18013,32706
31964,18049,32654
31936,18079,32844
31844,18142,32796
31776,18185,32724
31796,18206,32753
31844,18196,32828
31886,18142,32728
31937,18102,32956
32016,18046,32844
32112,18044,32709
32192,18027,32974
32196,18081,32892
32216,18130,32912
32236,18203,32862
32304,18196,32687
32334,18180,33036
32332,18148,32920
32312,18111,32812
32404,18037,33076
32541,18011,32996
32632,18038,32935
32688,18072,32965
32700,18131,32925
32712,18213,33149
32768,18209,33016
32781,18196,33081
32820,18141,32893
32876,18106,33181
32900,18057,33082
32888,18011,32903
32916,18025,33261
32972,18079,33181
32972,18136,33308
32976,18228,33223
33036,18205,33159
33092,18200,33208
33121,18139,33273
33204,18097,33182
33272,18047,33181
33264,18034,33200
33244,18024,33329
33244,18076,33376
33204,18127,33364
33196,18197,33383
33236,18193,33339
33268,18183,33421
33308,18159,33220
33328,18101,33456
33332,18073,33278
33333,18006,33633
33256,18044,33556
33184,18086,33616
33092,18167,33604
33004,18176,33543
32916,18206,33540
32832,18212,33548
32774,18136,33585
32732,18094,33503
32680,18048,33733
32652,18045,33532
32613,18022,33636
32532,18071,33624
32452,18141,33684
32276,18204,33710
32096,18193,33772
31968,18191,33602
31872,18156,33957
31924,18132,33665
31984,18031,34018
32009,18021,33888
31984,18020,33846
31888,18068,33884
31780,18151,33980
31668,18175,34060
31618,18215,33895
31624,18185,34015
31672,18156,34047
31700,18088,34040
31812,18043,34077
31904,18060,34028
31916,18029,34228
31896,18065,34092
31832,18120,33889
31808,18205,34241
31784,18206,34118
31773,18204,34196
31820,18139,34112
31864,18098,34247
31924,18063,34244
32008,18007,34230
31960,18029,34184
31884,18085,34134
31884,18111,34405
31832,18196,34311
31800,18211,34324
31776,18181,34302
31776,18142,34276
31888,18095,34308
32026,18036,34417
32068,18029,34382
32088,18021,34404
32164,18074,34362
32164,18134,34317
32096,18175,34294
32028,18205,34180
32033,18190,34532
32068,18159,34452
32149,18119,34505
32260,18080,34220
32288,18008,34596
32256,18041,34514
32208,18081,34505
32148,18140,34493
32096,18169,34468
32101,18195,34516
32176,18198,34556
32272,18152,34545
32372,18116,34476
32388,18028,34468
32468,18018,34408
32508,18042,34524
32537,18120,34580
32494,18113,34692
32417,18187,34597
32392,18236,34541
32392,18182,34583
32400,18139,34511
32424,18110,34583
32444,18053,34395
32536,18009,34652
32624,18021,34396
32656,18076,34783
32640,18148,34676
32672,18173,34729
32654,18206,34677
32700,18192,34756
32728,18162,34681
32721,18090,34815
32782,18031,34708
32752,18012,34820
32708,18031,34484
32696,18076,34616
32680,18134,34664
32648,18168,34665
32625,18195,34806
32696,18201,34722
32736,18159,34821
32768,18120,34453
32780,18036,34620
32772,18009,34636
32777,18040,34704
32809,18068,34815
32764,18129,34732
32684,18204,34821
32648,18245,34718
32680,18182,34772
32716,18140,34477
32740,18116,34767
32788,18045,34676
32789,18029,34604
32828,18048,34668
32852,18089,34716
32824,18144,34701
32796,18229,34741
32724,18198,34688
32736,18180,34772
32774,18151,34677
32856,18115,34769
32936,18042,34670
32964,18025,34750
32956,18037,34661
32961,18079,34580
32896,18143,34500
32824,18224,34522
32808,18192,34549
32856,18183,34573
32957,18143,34565
33016,18117,34522
33068,18056,34529
33132,18005,34536
33133,18032,34335
33104,18066,34518
33004,18132,34335
32932,18169,34636
32916,18199,34472
33013,18195,34480
33052,18188,34308
33012,18095,34668
33036,18049,34311
33080,18020,34489
33108,18060,34256
33100,18057,34643
33088,18132,34520
33028,18179,34588
32980,18221,34500
32956,18176,34531
32996,18148,34365
33089,18126,34460
33144,18034,34520
33176,18020,34452
33152,18019,34362
33140,18079,34311
33137,18118,34192
33143,18203,34293
33132,18195,34244
33104,18188,34526
33072,18171,34406
33056,18098,34368
33080,18037,34357
33096,18019,34320
33092,18052,34332
33072,18059,34316
33124,18132,34412
33089,18197,34340
33037,18192,34291
33086,18188,34212
33140,18177,34070
33144,18140,34202
33152,18035,34153
33192,18019,34264
33200,18025,34132
33154,18088,34389
33108,18107,34292
32964,18177,34324
32892,18224,34242
32868,18233,34271
32908,18149,34255
33032,18096,34300
33124,18048,34240
33176,18023,34240
33234,18047,34221
33176,18098,34268
33109,18109,34215
33008,18188,34233
32956,18218,34183
32976,18190,34102
33084,18145,34148
33172,18109,33932
33208,18036,34247
33269,18020,34164
33348,18037,34132
33420,18057,34055
33392,18115,34148
33324,18187,34055
33208,18246,34116
33144,18191,34136
33100,18162,34036
33144,18128,34120
33194,18041,34113
33288,18016,34021
33344,18028,34132
33284,18089,34101
33204,18108,34172
33124,18173,34100
33136,18225,33927
33148,18197,34069
33100,18167,34088
33108,18143,34063
33116,18039,33952
33109,18014,33989
33065,18031,33863
33064,18086,34141
33068,18105,34016
33036,18165,34092
33032,18207,33989
33100,18212,33904
33144,18189,33908
33152,18097,33757
33116,18047,34076
33149,18032,33956
33157,18049,33958
33120,18095,33949
33096,18144,33828
32964,18164,33844
32948,18223,33975
32964,18199,33903
32960,18165,33956
33024,18161,33904
33113,18049,33808
33200,18033,33815
33184,18024,33860
33108,18062,33927
32877,18127,33838
32694,18177,33752
32520,18208,33714
32444,18212,33799
32502,18156,33857
32676,18110,33720
32920,18066,33543
33384,18018,33751
33960,18024,33524
34668,18069,33878
35832,18142,33740
37360,18167,33660
39268,18209,33624
41536,18237,33476
43796,18152,33812
45368,18126,33712
46144,18056,33676
46164,18069,33577
45072,18029,33544
43160,18057,33634
40768,18121,33618
38524,18199,33644
36732,18201,33600
35136,18196,33569
34108,18163,33535
33568,18124,33516
33164,18085,33445
32844,18012,33543
32608,18020,33501
32400,18082,33540
32208,18124,33552
32017,18168,33532
31765,18202,33495
31642,18212,33563
31516,18163,33564
31393,18125,33487
31328,18044,33372
31332,18034,33598
31348,18038,33332
31284,18090,33626
31228,18108,33509
31177,18180,33422
31140,18228,33449
31162,18191,33500
31224,18163,33420
31304,18141,33607
31428,18049,33481
31449,18034,33404
31468,18033,33382
31396,18082,33265
31372,18110,33564
31372,18172,33493
31341,18221,33388
31328,18215,33522
31388,18188,33470
31400,18108,33533
31441,18063,33439
31509,18030,33356
31538,18053,33297
31592,18064,33212
31604,18111,33372
31616,18194,33342
31604,18227,33248
31616,18196,33188
31596,18166,33094
31598,18119,33308
31708,18081,33012
31864,18044,33102
31960,18028,33021
32008,18062,33076
31962,18119,32968
31864,18195,33277
31870,18257,32952
31924,18193,33048
31933,18175,33140
31944,18132,33175
32024,18054,33158
32108,18017,33245
32148,18036,33124
32133,18093,33061
32132,18112,33167
32176,18170,33133
32261,18212,33129
32280,18212,33148
32356,18191,33159
32436,18113,33160
32520,18053,33181
32564,18028,33265
32604,18046,33172
32640,18057,33270
32636,18113,33188
32548,18189,33083
32476,18203,33260
32437,18196,33181
32456,18169,33236
32508,18164,33181
32568,18054,33124
32644,18040,33166
32752,18028,33205
32824,18079,33152
32812,18121,33177
32729,18211,33113
32660,18205,33284
32608,18219,33219
32644,18220,33332
32724,18113,33245
32832,18079,33337
32992,18037,33230
33048,18069,33350
33024,18056,33245
33008,18130,33140
33004,18181,33201
33016,18228,33156
33093,18199,33124
33245,18158,33142
33325,18135,33159
33424,18068,33151
33440,18046,33147
33488,18084,33137
33557,18062,33212
33620,18135,33048
33556,18209,33300
33548,18204,33271
33592,18201,33346
33625,18167,33174
33696,18135,33242
33758,18101,33329
33788,18025,33261
33832,18032,33377
33844,18085,33277
33812,18138,33380
33788,18172,33287
33757,18209,33377
33764,18222,33044
33757,18180,33405
33768,18141,33294
33772,18057,33287
33775,18023,33254
33772,18029,33322
33728,18077,33153
33742,18149,33277
33684,18169,33404
33584,18219,33296
33568,18197,33196
33508,18174,33189
33448,18135,33071
33368,18060,33272
33272,18037,33177
33126,18034,33204
32964,18089,33348
32829,18116,33268
32656,18193,33286
32528,18211,33188
32377,18201,33199
32212,18184,33253
32116,18131,33358
32068,18074,33302
32044,18030,33204
31916,18053,33415
31740,18084,33294
31564,18118,33194
31492,18174,33243
31408,18220,33284
31378,18221,33352
31340,18206,33284
31348,18120,33216
31340,18077,33317
31344,18057,33305
31300,18031,33196
31237,18090,33303
31140,18128,33292
31076,18205,33397
31132,18209,33287
31196,18212,33184
31164,18190,33166
31192,18125,33031
31256,18070,33309
31336,18037,33236
31376,18044,33174
31358,18090,33180
31288,18115,33093
31212,18183,33316
31192,18228,33173
31184,18241,33124
31232,18172,33141
31360,18128,33045
31444,18080,32996
31464,18033,33108
31520,18047,33129
31521,18079,33087
31440,18147,32956
31412,18172,32933
31428,18212,32799
31405,18219,33040
31450,18199,32965
31488,18127,32961
31564,18077,32946
31632,18062,32840
31624,18031,32688
31584,18075,32922
31568,18118,32650
31536,18195,32955
31621,18214,32832
31620,18213,32708
31652,18185,32924
31716,18152,32765
31788,18071,32686
31820,18044,32656
31853,18052,32650
31876,18079,32688
31912,18132,32688
31905,18205,32641
31828,18213,32536
31829,18223,32598
31896,18194,32605
31876,18130,32572
31872,18070,32574
31921,18033,32456
31952,18052,32431
31932,18087,32300
31876,18115,32596
31804,18197,32488
31816,18234,32292
31856,18212,32550
31865,18173,32430
31908,18129,32455
31992,18082,32356
32072,18062,32137
32026,18033,32422
32036,18077,32297
32044,18145,32092
32060,18179,32228
31984,18224,32336
31972,18212,32166
32025,18197,32182
32044,18138,32256
32100,18106,32148
32092,18038,32000
32016,18049,32165
31924,18092,31988
31944,18117,32060
31988,18180,32103
31973,18224,32031
31960,18226,31903
31980,18225,32077
31932,18127,31953
31968,18092,31831
32068,18058,31960
32136,18038,31910
32092,18073,31842
32068,18130,31751
31996,18200,31613
31932,18244,31888
32010,18209,31581
32132,18194,31824
32180,18158,31632
32224,18070,31731
32260,18044,31593
32252,18081,31797
32244,18071,31653
32210,18127,31559
32152,18197,31589
32072,18247,31456
32040,18209,31683
32048,18188,31556
32072,18160,31431
32140,18072,31590
32208,18052,31427
32212,18041,31464
32176,18077,31355
32160,18123,31407
32132,18225,31440
32092,18221,31314
32104,18226,31378
32060,18181,31380
32080,18136,31324
32128,18076,31300
32196,18052,31104
32244,18033,31244
32268,18085,31385
32220,18116,31180
32128,18198,31244
32112,18240,31109
32064,18213,31303
32041,18192,31092
32100,18159,30972
32252,18073,31048
32304,18036,31020
32320,18054,31012
32296,18097,30912
32244,18114,31086
32168,18194,31028
31988,18210,31060
31868,18232,30924
31898,18199,30946
32060,18173,30879
32120,18071,30893
32212,18054,30952
32176,18062,30983
32128,18069,30922
32136,18114,30989
32160,18196,30896
32237,18240,30877
32297,18214,30876
32328,18189,30816
32340,18149,30671
32388,18093,30907
32471,18071,30788
32512,18036,30660
32452,18082,30711
32372,18140,30576
32328,18175,30796
32225,18223,30612
32208,18229,30761
32284,18189,30569
32332,18140,30668
32393,18124,30466
32448,18037,30695
32416,18052,30432
32308,18096,30676
32284,18117,30572
32300,18186,30447
32320,18238,30503
32304,18213,30396
32300,18196,30401
32292,18150,30368
32316,18100,30364
32372,18086,30324
32353,18042,30471
32324,18076,30426
32292,18170,30343
32264,18177,30364
32264,18228,30269
32244,18244,30260
32237,18180,30148
32296,18142,30412
32328,18105,30327
32332,18042,30173
32364,18060,30271
32388,18064,30268
32376,18140,30118
32357,18201,30333
32344,18215,30240
32376,18228,30104
32424,18204,30300
32445,18138,30188
32456,18078,30084
32416,18056,30108
32308,18070,29991
32169,18071,30178
32048,18132,30156
32000,18208,30008
31981,18221,30186
32124,18244,30034
32268,18189,30105
32604,18156,29927
33112,18116,30084
33848,18047,30028
34928,18052,30082
36462,18070,29942
38256,18133,30132
40356,18218,30036
42640,18217,29921
44524,18236,30045
45596,18240,30010
45912,18164,29976
45208,18128,30052
43648,18039,29936
41356,18057,29988
38884,18116,29876
36840,18116,29879
35052,18199,29956
33736,18228,29952
32992,18260,29845
32560,18184,29771
32272,18143,30016
32032,18093,29924
31848,18063,29798
31653,18037,29960
31496,18064,29916
31324,18119,29881
31136,18183,29884
30960,18246,29869
30869,18221,29753
30788,18204,29871
30664,18177,29868
30625,18084,29833
30620,18054,29815
30620,18060,29872
30628,18068,29734
30626,18123,29934
30584,18213,29887
30532,18235,29816
30504,18234,29695
30556,18211,29949
30676,18144,29770
30804,18109,29874
30852,18045,29684
30856,18057,29752
30940,18069,29965
31000,18134,29872
31013,18196,29701
31024,18215,29844
31018,18243,29798
30986,18205,29764
30996,18164,29926
31018,18084,29815
31073,18041,29672
31120,18056,29916
31158,18093,29845
31116,18122,29851
31100,18199,29733
31081,18218,29649
31104,18223,29876
31136,18204,29727
31188,18177,29810
31292,18083,29670
31398,18061,29836
31464,18057,29806
31460,18093,29741
31444,18113,29703
31424,18189,29624
31409,18234,29863
31380,18268,29808
31416,18188,29727
31490,18144,29748
31612,18089,29868
31692,18064,29816
31704,18040,29776
31700,18086,29901
31660,18141,29777
31680,18175,29974
31672,18222,29914
31708,18241,29831
31696,18189,29885
31768,18150,29969
31836,18111,29847
31888,18086,29972
31932,18040,29977
31896,18075,29888
31897,18133,29925
31864,18168,30002
31760,18236,29829
31716,18249,30055
31784,18191,29920
31948,18148,29822
32101,18093,30021
32176,18061,29838
32244,18068,30004
32304,18060,30036
32350,18121,30123
32344,18183,30052
32333,18240,30025
32304,18252,30038
32352,18191,29937
32388,18156,30000
32424,18098,29887
32458,18074,30177
32492,18033,30100
32488,18078,30132
32492,18132,30084
32560,18201,29972
32616,18215,30047
32636,18220,29933
32704,18206,30205
32762,18174,30129
32820,18089,29997
32880,18057,30116
32944,18076,30104
33020,18070,29947
33053,18120,30208
33060,18204,30137
33040,18214,29956
33044,18230,30222
33104,18228,30160
33156,18142,30029
33172,18092,30173
33172,18063,30170
33184,18041,30040
33184,18087,30271
33218,18154,30092
33232,18168,30180
33232,18234,30266
33248,18244,30117
33308,18189,30033
33369,18153,30168
33396,18113,30109
33416,18047,30207
33376,18040,30169
33256,18084,30196
33112,18130,30073
33056,18207,30311
33012,18220,30231
32956,18236,30133
32788,18209,30180
32688,18149,30068
32628,18086,30297
32560,18047,30071
32492,18056,30353
32400,18086,30268
32212,18116,30163
31984,18174,30328
31836,18222,30287
31780,18253,30196
31790,18190,30260
31736,18164,30180
31632,18122,30284
31592,18049,30117
31552,18046,30268
31504,18077,30124
31504,18127,30260
31424,18196,30359
31280,18220,30295
31240,18221,30348
31264,18213,30244
31297,18156,30359
31325,18111,30257
31382,18070,30353
31401,18069,30284
31342,18071,30505
31284,18127,30407
31188,18193,30302
31140,18213,30428
31176,18245,30445
31252,18221,30287
31352,18146,30541
31392,18098,30456
31416,18066,30404
31432,18078,30441
31316,18077,30453
31284,18132,30374
31300,18177,30480
31324,18236,30480
31348,18248,30368
31372,18194,30438
31464,18153,30484
31552,18109,30414
31606,18040,30572
31625,18058,30406
31636,18065,30300
31630,18125,30366
31628,18174,30509
31576,18231,30493
31544,18244,30452
31568,18196,30489
31604,18153,30399
31697,18100,30425
31776,18068,30341
31780,18039,30598
31724,18079,30526
31712,18110,30404
31724,18175,30429
31712,18217,30337
31684,18242,30589
31752,18194,30525
31792,18148,30382
31844,18104,30653
31936,18071,30567
31904,18037,30445
31870,18081,30592
31892,18129,30561
31872,18168,30404
31844,18231,30652
31900,18239,30570
31944,18223,30412
31960,18141,30596
32004,18105,30640
32080,18100,30556
32134,18041,30616
32164,18077,30504
32152,18114,30717
32096,18172,30617
31992,18236,30447
31998,18236,30655
32028,18228,30594
32066,18156,30581
32080,18120,30660
32146,18046,30477
32254,18050,30748
32296,18079,30655
32284,18113,30479
32236,18180,30654
32176,18242,30653
32084,18238,30697
32084,18224,30496
32184,18144,30642
32308,18093,30688
32391,18074,30692
32420,18039,30513
32417,18078,30681
32348,18141,30633
32305,18168,30535
32260,18234,30708
32288,18242,30649
32360,18197,30739
32401,18158,30598
32448,18118,30839
32484,18045,30653
32512,18052,30764
32452,18108,30568
32452,18111,30812
32440,18191,30756
32404,18238,30572
32392,18220,30757
32352,18215,30784
32392,18149,30756
32360,18104,30801
32372,18081,30676
32428,18043,30816
32504,18071,30780
32560,18164,30804
32600,18173,30685
32576,18230,30885
32596,18223,30894
32564,18208,30727
32548,18149,30808
32528,18102,30829
32572,18079,30677
32625,18052,30687
32645,18101,30847
32672,18126,30812
32638,18196,30879
32599,18212,30764
32648,18240,30976
32656,18212,30796
32708,18148,30912
32812,18114,30798
32888,18066,30823
32872,18084,30928
32828,18068,30901
32748,18124,30873
32724,18201,30752
32688,18214,30970
32728,18223,30946
32748,18213,30871
32761,18175,30936
32736,18129,30781
32812,18048,31072
32920,18060,30907
32864,18079,30812
32804,18138,31030
32756,18167,30985
32708,18215,30860
32745,18244,31151
32800,18214,31077
32812,18175,30957
32844,18100,30962
32928,18052,30929
32952,18052,30972
32936,18076,30879
32884,18140,31181
32840,18167,31072
32832,18237,30892
32812,18252,31082
32808,18198,31004
32800,18175,31125
32808,18109,31044
32824,18071,31017
32804,18039,31124
32772,18065,31081
32716,18122,31023
32700,18180,31129
32725,18248,31080
32645,18223,31024
32694,18202,30949
32833,18164,31138
32848,18093,31045
32884,18050,30945
32926,18045,31260
32948,18075,31172
32917,18137,31056
32894,18172,31163
32864,18236,31190
32884,18249,31076
32929,18196,31274
32920,18161,31109
32976,18124,31007
33064,18049,31145
33096,18068,31278
33084,18100,31189
33072,18113,31012
33076,18186,31154
33064,18222,31304
33008,18240,31180
32974,18196,31237
32964,18165,31061
32980,18100,31239
33016,18055,31201
33064,18048,31052
33084,18095,31264
33108,18118,31214
33080,18172,31264
32968,18233,31184
32937,18240,31170
32956,18225,31273
32996,18149,31268
32992,18124,31212
33040,18071,31282
33076,18044,31108
33088,18089,31323
33060,18148,31282
32976,18169,31268
32944,18236,31298
32968,18275,31116
32960,18203,31401
32982,18164,31301
32996,18106,31116
33024,18080,31420
33006,18044,31308
33012,18080,31104
33032,18137,31311
33013,18171,31356
32925,18234,31319
32840,18246,31252
32784,18245,31224
32704,18164,31334
32548,18116,31120
32544,18084,31321
32602,18048,31239
32724,18089,31350
32854,18139,31136
33048,18172,31289
33504,18223,31284
34168,18248,31352
35012,18209,31288
36656,18156,31265
38748,18131,31156
41188,18071,31402
43477,18088,31364
45364,18065,31244
46872,18124,31388
47772,18186,31337
47900,18265,31384
47004,18230,31420
45360,18230,31274
42944,18197,31377
40308,18102,31364
38064,18081,31252
36012,18063,31444
34481,18104,31374
33640,18113,31205
33064,18178,31472
32633,18236,31265
32268,18229,31374
31984,18206,31380
31692,18178,31279
31492,18103,31375
31448,18068,31373
31308,18045,31361
31172,18095,31257
31032,18118,31373
30908,18175,31252
30824,18238,31471
30764,18254,31367
30744,18205,31352
30776,18161,31351
30885,18121,31188
30952,18071,31462
31024,18071,31377
31097,18064,31262
31132,18116,31340
31072,18183,31247
31016,18222,31488
31022,18244,31392
31084,18233,31280
31116,18159,31456
31168,18114,31431
31272,18063,31334
31336,18059,31344
31372,18084,31274
31357,18150,31536
31312,18165,31446
31260,18213,31340
31220,18235,31374
31228,18222,31332
31312,18168,31359
31360,18118,31324
31429,18076,31333
31464,18085,31239
31496,18069,31424
31557,18122,31436
31556,18174,31470
31533,18234,31406
31560,18260,31300
31572,18211,31469
31634,18180,31396
31696,18120,31276
31716,18089,31540
31680,18047,31412
31660,18080,31239
31644,18139,31492
31616,18175,31436
31600,18223,31257
31684,18239,31484
31768,18226,31460
31860,18218,31387
31900,18109,31562
32008,18080,31476
32084,18078,31304
32036,18068,31623
32024,18136,31516
32000,18189,31332
31962,18247,31526
31880,18274,31341
31884,18207,31656
31916,18164,31361
32024,18107,31677
32128,18081,31591
32164,18060,31583
32184,18104,31573
32128,18115,31484
32148,18168,31593
32096,18234,31611
32112,18256,31594
32172,18261,31589
32212,18164,31520
32317,18120,31724
32376,18087,31628
32440,18079,31604
32434,18110,31644
32448,18111,31556
32384,18167,31605
32364,18215,31561
32384,18235,31637
32448,18212,31575
32556,18178,31674
32653,18137,31684
32760,18057,31791
32812,18044,31716
32852,18073,31780
32928,18138,31713
32928,18181,31644
32944,18249,31632
32985,18261,31620
33032,18210,31613
33080,18166,31588
33120,18130,31836
33168,18073,31741
33212,18076,31716
33224,18122,31738
33224,18108,31661
33236,18184,31757
33228,18232,31760
33236,18257,31744
33232,18207,31655
33224,18175,31764
33241,18114,31730
33316,18071,31745
33320,18055,31693
33336,18081,31740
33368,18127,31698
33316,18193,31695
33244,18218,31609
33189,18231,31762
33093,18229,31708
33086,18188,31828
33076,18149,31751
33033,18061,31887
32996,18060,31766
32916,18068,31858
32836,18118,31653
32720,18192,31952
32496,18215,31819
32357,18229,31668
32312,18218,31920
32344,18183,31866
32292,18136,31772
32246,18063,32003
32228,18047,31918
32201,18085,31802
32164,18119,32012
32100,18202,31929
31976,18216,31828
31952,18228,31952
31900,18263,32056
31876,18167,31944
31873,18110,31863
31948,18070,32088
31964,18079,31941
31968,18064,31764
31972,18108,32054
31946,18165,31999
31908,18237,32101
31840,18251,32021
31804,18209,31984
31864,18184,32092
31960,18137,32028
32044,18058,31884
32140,18044,32056
32160,18078,32062
32124,18143,31952
32088,18212,31967
32060,18218,32056
32068,18243,31964
32060,18229,32180
32092,18164,32007
32117,18120,32087
32100,18071,32092
32116,18068,32016
32100,18064,31871
32112,18101,32133
32142,18185,32062
32128,18228,31894
32068,18252,32108
32068,18244,32078
32112,18163,32059
32092,18110,31980
32148,18083,32088
32280,18069,32028
32385,18059,32119
32364,18109,31863
32308,18171,32178
32304,18224,32093
32284,18241,32141
32296,18221,32084
32304,18192,32180
32308,18106,32100
32352,18055,32140
32392,18063,32080
32392,18074,32133
32341,18119,32100
32356,18174,32166
32300,18228,32080
32253,18256,32122
32264,18213,32097
32329,18202,32193
32432,18114,32087
32489,18057,32135
32560,18045,31874
32608,18061,32192
32588,18128,32079
32564,18190,31892
32532,18210,32004
32508,18242,32155
32536,18236,32071
32592,18164,31892
32664,18128,32085
32688,18076,32072
32728,18103,31959
32672,18060,32177
32664,18113,32076
32672,18180,32116
32578,18224,32068
32512,18241,32148
32553,18239,32022
32580,18167,31831
32656,18117,32048
32696,18077,31834
32764,18058,32159
32762,18103,32023
32720,18100,31854
32716,18175,32146
32712,18217,32054
32701,18255,31938
32744,18241,31996
32792,18167,31878
32860,18114,32037
32872,18084,32029
32941,18065,31815
32886,18101,32084
32812,18109,31976
32816,18159,31892
32848,18230,32092
32880,18258,31983
32908,18240,31924
32908,18208,31930
32948,18111,31857
33028,18059,31868
33080,18047,31945
33068,18087,31997
33020,18120,31863
32916,18180,31817
32830,18228,31828
32796,18246,31760
32820,18237,31941
32892,18213,31718
32912,18173,31922
32896,18062,31766
32920,18044,31889
32912,18064,31672
32920,18117,31804
32908,18161,31788
32892,18224,31900
32888,18258,31918
32852,18209,31869
32820,18183,31670
32820,18164,31970
32864,18054,31870
32884,18047,31761
32864,18081,31839
32896,18127,31912
32956,18160,31828
32936,18231,31936
32968,18262,31840
32993,18213,31860
32968,18183,31812
32913,18127,31816
32948,18110,31790
33040,18039,31759
33116,18061,31808
33100,18111,31708
33060,18191,31772
33001,18268,31572
33000,18228,31781
33012,18214,31588
33057,18185,31886
33121,18126,31788
33152,18085,31824
33108,18070,31556
33080,18087,31665
33029,18154,31668
32936,18151,31660
32858,18212,31656
32876,18234,31744
32892,18224,31800
32972,18186,31751
32997,18116,31560
33000,18069,31863
33040,18062,31748
33048,18074,31772
33016,18132,31747
32992,18155,31678
33005,18206,31718
32992,18236,31620
33004,18225,31616
33013,18194,31508
33002,18110,31764
32996,18061,31708
32985,18041,31807
32920,18065,31692
32888,18116,31751
32884,18184,31683
32868,18213,31671
32880,18234,31660
32924,18228,31533
32916,18206,31615
32952,18122,31456
32988,18063,31773
33032,18049,31665
33000,18077,31597
33004,18127,31636
32956,18157,31551
32948,18212,31558
32871,18238,31438
32944,18232,31732
32974,18214,31613
32972,18119,31495
33045,18085,31652
33088,18055,31600
33188,18084,31641
33189,18102,31544
33176,18173,31612
33129,18215,31488
33100,18241,31557
33112,18238,31378
33141,18228,31692
33181,18115,31588
33188,18071,31398
33144,18068,31665
33056,18053,31562
33044,18100,31434
33045,18157,31676
32981,18228,31570
32960,18258,31469
32965,18208,31606
32992,18171,31550
33076,18132,31367
33104,18071,31589
33128,18039,31524
33144,18070,31396
33076,18129,31644
33056,18150,31450
33028,18217,31534
33044,18252,31494
33040,18240,31508
33012,18165,31335
33024,18138,31620
33116,18076,31525
33180,18060,31493
33164,18087,31525
33120,18102,31413
33104,18161,31486
33040,18229,31519
32996,18263,31548
32988,18211,31444
32996,18188,31513
33044,18124,31428
33125,18066,31396
33132,18052,31302
33156,18092,31589
33110,18098,31468
33008,18172,31303
32768,18238,31609
32592,18226,31482
32628,18230,31294
32708,18180,31572
32864,18181,31397
33040,18064,31268
33384,18051,31579
33864,18079,31476
34446,18119,31508
35408,18201,31280
37004,18206,31561
38976,18244,31437
41348,18254,31277
43524,18166,31420
45296,18116,31268
46652,18093,31540
47424,18058,31445
47349,18106,31417
46320,18104,31352
44512,18150,31249
42012,18223,31428
39544,18282,31336
37408,18212,31220
35488,18192,31513
34156,18133,31425
33497,18090,31318
33081,18092,31356
32744,18054,31230
32428,18111,31464
32112,18173,31380
31816,18206,31270
31580,18226,31454
31380,18213,31182
31236,18181,31500
31112,18134,31359
31084,18089,31172
31050,18041,31465
30924,18065,31377
30890,18096,31267
30912,18156,31291
30940,18230,31252
30968,18250,31352
30980,18228,31269
30948,18191,31353
31034,18137,31263
31084,18097,31276
31185,18047,31187
31212,18068,31482
31188,18114,31394
31168,18179,31357
31064,18207,31366
31068,18251,31290
31140,18226,31385
31184,18221,31264
31210,18130,31495
31256,18076,31431
31296,18071,31516
31304,18058,31417
31228,18109,31310
31173,18180,31442
31204,18208,31412
31328,18233,31473
31424,18227,31228
31512,18185,31367
31612,18133,31312
31696,18095,31312
31706,18047,31396
31712,18061,31309
31644,18100,31345
31696,18175,31396
31728,18217,31412
31716,18249,31425
31732,18244,31481
31756,18207,31429
31808,18127,31508
31804,18076,31445
31792,18065,31453
31836,18059,31452
31802,18119,31429
31772,18180,31388
31760,18208,31361
31742,18244,31412
31744,18231,31268
31764,18200,31500
31828,18174,31460
31872,18071,31488
31908,18054,31364
31988,18088,31482
32104,18095,31536
32144,18164,31381
32064,18225,31268
32016,18236,31452
32016,18217,31373
32104,18178,31297
32192,18132,31513
32293,18096,31495
32352,18076,31482
32324,18057,31281
32244,18092,31436
32220,18150,31460
32152,18234,31436
32244,18252,31344
32352,18216,31568
32415,18194,31508
32428,18150,31396
32512,18066,31610
32588,18056,31520
32624,18060,31414
32576,18097,31436
32536,18159,31396
32588,18224,31447
32636,18214,31448
32704,18220,31456
32712,18193,31449
32744,18164,31468
32792,18068,31392
32880,18054,31609
32936,18090,31604
32968,18146,31705
33016,18149,31623
33016,18225,31554
32992,18246,31621
32976,18255,31544
33032,18180,31644
33156,18124,31636
33268,18079,31659
33316,18056,31653
33285,18086,31610
33236,18097,31471
33208,18159,31780
33157,18225,31518
33160,18261,31622
33196,18217,31620
33232,18199,31849
33252,18156,31678
33288,18066,31548
33324,18062,31853
33278,18089,31777
33240,18101,31632
33206,18162,31721
33109,18227,31684
32980,18269,31822
32845,18218,31642
32752,18194,31886
32752,18137,31660
32768,18085,31780
32699,18070,31672
32584,18056,32008
32484,18103,31926
32368,18164,31876
32272,18207,31860
32164,18244,31751
32064,18233,32063
31984,18206,31808
31952,18166,31892
31928,18068,31807
31880,18060,32080
31820,18068,31821
31776,18114,32041
31744,18178,31917
31704,18207,32003
31660,18241,31900
31604,18229,32197
31543,18207,31916
31637,18113,32082
31708,18069,31951
31784,18060,32268
31836,18070,32007
31888,18112,32293
31885,18173,32029
31758,18208,32357
31712,18241,32276
31752,18239,32388
31797,18199,32280
31792,18128,32108
31864,18084,32460
31980,18052,32380
32016,18072,32423
31988,18121,32404
31920,18149,32472
31924,18212,32432
31924,18256,32305
31972,18222,32598
31988,18190,32511
31956,18149,32633
31948,18105,32540
32024,18050,32670
32108,18080,32572
32112,18116,32484
32076,18149,32689
32036,18225,32645
32028,18249,32612
32096,18216,32588
32140,18182,32500
32248,18146,32820
32365,18071,32717
32480,18061,32652
32504,18077,32676
32476,18150,32780
32472,18144,32901
32412,18225,32840
32366,18249,32864
32336,18249,32896
32293,18237,32903
32324,18134,32901
32420,18087,32729
32424,18099,33049
32436,18066,32963
32417,18104,32836
32388,18172,33141
32408,18204,33064
32424,18228,33205
32468,18244,33116
32500,18205,33056
32518,18126,33047
32620,18087,33172
32692,18045,33159
32672,18079,33279
32608,18119,33260
32560,18148,33231
32572,18224,33217
32676,18253,33085
32716,18221,33376
32756,18192,33364
32840,18156,33316
32888,18084,33493
32868,18070,33393
32776,18056,33215
32728,18111,33574
32732,18193,33508
32772,18212,33476
32756,18246,33425
32812,18252,33360
32932,18180,33469
32972,18151,33362
33013,18100,33669
33042,18104,33449
33073,18068,33713
33040,18125,33574
33028,18147,33469
32960,18221,33815
32892,18253,33737
32868,18223,33645
32916,18191,33722
32980,18164,33765
33016,18077,33908
33038,18055,33818
33076,18073,33897
33128,18151,33823
33088,18147,33600
33058,18217,33992
33052,18237,33882
33056,18236,33799
33044,18196,33831
32984,18189,33937
32957,18083,33850
33016,18058,33937
33036,18061,33980
33028,18094,33981
33044,18149,33992
33012,18207,34100
32992,18244,34042
33056,18249,33952
33134,18186,33953
33148,18134,33840
33172,18095,34081
33168,18068,33959
33156,18113,34206
33160,18096,34133
33088,18160,34055
33016,18224,34085
32952,18281,33917
32972,18221,34302
33000,18189,34208
33030,18143,34220
33092,18098,34226
33124,18082,34221
33148,18106,34261
33144,18094,34240
33121,18140,34301
33081,18212,34172
33100,18239,34209
33108,18240,34332
33141,18212,34444
33116,18173,34111
33116,18076,34399
33124,18049,34167
33088,18080,34341
33036,18107,34336
32988,18163,34432
32968,18233,34560
32972,18264,34192
33020,18257,34372
33096,18189,34480
33121,18148,34519
33176,18100,34525
33158,18104,34557
33112,18062,34572
33128,18104,34552
33084,18161,34599
33024,18245,34560
33005,18235,34514
33060,18246,34551
33172,18204,34622
33173,18173,34425
33176,18081,34823
33240,18055,34720
33336,18065,34695
33372,18100,34695
33344,18150,34748
33274,18218,34915
33202,18258,34852
33152,18257,34980
33088,18192,34903
33140,18135,35002
33196,18082,34919
33305,18054,34975
33376,18089,34912
33304,18088,34732
33244,18153,35037
33216,18232,34989
33148,18268,34947
33092,18220,35140
33088,18197,35101
33128,18151,35068
33212,18109,35077
33240,18053,35055
33260,18058,35100
33232,18116,34934
33206,18157,35172
33168,18221,34912
33096,18264,35224
33098,18272,34951
33092,18239,35097
33120,18164,34956
33168,18109,35265
33252,18052,35117
33284,18071,35055
33224,18132,35353
33174,18144,35248
33168,18215,35285
33204,18260,35204
33253,18228,35144
33300,18188,35252
33344,18156,35250
33372,18087,35266
33369,18085,35196
33336,18063,35151
33286,18102,35111
33261,18178,35220
33222,18215,35095
33204,18255,35316
33220,18224,35200
33264,18199,35270
33304,18153,35206
33380,18114,35172
33398,18052,35197
33352,18064,35260
33324,18103,35192
33268,18173,35165
33204,18207,35172
33100,18244,35141
33100,18249,35053
33068,18192,34886
33105,18136,35249
33216,18082,35141
33288,18071,35223
33312,18116,35146
33309,18096,35156
33213,18167,35137
33072,18220,35256
32992,18236,35124
33004,18224,35207
33032,18195,35116
33121,18150,35132
33148,18109,34872
33144,18087,35060
33204,18063,34848
33192,18102,35055
33120,18153,34823
33112,18243,35078
33068,18239,35004
33088,18241,35056
33108,18222,35164
33080,18145,35004
33020,18102,34783
32944,18055,35150
32886,18086,35028
32852,18125,34948
32920,18178,35023
32988,18246,35024
33152,18236,34996
33664,18242,35060
34384,18208,34959
35320,18173,34982
36784,18137,34964
38657,18057,34875
40784,18072,34897
43088,18153,34844
44957,18149,35021
46065,18228,34912
46600,18369,34801
46312,18231,34757
45152,18209,34604
43272,18169,34904
40964,18138,34844
38868,18054,34912
36970,18054,34809
35260,18103,34710
34180,18172,34836
33568,18208,34764
33124,18232,34886
32776,18244,34772
32552,18217,34794
32376,18146,34729
32212,18103,34636
32084,18079,34756
31932,18060,34703
31772,18102,34756
31600,18161,34689
31385,18207,34566
31244,18241,34624
31167,18242,34564
31108,18225,34652
31148,18149,34626
31308,18100,34537
31440,18055,34626
31528,18059,34599
31572,18104,34641
31550,18165,34559
31509,18208,34493
31464,18249,34609
31501,18241,34556
31544,18213,34684
31588,18178,34581
31660,18087,34592
31740,18076,34439
31760,18095,34544
31732,18096,34457
31696,18157,34492
31624,18208,34500
31552,18246,34444
31556,18277,34516
31552,18212,34461
31576,18164,34342
31656,18124,34346
31768,18057,34132
31760,18077,34444
31796,18116,34350
31820,18183,34281
31788,18210,34180
31729,18245,34260
31756,18254,34302
31780,18198,34225
31892,18162,34125
32005,18092,34177
32132,18077,34095
32224,18066,34122
32244,18102,34175
32164,18161,34112
32124,18210,34096
31998,18255,34157
31948,18260,34064
32000,18196,34167
32109,18154,34151
32232,18127,34047
32248,18060,34218
32217,18077,34095
32224,18127,33908
32240,18144,34237
32264,18215,34148
32328,18262,34032
32400,18226,34236
32496,18206,34088
32516,18176,33928
32592,18088,34244
32664,18085,34024
32616,18062,34124
32586,18109,34089
32536,18150,34232
32532,18220,34132
32597,18238,34117
32628,18247,34119
32628,18201,34094
32636,18170,34164
32684,18118,34111
32696,18057,34031
32732,18068,34194
32800,18127,34096
32844,18145,34116
32792,18212,34196
32769,18274,34095
32820,18228,33999
32889,18217,34141
32984,18170,34136
33064,18086,34092
33140,18068,34100
33191,18070,34028
33241,18112,34069
33265,18145,33878
33290,18228,34025
33284,18254,34085
33292,18228,34129
33320,18206,34132
33452,18165,34031
33584,18118,33981
33704,18056,34223
33765,18072,34068
33800,18126,33856
33824,18148,34080
33856,18215,33984
33872,18288,34108
33864,18238,34007
33864,18220,34196
33864,18154,34084
33920,18097,33972
33952,18077,34197
33968,18062,34016
33936,18123,34104
33908,18165,34008
33856,18207,34204
33798,18258,34041
33760,18247,33842
33800,18236,34114
33864,18156,33997
33789,18103,33845
33756,18081,34213
33708,18093,34092
33648,18100,34012
33596,18156,34206
33458,18202,34023
33292,18250,34092
33156,18264,34005
33012,18205,34173
32912,18166,34072
32860,18137,33924
32796,18073,34060
32621,18085,34183
32493,18095,34040
32388,18153,34085
32292,18230,33989
32220,18240,34008
32124,18249,34090
32064,18215,34075
32026,18151,34199
31964,18104,34026
31965,18090,33828
31892,18064,34100
31792,18109,33951
31700,18164,33948
31576,18205,33948
31500,18252,33848
31440,18258,34104
31412,18202,34021
31436,18153,33975
31436,18105,34092
31485,18077,33828
31520,18068,34132
31468,18117,34008
31440,18167,33788
31324,18209,34117
31269,18244,34029
31344,18261,33925
31452,18202,33919
31532,18159,33904
31596,18117,34110
31668,18061,33943
31648,18068,33959
31612,18124,33940
31604,18145,33900
31520,18223,33941
31488,18244,33828
31500,18268,34025
31580,18209,33838
31712,18200,33667
31804,18111,33925
31868,18087,33817
31848,18064,33759
31776,18113,33829
31740,18168,33844
31729,18204,33732
31708,18249,33855
31656,18269,33799
31645,18206,33799
31696,18168,33736
31712,18093,33751
31792,18076,33764
31880,18086,33636
31900,18102,33736
31885,18166,33628
31870,18207,33684
31888,18244,33720
31936,18268,33600
31972,18201,33660
32020,18173,33681
32008,18109,33668
32032,18114,33621
32044,18068,33555
32112,18116,33606
32109,18198,33373
32094,18207,33518
32036,18239,33564
32012,18252,33559
32041,18220,33487
32096,18208,33509
32100,18097,33465
32209,18071,33436
32280,18084,33526
32236,18101,33604
32192,18163,33487
32153,18218,33415
32125,18290,33524
32128,18243,33495
32216,18217,33598
32236,18169,33480
32284,18124,33414
32320,18063,33375
32312,18063,33276
32328,18109,33417
32328,18159,33181
32284,18239,33520
32284,18242,33391
32208,18250,33274
32245,18232,33468
32316,18159,33366
32384,18112,33241
32408,18083,33380
32404,18065,33300
32380,18102,33160
32296,18154,33384
32236,18231,33284
32248,18252,33172
32292,18244,33374
32356,18219,33234
32420,18167,33152
32480,18127,33159
32509,18097,33005
32452,18065,33287
32396,18108,33105
32364,18173,32925
32337,18205,33188
32304,18233,33111
32276,18261,32896
32266,18230,33033
32228,18156,33236
32233,18108,33119
32280,18078,32999
32356,18093,33069
32392,18098,32841
32412,18142,33197
32368,18217,33068
32348,18257,32953
32364,18236,33127
32356,18220,32920
32384,18212,32870
32433,18100,33125
32493,18071,32987
32548,18120,32772
32514,18101,33104
32484,18166,32957
32444,18208,32925
32432,18263,32976
32364,18240,32844
32352,18217,33036
32384,18187,32908
32444,18100,32698
32485,18074,32897
32520,18071,32804
32492,18111,32897
32461,18168,32771
32388,18202,32991
32326,18260,32783
32348,18246,32836
32328,18210,32740
32354,18170,32865
32416,18139,32741
32453,18058,32796
32500,18082,32784
32576,18138,32728
32544,18151,32588
32476,18228,32726
32412,18242,32812
32413,18260,32768
32480,18223,32671
32386,18157,32813
32376,18121,32836
32496,18069,32740
32484,18077,32560
32376,18151,32761
32356,18149,32613
32332,18217,32692
32316,18285,32724
32365,18248,32740
32424,18238,32628
32440,18167,32412
32481,18125,32634
32560,18073,32744
32588,18094,32496
32580,18100,32428
32536,18153,32562
32484,18219,32576
32440,18265,32465
32408,18240,32660
32408,18219,32549
32468,18159,32332
32549,18116,32520
32604,18101,32417
32602,18063,32244
32624,18118,32428
32601,18149,32337
32512,18215,32404
32388,18265,32332
32348,18245,32309
32344,18226,32360
32404,18184,32263
32476,18101,32414
32504,18076,32278
32504,18122,32098
32456,18116,32150
32398,18176,32292
32408,18214,32159
32432,18261,32188
32400,18245,31980
32360,18229,32228
32388,18191,32087
32432,18105,32095
32492,18077,32149
32504,18077,32044
32476,18100,31948
32488,18164,32060
32468,18211,31996
32412,18258,31804
32344,18239,32024
32360,18220,31953
32404,18181,31936
32460,18100,31839
32520,18084,31681
32572,18094,31912
32504,18101,31850
32472,18170,31664
32445,18210,31864
32404,18268,31732
32408,18244,31568
32366,18220,31840
32368,18159,31704
32324,18129,31589
32256,18101,31781
32079,18072,31599
31988,18116,31660
31984,18173,31740
32124,18213,31622
32304,18263,31465
32716,18272,31649
33232,18213,31444
33840,18193,31536
34952,18125,31308
36484,18115,31504
38328,18097,31432
40448,18134,31436
42820,18159,31309
44756,18270,31452
45668,18260,31349
45760,18246,31343
44860,18246,31340
42960,18176,31332
40312,18142,31172
37788,18076,31304
35864,18101,31305
34256,18104,31213
33160,18174,31012
32592,18212,31188
32232,18260,31084
31904,18247,31150
31628,18228,31023
31420,18213,31122
31296,18113,31084
31256,18093,31057
31212,18076,30830
31124,18108,31008
31028,18151,31007
30900,18215,30993
30733,18274,30887
30540,18250,30964
30414,18228,30933
30344,18167,30765
30336,18121,30982
30398,18117,30868
30516,18078,30881
30593,18123,30727
30584,18157,30790
30624,18227,30881
30592,18244,30820
30624,18255,30644
30624,18217,30705
30656,18181,30880
30704,18116,30767
30784,18081,30596
30856,18093,30837
30836,18109,30654
30796,18169,30749
30752,18205,30536
30726,18260,30640
30696,18248,30751
30700,18229,30612
30770,18169,30653
30872,18127,30516
30916,18090,30693
30956,18077,30500
31005,18116,30560
31016,18153,30343
30972,18229,30593
30988,18249,30392
30984,18268,30486
31016,18213,30303
31129,18199,30417
31204,18110,30324
31253,18088,30398
31256,18070,30267
31264,18114,30444
31233,18154,30276
31230,18221,30365
31240,18246,30325
31300,18263,30219
31348,18223,30423
31364,18186,30331
31496,18105,30124
31532,18079,30241
31552,18098,30226
31521,18112,30301
31476,18169,30245
31476,18209,30220
31444,18256,30287
31456,18247,30161
31500,18229,30359
31604,18170,30272
31648,18135,30076
31693,18072,30300
31736,18085,30191
31720,18100,30070
31716,18164,30133
31700,18209,30344
31681,18267,30230
31720,18276,30052
31828,18233,30161
31909,18201,30317
32008,18116,30141
32056,18095,30048
32068,18074,30114
32124,18126,30319
32109,18204,30117
32092,18223,30208
32100,18249,30215
32108,18259,30137
32184,18236,30206
32264,18170,30086
32380,18128,30100
32516,18095,30002
32624,18079,30153
32608,18118,30186
32608,18151,30156
32605,18228,29988
32628,18265,30174
32684,18245,30130
32756,18236,29928
32860,18185,30034
32900,18144,29937
32940,18072,30145
33016,18085,30100
33032,18109,30031
33100,18167,30011
33136,18242,30064
33068,18248,29912
33040,18260,30137
33088,18240,30042
33176,18169,29953
33216,18114,29936
33264,18084,29820
33244,18117,29977
33240,18115,29924
33248,18163,29788
33204,18239,30036
33160,18251,29974
33156,18250,29898
33148,18228,29958
33176,18194,29820
33136,18114,30020
33081,18087,29942
32980,18101,29816
32876,18106,29861
32797,18161,29793
32692,18220,29808
32564,18308,29916
32400,18264,29786
32296,18240,29793
32276,18168,29898
32192,18117,29784
32092,18084,29784
31968,18096,29685
31864,18142,29927
31728,18151,29860
31578,18210,29919
31432,18271,29868
31292,18276,29732
31152,18226,29925
31088,18195,29844
31032,18114,29846
31060,18093,29868
31004,18101,29821
30956,18101,29648
30968,18157,29933
30924,18225,29820
30850,18244,29665
30760,18269,29884
30765,18220,29784
30760,18188,29655
30806,18140,29824
30864,18074,29741
30890,18093,29642
30912,18129,29837
30840,18180,29813
30800,18212,29692
30820,18254,29716
30804,18263,29650
30848,18225,29881
30873,18192,29807
30932,18125,29868
30972,18097,29792
30976,18070,29662
30968,18115,29772
30916,18188,29780
30880,18208,29724
30832,18250,29737
30813,18268,29572
30884,18221,29669
31012,18174,29725
31124,18126,29588
31232,18108,29786
31277,18069,29726
31264,18125,29746
31276,18172,29692
31212,18212,29520
31188,18256,29790
31216,18268,29532
31291,18272,29702
31312,18224,29575
31368,18117,29677
31428,18098,29703
31424,18101,29564
31376,18107,29778
31383,18168,29583
31324,18208,29575
31260,18271,29543
31276,18273,29718
31369,18221,29679
31433,18197,29537
31492,18138,29736
31568,18070,29628
31640,18081,29661
31640,18136,29522
31604,18169,29721
31560,18222,29642
31564,18277,29464
31552,18252,29584
31576,18234,29589
31564,18205,29655
31596,18125,29510
31681,18095,29601
31676,18071,29643
31644,18123,29604
31600,18164,29618
31612,18246,29464
31620,18253,29532
31640,18262,29637
31668,18245,29644
31652,18177,29535
31780,18117,29588
31844,18099,29440
31808,18078,29687
31720,18103,29629
31740,18153,29516
31841,18234,29580
31872,18249,29535
31884,18253,29593
31920,18229,29588
31921,18204,29445
31910,18123,29676
31952,18082,29534
31980,18098,29464
31884,18111,29504
31860,18167,29684
31884,18202,29537
31892,18265,29625
31920,18246,29444
31892,18241,29705
31960,18200,29606
32064,18116,29493
32140,18085,29540
32164,18099,29442
32184,18105,29703
32140,18154,29617
32104,18228,29481
32020,18247,29693
31928,18264,29594
31852,18268,29476
31916,18172,29700
32020,18133,29607
32128,18100,29551
32124,18074,29518
32092,18117,29412
32096,18173,29654
32060,18205,29584
31996,18245,29485
32000,18258,29660
32072,18241,29625
32064,18171,29556
32140,18125,29588
32236,18085,29431
32276,18100,29582
32252,18136,29616
32188,18146,29471
32113,18226,29700
32064,18274,29620
32096,18249,29496
32164,18244,29708
32224,18197,29640
32277,18117,29519
32328,18085,29692
32312,18084,29668
32312,18129,29532
32284,18145,29613
32224,18213,29656
32140,18260,29612
32092,18300,29580
32112,18221,29500
32174,18182,29764
32284,18144,29666
32336,18075,29537
32368,18093,29796
32312,18121,29726
32276,18204,29582
32228,18201,29625
32220,18257,29553
32236,18264,29750
32276,18250,29572
32288,18169,29816
32310,18120,29768
32352,18092,29831
32380,18082,29596
32388,18125,29853
32252,18188,29636
32184,18206,29732
32168,18257,29749
32152,18251,29654
32208,18244,29884
32232,18206,29814
32264,18118,29648
32300,18087,29884
32324,18124,29788
32308,18103,29666
32316,18153,29956
32264,18210,29789
32212,18262,29885
32228,18287,29711
32300,18241,29848
32352,18215,29936
32453,18121,29901
32500,18092,29788
32420,18073,29984
32428,18108,29821
32428,18145,29940
32484,18215,29766
32500,18244,29831
32436,18260,30029
32444,18248,29943
32480,18178,29836
32520,18133,29983
32592,18079,29988
32696,18076,29916
32717,18106,29884
32644,18168,29863
32548,18208,29959
32481,18252,29813
32452,18268,30084
32448,18240,30031
32460,18199,30117
32484,18119,30045
32560,18093,29889
32648,18100,30104
32620,18100,30065
32580,18169,29942
32580,18214,30047
32532,18299,30088
32504,18252,29981
32500,18228,29999
32548,18188,29912
32592,18146,30134
32652,18109,30126
32669,18073,30204
32632,18100,30142
32540,18167,30044
32548,18231,30133
32536,18247,30173
32520,18261,29996
32532,18251,30201
32556,18175,30189
32612,18121,30068
32644,18095,30268
32681,18094,30210
32708,18124,30256
32672,18148,30232
32568,18205,30189
32488,18245,30130
32404,18262,30148
32268,18229,30130
32172,18194,30180
32180,18144,30140
32344,18076,30374
32496,18092,30252
32612,18121,30114
32916,18181,30253
33436,18196,30304
34104,18249,30316
35412,18261,30242
37348,18261,30130
39632,18231,30236
42144,18160,30416
44280,18076,30356
45956,18068,30388
47052,18135,30274
47576,18174,30215
47092,18268,30444
45632,18242,30397
43368,18268,30276
40616,18261,30400
38196,18177,30404
36112,18130,30472
34488,18089,30429
33496,18090,30514
32924,18128,30431
32480,18135,30398
32092,18213,30441
31744,18273,30337
31460,18247,30369
31252,18241,30256
31112,18195,30476
31025,18120,30406
30885,18087,30470
30764,18102,30357
30672,18095,30481
30592,18162,30461
30492,18199,30356
30432,18252,30512
30396,18265,30472
30433,18252,30402
30564,18180,30474
30656,18130,30385
30730,18090,30460
30772,18094,30517
30785,18100,30526
30784,18160,30436
30820,18213,30541
30768,18290,30580
30864,18264,30517
30940,18251,30598
30896,18183,30605
30888,18130,30498
30920,18083,30645
31004,18068,30556
31068,18111,30652
31108,18149,30641
31096,18213,30542
31012,18257,30577
30976,18247,30661
31029,18246,30464
31076,18196,30726
31157,18143,30673
31212,18076,30655
31284,18069,30681
31320,18108,30640
31364,18153,30688
31424,18205,30552
31388,18268,30656
31336,18282,30695
31340,18230,30545
31364,18199,30766
31408,18125,30692
31448,18084,30701
31498,18073,30734
31472,18116,30752
31456,18153,30781
31480,18217,30831
31496,18284,30804
31532,18252,30783
31560,18235,30788
31609,18205,30676
31660,18124,30837
31756,18085,30884
31786,18104,30868
31820,18100,30832
31820,18153,30725
31840,18225,31012
31776,18246,30936
31752,18263,30776
31744,18226,30871
31768,18188,31005
31832,18153,30993
31936,18084,30808
31996,18085,31029
32070,18134,31034
32092,18143,31072
32096,18212,30885
32052,18253,31004
32004,18277,31057
32022,18224,31172
32044,18189,31111
32048,18138,31057
32148,18079,31020
32236,18093,31125
32320,18124,31188
32356,18148,31056
32376,18217,30989
32328,18245,31288
32332,18258,31213
32408,18277,31117
32438,18180,31201
32544,18140,31131
32636,18107,31230
32732,18073,31075
32772,18108,31274
32796,18144,31254
32828,18223,31100
32808,18268,31413
32856,18256,31333
32896,18242,31236
32940,18217,31284
33024,18130,31172
33084,18105,31420
33052,18073,31396
33056,18100,31474
33029,18153,31429
33064,18241,31457
33053,18249,31450
33084,18260,31436
33136,18260,31489
33172,18181,31435
33216,18136,31482
33224,18106,31512
33268,18073,31537
33216,18121,31460
33232,18172,31480
33172,18205,31344
33104,18267,31596
33056,18253,31572
33012,18245,31495
32984,18204,31598
32980,18127,31453
32996,18107,31638
32872,18106,31655
32724,18101,31760
32564,18152,31486
32392,18213,31591
32276,18279,31544
32221,18254,31631
32188,18236,31621
32140,18190,31708
32133,18169,31667
32092,18079,31751
32020,18080,31712
31960,18117,31808
31877,18183,31860
31792,18200,31857
31708,18266,31953
31637,18274,31751
31584,18249,31780
31596,18185,31681
31564,18139,31997
31620,18084,31933
31688,18091,31836
31716,18113,31956
31676,18180,31940
31610,18203,32000
31608,18251,32097
31632,18265,31809
31652,18255,32019
31696,18187,31934
31796,18140,31960
31903,18104,31869
31924,18077,32198
31968,18097,31908
31918,18161,32071
31852,18224,31940
31808,18246,32087
31828,18260,32182
31876,18234,32014
31956,18199,32172
32033,18129,32303
32072,18136,32300
32092,18079,32244
32068,18152,32263
32020,18155,32038
31973,18202,32225
31933,18272,32356
31968,18254,32283
32052,18253,32254
32111,18214,32196
32180,18136,32198
32208,18093,32364
32188,18084,32340
32208,18127,32232
32252,18149,32250
32200,18213,32132
32036,18258,32425
32092,18285,32385
32184,18232,32284
32232,18204,32496
32285,18132,32326
32352,18100,32415
32368,18077,32263
32332,18113,32495
32304,18180,32409
32272,18211,32336
32301,18272,32340
32352,18277,32350
32332,18276,32439
32313,18199,32466
32324,18145,32468
32424,18091,32381
32460,18089,32305
32464,18129,32584
32448,18147,32497
32480,18218,32388
32496,18245,32580
32532,18270,32450
32496,18269,32380
32477,18202,32596
32540,18168,32463
32632,18097,32462
32692,18136,32407
32672,18119,32417
32677,18188,32488
32636,18228,32412
32552,18276,32448
32570,18265,32277
32624,18253,32441
32661,18212,32488
32770,18143,32479
32884,18100,32397
32904,18143,32476
32868,18108,32596
32864,18169,32481
32828,18213,32380
32748,18274,32400
32680,18273,32492
32612,18260,32408
32632,18197,32517
32792,18157,32464
32924,18140,32462
32984,18087,32453
32985,18139,32357
32908,18154,32442
32808,18232,32478
32712,18261,32431
32725,18293,32357
32721,18252,32247
32748,18228,32520
32801,18212,32476
32876,18104,32413
32925,18103,32439
32912,18164,32378
32890,18167,32472
32852,18227,32344
32842,18295,32374
32825,18335,32381
32854,18253,32465
32880,18212,32246
32908,18185,32500
33004,18113,32376
32956,18098,32442
32908,18143,32263
32912,18162,32536
32904,18242,32487
32900,18297,32399
32892,18277,32480
32904,18277,32342
32920,18237,32596
32916,18157,32518
32920,18117,32463
32964,18124,32428
32973,18159,32497
32928,18170,32485
32944,18247,32572
32904,18302,32534
32888,18281,32581
32916,18274,32532
32963,18246,32632
33025,18158,32543
33096,18116,32615
33144,18117,32545
33137,18180,32436
33164,18172,32462
33128,18237,32441
33021,18295,32441
33028,18340,32424
33050,18271,32554
33068,18225,32373
33092,18180,32606
33128,18157,32559
33081,18108,32652
33080,18132,32566
33040,18183,32485
32997,18244,32585
32920,18290,32340
32932,18319,32672
33048,18305,32344
33132,18224,32647
33180,18187,32564
33168,18141,32404
33156,18117,32621
33152,18135,32590
33077,18186,32600
33061,18259,32485
33017,18285,32352
33076,18307,32632
33120,18288,32584
33100,18254,32487
33096,18187,32693
33148,18148,32600
33188,18113,32492
33180,18141,32569
33084,18195,32528
33045,18292,32492
32972,18301,32422
32910,18319,32657
32908,18274,32557
32956,18256,32620
32984,18209,32518
33016,18127,32636
33056,18139,32620
33136,18164,32510
33206,18185,32612
33184,18245,32610
33081,18310,32695
33056,18325,32628
33064,18276,32694
33088,18241,32624
33129,18199,32467
33208,18158,32647
33264,18120,32646
33320,18153,32636
33304,18213,32628
33292,18244,32582
33276,18304,32608
33256,18308,32500
33224,18284,32692
33245,18256,32673
33257,18185,32693
33288,18150,32652
33264,18153,32631
33208,18163,32628
33152,18225,32676
33132,18246,32696
33174,18320,32574
33173,18311,32703
33184,18309,32604
33232,18241,32681
33232,18204,32500
33280,18156,32747
33301,18159,32500
33280,18150,32804
33284,18213,32694
33256,18280,32629
33184,18293,32623
33148,18329,32489
33176,18341,32835
33176,18251,32738
33240,18210,32696
33327,18172,32628
33309,18128,32519
33204,18175,32857
33168,18225,32727
33156,18254,32684
33160,18314,32758
33160,18315,32764
33212,18300,32769
33277,18266,32712
33330,18248,32586
33384,18150,32835
33352,18157,32540
33204,18180,32820
32996,18211,32878
32844,18268,32803
32800,18341,32796
32824,18323,32770
32912,18312,32692
33092,18257,32893
33409,18204,32811
33972,18159,32845
34636,18166,32805
35672,18156,32695
37372,18229,32774
39360,18300,32816
41760,18311,32828
43916,18334,32775
45832,18324,32718
47304,18321,32721
48144,18202,32713
48132,18164,32791
47148,18169,32813
45368,18194,32801
42832,18248,32840
40244,18353,32829
38037,18317,32925
35960,18327,32671
34504,18313,32709
33772,18277,32722
33304,18251,32747
32940,18181,32836
32540,18172,32740
32252,18165,32729
31982,18220,32839
31672,18270,32717
31416,18321,32704
31260,18341,32727
31160,18323,32740
31052,18286,32799
31022,18216,32828
31040,18163,32916
31105,18156,32711
31168,18179,32775
31180,18256,32829
31192,18277,32804
31214,18338,32836
31136,18341,32805
31184,18327,32921
31240,18293,32828
31280,18215,32807
31348,18191,32791
31420,18185,32676
31445,18189,32920
31468,18241,32854
31425,18274,32842
31381,18341,32745
31356,18345,32672
31384,18337,32965
31420,18303,32884
31428,18224,32976
31444,18180,32884
31460,18167,32913
31460,18210,32879
31492,18233,32897
31512,18281,32630
31548,18337,32975
31589,18373,32869
31668,18326,32969
31748,18287,32868
31764,18244,32952
31804,18177,32869
31866,18172,32798
31880,18215,32830
31912,18228,32768
31876,18291,32767
31804,18364,32645
31829,18345,32933
31864,18339,32644
31892,18316,32908
31885,18228,32660
31904,18203,32992
31957,18210,32903
32000,18191,32921
31960,18240,32791
31936,18294,32821
31904,18366,32828
31884,18365,32833
31968,18353,32713
32020,18289,33036
32044,18248,32961
32128,18188,32908
32193,18187,32960
32236,18227,32868
32300,18254,33023
32304,18300,32743
32260,18379,32910
32224,18358,32860
32256,18353,32969
32268,18338,32975
32340,18238,32988
32408,18197,33044
32468,18200,33029
32485,18197,33108
32472,18262,33031
32468,18300,32988
32496,18380,32800
32548,18364,32919
32584,18338,32945
32668,18311,32975
32724,18269,32816
32788,18188,33159
32828,18200,32829
32864,18220,33094
32900,18279,32879
32860,18296,32996
32880,18357,33029
32917,18375,33074
32996,18366,33096
33124,18294,33103
33204,18267,33196
33328,18214,33108
33380,18219,33004
33412,18203,33031
33412,18261,33044
33360,18338,33063
33276,18354,33110
33268,18388,32908
33332,18346,33200
33484,18311,32929
33576,18291,33232
33609,18205,33191
33656,18233,33158
33636,18205,33165
33638,18254,33092
33632,18331,33218
33576,18354,33294
33568,18390,33228
33560,18375,33164
33568,18302,33135
33600,18256,33014
33644,18232,33180
33656,18179,33064
33540,18213,33353
33496,18248,33271
33400,18308,33375
33292,18366,33276
33164,18420,33396
33021,18357,33295
32988,18331,33221
33041,18255,33249
33040,18214,33206
32985,18187,33284
32904,18218,33320
32740,18286,33260
32608,18300,33287
32440,18371,33232
32369,18398,33287
32288,18356,33349
32256,18332,33245
32208,18257,33477
32192,18226,33318
32192,18183,33141
32212,18226,33479
32144,18249,33380
32048,18311,33333
31944,18386,33363
31888,18390,33408
31920,18379,33415
32012,18311,33365
32072,18271,33236
32128,18242,33546
32132,18192,33441
32104,18215,33528
32088,18292,33385
32092,18317,33456
32121,18391,33444
32136,18377,33373
32161,18373,33464
32204,18316,33377
32308,18276,33592
32341,18206,33453
32332,18199,33287
32412,18240,33580
32412,18253,33481
32320,18319,33407
32312,18382,33514
32308,18377,33512
32340,18376,33549
32433,18346,33492
32516,18276,33305
32568,18208,33483
32629,18213,33620
32644,18212,33524
32608,18263,33461
32552,18340,33406
32528,18364,33508
32542,18389,33598
32584,18380,33476
32628,18316,33285
32644,18268,33607
32704,18245,33516
32724,18189,33316
32736,18239,33652
32716,18281,33548
32676,18308,33654
32592,18361,33556
32552,18388,33512
32577,18400,33580
32652,18316,33312
32672,18272,33671
32704,18227,33576
32736,18197,33471
32728,18238,33530
32728,18255,33582
32712,18320,33486
32664,18379,33510
32604,18379,33500
32620,18365,33668
32613,18320,33584
32720,18278,33433
32836,18236,33700
32852,18192,33588
32828,18226,33393
32808,18258,33575
32768,18327,33357
32817,18388,33735
32884,18379,33596
32934,18373,33447
32980,18348,33620
33004,18273,33416
33068,18223,33705
33104,18193,33639
33129,18227,33720
33104,18276,33644
33037,18309,33684
33020,18365,33626
32988,18381,33560
32996,18365,33758
33012,18348,33657
33068,18273,33671
33108,18234,33647
33128,18217,33543
33172,18212,33777
33128,18274,33636
33108,18309,33401
33036,18383,33649
33024,18380,33560
33028,18369,33647
33100,18318,33463
33116,18286,33766
33156,18244,33617
33210,18196,33415
33217,18224,33692
33164,18295,33641
33080,18310,33709
33036,18378,33636
32980,18415,33617
32952,18370,33603
32957,18336,33564
33004,18266,33557
33142,18220,33645
33200,18197,33564
33228,18220,33664
33220,18270,33557
33192,18306,33540
33092,18373,33624
33028,18380,33671
33109,18381,33625
33184,18357,33441
33180,18277,33724
33244,18262,33632
33285,18207,33400
33260,18220,33594
33252,18285,33657
33192,18323,33649
33160,18391,33616
33245,18381,33540
33236,18375,33524
33287,18370,33588
33300,18277,33417
33368,18244,33714
33392,18196,33645
33372,18228,33685
33337,18249,33598
33348,18319,33497
33288,18397,33637
33216,18388,33641
33220,18364,33548
33280,18334,33693
33236,18268,33639
33188,18226,33651
33224,18209,33396
33228,18213,33474
33317,18282,33597
33308,18317,33529
33204,18360,33660
33130,18389,33540
33112,18353,33742
33148,18330,33608
33204,18262,33652
33242,18231,33568
33308,18189,33722
33372,18236,33636
33340,18249,33769
33276,18315,33676
33252,18400,33589
33236,18390,33705
33248,18387,33682
33252,18322,33577
33288,18288,33732
33340,18211,33685
33360,18200,33741
33292,18249,33669
33236,18253,33602
33253,18318,33580
33216,18381,33589
33184,18372,33732
33248,18367,33697
33360,18311,33548
33424,18281,33660
33452,18213,33757
33476,18223,33670
33441,18221,33717
33404,18245,33604
33364,18319,33799
33308,18354,33736
33220,18401,33620
33192,18367,33644
33244,18311,33559
33300,18279,33638
33341,18202,33780
33340,18207,33671
33296,18205,33735
33288,18260,33663
33288,18302,33865
33220,18364,33646
33169,18407,33528
33228,18358,33705
33272,18333,33689
33324,18267,33757
33346,18249,33764
33392,18209,33660
33412,18206,33788
33484,18251,33860
33496,18303,33742
33444,18363,33589
33448,18400,33900
33472,18357,33781
33492,18327,33556
33520,18257,33861
33548,18225,33773
33572,18188,33700
33536,18229,33796
33488,18249,33809
33464,18325,33738
33420,18361,33942
33420,18399,33780
33380,18359,33830
33373,18344,33716
33328,18278,33864
33312,18201,33918
33344,18184,33852
33365,18224,33608
33344,18247,33782
33281,18312,33913
33204,18345,33792
33204,18384,33876
33160,18343,33786
33200,18317,33996
33253,18281,33814
33280,18213,33892
33300,18223,33644
33312,18209,33834
33348,18238,33956
33346,18311,33844
33328,18347,33926
33296,18377,33856
33332,18333,34021
33344,18313,33847
33396,18289,33950
33416,18200,33940
33444,18177,33852
33448,18221,33955
33412,18244,34095
33350,18288,33903
33221,18349,34013
33188,18404,33924
33180,18350,34086
33216,18330,34031
33164,18268,34028
33088,18224,34031
32988,18172,34084
32972,18222,34048
33108,18247,34096
33266,18286,33943
33376,18353,34220
33708,18357,34088
34216,18370,34023
34872,18316,34084
35957,18248,34157
37712,18248,34148
39800,18185,34087
42232,18188,34141
44260,18245,34240
45932,18340,34213
47060,18356,34136
47624,18407,34340
47376,18358,34132
46260,18375,34276
44356,18284,34183
41864,18276,34294
39500,18205,34300
37412,18230,34318
35600,18242,34240
34424,18304,34229
33784,18334,34250
33344,18364,34350
32976,18384,34400
32653,18304,34328
32428,18264,34391
32263,18188,34436
32057,18180,34204
31900,18182,34457
31664,18234,34380
31444,18324,34479
31284,18346,34480
31200,18392,34606
31196,18344,34549
31224,18310,34491
31344,18244,34662
31461,18200,34577
31588,18166,34636
31652,18204,34598
31616,18224,34652
31604,18303,34616
31560,18356,34804
31612,18361,34645
31688,18356,34784
31740,18293,34593
31773,18262,34880
31792,18187,34754
31856,18186,34620
31860,18211,35020
31800,18228,34916
31717,18305,34684
31608,18340,35009
31592,18377,34913
31692,18335,34749
31768,18307,35148
31816,18238,34983
31916,18197,35077
31960,18160,34999
31988,18197,35220
31969,18218,34991
31964,18291,35121
31984,18330,35062
31976,18349,35120
32028,18332,35148
32116,18296,34901
32236,18237,35141
32328,18202,35180
32384,18169,35144
32404,18197,35220
32404,18219,35221
32329,18280,35161
32270,18322,35286
32268,18364,35220
32352,18347,35021
32400,18282,35266
32500,18265,35437
32559,18180,35300
32584,18181,35304
32596,18177,35364
32568,18241,35148
32544,18267,35463
32512,18337,35344
32572,18344,35424
32592,18347,35400
32673,18316,35557
32741,18234,35446
32772,18207,35263
32714,18151,35552
32688,18182,35409
32724,18196,35492
32752,18276,35246
32714,18319,35548
32782,18357,35622
32804,18319,35412
32800,18285,35271
32776,18256,35580
32876,18172,35525
33024,18164,35293
33080,18172,35474
33116,18220,35702
33156,18258,35549
33136,18321,35500
33136,18346,35638
33136,18343,35616
33200,18279,35652
33288,18239,35540
33380,18192,35356
33468,18199,35745
33508,18173,35645
33492,18220,35575
33488,18290,35700
33520,18318,35657
33565,18345,35656
33628,18343,35620
33656,18276,35668
33728,18262,35412
33856,18184,35608
33932,18180,35816
33964,18167,35689
33904,18213,35693
33853,18293,35641
33852,18309,35746
33924,18346,35685
34008,18343,35644
34076,18268,35861
34088,18230,35629
34112,18165,35736
34208,18159,35656
34260,18185,35706
34232,18204,35748
34160,18262,35872
34096,18327,35698
34078,18386,35568
34048,18316,35847
34008,18292,35732
33952,18217,35632
33988,18181,35871
33948,18144,35720
33884,18173,35670
33806,18206,35628
33680,18273,35617
33489,18358,35687
33327,18327,35744
33180,18316,35768
33020,18288,35740
32897,18216,35844
32844,18169,35720
32909,18170,35476
32916,18161,35719
32868,18226,35775
32796,18255,35704
32744,18311,35846
32684,18340,35720
32640,18311,35644
32584,18281,35860
32512,18244,35636
32456,18157,35440
32374,18148,35752
32336,18151,35829
32309,18191,35732
32225,18250,35660
32140,18303,35844
32096,18337,35591
32120,18333,35724
32158,18267,35686
32204,18228,35677
32288,18173,35503
32328,18177,35836
32325,18151,35688
32316,18206,35628
32272,18288,35783
32208,18302,35695
32217,18327,35620
32188,18345,35752
32200,18265,35693
32229,18233,35600
32320,18149,35805
32352,18147,35664
32312,18166,35788
32300,18198,35644
32320,18234,35393
32328,18316,35717
32308,18329,35636
32292,18321,35620
32288,18260,35492
32332,18213,35312
32396,18170,35606
32445,18129,35540
32428,18148,35464
32437,18198,35585
32464,18236,35492
32436,18301,35344
32424,18337,35559
32408,18300,35479
32460,18276,35268
32468,18201,35588
32480,18148,35468
32532,18146,35369
32548,18143,35513
32572,18196,35305
32573,18231,35415
32548,18293,35486
32568,18330,35326
32584,18292,35116
32624,18250,35472
32720,18243,35342
32796,18159,35168
32871,18150,35404
32880,18137,35233
32826,18198,35281
32712,18242,35192
32624,18326,35308
32621,18320,35133
32648,18316,35241
32689,18248,35150
32690,18213,35329
32750,18141,35097
32840,18126,35167
32823,18137,35086
32792,18191,35280
32764,18244,35136
32756,18281,34872
32792,18322,35132
32808,18287,34997
32848,18266,35086
32924,18188,35116
32948,18151,35030
32932,18108,35079
32916,18154,34816
32920,18166,35172
32908,18236,35017
32896,18276,34951
32880,18312,35140
32850,18280,34993
32856,18264,34912
32876,18220,34880
32912,18135,34695
32988,18123,35069
32976,18143,34931
32933,18213,34820
32816,18240,34976
32784,18334,34889
32724,18307,34855
32740,18308,34866
32749,18237,34932
32804,18197,34800
32892,18162,34684
32912,18114,34944
32848,18134,34804
32776,18166,34708
32789,18232,34804
32772,18269,34679
32816,18304,34532
32868,18323,34807
32804,18233,34703
32788,18205,34460
32888,18132,34774
32991,18119,34588
33040,18182,34448
33044,18172,34781
32972,18232,34663
32888,18267,34533
32808,18296,34745
32773,18321,34618
32776,18239,34518
32848,18195,34465
32868,18179,34572
32916,18102,34580
32924,18130,34428
32944,18159,34522
32912,18225,34282
32872,18287,34610
32876,18285,34452
32897,18284,34476
32904,18229,34500
32880,18199,34370
32900,18124,34439
32928,18140,34462
32936,18120,34430
32956,18183,34388
32945,18226,34428
32832,18268,34241
32772,18294,34497
32774,18297,34268
32840,18237,34389
32932,18204,34264
32996,18118,34468
33084,18106,34336
33144,18105,34157
33120,18168,34420
33040,18203,34293
32924,18269,34162
32876,18308,34393
32830,18262,34292
32816,18245,34232
32868,18175,34277
33004,18120,34263
33120,18142,34141
33100,18127,34277
33020,18175,34212
32980,18196,34127
32900,18272,34214
32912,18298,34195
32984,18260,34116
33037,18245,34052
32989,18200,34167
33020,18116,34068
33104,18111,34212
33132,18109,34121
33104,18162,33893
33032,18193,34030
32916,18273,34130
32888,18274,34108
32928,18276,33916
32972,18249,34151
32996,18172,33988
33104,18113,34020
33120,18098,34070
33008,18100,34029
32944,18156,34167
32936,18189,34025
32986,18273,33806
33020,18278,34007
33005,18281,34076
33040,18213,34031
33060,18186,33808
33148,18111,34069
33176,18106,33951
33172,18097,33805
33196,18149,34068
33200,18216,33914
33213,18243,33716
33176,18287,33945
33120,18250,34065
33044,18226,33905
33048,18161,33689
33105,18115,33870
33120,18082,33993
33149,18104,33892
33120,18164,33805
33104,18193,33964
33016,18239,33892
33008,18276,33900
32992,18245,33632
32940,18222,33957
32976,18161,33858
33052,18109,33820
33084,18105,33799
33069,18092,33862
33104,18146,33828
33094,18180,33756
33025,18257,33820
33000,18261,33836
32976,18261,33732
33020,18207,33829
33052,18169,33825
33100,18097,33718
33120,18085,33809
33132,18121,33841
33064,18138,33748
32988,18205,33788
32866,18236,33857
32788,18266,33815
32860,18270,33808
32944,18203,33772
33100,18164,33568
33088,18097,33820
33052,18084,33755
32996,18120,33705
32976,18133,33687
32900,18207,33540
32840,18232,33868
32708,18271,33781
32580,18244,33669
32486,18220,33862
32484,18149,33791
32592,18116,33670
32900,18071,33760
33068,18097,33788
33388,18123,33740
33900,18185,33657
34472,18233,33679
