ECG,EDA,RR
32185,43015,30135
32560,43015,30098
32813,42940,30126
32909,42982,30205
32808,42984,30052
32596,42997,30076
32364,42994,30100
32196,43015,30068
32084,43039,30191
32245,43037,30004
32548,43015,30004
32788,43001,30041
32946,42988,30045
33060,42981,30057
33032,42975,30036
32792,42991,30030
32428,43012,30003
32120,43015,30028
32028,43037,30084
32308,43036,29992
32624,43015,30029
32892,43007,30101
33124,42980,29950
33210,42979,30017
33064,42975,29972
32764,42996,30122
32512,42961,30025
32380,43015,29959
32240,43028,30023
32280,43034,29990
32496,42967,30087
32720,43007,29972
32924,42983,29972
33068,42964,30001
32996,42972,29999
32760,42973,30117
32520,43004,30020
32320,43015,30041
32142,43031,30010
32192,43024,30119
32468,43015,30152
32716,43001,30068
32876,42929,29985
32940,42977,30016
32704,42969,30062
32224,42984,30031
31832,42991,30179
31457,43028,30033
31116,43045,30015
30910,43037,30049
30932,43001,30060
31117,43013,30038
31320,43005,30034
31564,42972,30038
31585,42962,30065
31457,42943,30074
31279,43003,30063
31178,43015,30100
31285,42972,30139
31801,43015,30166
32476,43003,30191
32988,42980,30215
33565,42963,30144
34221,42944,30045
34468,42957,30047
34293,42964,30047
34116,42975,30082
34114,42996,30103
34212,43007,30060
34496,43004,30055
34948,42945,30063
35196,42984,30101
35388,42953,30107
35540,42965,30114
35341,42956,30090
34860,42979,30062
34288,42980,30166
33760,43009,30176
33348,42980,30030
33136,43005,30078
33128,43011,30122
33137,42983,30181
33185,42969,30111
33156,42975,30004
33017,42975,30064
32748,42983,30020
32492,42997,30087
32264,42959,30167
32096,43015,29993
32120,43015,30063
32348,43013,30023
32620,42965,30042
32834,42977,30129
32958,42960,30177
32925,42905,30107
32672,42977,30021
32412,42997,30068
32148,43013,30040
31964,43015,30183
32032,43015,30087
32200,43009,30030
32441,42951,30076
32612,42980,30069
32756,42965,30145
32728,42975,30192
32500,42983,30036
32268,42999,30101
32156,43004,30060
32036,43015,30149
32120,42988,30215
32378,43013,30203
32720,42997,30127
32968,42963,30039
33096,42961,30087
32988,42973,30033
32696,42975,30173
32370,42999,30027
32192,43015,30004
31984,43015,30028
32064,43015,30012
32352,42957,30042
32680,42997,30147
32844,42977,29982
32876,42970,30021
32852,42969,29965
32720,42976,29980
32556,42993,30094
32356,43015,29900
32237,43015,29940
32316,43015,29924
32532,42964,29984
32784,42988,29913
33004,42972,29886
33172,42957,29854
33092,42975,29853
32888,42980,29862
32672,42989,29844
32488,43009,29812
32352,42989,29896
32429,43015,29796
32584,43015,29702
32664,42997,29695
32744,42976,29700
32844,42971,29721
32881,42960,29654
32759,42980,29640
32568,43000,29625
32484,43001,29703
32428,43015,29659
32497,43006,29524
32728,42948,29559
32944,42999,29509
33128,42973,29518
33252,42956,29617
33204,42959,29505
33000,42965,29383
32768,42997,29391
32509,43004,29374
32348,43007,29353
32432,42981,29447
32580,43009,29436
32789,42981,29415
32950,42951,29308
33100,42948,29168
33020,42957,29152
32780,42973,29201
32452,42980,29150
32256,43009,29261
32224,43015,29232
32416,42954,29036
32664,42991,29069
32932,42998,29023
33136,42964,29060
33252,42960,29052
33168,42944,29122
32952,42948,29108
32645,42970,29087
32408,42997,29072
32256,42965,28964
32392,43004,28859
32722,42991,28804
33104,42924,28790
33390,42960,28781
33576,42948,28783
33430,42901,28769
33172,42967,28772
32848,42975,28776
32576,42983,28759
32415,43005,28724
32500,43005,28691
32733,42964,28677
33028,42977,28639
33233,42959,28625
33385,42944,28727
33264,42940,28700
33014,42967,28720
32760,42980,28578
32600,42998,28485
32376,43015,28516
32376,43007,28573
32583,42985,28436
32916,42991,28468
33188,42965,28407
33324,42957,28497
33244,42911,28306
32980,42941,28360
32724,42989,28365
32484,43015,28385
32264,43015,28226
32229,43015,28276
32464,42989,28271
32912,42997,28302
33293,42964,28335
33504,42919,28147
33448,42975,28084
33186,42976,28143
32814,42974,28080
32544,43029,28084
32380,43036,28012
32468,43015,27935
32684,43015,27961
32924,43015,27942
33100,42980,27898
33252,42932,27896
33198,42980,27871
33005,42998,27921
32876,43009,27949
32772,43015,27693
32648,43036,27773
32704,43039,27712
32936,43014,27761
33233,43012,27581
33420,42980,27612
33572,42999,27584
33485,42980,27621
33164,43004,27655
32860,43004,27662
32704,43039,27476
32508,43009,27425
32576,43047,27453
32840,43031,27404
33160,43015,27433
33420,43002,27444
33612,42997,27413
33596,42949,27277
33304,43010,27330
33036,43031,27268
32812,43046,27316
32644,43059,27325
32716,43007,27373
32984,43037,27264
33244,43025,27112
33452,43015,27081
33576,42999,27119
33476,43012,27108
33248,42980,27178
32984,43015,27004
32760,43044,27021
32632,43059,27056
32764,43015,27031
32980,43045,27047
33140,43037,27045
33285,43015,27088
33600,43013,26983
33712,42991,26877
33572,43015,26969
33305,43039,26956
33076,43052,26937
32940,43075,26904
32960,43028,26881
33142,43052,26944
33384,43044,27015
33560,43037,26949
33712,43015,26885
33668,43015,26954
33452,43037,26736
33216,43057,26741
33072,43033,26788
32936,43079,26835
33005,43078,26819
33240,43037,26860
33552,43063,26870
33783,43048,26820
33940,43015,26699
33868,43031,26720
33637,43007,26775
33340,43068,26788
33084,43079,26785
32896,43093,26955
32964,43052,26706
33208,43095,26818
33480,43063,26800
33684,43047,26903
33845,43044,26981
33772,43041,26927
33552,43045,26702
33253,43076,26740
33004,43087,26773
32789,43106,26789
32884,43108,26862
33224,43079,26831
33670,43079,26830
33992,43039,26918
34072,43050,26978
33960,43053,26801
33704,43069,26772
33432,43095,26766
33228,43101,26786
33057,43109,26841
33120,43109,26909
33324,43101,26903
33592,43039,26885
33824,43063,26894
34020,43060,26938
33940,43011,27036
33702,43084,27001
33420,43085,26847
33216,43119,26948
33076,43083,27047
33172,43132,26989
33389,43119,26861
33649,43092,26908
33852,43082,26959
33996,43076,27012
33932,43049,27008
33676,43092,26903
33416,43111,27013
33140,43124,27015
32917,43111,27023
32924,43135,26916
33144,43124,27028
33486,43117,27015
33772,43063,27164
33956,43093,26908
33892,43087,27015
33656,43108,27004
33493,43069,27045
33424,43143,27060
33225,43140,27175
33284,43133,27075
33484,43134,27005
33756,43132,26957
33992,43105,27069
34140,43091,27036
34064,43103,27042
33768,43092,27200
33505,43140,26976
33318,43150,27075
33180,43165,27103
33172,43161,27218
33332,43109,27021
33572,43140,27079
33797,43117,27068
33912,43100,27188
33772,43117,27056
33572,43135,26976
33344,43143,27018
33125,43159,27066
32948,43173,27097
33080,43183,27239
33388,43164,27075
33704,43156,27109
34025,43140,27087
34152,43124,27165
34004,43127,27143
33732,43082,27072
33420,43167,27109
33228,43164,27111
33080,43161,27150
33120,43191,27185
33332,43180,27070
33644,43160,27036
33845,43143,27117
33965,43126,27143
33896,43135,27151
33692,43156,27217
33436,43160,27070
33152,43188,27164
32996,43205,27172
33084,43195,27188
33348,43184,27167
33629,43176,27204
33844,43158,27180
34032,43143,27164
33973,43153,27192
33792,43172,27200
33488,43181,27232
33172,43157,27204
32768,43213,27228
32688,43215,27252
32893,43159,27399
33169,43189,27238
33468,43185,27168
33742,43143,27189
33800,43152,27230
33616,43172,27260
33376,43189,27306
33212,43209,27340
33072,43175,27351
33132,43228,27351
33324,43220,27336
33552,43204,27349
33668,43175,27365
33828,43172,27412
33848,43173,27538
33728,43189,27292
33502,43196,27349
33256,43217,27398
33124,43237,27409
33156,43236,27421
33364,43221,27460
33580,43210,27519
33728,43201,27600
33844,43143,27463
33802,43199,27396
33632,43205,27497
33440,43212,27493
33252,43242,27588
33101,43252,27655
33152,43241,27615
33392,43239,27490
33726,43224,27471
33892,43181,27477
34028,43199,27484
33992,43197,27477
33806,43213,27562
33516,43231,27556
33324,43246,27588
33184,43233,27693
33248,43207,27482
33465,43260,27479
33792,43245,27495
33924,43185,27533
34084,43207,27572
33960,43215,27583
33720,43208,27572
33440,43244,27684
33223,43268,27495
33120,43271,27573
33252,43287,27597
33548,43271,27736
33792,43252,27618
33948,43241,27500
34049,43194,27549
34012,43229,27610
33896,43236,27588
33641,43260,27579
33472,43271,27717
33304,43286,27708
33308,43295,27501
33472,43222,27565
33671,43271,27586
33749,43244,27717
33654,43239,27518
33364,43206,27526
32845,43263,27628
32188,43276,27615
31784,43303,27696
31460,43308,27755
31432,43308,27746
31660,43305,27600
32020,43284,27600
32424,43245,27638
32788,43255,27704
32744,43252,27792
32512,43228,27744
32348,43271,27633
32572,43303,27640
32876,43300,27670
33258,43303,27784
33817,43293,27600
34569,43271,27666
35089,43261,27672
35334,43246,27814
35425,43207,27599
35504,43263,27647
35528,43271,27708
35525,43297,27692
35468,43301,27817
35412,43316,27684
35472,43303,27583
35588,43287,27629
35704,43271,27660
35677,43265,27612
35404,43271,27604
34940,43271,27611
34364,43311,27684
33804,43331,27695
33328,43337,27690
33268,43346,27594
33384,43303,27453
33452,43311,27494
33620,43297,27501
33657,43292,27455
33664,43288,27478
33388,43303,27526
33143,43285,27589
32884,43334,27533
32638,43356,27424
32628,43352,27365
32808,43337,27441
33076,43335,27438
33252,43324,27481
33437,43271,27487
33364,43309,27325
33093,43317,27429
32800,43335,27457
32552,43357,27369
32404,43375,27302
32460,43372,27405
32692,43366,27383
32912,43353,27354
33052,43335,27512
33172,43320,27270
33224,43322,27374
33132,43300,27393
32888,43349,27446
32716,43375,27276
32556,43383,27325
32548,43385,27300
32768,43380,27336
33081,43331,27341
33296,43343,27469
33408,43343,27205
33377,43304,27276
33160,43348,27270
32877,43372,27362
32624,43388,27424
32420,43392,27173
32508,43399,27240
32740,43393,27246
33000,43372,27296
33212,43362,27391
33392,43333,27166
33368,43340,27122
33157,43357,27187
32862,43380,27209
32560,43388,27173
32286,43412,27176
32184,43413,27229
32417,43399,27050
32780,43388,27148
33068,43345,27104
33372,43357,27146
33518,43359,27193
33261,43369,27231
32866,43381,27063
32545,43412,26976
32352,43421,27070
32412,43415,27045
32604,43415,27064
32912,43375,26897
33176,43386,26997
33368,43364,26957
33296,43317,27028
33049,43372,27066
32780,43399,26904
32544,43407,26764
32329,43428,26772
32316,43439,26796
32520,43420,26804
32776,43413,26821
32976,43388,26916
33148,43383,26816
33132,43375,26607
32896,43388,26660
32544,43385,26679
32286,43415,26639
32176,43433,26657
32312,43397,26620
32464,43439,26725
32668,43415,26489
32928,43336,26433
33160,43387,26415
33088,43383,26423
32880,43359,26471
32628,43407,26453
32513,43427,26557
32400,43447,26355
32441,43388,26255
32580,43444,26257
32732,43420,26352
32932,43397,26397
33151,43389,26217
33160,43399,26255
32912,43391,26277
32652,43420,26233
32480,43433,26304
32288,43444,26164
32336,43447,26215
32512,43439,26079
32780,43433,26177
32996,43409,26241
33236,43396,26119
33224,43392,26106
32912,43407,26204
32544,43431,26078
32364,43447,26028
32260,43404,26062
32300,43460,26111
32540,43436,26183
32800,43428,26053
32964,43415,25909
33053,43415,25950
33004,43412,26007
32708,43418,26011
32448,43428,26028
32220,43463,26034
31980,43468,25873
31964,43476,25989
32236,43468,26005
32484,43455,26085
32681,43431,25837
32824,43420,25966
32773,43423,25921
32564,43436,25998
32236,43407,25927
32036,43484,25854
31884,43489,25937
31941,43495,25932
32100,43423,25970
32324,43468,25930
32480,43448,25813
32596,43412,25820
32540,43439,25902
32373,43453,25920
32140,43476,25909
32040,43485,25904
31884,43511,26016
31852,43511,25973
32036,43500,25788
32276,43433,25821
32520,43468,25919
32692,43457,25888
32708,43409,25932
32460,43472,26053
32100,43484,25811
31840,43512,25900
31596,43461,25887
31544,43527,25986
31776,43508,26064
32204,43501,25860
32473,43428,25837
32708,43469,25934
32736,43466,25898
32540,43481,26062
32200,43494,25807
31918,43484,25949
31752,43527,25937
31810,43520,26053
32064,43527,26106
32348,43515,25833
32476,43495,25905
32580,43487,25976
32480,43431,26010
32404,43495,26087
32202,43513,26006
32030,43524,25939
31862,43551,26041
31894,43549,26018
32056,43541,26049
32304,43524,26159
32600,43510,25951
32812,43476,26076
32768,43498,26140
32582,43501,25979
32344,43519,26119
32126,43517,26105
31980,43556,26257
31940,43551,26047
32180,43551,26119
32408,43512,26247
32612,43511,26116
32804,43499,26039
32792,43505,26127
32548,43519,26053
32228,43527,26104
31996,43559,26189
31872,43510,26167
31908,43567,26216
32121,43559,26324
32488,43483,26119
32709,43525,26199
32768,43517,26189
32772,43481,26353
32588,43525,26165
32313,43540,26240
32136,43551,26242
31957,43525,26322
32108,43581,26118
32260,43564,26172
32464,43557,26256
32640,43527,26241
32852,43521,26255
32770,43527,26337
32532,43542,26399
32212,43555,26142
31972,43574,26279
31784,43543,26300
31845,43588,26357
32040,43575,26246
32316,43567,26263
32618,43557,26272
32820,43527,26320
32838,43527,26420
32684,43495,26183
32388,43567,26196
32084,43579,26238
31908,43594,26246
31904,43549,26308
32160,43594,26183
32468,43569,26226
32736,43556,26213
32885,43551,26297
32953,43527,26303
32701,43557,26343
32425,43527,26317
32288,43575,26095
32036,43596,26188
32004,43543,26196
32100,43598,26180
32293,43572,26249
32420,43559,26102
32638,43495,26066
32672,43557,26105
32557,43559,26252
32508,43569,25973
32348,43599,26060
32108,43610,26055
32128,43596,26053
32404,43568,26085
32644,43587,25968
32904,43570,25919
33040,43550,26029
33057,43496,25987
32824,43567,26059
32464,43573,25856
32252,43589,25990
32032,43599,25976
32020,43615,26049
32312,43592,25863
32584,43592,25810
32824,43519,25946
33020,43559,25899
33028,43551,25990
32768,43567,25775
32468,43581,25927
32172,43593,25775
31940,43623,25848
31972,43572,25949
32196,43601,25717
32460,43599,25848
32724,43576,25826
32924,43567,25831
32940,43565,25868
32772,43572,25865
32488,43552,25646
32292,43604,25764
32064,43615,25735
32064,43623,25855
32310,43572,25636
32640,43591,25580
32881,43577,25716
33104,43540,25670
33104,43569,25672
32780,43577,25753
32456,43527,25775
32228,43608,25615
32044,43627,25497
32084,43596,25546
32328,43613,25588
32638,43601,25551
32852,43559,25596
33026,43569,25652
32916,43572,25424
32680,43573,25430
32492,43607,25478
32256,43605,25597
32156,43623,25375
31992,43634,25327
32072,43623,25364
32372,43540,25341
32696,43581,25397
32832,43573,25405
32732,43580,25364
32524,43586,25367
32345,43558,25321
32284,43616,25369
32068,43639,25179
32188,43637,25241
32380,43593,25269
32576,43604,25252
32844,43599,25233
33060,43520,25301
33008,43583,25206
32696,43580,25052
32352,43551,25064
32136,43608,25057
32068,43631,25145
32064,43583,25093
32277,43628,25161
32564,43606,24974
32721,43601,24952
32782,43581,25036
32808,43572,25007
32704,43584,25143
32524,43609,24860
32188,43626,24833
31848,43636,24826
31844,43591,24840
32112,43620,24852
32474,43612,24892
32768,43551,24865
33160,43591,24916
33256,43581,24951
32944,43599,24708
32644,43551,24694
32389,43624,24769
32100,43655,24772
32120,43639,24775
32348,43629,24894
32544,43623,24616
32796,43564,24599
32932,43586,24711
32804,43587,24684
32512,43604,24750
32169,43573,24797
32008,43628,24775
31896,43604,24769
31972,43649,24760
32272,43639,24660
32580,43623,24686
32692,43615,24714
32868,43545,24423
32952,43588,24409
32692,43604,24469
32424,43620,24491
32324,43639,24475
32160,43639,24557
32101,43647,24345
32377,43639,24343
32696,43620,24439
33052,43602,24411
33269,43596,24517
33320,43593,24263
33112,43589,24364
32669,43613,24385
32332,43625,24369
32100,43645,24337
32119,43613,24367
32441,43588,24327
32748,43591,24226
32932,43599,24308
33036,43590,24301
32948,43591,24427
32804,43543,24201
32602,43607,24149
32484,43623,24222
32368,43653,24218
32264,43649,24301
32484,43642,24255
32764,43621,24122
32940,43618,24064
33100,43543,24063
33172,43605,24071
32968,43605,24093
32661,43620,24111
32460,43639,24164
32454,43655,24144
32564,43654,24120
32704,43640,24096
32900,43621,24096
33088,43606,24093
33292,43607,24080
33297,43598,24067
32992,43556,24038
32716,43627,24037
32548,43651,24062
32341,43655,24055
32348,43653,24085
32484,43655,24061
32720,43639,23984
33024,43607,24036
33120,43604,24108
33112,43548,23904
32809,43613,23799
32559,43620,23820
32157,43582,23791
31648,43665,23800
31396,43655,23884
31424,43655,23905
31500,43655,23890
31464,43631,23888
31620,43597,23874
31556,43605,23855
31356,43620,23874
31140,43644,23956
30944,43655,23932
30790,43655,23859
30840,43668,23706
31076,43645,23822
31664,43605,23835
32348,43622,23806
32920,43591,23826
33204,43589,23825
33500,43540,23917
33652,43615,23933
33493,43623,23946
33364,43589,23935
33664,43644,23743
34184,43637,23669
34736,43623,23672
35132,43613,23673
35364,43593,23798
35284,43599,23780
34920,43564,23808
34637,43617,23858
34352,43633,23903
33712,43655,23665
33397,43636,23695
33308,43655,23796
33412,43639,23804
33429,43601,23794
33408,43600,23776
33172,43604,23782
32756,43562,23804
32292,43630,23908
31988,43647,23918
31780,43631,23780
31780,43665,23636
31940,43655,23736
32232,43636,23778
32382,43610,23756
32445,43615,23820
32452,43615,23919
32228,43621,23766
31984,43644,23644
31916,43671,23788
31764,43631,23808
31840,43677,23860
31852,43647,23883
32010,43652,23688
32196,43580,23751
32356,43559,23811
32302,43572,23821
32167,43631,23685
32068,43644,23836
31872,43653,23897
31612,43676,23885
31596,43668,23869
31834,43655,23896
32180,43652,23893
32416,43631,23773
32592,43615,23893
32472,43620,23904
32316,43622,24005
32016,43577,23919
31676,43599,23841
31496,43600,23944
31488,43614,23964
31796,43664,23833
32112,43647,23919
32228,43639,23980
32352,43615,24082
32320,43567,23864
32384,43625,23888
32224,43644,24027
32028,43648,24025
31850,43668,24179
31856,43676,23901
31944,43668,24052
32312,43653,24076
32624,43587,24128
32746,43623,23932
32741,43605,24087
32557,43625,24077
32288,43639,24218
32076,43652,24020
31814,43671,24052
31756,43655,24085
31964,43655,24223
32248,43652,23989
32495,43631,24127
32672,43615,24220
32752,43583,23999
32448,43623,24114
32084,43636,24273
31900,43655,24024
31776,43677,24119
31777,43671,24262
32003,43648,24007
32332,43636,24153
32446,43627,24173
32596,43604,24036
32644,43586,24032
32562,43614,24128
32288,43616,24125
32057,43639,24175
31806,43655,24062
31744,43655,23956
31968,43645,24016
32244,43604,24088
32496,43623,24135
32748,43615,23980
32796,43600,23925
32592,43548,23973
32320,43620,24037
32124,43643,24106
31944,43654,24071
32041,43655,23923
32245,43603,23968
32448,43628,24048
32612,43615,24053
32800,43607,24188
32788,43588,23965
32532,43584,23943
32292,43619,24068
32092,43631,24071
32029,43640,24059
32236,43651,24031
32452,43616,24045
32772,43620,24049
32960,43600,24060
33148,43597,24149
33181,43551,24012
32927,43588,24041
32756,43617,24063
32632,43628,24181
32388,43636,23924
32342,43653,23997
32570,43636,24064
32848,43580,24036
33071,43585,24124
33252,43588,23972
33196,43581,24000
32984,43583,24036
32740,43601,24075
32564,43623,24175
32396,43578,23921
32404,43631,24057
32600,43636,24067
32840,43617,24047
32979,43601,24070
33092,43527,24208
33012,43540,23915
32784,43588,24004
32553,43602,24028
32336,43623,24034
32248,43637,23923
32188,43604,24038
32396,43584,24052
32576,43621,24016
32788,43605,23953
32988,43596,23997
33004,43580,24148
32788,43602,23855
32437,43614,23996
32261,43581,23979
32094,43653,24100
32068,43647,23852
32280,43629,23920
32648,43623,23956
32808,43567,24008
32920,43599,24066
32960,43596,23876
32836,43599,23938
32561,43575,24049
32164,43637,23833
31868,43645,23968
31857,43652,23968
32228,43590,23844
32620,43628,23977
32896,43610,24105
33108,43588,23889
33104,43587,23986
32804,43559,24076
32568,43619,23892
32296,43628,24000
32264,43639,23896
32288,43654,24037
32556,43591,24142
32892,43609,24014
33133,43615,24160
33340,43591,23964
33404,43588,24091
33266,43527,24124
33048,43617,23999
32772,43617,24025
32570,43647,24128
32456,43647,24124
32592,43641,24255
32820,43631,24018
33004,43607,24148
33136,43572,24143
33192,43584,24300
33136,43588,24036
32956,43610,24100
32840,43574,24156
32688,43625,24260
32676,43644,24069
32872,43622,24177
33208,43622,24292
33484,43605,24102
33620,43586,24043
33544,43583,24185
33332,43589,24176
33072,43592,24271
32876,43613,24107
32664,43633,24035
32648,43596,24085
32714,43639,24129
32956,43605,24192
33208,43588,24047
33408,43586,24001
33420,43577,24089
33324,43591,24089
32912,43599,24054
32636,43620,24061
32548,43625,24157
32484,43637,23925
32652,43631,23896
32940,43607,23989
33172,43555,24021
33384,43580,23996
33365,43579,23962
33048,43591,23972
32644,43589,24088
32416,43605,23823
32334,43628,23812
32293,43631,23933
32412,43611,23902
32652,43607,23948
32784,43593,24001
32916,43575,24027
32932,43527,23851
32873,43575,23737
32660,43599,23798
32525,43559,23836
32244,43631,23940
32200,43621,23787
32388,43564,23687
32620,43612,23686
32830,43588,23815
33041,43564,23783
33074,43517,23841
32880,43577,23844
32621,43591,23631
32398,43551,23733
32164,43628,23741
32208,43620,23863
32388,43604,23771
32672,43602,23605
32852,43589,23608
32964,43525,23738
32961,43567,23721
32792,43578,23808
32496,43580,23644
32288,43613,23696
32161,43620,23694
32056,43583,23816
32180,43621,23581
32408,43603,23588
32656,43593,23674
32694,43564,23662
32648,43565,23762
32485,43576,23658
32396,43583,23511
32316,43581,23526
32148,43620,23599
32092,43623,23617
32329,43596,23668
32568,43596,23708
32784,43527,23710
33013,43559,23493
33029,43503,23499
32876,43575,23588
32617,43585,23734
32324,43593,23485
31972,43564,23613
31972,43612,23611
32200,43615,23576
32572,43565,23655
32840,43583,23620
32996,43557,23469
33028,43554,23606
32805,43565,23597
32456,43580,23649
32192,43603,23601
31944,43556,23501
31989,43623,23570
32232,43612,23619
32452,43564,23608
32656,43583,23615
32880,43543,23695
32772,43557,23780
32636,43564,23572
32396,43559,23515
32084,43588,23542
31980,43558,23628
32156,43619,23670
32352,43615,23670
32628,43580,23664
32941,43574,23733
33180,43519,23612
33236,43556,23732
32836,43560,23789
32512,43569,23833
32264,43597,23724
32074,43615,23648
31972,43613,23679
32244,43604,23776
32572,43580,23828
32868,43575,23821
33041,43559,23989
33124,43511,23742
33172,43567,23876
32704,43574,23872
32372,43591,23909
32308,43599,24047
32264,43579,24068
32417,43596,23815
32656,43583,23851
32844,43524,23975
33129,43543,23961
33220,43555,24022
32934,43551,24044
32628,43567,24047
32364,43543,24044
32220,43599,24066
32192,43605,24110
32388,43596,24089
32680,43576,23968
32960,43564,23911
33193,43543,24052
33012,43527,24191
32896,43548,24113
32844,43565,24096
32616,43550,24162
32313,43593,24189
32140,43606,24200
32264,43599,23988
32584,43588,24110
32784,43561,24132
32980,43525,24151
32992,43541,24167
32812,43545,24177
32708,43561,24193
32462,43580,24244
32244,43598,24319
32372,43593,24373
32548,43543,24213
32726,43575,24135
33028,43558,24141
33172,43527,24228
33156,43521,24293
32840,43543,24382
32484,43559,24428
32172,43572,24507
32034,43591,24366
32132,43591,24269
32484,43588,24295
32965,43561,24444
33092,43520,24453
33148,43527,24472
33136,43527,24510
32912,43511,24663
32672,43551,24412
32408,43561,24436
32172,43544,24453
32068,43591,24473
32224,43585,24494
32388,43557,24537
32677,43551,24570
32869,43527,24557
32976,43521,24607
32812,43503,24619
32588,43556,24700
32412,43515,24644
32292,43580,24823
32198,43578,24928
32312,43578,24782
32660,43572,24724
32872,43516,24760
33008,43527,24917
33068,43525,24948
32878,43472,24921
32588,43543,24972
32428,43565,25118
32328,43581,24878
32164,43582,25041
32368,43583,25058
32760,43557,25074
32976,43543,25076
32972,43473,25204
32886,43518,25137
32740,43527,25057
32600,43559,25127
32456,43557,25211
32276,43573,25253
32309,43525,25312
32320,43559,25395
32572,43556,25192
32848,43517,25189
32908,43510,25281
33006,43508,25331
32936,43480,25416
32812,43527,25541
32664,43558,25382
32488,43511,25356
32444,43567,25325
32516,43564,25484
32809,43559,25496
33096,43543,25632
33284,43516,25636
33376,43525,25420
33172,43506,25565
32984,43527,25568
32644,43540,25669
32485,43570,25660
32300,43511,25521
32464,43558,25639
32636,43548,25645
32908,43527,25779
33184,43525,25862
33228,43504,25863
32984,43527,25617
32672,43543,25652
32382,43513,25732
32244,43564,25787
32257,43570,25799
32540,43559,25886
32644,43550,25942
32836,43536,25852
32905,43511,25742
32868,43471,25756
32484,43527,25828
31724,43543,25918
31248,43559,25929
30969,43591,25968
30816,43577,26119
30936,43559,25916
31325,43554,25878
31620,43527,26020
31880,43513,26032
31920,43513,26024
31760,43509,26040
31780,43524,26053
31892,43527,26100
31972,43556,26099
32192,43488,26188
32816,43527,26279
33672,43517,26136
34164,43509,26079
34436,43489,26094
34692,43455,26176
34900,43485,26253
34920,43500,26239
34804,43523,26308
34464,43550,26399
34317,43556,26348
34352,43543,26442
34618,43526,26348
34937,43510,26220
34976,43501,26319
34744,43493,26341
34224,43501,26367
33660,43527,26488
33352,43527,26241
32909,43501,26276
32620,43556,26370
32740,43551,26349
32800,43492,26409
32932,43517,26485
32956,43495,26277
33080,43511,26382
32824,43517,26436
32660,43527,26364
32344,43552,26356
32100,43564,26421
31968,43567,26405
32008,43569,26409
32304,43551,26547
32618,43527,26397
32572,43519,26366
32628,43509,26417
32577,43511,26461
32433,43527,26571
32244,43495,26333
32196,43567,26346
32176,43565,26461
32352,43567,26508
32509,43541,26636
32640,43527,26433
32842,43513,26464
32900,43500,26500
32732,43518,26546
32430,43527,26644
32300,43549,26469
32052,43566,26537
32068,43576,26568
32157,43552,26588
32240,43541,26455
32348,43527,26567
32408,43463,26576
32605,43516,26714
32764,43521,26492
32676,43527,26564
32440,43493,26751
32213,43559,26500
32196,43577,26589
32380,43565,26742
32600,43543,26517
32876,43527,26585
33020,43477,26676
33044,43504,26585
32871,43527,26498
32524,43477,26553
32256,43552,26604
32064,43563,26680
31964,43572,26581
32284,43519,26591
32524,43544,26693
32740,43527,26686
32990,43511,26496
33024,43527,26596
32878,43521,26606
32616,43527,26656
32404,43500,26636
32252,43573,26520
32109,43573,26657
32348,43564,26676
32585,43548,26732
32768,43527,26565
32900,43495,26636
32984,43514,26768
32724,43511,26569
32444,43525,26631
32184,43500,26776
32136,43573,26601
32052,43565,26565
32348,43501,26673
32613,43527,26641
32729,43526,26805
32880,43456,26532
33133,43508,26617
33000,43511,26616
32772,43527,26657
32588,43541,26682
32424,43527,26784
32356,43556,26525
32544,43544,26639
32866,43527,26725
32936,43492,26509
33166,43505,26621
33384,43495,26620
33136,43509,26596
32832,43524,26562
32623,43525,26584
32524,43551,26708
32444,43550,26535
32616,43543,26560
32840,43527,26718
33088,43519,26458
33476,43505,26561
33520,43495,26556
33368,43485,26556
33012,43509,26613
32613,43527,26544
32372,43503,26557
32296,43553,26576
32588,43537,26479
33064,43525,26511
33280,43469,26537
33584,43487,26567
33644,43492,26618
33476,43465,26446
33125,43505,26551
32894,43526,26517
32594,43540,26567
32545,43527,26634
32768,43527,26689
33108,43525,26438
33460,43497,26575
33633,43495,26532
33700,43472,26613
33552,43495,26640
33260,43500,26500
32936,43525,26492
32672,43521,26542
32569,43541,26613
32730,43533,26626
32878,43519,26467
33204,43517,26576
33420,43492,26576
33404,43476,26550
33360,43496,26605
33008,43461,26692
32852,43527,26612
32656,43554,26485
32676,43553,26631
32876,43547,26608
33138,43527,26604
33341,43510,26638
33556,43503,26640
33552,43493,26652
33508,43509,26642
33200,43527,26567
32856,43484,26689
32646,43545,26704
32636,43559,26693
32764,43544,26717
33128,43527,26848
33352,43525,26619
33608,43511,26713
33540,43511,26730
33328,43459,26756
33068,43527,26799
32800,43543,26779
32606,43507,26703
32616,43575,26829
32781,43565,26802
33076,43497,26913
33324,43527,26740
33569,43515,26885
33596,43513,27028
33274,43514,26791
33240,43525,26926
32961,43548,26940
32744,43573,27048
32800,43556,26916
33136,43567,26946
33404,43551,27092
33568,43527,27105
33700,43466,26963
33724,43517,27053
33564,43509,27108
33292,43503,26965
33128,43558,27101
32980,43556,27163
32869,43521,27166
32936,43527,27105
33208,43559,27143
33613,43537,27218
34064,43524,27098
34217,43516,27110
34016,43521,27201
33700,43540,27232
33528,43559,27236
33256,43577,27364
33172,43585,27216
33356,43583,27196
33616,43556,27321
33892,43495,27308
34117,43527,27359
34228,43522,27420
34070,43527,27284
33812,43543,27391
33585,43564,27405
33460,43580,27517
33260,43555,27392
33381,43581,27444
33566,43559,27490
33822,43557,27548
34050,43527,27404
34232,43527,27540
34056,43527,27545
33700,43511,27643
33496,43570,27524
33468,43585,27581
33564,43591,27509
33676,43585,27608
33936,43569,27716
34328,43517,27685
34492,43527,27678
34508,43525,27681
34360,43519,27641
34148,43556,27719
34040,43575,27757
33722,43593,27919
33677,43592,27717
33940,43587,27813
34060,43520,27934
34204,43567,27853
34481,43543,27888
34560,43494,27910
34553,43541,28044
34344,43557,27862
34092,43573,27991
33980,43597,27992
33940,43556,27996
34092,43597,28027
34372,43580,28023
34612,43557,28158
34728,43551,28134
34688,43548,28076
34640,43551,28031
34408,43573,28140
33945,43566,28145
33852,43605,28188
33856,43601,28174
34128,43607,28367
34325,43580,28133
34624,43575,28269
34900,43559,28255
34864,43555,28393
34672,43558,28285
34368,43521,28261
34110,43588,28297
33856,43616,28346
33792,43583,28445
34117,43618,28284
34457,43596,28412
34682,43588,28429
34810,43566,28596
35032,43556,28454
34952,43553,28471
34680,43588,28494
34433,43610,28632
34352,43639,28516
34110,43629,28529
34208,43623,28551
34509,43600,28603
34856,43598,28748
34976,43585,28589
34969,43581,28573
34805,43565,28679
34660,43544,28669
34372,43623,28672
34112,43631,28799
34140,43591,28701
34416,43636,28674
34670,43618,28719
34744,43609,28741
34858,43591,28785
34894,43549,28802
34876,43598,28799
34668,43608,28887
34484,43628,28885
34293,43645,28999
34277,43636,28847
34424,43650,28823
34548,43605,28823
34724,43623,28887
35032,43591,28940
35172,43599,28918
35208,43585,28935
34832,43629,29036
34724,43636,29061
34412,43629,29030
34276,43662,28935
34392,43669,29033
34616,43644,29008
34812,43639,29191
34992,43622,28989
35088,43629,29068
35012,43598,29074
34684,43644,29260
34432,43662,29049
34460,43678,29141
34205,43695,29140
34284,43687,29185
34612,43616,29164
35048,43652,29257
35272,43639,29249
35240,43586,29148
34988,43644,29251
34732,43655,29284
34724,43671,29176
34512,43707,29295
34384,43695,29374
34580,43709,29249
35000,43681,29319
34980,43677,29484
35092,43645,29266
35144,43666,29361
35061,43655,29380
34653,43687,29380
34352,43693,29413
34134,43727,29428
34084,43735,29485
34388,43725,29351
34772,43708,29463
35192,43649,29360
35386,43679,29425
35308,43672,29598
35256,43687,29375
35164,43700,29482
34841,43721,29452
34592,43740,29599
34496,43700,29412
34660,43751,29446
34961,43736,29493
35272,43733,29592
35408,43708,29407
35428,43702,29481
35256,43708,29446
34856,43719,29634
34640,43737,29447
34508,43727,29466
34204,43779,29600
34376,43772,29535
34688,43748,29505
34925,43727,29473
35092,43743,29564
35332,43733,29632
35120,43741,29608
34881,43751,29421
34592,43775,29495
34404,43783,29477
34389,43807,29636
34452,43805,29479
34616,43788,29447
34888,43769,29518
35008,43763,29540
34988,43756,29438
34863,43773,29524
34596,43783,29514
34320,43804,29660
34084,43812,29447
34153,43834,29462
34352,43827,29543
34556,43767,29497
34904,43796,29546
35112,43783,29575
35160,43783,29646
34992,43797,29460
34784,43815,29527
34672,43783,29543
34440,43849,29509
34244,43869,29664
34380,43801,29447
34744,43861,29545
34884,43827,29523
35012,43813,29569
34981,43815,29524
34924,43828,29496
34828,43834,29514
34560,43857,29661
34404,43879,29508
34501,43884,29462
34628,43876,29528
34876,43831,29476
35079,43860,29608
35212,43847,29529
35180,43821,29468
34948,43861,29429
34812,43874,29487
34629,43883,29510
34493,43905,29496
34285,43935,29501
34524,43911,29481
34768,43911,29470
34884,43905,29471
35061,43879,29592
35260,43883,29500
35124,43893,29416
34948,43903,29428
34638,43925,29464
34512,43949,29475
34368,43975,29447
34424,43964,29423
34600,43957,29460
34784,43949,29490
34864,43935,29439
35068,43911,29567
35004,43935,29343
34575,43940,29364
34304,43972,29431
34104,44001,29376
34116,44000,29524
34364,43995,29318
34421,43998,29411
34628,43933,29477
34592,43975,29333
34420,43972,29372
34176,43937,29364
33594,43993,29390
32976,43984,29460
32804,44039,29345
32572,44060,29373
32668,44001,29352
33060,44039,29396
33292,44024,29450
33549,44016,29313
33568,43959,29367
33412,44023,29360
33324,44030,29484
33296,44022,29357
33316,44077,29324
33520,44071,29364
33712,44024,29430
34279,44052,29465
35054,44038,29282
35396,44031,29300
35688,44016,29348
35933,44029,29325
36084,44062,29341
36024,44072,29469
35840,44100,29397
35580,44119,29260
35608,44119,29297
35788,44114,29250
35916,44103,29335
36050,44085,29330
35932,44079,29325
35508,44097,29442
35060,44108,29298
34586,44140,29212
34180,44162,29284
33772,44145,29286
33572,44167,29319
33544,44165,29426
33616,44162,29183
33884,44151,29189
34053,44125,29224
33924,44149,29282
33558,44167,29240
33142,44196,29381
32937,44212,29304
32850,44213,29237
32944,44215,29175
33204,44207,29158
33548,44205,29223
33799,44140,29251
33864,44192,29213
33796,44212,29319
33332,44231,29383
33044,44247,29226
32872,44217,29180
32772,44268,29252
32928,44264,29311
33144,44272,29273
33232,44263,29225
33397,44234,29278
33456,44249,29390
33348,44231,29359
33088,44262,29275
32789,44295,29371
32586,44325,29361
32380,44324,29518
32464,44333,29348
32684,44324,29433
33009,44263,29335
33108,44292,29439
33250,44295,29429
33068,44295,29486
32828,44327,29589
32556,44311,29477
32388,44364,29435
32222,44388,29524
32231,44383,29493
32412,44367,29652
32846,44305,29601
33040,44355,29496
33162,44343,29545
33038,44349,29693
32784,44372,29571
32464,44393,29580
32204,44361,29496
32092,44431,29602
32200,44431,29606
32326,44415,29573
32512,44406,29733
32572,44392,29636
32644,44397,29548
32640,44404,29603
32372,44423,29654
32072,44437,29653
31788,44439,29660
31668,44487,29658
31692,44473,29672
31909,44447,29732
32180,44452,29831
32400,44452,29684
32448,44455,29703
32236,44460,29721
31829,44481,29879
31492,44436,29686
31312,44521,29789
31264,44521,29764
31352,44533,29914
31760,44486,29703
32112,44515,29780
32064,44508,29785
32004,44479,29844
31800,44506,29836
31528,44482,29742
31478,44548,29776
31360,44575,29840
31220,44580,29844
31108,44591,29860
31136,44581,29775
31388,44551,29860
31525,44481,29847
31520,44540,30003
31293,44548,29804
31176,44581,29908
31008,44585,29984
30752,44623,29832
30565,44599,29925
30600,44616,29968
30980,44613,29913
31208,44612,29967
31324,44604,30042
31424,44589,29990
31332,44609,29996
30960,44551,29919
30549,44653,30020
30120,44671,29988
30104,44629,30100
30168,44679,29953
30433,44661,30025
30668,44661,30175
30849,44646,30077
30872,44644,30096
30672,44647,30064
30332,44679,30101
30070,44645,30130
29861,44719,30136
29604,44732,30136
29988,44668,30136
30108,44717,30272
30340,44711,30186
30329,44637,30125
30266,44700,30173
30085,44711,30256
29736,44735,30214
29492,44692,30225
29216,44783,30172
29054,44786,30256
29008,44785,30193
29177,44731,30264
29452,44756,30380
29444,44764,30337
29429,44758,30468
29264,44781,30308
29034,44799,30421
28616,44759,30356
28400,44845,30400
28384,44863,30496
28680,44780,30393
28960,44855,30459
29044,44839,30373
29098,44828,30450
29109,44831,30492
28768,44775,30504
28346,44821,30612
28044,44884,30525
27972,44889,30557
27720,44911,30559
27840,44921,30693
28013,44839,30620
28226,44910,30692
28376,44878,30617
28380,44892,30740
28168,44911,30672
27828,44909,30772
27584,44877,30692
27192,44969,30805
27133,44983,30711
27240,44981,30773
27564,44933,30681
27705,44972,30768
27888,44951,30709
28000,44959,30769
27836,44911,30741
27532,44984,30807
27220,45003,30767
26824,44959,30828
26668,45055,30856
26688,45039,30896
26900,45045,31044
27104,44967,30921
27109,45020,31085
27160,45017,30973
27018,45031,31013
26732,44985,30993
26476,45063,31158
26204,45089,31046
26042,45111,31132
26176,45119,31048
26352,45100,31093
26516,45087,31268
26702,45076,31141
26748,45077,31250
26427,45057,31172
26121,45123,31249
25817,45128,31169
25506,45063,31251
25340,45157,31333
25336,45181,31319
25596,45157,31471
25836,45108,31332
25996,45157,31457
25936,45143,31364
25632,45161,31471
25280,45108,31373
24944,45199,31453
24704,45221,31416
24592,45244,31516
24742,45239,31669
25232,45229,31541
25480,45235,31588
25526,45205,31545
25360,45207,31665
25044,45228,31632
24762,45244,31679
24522,45191,31748
24416,45281,31725
24280,45317,31748
24304,45295,31845
24408,45293,31813
24556,45295,31928
24560,45267,31810
24534,45272,31845
24328,45295,31949
24000,45284,31910
23508,45324,31934
23176,45362,31879
22968,45287,31954
23031,45385,32116
23230,45356,32021
23440,45353,32089
23602,45353,32060
23632,45316,32111
23262,45369,32071
23032,45373,32112
22714,45396,32092
22536,45423,32193
22352,45438,32156
22288,45373,32222
22574,45407,32175
22816,45441,32324
23012,45413,32228
23088,45421,32324
22872,45352,32220
22592,45445,32294
22332,45477,32284
22056,45431,32303
21969,45504,32424
21984,45508,32318
22192,45444,32444
22304,45497,32347
22434,45473,32455
22428,45479,32340
22132,45493,32353
21832,45519,32504
21652,45447,32400
21320,45552,32431
21204,45571,32358
21314,45479,32400
21556,45570,32474
21993,45562,32433
22398,45548,32561
22500,45552,32424
22242,45544,32446
22074,45575,32508
21740,45593,32460
21446,45615,32475
21205,45555,32474
21352,45638,32519
21368,45620,32537
21544,45615,32647
21744,45549,32537
21893,45613,32564
21805,45615,32500
21567,45549,32517
21316,45662,32500
21027,45677,32555
20966,45599,32676
21148,45703,32548
21448,45685,32569
21768,45687,32538
21884,45668,32635
21877,45615,32580
21728,45631,32709
21604,45703,32605
21380,45711,32676
21298,45756,32572
21255,45687,32565
21360,45679,32588
21604,45693,32558
21880,45751,32620
22048,45727,32549
22156,45732,32681
22148,45749,32610
21965,45677,32694
21877,45751,32613
21704,45819,32735
21718,45828,32632
21856,45820,32730
22124,45823,32570
22520,45813,32609
22776,45788,32738
22943,45792,32639
22833,45748,32725
22716,45823,32623
22580,45831,32691
22425,45862,32614
22432,45860,32625
22714,45878,32772
23224,45885,32604
23534,45856,32652
23732,45767,32775
23940,45855,32665
23757,45868,32789
23564,45885,32675
23441,45815,32743
23428,45932,32645
23488,45931,32678
23641,45938,32660
23780,45932,32752
24016,45845,32672
24414,45913,32692
24821,45900,32743
24644,45909,32704
24500,45951,32852
24474,45951,32758
24522,45982,32806
24380,45906,32721
24460,46005,32801
24788,45988,32794
25174,45980,32806
25536,45959,32759
25852,45959,32743
25800,45969,32764
25668,45932,32895
25648,46020,32836
25608,46036,32941
25472,45968,32812
25577,46058,32863
25956,46036,32807
26180,46030,32841
26352,45991,32945
26666,46017,32892
26501,46039,32967
26324,45996,32871
26312,46077,32948
26240,46080,32927
26252,46104,32973
26542,46046,32916
26900,46076,33017
27164,46087,32951
27348,46068,33061
27488,46023,32960
27500,46086,32936
27388,46103,33096
27375,46052,33004
27414,46151,33124
27464,46158,33004
27740,46163,32956
28184,46151,32996
28548,46123,32964
28676,46119,33009
28737,46124,33069
28860,46071,33051
28748,46162,33180
28768,46166,33057
28794,46199,33122
28940,46209,33031
29276,46204,33055
29316,46198,33143
29553,46189,33097
29856,46183,33154
30076,46179,33100
30168,46181,33220
29988,46205,33098
29744,46215,33092
29584,46245,33234
29648,46256,33127
30082,46244,33155
30497,46255,33151
30820,46159,33156
31130,46231,33253
31296,46215,33095
31300,46183,33117
31152,46247,33273
31088,46271,33108
30944,46253,33145
31097,46303,33212
31321,46289,33143
31582,46295,33237
31824,46279,33145
32070,46269,33285
32328,46263,33194
32172,46286,33250
31978,46245,33150
31776,46319,33200
31584,46335,33173
31596,46343,33188
31818,46292,33284
32072,46342,33200
32540,46324,33332
32856,46305,33212
32968,46313,33303
32981,46315,33242
32804,46343,33273
32672,46350,33236
32629,46375,33324
32621,46391,33240
32780,46391,33371
33063,46381,33271
33225,46367,33300
33336,46367,33253
33377,46364,33306
33112,46375,33247
32764,46399,33287
32432,46369,33321
32266,46431,33294
32164,46444,33332
32232,46445,33271
32404,46383,33414
32808,46437,33303
33012,46406,33300
33253,46396,33341
33314,46411,33323
33156,46420,33309
33032,46444,33404
33108,46437,33287
33557,46449,33338
33952,46457,33464
34484,46444,33303
35164,46384,33343
35980,46408,33327
36296,46409,33338
36341,46421,33423
36652,46439,33365
36624,46430,33469
36720,46471,33324
36836,46485,33332
36941,46445,33479
37040,46493,33344
37332,46479,33336
37536,46420,33455
37590,46453,33385
37436,46468,33336
36944,46489,33331
36740,46503,33447
36244,46532,33332
36012,46493,33329
35972,46545,33447
36134,46532,33428
36328,46516,33284
36493,46505,33281
36724,46511,33327
36690,46509,33287
36400,46529,33297
36184,46553,33356
36024,46573,33327
36032,46547,33223
36213,46584,33275
36324,46569,33257
36560,46564,33260
36608,46505,33364
36822,46543,33311
36724,46553,33166
36596,46557,33197
36412,46593,33202
36460,46599,33216
36668,46620,33281
36872,46615,33148
37236,46599,33184
37406,46599,33149
37540,46576,33207
37496,46561,33287
37416,46586,33140
37212,46599,33186
37205,46615,33179
37196,46639,33315
37136,46647,33159
37156,46647,33135
37409,46636,33181
37768,46573,33165
37972,46614,33180
38180,46597,33285
38136,46612,33102
37992,46583,33168
37776,46652,33143
37620,46670,33212
37424,46675,33126
37436,46681,33140
37648,46663,33144
37856,46663,33202
38180,46644,33088
38396,46636,33095
38445,46643,33214
38376,46631,33028
38200,46677,33058
38008,46701,33175
37920,46709,32993
38132,46703,32999
38572,46695,32969
38840,46676,33015
39013,46663,32988
39048,46656,33089
39080,46677,32875
38960,46677,32953
38649,46694,32913
38488,46719,33047
38424,46727,32871
38616,46689,32876
38682,46719,33023
38920,46695,32812
38972,46681,32865
39032,46687,32843
38944,46671,32970
38948,46703,32753
38856,46724,32799
38832,46735,32899
38644,46741,32710
38553,46751,32769
38848,46692,32784
39276,46727,32869
39524,46703,32673
39584,46703,32709
39568,46699,32689
39380,46724,32805
39184,46727,32597
38928,46748,32621
38884,46764,32710
39188,46751,32519
39348,46703,32578
39644,46734,32551
39752,46716,32565
39740,46711,32492
39592,46727,32498
39332,46727,32568
39088,46726,32399
38980,46779,32409
39032,46781,32441
39212,46775,32437
39580,46764,32431
39880,46703,32373
39972,46724,32420
40196,46721,32467
40028,46743,32356
39705,46743,32293
39352,46716,32337
39201,46785,32300
39044,46788,32354
39240,46777,32380
39664,46776,32231
39852,46719,32230
40064,46749,32302
40080,46741,32274
39908,46749,32186
39652,46759,32197
39460,46761,32282
39340,46792,32204
39328,46807,32148
39324,46804,32138
39600,46783,32153
39876,46727,32139
39957,46759,32093
40152,46758,32093
39980,46759,32235
39640,46783,31992
39297,46799,32036
39104,46808,32051
39080,46815,32023
39360,46817,32169
39584,46804,31943
40008,46789,31972
40068,46775,31969
40204,46773,32052
39812,46780,32093
39368,46802,31868
39136,46807,31964
38984,46837,31924
38848,46805,32021
38992,46840,31902
39324,46824,31901
39468,46812,31897
39744,46801,31940
39864,46796,31969
39892,46759,31924
39592,46823,32023
39272,46837,31985
39024,46855,31780
39020,46855,31812
39008,46877,31877
39120,46829,31847
39312,46842,31901
39392,46827,31937
39540,46829,31983
39584,46821,31845
39380,46847,31751
39302,46860,31751
39112,46877,31788
39080,46884,31837
39156,46881,31853
39500,46869,31828
39704,46864,31816
39928,46844,31863
39896,46831,31941
39813,46845,31978
39496,46849,31780
39056,46876,31871
38878,46893,31874
38798,46903,31855
38992,46843,31884
39296,46879,31900
39672,46862,31909
39888,46855,32041
40088,46850,31829
39941,46844,31896
39680,46823,31908
39356,46884,31976
38972,46896,32064
38760,46909,31892
39005,46908,31983
39248,46892,31977
39428,46879,32007
39516,46855,32016
39612,46847,32037
39564,46849,32036
39348,46877,32047
39148,46879,32049
38972,46903,32060
38906,46927,32072
39076,46880,32124
39384,46904,32230
39652,46887,32233
39808,46879,32127
39900,46871,32102
39760,46855,32129
39468,46879,32143
39160,46900,32224
39040,46916,32260
38988,46916,32252
39092,46921,32270
39342,46913,32317
39568,46889,32376
39756,46852,32413
39908,46869,32404
39832,46887,32461
39736,46887,32451
39552,46911,32486
39304,46924,32519
39008,46928,32617
38992,46907,32688
39172,46919,32509
39364,46906,32583
39624,46895,32623
39776,46877,32653
39684,46879,32719
39396,46892,32752
39144,46903,32796
39048,46927,32871
38884,46928,32975
38912,46941,33012
38956,46917,32903
39156,46903,33015
39316,46885,33037
39432,46870,33070
39380,46876,33255
39168,46892,33286
38940,46905,33349
38784,46872,33406
38632,46933,33255
38536,46932,33369
38628,46912,33444
38872,46904,33491
39264,46895,33508
39616,46877,33631
39608,46887,33725
39268,46892,33808
38940,46912,33693
38652,46924,33747
38496,46940,33799
38624,46934,33911
38806,46924,33988
39054,46908,33957
39192,46855,34047
39288,46892,34109
39260,46887,34145
38996,46892,34260
38732,46911,34317
38484,46933,34293
38328,46937,34399
38392,46887,34431
38668,46925,34576
38909,46904,34679
39008,46881,34633
39080,46887,34708
38920,46892,34772
38572,46900,34880
38260,46911,34911
38104,46933,34959
38064,46935,35067
38160,46942,35188
38400,46919,35225
38672,46876,35373
38788,46892,35412
38888,46885,35412
38696,46841,35490
38408,46902,35588
38120,46902,35716
37824,46925,35776
37636,46941,35957
37804,46892,36014
38068,46935,36060
38364,46907,36191
38524,46892,36293
38589,46867,36395
38508,46892,36549
38204,46892,36678
37892,46908,36769
37660,46877,36839
37517,46940,36964
37700,46928,37085
37896,46924,37249
38144,46877,37353
38280,46884,37450
38256,46885,37587
37932,46833,37709
37600,46892,37861
37448,46915,37981
37304,46927,38100
37176,46868,38236
37240,46935,38372
37512,46905,38517
37852,46889,38644
37976,46884,38764
38028,46868,38902
37896,46836,39041
37696,46885,39173
37470,46889,39301
37272,46919,39421
37052,46919,39572
37064,46912,39713
37272,46910,39821
37532,46888,39943
37676,46861,40135
37688,46867,40215
37560,46823,40385
37312,46878,40528
37072,46895,40620
36905,46893,40756
36781,46927,40921
36845,46912,41058
37004,46840,41140
37300,46885,41351
37568,46871,41450
37712,46854,41636
37676,46821,41700
37292,46870,41831
36924,46876,41957
36708,46846,42148
36616,46908,42291
36664,46905,42404
36816,46887,42454
37036,46883,42705
37284,46845,42830
37288,46838,42985
37148,46836,43132
36868,46855,43180
36644,46865,43292
36492,46892,43449
36368,46895,43660
36480,46884,43799
36696,46869,43940
36856,46809,43972
36892,46804,44209
36896,46828,44355
36728,46828,44456
36468,46840,44544
36245,46869,44655
36080,46871,44807
35992,46888,45051
36104,46880,45157
36288,46855,45301
36468,46855,45453
36624,46847,45574
36704,46813,45590
36684,46828,45853
36476,46801,45956
36296,46841,46101
36100,46855,46237
35996,46879,46252
36152,46864,46502
36404,46855,46629
36614,46824,46727
36748,46789,46764
36804,46788,47015
36616,46808,47127
36260,46767,47284
35948,46837,47269
35740,46855,47509
35728,46852,47609
35988,46796,47741
36292,46835,47817
36488,46813,47879
36648,46801,48132
36900,46778,48225
36937,46791,48367
36644,46799,48468
36252,46756,48568
35960,46831,48597
35806,46821,48724
35908,46829,48953
36160,46752,49040
36520,46796,49156
36704,46783,49273
36772,46767,49270
36588,46768,49517
36252,46780,49612
35936,46793,49773
35764,46757,49828
35630,46780,49812
35724,46804,50044
35932,46807,50183
36160,46782,50287
36233,46767,50372
36322,46735,50383
36194,46751,50608
35925,46767,50741
35600,46727,50692
35360,46806,50935
35216,46799,50988
35276,46792,51162
35524,46765,51154
35752,46772,51335
35933,46748,51390
36112,46741,51557
36008,46740,51507
35637,46756,51532
35152,46783,51820
34640,46727,51926
34236,46796,51911
34084,46797,51908
34184,46764,52200
34304,46757,52231
34344,46687,52313
34388,46724,52279
34324,46725,52548
34104,46735,52612
33968,46693,52743
33848,46759,52711
33804,46761,52904
33972,46759,52940
34468,46733,53093
35128,46719,53094
35692,46678,53020
36124,46679,53300
36424,46684,53356
36420,46695,53476
36268,46708,53452
36132,46727,53600
36112,46727,53676
36192,46727,53668
36300,46708,53837
36380,46654,53927
36444,46684,53813
36560,46677,54020
36544,46679,54105
36356,46650,54149
36184,46701,54022
35824,46717,54279
35404,46724,54348
35361,46721,54460
35596,46700,54420
35800,46693,54535
35860,46679,54575
35856,46660,54685
35632,46613,54724
35364,46671,54735
35033,46685,54855
34721,46673,54791
34511,46711,54948
34517,46703,54988
34728,46644,55068
34980,46687,54912
35132,46648,55192
35229,46640,55276
35112,46588,55161
34820,46648,55366
34540,46668,55444
34360,46676,55268
34240,46687,55524
34333,46690,55588
34604,46599,55396
34853,46654,55668
34968,46631,55668
35016,46617,55714
34916,46625,55739
34640,46636,55751
34396,46630,55620
34196,46656,55887
34060,46658,55921
34076,46671,55943
34292,46599,55991
34528,46631,55972
34688,46623,56071
34760,46564,55966
34732,46599,56116
34612,46599,56089
34436,46565,56175
34233,46612,56132
34118,46655,56196
34152,46636,56180
34324,46621,56277
34504,46613,56119
34601,46599,56300
34620,46578,56240
34508,46573,56327
34184,46593,56289
33904,46599,56188
33732,46609,56308
33628,46628,56292
33792,46631,56276
34060,46599,56036
34168,46588,56284
34341,46521,56264
34540,46560,56228
34552,46560,56208
34292,46564,56199
33964,46577,56188
33695,46580,56180
33489,46599,55996
33604,46584,56132
33884,46580,56052
34060,46569,56040
34216,46548,55996
34276,46543,55717
34156,46532,55913
33936,46546,55815
33693,46533,55869
33468,46572,55815
33284,46580,55720
33276,46559,55452
33524,46575,55612
33756,46532,55582
33924,46527,55431
33986,46496,55207
33820,46525,55316
33572,46522,55303
33364,46544,55117
33296,46559,54915
33420,46560,55047
33584,46521,54945
33740,46533,54903
33952,46455,54772
34100,46500,54509
34156,46485,54637
33968,46492,54573
33656,46484,54278
33404,46508,54350
33292,46519,54258
33244,46538,54102
33420,46516,53956
33676,46508,53852
33969,46468,53761
34157,46471,53589
34220,46463,53712
34104,46436,53605
33836,46471,53469
33612,46487,53380
33397,46492,53125
33192,46440,53202
33244,46509,53056
33532,46471,52989
33752,46437,52871
33929,46444,52808
34060,46439,52686
33988,46415,52509
33740,46447,52263
33436,46460,52357
33228,46471,52241
33064,46419,52095
33153,46485,51889
33424,46460,51935
33572,46441,51836
33676,46404,51668
33668,46415,51601
33524,46418,51544
33280,46437,51414
33022,46437,51260
32837,46398,51121
32660,46471,50932
32618,46463,51015
32825,46396,50897
33160,46428,50757
33375,46412,50708
33368,46343,50541
33260,46404,50492
33032,46415,50367
32804,46428,50326
32537,46397,50148
32356,46444,49979
32356,46444,50014
32576,46428,49954
32776,46427,49828
32904,46393,49620
32936,46325,49644
32768,46385,49535
32564,46397,49477
32388,46359,49396
32132,46421,49309
31952,46439,49189
32036,46439,49076
32204,46421,48898
32406,46336,48941
32542,46381,48852
32664,46365,48749
32612,46375,48636
32404,46373,48619
32317,46405,48447
32141,46415,48428
31904,46406,48336
32004,46413,48231
32192,46343,48205
32436,46383,48005
32633,46360,48022
32740,46343,47919
32605,46364,47853
32284,46367,47788
31980,46376,47703
31876,46393,47601
31804,46404,47521
31849,46405,47492
32028,46374,47297
32324,46364,47192
32576,46343,47231
32726,46333,47133
32620,46279,47056
32304,46357,47007
32036,46359,46821
31892,46380,46695
31864,46335,46757
31988,46373,46654
32264,46356,46573
32556,46343,46497
32816,46327,46448
32857,46252,46365
32750,46311,46160
32532,46325,46086
32184,46279,46124
31841,46349,46036
31682,46364,45940
31908,46327,45911
32305,46335,45797
32636,46271,45631
32752,46311,45672
32760,46287,45585
32628,46228,45541
32348,46295,45405
32125,46249,45349
31888,46321,45286
31656,46271,45199
31728,46324,45148
31956,46319,45024
32228,46301,44940
32492,46287,44887
32560,46257,44925
32424,46279,44852
32200,46283,44775
31916,46295,44712
31700,46268,44644
31616,46305,44639
31800,46311,44532
32036,46297,44388
32224,46276,44332
32408,46255,44295
32588,46242,44335
32584,46181,44252
32324,46261,44214
32030,46260,44196
31829,46277,44112
31772,46292,44068
31922,46291,43941
32149,46279,43877
32398,46241,43932
32625,46241,43908
32796,46224,43783
32708,46215,43664
32433,46231,43757
32176,46255,43684
31928,46223,43679
31745,46252,43549
31828,46268,43468
32028,46205,43513
32288,46245,43455
32400,46207,43435
32510,46197,43347
32442,46173,43246
32192,46205,43293
31912,46229,43270
31800,46233,43219
31700,46244,43079
31776,46236,42996
31948,46223,43079
32152,46214,43012
32328,46188,42996
32372,46183,42872
32192,46180,42812
31873,46179,42839
31572,46135,42820
31508,46205,42797
31557,46215,42647
31872,46215,42706
32220,46198,42637
32520,46178,42613
32820,46148,42489
32992,46149,42420
32796,46159,42412
32432,46151,42436
32132,46181,42420
31965,46183,42356
31844,46191,42244
31937,46131,42183
32172,46176,42265
32488,46155,42204
32728,46143,42176
32716,46121,42151
32540,46132,42102
32276,46141,42088
32008,46157,42031
31756,46165,42023
31568,46167,41989
31644,46147,41943
31872,46147,41893
32176,46135,41831
32412,46111,41829
32564,46087,41796
32528,46103,41767
32328,46117,41731
32092,46078,41693
31845,46125,41669
31668,46076,41628
31710,46132,41591
31920,46125,41556
32060,46108,41508
32170,46087,41455
32284,46079,41412
32232,46077,41382
32008,46031,41333
31760,46111,41316
31599,46108,41287
31556,46060,41206
31596,46116,41151
31708,46109,41106
31817,46016,41052
32020,46062,41001
32044,46055,40980
31914,45992,40926
31732,46077,40914
31577,46072,40937
31407,46087,40893
31264,46102,40854
31392,46087,40821
31609,46027,40775
31880,46073,40740
32121,46049,40701
32292,45997,40655
32185,46020,40617
31908,46043,40573
31652,46048,40556
31392,46066,40517
31196,46030,40440
31352,46056,40383
31646,46041,40400
31960,45983,40344
32180,46020,40327
32252,46004,40277
32089,45933,40188
31812,46009,40144
31480,46017,40081
31256,46028,40113
31156,46032,40067
31256,46029,40040
31493,46030,39943
31700,45986,39917
31904,45976,39909
31982,45980,39895
31840,45927,39839
31596,45980,39809
31476,45998,39744
31408,46013,39673
31360,46017,39694
31416,46005,39645
31704,46001,39612
31992,45988,39577
32184,45956,39513
32220,45948,39458
32044,45956,39420
31716,45959,39388
31357,45988,39362
31117,45991,39359
30973,46004,39321
31044,45996,39295
31224,45989,39260
31460,45954,39221
31672,45941,39181
31897,45940,39164
32016,45927,39076
31802,45951,39090
31442,45959,39053
31190,45972,39031
30958,45980,39008
31072,45972,38948
31392,45951,38917
31717,45902,38876
31928,45927,38849
31968,45917,38823
31816,45919,38820
31528,45919,38805
30996,45932,38786
30516,45889,38761
30084,45959,38730
29972,45958,38689
30016,45885,38659
30136,45942,38645
30256,45901,38653
30353,45884,38612
30364,45900,38596
30152,45830,38575
29993,45911,38559
29892,45927,38535
29855,45935,38516
30160,45924,38500
30848,45907,38484
31560,45870,38465
31960,45876,38447
32372,45785,38437
32796,45831,38407
32860,45806,38380
32705,45868,38361
32780,45829,38345
33025,45895,38326
33381,45892,38317
33669,45888,38279
33772,45871,38279
33781,45863,38263
33816,45847,38229
33656,45780,38205
33352,45847,38177
32892,45860,38183
32464,45873,38151
32120,45887,38132
32012,45884,38125
32084,45876,38105
32197,45860,38079
32188,45789,38030
32112,45826,38029
31857,45823,38013
31556,45831,38007
31236,45780,37980
31048,45871,37952
30960,45872,37951
31076,45853,37924
31300,45854,37911
31516,45841,37895
31684,45831,37895
31744,45796,37893
31612,45823,37861
31400,45826,37860
31260,45783,37849
31176,45855,37848
31032,45862,37819
31072,45865,37823
31304,45847,37820
31533,45770,37804
31658,45812,37795
31744,45804,37801
31668,45804,37773
31388,45797,37772
31150,45817,37773
31024,45841,37761
30982,45852,37758
31086,45849,37756
31376,45831,37752
31632,45821,37719
31784,45812,37720
31884,45721,37724
31840,45789,37673
31617,45799,37682
31364,45759,37668
31052,45828,37669
30809,45831,37648
30796,45831,37620
31056,45799,37617
31408,45799,37607
31652,45785,37588
31792,45767,37574
31724,45776,37564
31626,45780,37549
31460,45796,37524
31304,45817,37489
31156,45831,37480
31224,45817,37460
31448,45751,37453
31687,45796,37427
31792,45776,37408
31812,45748,37367
31660,45771,37348
31472,45767,37327
31236,45732,37293
31048,45793,37276
30932,45819,37256
31108,45799,37245
31393,45793,37220
31664,45791,37215
31832,45763,37197
32004,45684,37175
31880,45751,37141
31633,45759,37116
31364,45770,37109
31088,45789,37084
30904,45803,37068
30981,45791,37036
31208,45777,37031
31556,45727,37025
31804,45751,36957
31972,45725,36962
31844,45679,36933
31584,45749,36903
31248,45762,36893
31048,45733,36829
30932,45788,36818
31084,45776,36796
31464,45703,36756
31772,45734,36737
31865,45729,36724
31944,45684,36692
31916,45711,36637
31640,45743,36579
31344,45760,36559
31184,45756,36534
31124,45780,36501
31288,45766,36473
31496,45751,36445
31696,45743,36407
31880,45733,36379
32025,45710,36334
32000,45703,36311
31804,45716,36271
31612,45725,36244
31476,45741,36199
31340,45751,36159
31360,45748,36144
31604,45743,36136
31764,45727,36111
31892,45679,36037
32004,45695,35980
31876,45694,35948
31668,45703,35932
31444,45724,35875
31328,45676,35910
31324,45743,35876
31433,45750,35846
31656,45719,35805
31844,45655,35791
32040,45695,35751
32156,45621,35704
32078,45687,35612
31808,45703,35591
31493,45711,35564
31252,45732,35544
31096,45748,35522
31216,45733,35484
31388,45721,35444
31562,45709,35412
31748,45654,35380
31854,45676,35367
31768,45646,35385
31524,45694,35381
31248,45671,35297
31012,45740,35224
30910,45742,35216
30968,45748,35202
31294,45732,35164
31592,45725,35146
31808,45692,35102
31840,45636,35119
31756,45687,35092
31648,45684,35060
31488,45711,35039
31316,45702,35041
31088,45749,34990
31124,45751,34870
31312,45721,34880
31532,45703,34852
31682,45708,34822
31769,45652,34857
31700,45693,34840
31484,45719,34729
31240,45725,34716
31060,45735,34695
31024,45759,34660
31212,45759,34613
31380,45687,34580
31604,45735,34638
31952,45701,34623
32068,45699,34490
31932,45702,34495
31620,45703,34474
31343,45661,34461
31168,45751,34442
31036,45749,34421
31192,45727,34396
31480,45734,34369
31756,45720,34367
31936,45717,34348
32028,45703,34423
31809,45695,34366
31532,45717,34293
31280,45725,34292
31038,45748,34311
30880,45762,34309
31016,45701,34295
31368,45740,34233
31734,45725,34159
31968,45703,34270
32086,45696,34207
32008,45697,34137
31756,45703,34156
31518,45729,34140
31286,45743,34119
31124,45695,34108
31132,45749,34085
31260,45741,34055
31464,45732,34084
31640,45703,34073
31808,45680,34004
31765,45628,34007
31521,45700,33989
31101,45669,33968
30852,45751,33964
30844,45766,33943
31068,45765,33920
31382,45740,33924
31637,45712,33920
31829,45703,33977
31972,45645,33983
31932,45692,33975
31773,45700,33951
31484,45727,33924
31260,45692,33793
31145,45761,33780
31228,45760,33791
31441,45732,33798
31720,45741,33769
31852,45716,33730
31936,45703,33709
31773,45703,33705
31548,45657,33692
31389,45737,33683
31408,45753,33665
31360,45767,33644
31432,45767,33687
31656,45756,33676
31858,45733,33683
32000,45654,33694
32100,45703,33711
31980,45703,33684
31752,45703,33534
31468,45743,33535
31264,45703,33518
31180,45757,33505
31293,45767,33511
31520,45756,33511
31808,45743,33503
31997,45724,33484
32132,45703,33471
32104,45717,33461
31857,45720,33423
31572,45748,33381
31400,45756,33407
31340,45703,33423
31382,45773,33440
31560,45756,33404
31744,45749,33284
31903,45722,33268
32124,45685,33333
32068,45703,33336
31920,45725,33368
31772,45743,33348
31720,45765,33260
31634,45775,33214
31688,45764,33169
31876,45764,33167
32076,45751,33149
32244,45735,33132
32285,45724,33151
32092,45721,33218
31908,45703,33220
31752,45745,33197
31596,45769,33092
31508,45773,33057
31544,45733,33064
31744,45775,33012
32016,45763,33012
32252,45703,33053
32364,45735,33109
32140,45724,33067
31788,45702,32879
31428,45743,32919
31288,45772,32928
31240,45780,32943
31364,45780,32924
31629,45772,32887
31996,45748,32887
32192,45685,32927
32351,45726,32983
32240,45727,32909
31952,45745,32893
31592,45757,32783
31392,45727,32764
31208,45780,32775
31268,45791,32807
31488,45776,32821
31761,45760,32765
31900,45752,32808
32006,45679,32871
31956,45719,32736
31712,45744,32710
31416,45756,32750
31208,45769,32744
30892,45791,32727
30845,45752,32817
31100,45780,32846
31464,45758,32727
31764,45732,32725
32148,45735,32656
32172,45711,32654
31973,45757,32705
31716,45764,32709
31508,45781,32676
31364,45799,32671
31464,45748,32679
31680,45775,32759
31921,45768,32805
32132,45764,32780
32252,45743,32748
32220,45745,32758
32014,45757,32769
31680,45774,32793
31456,45789,32772
31204,45796,32782
31164,45798,32677
31414,45732,32624
31788,45767,32692
32105,45767,32692
32236,45725,32642
32172,45738,32689
31980,45734,32661
31664,45772,32669
31616,45721,32661
31616,45791,32698
31724,45740,32711
31992,45785,32700
32320,45703,32665
32560,45748,32685
32632,45700,32676
32509,45737,32662
32252,45717,32668
31968,45764,32692
31719,45753,32698
31608,45807,32724
31741,45799,32737
32028,45727,32756
32309,45769,32757
32496,45756,32785
32620,45719,32767
32468,45743,32772
32228,45759,32772
31892,45781,32788
31632,45781,32866
31512,45771,32932
31593,45797,32900
31888,45788,32895
32232,45775,32892
32456,45759,32909
32566,45681,32921
32452,45744,32815
32136,45757,32837
31849,45774,32837
31592,45787,32857
31397,45759,32885
31324,45811,32936
31388,45792,32940
31392,45791,32967
31316,45772,32971
31214,45761,32980
30886,45765,32999
30480,45727,32983
30180,45768,33001
30124,45799,33085
30114,45812,33115
30368,45791,33010
30700,45796,33039
30908,45749,33089
31196,45757,33072
31620,45749,33094
32192,45749,33232
32429,45759,33092
32404,45756,33167
32596,45727,33135
32816,45799,33277
33052,45786,33277
33248,45717,33159
33720,45767,33228
34224,45741,33200
34600,45733,33234
34758,45743,33365
34624,45759,33357
34332,45759,33368
33988,45788,33364
33724,45795,33287
33609,45792,33279
33580,45780,33286
33528,45768,33316
33416,45703,33305
33308,45753,33341
32964,45703,33317
32476,45765,33300
32020,45750,33305
31761,45787,33311
31684,45738,33439
31712,45797,33487
31832,45775,33448
32032,45789,33469
32157,45775,33354
32264,45703,33380
32132,45748,33430
31873,45765,33437
31576,45797,33445
31377,45796,33453
31268,45817,33542
31336,45817,33604
31552,45804,33615
31848,45759,33626
32092,45766,33593
32308,45756,33593
32260,45765,33528
31988,45772,33564
31668,45727,33585
31420,45805,33639
31248,45815,33612
31332,45827,33676
31616,45807,33757
31912,45787,33781
32140,45776,33671
32252,45743,33708
32192,45765,33764
31866,45774,33745
31552,45751,33746
31280,45804,33763
31072,45821,33783
31160,45829,33810
31460,45815,33877
31840,45805,33825
32136,45781,33812
32164,45753,33844
32056,45767,33888
31789,45705,33926
31512,45799,33965
31356,45805,33959
31268,45827,33852
31328,45823,33865
31596,45807,33876
31844,45735,33904
32024,45781,33913
32204,45759,33904
32145,45761,33941
31816,45764,34015
31448,45791,34001
31292,45796,33945
31237,45821,33875
31380,45814,33885
31596,45799,33904
31808,45778,33921
31956,45777,33927
32004,45759,33919
31962,45756,33942
31690,45778,34009
31556,45796,34021
31357,45804,34025
31228,45822,33893
31288,45772,33953
31589,45804,33904
31916,45787,33929
32080,45733,33959
32144,45752,33943
32168,45733,33945
31918,45759,33903
31604,45732,33972
31416,45794,34005
31264,45811,33925
31336,45812,33855
31608,45735,33870
31861,45781,33927
31980,45765,33872
32140,45743,33823
32192,45752,33856
31976,45751,33796
31796,45773,33853
31644,45797,33877
31416,45809,33753
31393,45804,33787
31572,45789,33773
31820,45765,33844
31992,45759,33775
32104,45717,33685
32064,45713,33681
31836,45756,33711
31528,45760,33791
31334,45773,33757
31280,45799,33612
31477,45804,33615
31772,45767,33636
32081,45765,33609
32324,45754,33561
32460,45733,33661
32392,45724,33661
32124,45748,33519
31877,45748,33543
31748,45775,33500
31756,45788,33608
31908,45780,33460
32068,45783,33477
32256,45703,33453
32404,45743,33553
32584,45721,33460
32520,45717,33396
32325,45737,33400
32076,45753,33405
31880,45775,33365
31724,45756,33380
31713,45788,33452
31876,45767,33444
32104,45713,33357
32194,45733,33287
32381,45725,33321
32424,45733,33316
32208,45737,33305
31988,45751,33257
31740,45773,33340
31544,45719,33380
31572,45788,33231
31804,45780,33223
32057,45765,33201
32193,45751,33331
32264,45733,33159
32196,45735,33197
31944,45741,33194
31652,45748,33159
31420,45751,33152
31336,45780,33196
31405,45791,33244
31696,45775,33093
31936,45697,33124
32148,45753,33085
32320,45741,33186
32312,45732,33039
32088,45749,33085
31832,45766,33040
31598,45703,33090
31460,45797,33159
31564,45796,32990
31796,45772,33031
32040,45703,33046
32164,45751,33004
32288,45716,33127
32216,45673,32948
32172,45751,32985
31957,45759,32988
31736,45765,33108
31632,45783,32933
31744,45767,32999
31952,45769,32996
32152,45757,32983
32364,45734,32945
32532,45735,33008
32448,45703,33084
32213,45734,33008
31900,45756,32921
31688,45767,32980
31584,45782,33063
31680,45757,32927
31924,45764,32925
32152,45754,32945
32352,45743,32937
32544,45727,32987
32572,45727,32946
32285,45741,32971
32009,45739,32948
31761,45761,33062
31620,45791,33105
31680,45775,33102
31868,45765,32946
32120,45716,32980
32184,45741,33015
32268,45719,32972
32216,45728,33121
32104,45725,32968
32076,45748,32997
31960,45753,33079
31820,45780,33133
31870,45740,32988
32036,45749,33024
32256,45748,33017
32460,45687,33091
32613,45703,33108
32584,45725,33176
32304,45721,33141
31992,45740,33036
31836,45751,33095
31748,45765,33117
31768,45733,33092
31961,45753,33164
32216,45740,33226
32496,45666,33094
32700,45717,33157
32668,45716,33135
32440,45724,33247
32152,45735,33237
31879,45685,33175
31661,45772,33225
31676,45759,33239
31908,45679,33244
32236,45749,33236
32488,45712,33239
32663,45701,33335
32640,45703,33393
32436,45716,33397
32169,45740,33364
31980,45725,33284
31828,45765,33327
31900,45757,33392
32153,45748,33408
32444,45732,33341
32608,45703,33378
32688,45687,33341
32646,45695,33474
32500,45700,33365
32228,45727,33420
32068,45750,33404
31984,45740,33433
32116,45703,33405
32328,45747,33483
32568,45732,33543
32768,45700,33530
32944,45677,33421
32916,45688,33461
32676,45703,33456
32400,45711,33503
32218,45725,33600
32112,45692,33454
32093,45740,33484
32148,45733,33522
32280,45693,33488
32504,45702,33543
32761,45691,33602
32828,45693,33513
32800,45687,33505
32589,45703,33558
32284,45724,33543
32030,45743,33557
32068,45688,33582
32408,45733,33578
32642,45708,33563
32844,45703,33543
33064,45671,33628
33049,45681,33702
32824,45701,33670
32524,45703,33575
32280,45721,33592
32116,45740,33623
32132,45700,33629
32344,45711,33649
32640,45703,33727
32904,45685,33671
33112,45673,33668
33125,45614,33769
32920,45639,33647
32621,45703,33684
32344,45703,33703
32117,45668,33676
32220,45725,33755
32396,45703,33813
32669,45641,33713
32913,45685,33742
33086,45655,33721
33102,45661,33812
32956,45663,33799
32677,45690,33729
32452,45700,33764
32246,45671,33785
32284,45677,33772
32457,45703,33884
32685,45689,33841
32832,45683,33792
32936,45639,33830
32932,45660,33794
32752,45668,33860
32553,45679,33883
32340,45648,33833
32168,45719,33838
32240,45708,33873
32360,45701,33845
32556,45685,33846
32704,45613,33865
32840,45644,33888
32796,45663,33948
32608,45661,33878
32416,45676,33927
32268,45656,33952
32238,45703,33996
32388,45703,34013
32636,45636,33992
32928,45677,34014
33172,45659,34020
33318,45649,34029
33132,45637,33990
32724,45648,33909
32340,45669,33927
32250,45655,33953
32420,45693,33921
32708,45689,33959
32972,45687,34048
33196,45647,33977
33340,45660,33940
33488,45623,33978
33400,45639,33973
33068,45591,33956
32740,45645,33965
32548,45670,33973
32473,45700,34007
32597,45688,34095
32780,45671,34104
33040,45607,34093
33304,45654,34072
33440,45629,33985
33485,45626,34003
33285,45617,34001
33024,45653,34049
32788,45652,34046
32692,45687,34023
32737,45677,34055
33008,45656,34145
33312,45655,34162
33536,45639,34149
33684,45612,34149
33589,45558,34163
33360,45628,34177
33072,45652,34138
32884,45645,34105
32745,45663,34117
32860,45676,34076
33133,45644,34087
33408,45642,34102
33512,45575,34092
33600,45631,34133
33497,45621,34117
33284,45585,34107
33020,45639,34151
32814,45648,34228
32640,45620,34183
32705,45679,34116
32965,45664,34143
33188,45647,34165
33352,45631,34172
33368,45621,34172
33124,45606,34180
32616,45629,34183
32080,45633,34207
31808,45652,34181
31768,45609,34286
31704,45657,34278
31726,45669,34180
31928,45637,34182
32185,45575,34199
32392,45607,34215
32484,45560,34242
32386,45596,34231
32180,45593,34271
32160,45633,34356
32424,45575,34337
32908,45647,34367
33396,45633,34320
33873,45609,34280
34525,45574,34304
35012,45516,34311
35080,45570,34285
34980,45583,34379
35040,45573,34338
35148,45629,34311
35224,45639,34333
35232,45575,34324
35201,45637,34306
35204,45615,34407
35320,45609,34398
35564,45597,34301
35452,45575,34349
34988,45597,34345
34460,45565,34413
34044,45633,34373
33684,45653,34320
33464,45638,34353
33476,45643,34333
33502,45636,34375
33492,45612,34439
33516,45589,34372
33464,45536,34330
33368,45618,34362
33224,45628,34349
33080,45636,34452
32958,45645,34415
32936,45647,34388
33032,45575,34405
33229,45628,34420
33404,45612,34412
33580,45600,34455
33552,45599,34496
33232,45614,34457
32856,45622,34488
32664,45636,34448
32680,45639,34480
32924,45653,34500
33136,45599,34561
33312,45631,34579
33560,45620,34592
33776,45604,34583
33796,45597,34624
33564,45607,34627
33193,45625,34629
32992,45637,34533
32856,45597,34551
32864,45641,34591
33110,45640,34597
33414,45633,34583
33644,45615,34607
33824,45593,34603
33710,45559,34628
33500,45607,34675
33237,45628,34695
33024,45639,34680
32881,45652,34696
32968,45655,34713
33252,45639,34709
33620,45630,34704
33799,45604,34713
33880,45605,34695
33792,45604,34660
33504,45563,34601
33268,45636,34615
33112,45639,34612
32972,45663,34618
32961,45650,34632
33137,45647,34624
33424,45622,34599
33696,45623,34647
33864,45597,34689
33766,45575,34641
33549,45607,34572
33260,45625,34609
33008,45637,34597
32788,45660,34580
32768,45652,34613
32956,45645,34548
33198,45636,34559
33388,45621,34580
33564,45607,34567
33628,45605,34548
33552,45615,34535
33416,45631,34510
33300,45641,34519
33173,45660,34549
33148,45660,34580
33301,45645,34455
33564,45631,34455
33788,45604,34452
34028,45597,34421
34089,45596,34417
33868,45612,34374
33508,45624,34426
33240,45645,34423
33134,45660,34412
33260,45599,34268
33482,45644,34244
33693,45639,34239
33888,45607,34220
34008,45597,34204
33968,45575,34180
33868,45609,34159
33796,45620,34134
33600,45639,34080
33428,45599,34084
33424,45656,34144
33596,45644,34092
33888,45622,33959
34110,45621,33956
34236,45599,34032
34216,45597,33885
33944,45607,33876
33626,45620,33906
33405,45641,33882
33316,45646,33791
33345,45660,33792
33565,45651,33745
33844,45629,33717
34048,45612,33741
34269,45575,33751
34312,45593,33663
34120,45620,33660
33756,45565,33606
33500,45646,33645
33340,45663,33670
33420,45661,33660
33568,45644,33623
33869,45568,33612
34112,45625,33566
34236,45607,33559
34334,45609,33439
34172,45605,33352
33864,45631,33347
33610,45652,33312
33440,45667,33306
33532,45607,33310
33700,45640,33274
34012,45649,33254
34228,45639,33228
34388,45623,33203
34304,45628,33188
34024,45629,33149
33644,45648,33125
33413,45668,33091
33152,45687,33041
33333,45692,33029
33652,45673,32976
33968,45663,33040
34116,45652,33068
34320,45631,32969
34268,45639,32861
34004,45652,32840
33656,45661,32869
33324,45676,32866
33141,45697,32836
33218,45695,32789
33388,45695,32687
33709,45679,32717
34049,45655,32709
34184,45636,32677
34132,45653,32631
33912,45607,32749
33604,45654,32546
33336,45687,32568
33216,45717,32572
33218,45717,32533
33485,45692,32604
33796,45684,32549
33972,45673,32419
34093,45655,32485
34092,45661,32476
33896,45647,32452
33600,45685,32408
33404,45697,32391
33232,45711,32399
33276,45712,32388
33432,45667,32417
33652,45703,32492
33816,45691,32413
33918,45669,32313
33820,45671,32353
33590,45676,32296
33232,45700,32324
32993,45721,32421
32852,45725,32391
32928,45684,32263
33160,45730,32210
33380,45716,32224
33592,45703,32228
33748,45676,32217
33856,45676,32284
33684,45668,32279
33397,45703,32143
33256,45725,32196
33148,45687,32157
33160,45743,32210
33260,45725,32272
33365,45724,32282
33536,45703,32095
33632,45694,32085
33536,45647,32122
33360,45703,32143
33288,45711,32110
33156,45732,32220
33052,45723,32119
33064,45748,32071
33134,45735,32123
33364,45743,32072
33544,45689,32195
33648,45689,32213
33676,45703,32065
33556,45725,32092
33284,45735,32135
33104,45684,32212
32916,45772,32229
32920,45767,32224
33082,45759,32229
33260,45740,32169
33400,45703,32036
33556,45722,32069
33568,45703,32124
33404,45725,32111
33302,45745,32103
33208,45750,32241
32964,45775,32059
32885,45724,32103
33012,45769,32134
33222,45756,32097
33496,45676,32135
33624,45728,32173
33548,45724,32257
33389,45733,32262
33120,45767,32190
32932,45780,32076
32740,45795,32131
32840,45781,32142
33120,45768,32109
33334,45734,32143
33492,45736,32254
33596,45741,32108
33518,45679,32077
33336,45735,32111
33112,45716,32117
32904,45775,32149
32676,45791,32103
32588,45760,32167
32725,45791,32249
32928,45772,32244
33082,45765,32137
33193,45743,32233
33244,45743,32247
33104,45752,32183
32816,45769,32111
32684,45792,32063
32604,45799,32095
32684,45748,32117
32850,45785,32116
33116,45785,32126
33197,45775,32224
33320,45757,32244
33376,45719,32127
33184,45767,32097
32904,45725,32052
32694,45791,32059
32532,45764,32055
32492,45810,32044
32652,45780,32056
32928,45799,32084
33089,45785,32120
33156,45695,32135
33152,45741,32149
33029,45780,32072
32820,45795,32124
32709,45814,32101
32624,45831,32159
32614,45821,32244
32676,45780,32239
32924,45812,32208
33116,45789,32061
33236,45733,32053
33000,45785,32100
32852,45783,32103
32750,45742,32143
32580,45820,32093
32320,45831,32163
32404,45778,32204
32610,45813,32216
32893,45815,32268
33124,45797,32136
33261,45780,32106
33229,45788,32167
33088,45783,32150
32892,45797,32135
32617,45823,32212
32392,45831,32231
32388,45831,32135
32576,45831,32196
32720,45825,32157
32860,45815,32223
33028,45789,32263
33004,45797,32135
32772,45797,32217
32413,45820,32184
32224,45845,32229
32133,45863,32295
32248,45847,32308
32500,45852,32173
32805,45773,32247
33048,45820,32224
33200,45815,32301
33132,45743,32324
32945,45814,32193
32600,45829,32263
32376,45799,32230
32188,45865,32263
32221,45861,32338
32449,45805,32204
32688,45852,32258
32864,45812,32261
33056,45747,32276
33120,45823,32356
32980,45812,32238
32740,45844,32244
32513,45831,32359
32245,45879,32209
32148,45881,32262
32156,45820,32249
32284,45844,32390
32540,45831,32213
32844,45776,32286
33014,45828,32237
32817,45831,32297
32492,45855,32385
32320,45868,32249
32304,45887,32230
32308,45889,32276
32408,45876,32238
32646,45871,32325
32865,45845,32348
33068,45831,32193
33016,45770,32213
32752,45847,32255
32516,45859,32225
32361,45821,32263
32232,45892,32353
32244,45887,32311
32456,45823,32177
32677,45863,32215
32800,45855,32242
32828,45845,32226
32820,45831,32359
32608,45849,32167
32288,45805,32236
32056,45888,32197
32028,45892,32258
32140,45911,32317
32394,45871,32140
32748,45879,32155
32952,45869,32204
33100,45855,32164
33232,45855,32207
33116,45799,32282
32833,45860,32310
32652,45871,32280
32560,45906,32209
32560,45901,32293
32608,45900,32212
32736,45892,32217
32869,45869,32117
33012,45853,32069
33016,45852,32066
32840,45863,32074
32481,45879,32119
32272,45887,32086
32184,45847,32061
32273,45911,32070
32424,45905,32159
32677,45908,32182
32884,45878,32047
33000,45831,31975
32984,45863,31996
32774,45821,32045
32476,45865,32019
32265,45908,32135
32118,45919,32109
32116,45927,32069
32356,45919,31969
32693,45896,31944
32893,45888,32047
32856,45859,31998
32613,45876,31948
32080,45885,31914
31528,45876,32053
31100,45912,31856
30856,45919,31932
30772,45937,31893
30924,45863,31989
31205,45917,31843
31477,45900,31903
31772,45815,31868
31945,45883,32020
31820,45885,31884
31677,45893,31804
31825,45909,31836
32010,45919,31848
32317,45916,31973
32832,45863,31847
33592,45901,31794
34144,45880,31863
34344,45805,31829
34357,45861,31817
34324,45877,31813
34420,45892,31846
34524,45901,31901
34420,45918,31951
34284,45933,31767
34401,45920,31837
34600,45865,31844
34860,45908,31812
34804,45876,31777
34548,45876,31785
34104,45895,31840
33614,45888,31940
33180,45919,31801
32876,45945,31791
32700,45908,31783
32664,45941,31751
32741,45924,31801
32812,45855,31884
32912,45904,31751
32868,45895,31741
32696,45869,31784
32398,45902,31775
32151,45940,31875
31900,45953,31846
31912,45959,31708
32064,45945,31751
32292,45896,31767
32441,45919,31855
32564,45903,31844
32592,45905,31769
32440,45876,31787
32116,45933,31863
31896,45943,31909
31760,45925,31760
31872,45954,31839
32141,45956,31802
32400,45944,31869
32528,45927,31958
32700,45911,31932
32657,45908,31870
32428,45912,31821
32092,45887,31889
31884,45940,31916
31680,45966,31893
31668,45974,31953
31820,45942,31921
31968,45951,31873
32164,45935,31933
32396,45911,31948
32588,45840,31963
32540,45925,32016
32248,45927,31877
32068,45895,31913
31944,45971,31957
31936,45959,31951
32092,45956,32089
32260,45884,31939
32400,45933,31943
32584,45908,31956
32765,45856,32053
32662,45916,31880
32374,45935,31941
32145,45916,31983
31936,45959,31937
31888,45927,31981
31976,45959,32004
32196,45949,31900
32472,45895,31968
32638,45919,31964
32632,45915,32087
32438,45912,31901
32132,45903,31964
31868,45959,31916
31604,45968,31997
31500,45940,32068
31672,45959,31919
31996,45949,31889
32212,45949,31953
32404,45917,31897
32516,45862,31959
32252,45919,32014
31928,45943,31892
31724,45951,31847
31572,45981,31879
31552,45959,31836
31652,45964,31964
31892,45893,31916
32204,45933,31841
32404,45924,31745
32408,45912,31804
32224,45911,31748
31980,45940,31804
31776,45919,31809
31633,45959,31634
31532,45969,31682
31724,45911,31743
32000,45933,31671
32330,45932,31575
32612,45871,31623
32668,45885,31565
32588,45917,31561
32368,45879,31674
32080,45951,31440
31856,45959,31431
31840,45954,31455
32032,45956,31429
32228,45932,31501
32469,45863,31524
32680,45911,31468
32744,45911,31301
32540,45911,31365
32224,45935,31306
31960,45932,31396
31840,45957,31306
31840,45896,31282
31992,45958,31250
32256,45931,31313
32516,45924,31182
32756,45852,31221
32809,45897,31172
32645,45902,31228
32328,45935,31214
32124,45943,31097
31985,45941,31106
31972,45956,31124
32174,45940,31153
32425,45935,31020
32604,45925,31068
32756,45895,31020
32790,45895,31173
32632,45913,30972
32332,45868,31029
32008,45935,30967
31760,45954,31077
31756,45893,30885
31984,45951,30937
32196,45941,30925
32380,45927,30981
32480,45910,31044
32416,45900,30893
32236,45919,30816
32148,45863,30883
32102,45956,30847
32028,45959,30926
32004,45943,30900
32124,45959,30813
32340,45883,30755
32404,45924,30797
32412,45923,30799
32368,45917,30765
32308,45916,30893
32140,45943,30722
32021,45887,30734
31862,45981,30754
31880,45965,30743
32028,45903,30711
32268,45959,30809
32552,45940,30629
32728,45927,30732
32756,45913,30720
32548,45927,30695
32292,45945,30663
32029,45892,30692
31864,45978,30748
31872,45986,30743
32008,45959,30695
32300,45948,30700
32504,45943,30717
32608,45909,30786
32632,45911,30769
32468,45879,30718
32116,45956,30727
31816,45951,30727
31624,45975,30861
31664,45941,30757
31872,45966,30718
32136,45956,30763
32358,45941,30785
32544,45893,30721
32524,45919,30788
32324,45924,30820
32084,45956,30820
31825,45956,30975
31656,45983,30757
31724,45935,30788
31892,45969,30876
32169,45951,30868
32360,45894,31020
32568,45927,30916
32728,45927,30828
32752,45884,30868
32510,45935,30892
32196,45950,30957
31868,45979,30956
31741,45991,30969
31776,45980,31125
32088,45924,30917
32428,45943,31020
32652,45927,31031
32660,45855,31019
32536,45935,31064
32276,45941,31073
32064,45959,31021
31932,45919,31111
31956,45983,31085
32140,45956,31204
32416,45959,31133
32640,45881,31157
32832,45921,31159
32868,45921,31269
32680,45934,31263
32384,45924,31151
32124,45948,31231
31880,45980,31272
31876,45989,31263
32080,45959,31372
32364,45952,31285
32548,45933,31259
32637,45919,31289
32608,45902,31375
32481,45920,31396
32296,45941,31415
32060,45949,31556
31912,45975,31583
31976,45940,31469
32256,45973,31433
32608,45959,31511
32840,45904,31500
32952,45927,31664
32960,45910,31479
32821,45908,31511
32569,45935,31580
32288,45959,31617
32144,45983,31596
32172,45979,31746
32392,45959,31687
32700,45956,31661
32928,45941,31660
32997,45925,31834
32836,45908,31676
32548,45927,31749
32253,45876,31764
32012,45951,31903
31996,45975,31772
32140,45974,31816
32310,45959,31799
32452,45941,31903
32564,45933,31855
32704,45871,31837
32720,45909,31852
32584,45924,31917
32376,45941,31968
32132,45943,31847
31932,45970,31943
31882,45971,31914
32052,45959,31965
32320,45959,32078
32552,45935,31954
32743,45925,31936
32836,45916,32035
32680,45927,32007
32388,45933,32087
32161,45947,32179
32048,45959,32004
32048,45938,32092
32220,45968,32064
32404,45945,32208
32552,45871,32112
32712,45913,32140
32760,45907,32172
32596,45916,32157
32300,45929,32160
32041,45944,32157
31820,45959,32317
31784,45959,32221
31981,45959,32191
32252,45943,32231
32420,45927,32222
32544,45845,32285
32602,45911,32303
32533,45914,32213
32352,45905,32244
32224,45940,32313
32012,45949,32356
31986,45889,32366
32184,45958,32296
32448,45943,32365
32652,45871,32420
32768,45911,32377
32764,45897,32364
32544,45903,32377
32288,45905,32430
32084,45933,32505
31925,45951,32419
31896,45951,32373
32100,45940,32404
32300,45932,32463
32428,45919,32473
32580,45880,32548
32584,45895,32428
32416,45901,32484
32148,45919,32467
31984,45925,32501
31892,45887,32581
31854,45950,32565
31824,45933,32457
31936,45921,32486
32184,45917,32525
32400,45895,32533
32508,45893,32633
32464,45907,32606
32352,45896,32591
32152,45924,32559
31968,45921,32671
31932,45949,32539
32084,45927,32614
32381,45916,32608
32548,45906,32716
32680,45879,32599
32716,45892,32613
32584,45887,32720
32352,45909,32599
32156,45919,32652
31916,45927,32652
31872,45916,32785
31996,45934,32676
32172,45911,32703
32304,45831,32707
32420,45879,32819
32385,45883,32676
32240,45885,32703
31984,45847,32813
31832,45917,32685
31684,45927,32744
31668,45935,32869
31872,45901,32780
32137,45897,32848
32300,45900,32743
32460,45872,32793
32480,45885,32852
32308,45893,32821
32032,45889,32829
31940,45911,32857
31901,45878,32945
31916,45925,32804
32113,45913,32826
32364,45861,32952
32496,45898,32966
32632,45867,32888
32636,45868,32851
32528,45831,32898
32444,45892,32932
32213,45902,33031
31984,45924,32887
31897,45927,32936
32056,45919,32940
32276,45887,32900
32484,45817,32951
32740,45863,32935
32896,45848,33063
32788,45869,32912
32528,45871,32949
32249,45903,32952
31964,45900,33031
31756,45911,32935
31792,45845,33012
32085,45885,33083
32416,45867,32989
32685,45845,32986
32798,45852,33133
32696,45852,33031
32348,45868,33116
32160,45831,32985
32101,45899,33029
32143,45892,33144
32316,45887,33007
32485,45876,33031
32690,45873,33093
32842,45831,33073
32916,45849,33140
32808,45845,33017
32581,45857,33043
32356,45871,33175
32140,45900,33028
32124,45826,33085
32316,45879,33189
32578,45885,33062
32768,45863,33140
32912,45831,33070
32840,45828,33065
32590,45831,33197
32332,45855,33071
32092,45807,33095
31896,45880,33231
31840,45895,33095
31864,45875,33105
31984,45857,33245
31968,45852,33127
31792,45799,33125
31556,45831,33257
31226,45831,33113
30948,45863,33172
30830,45823,33145
30672,45883,33218
30692,45870,33147
30944,45852,33205
31276,45860,33184
31580,45831,33247
31752,45826,33327
31880,45806,33316
31968,45790,33198
32124,45821,33247
32221,45826,33273
32264,45804,33267
32756,45852,33304
33437,45831,33397
33806,45820,33285
34077,45789,33364
34476,45783,33316
34760,45789,33341
34744,45796,33263
34577,45789,33341
34269,45782,33361
34016,45842,33247
33921,45845,33341
34009,45831,33316
34150,45831,33433
34104,45815,33362
34004,45799,33337
33760,45769,33433
33412,45797,33372
32996,45807,33471
32632,45821,33349
32416,45841,33332
32216,45831,33419
32304,45853,33328
32523,45820,33373
32726,45815,33420
32804,45797,33457
32743,45782,33383
32504,45788,33452
32316,45815,33360
32212,45823,33381
32000,45800,33529
31992,45848,33380
32200,45826,33437
32448,45823,33424
32640,45799,33561
32724,45791,33439
32688,45788,33463
32560,45775,33449
32296,45807,33518
32014,45823,33487
31753,45820,33461
31736,45831,33597
31917,45826,33465
32176,45810,33476
32421,45788,33532
32644,45773,33532
32672,45743,33596
32580,45788,33628
32404,45789,33519
32208,45812,33584
31992,45779,33553
31934,45822,33660
32089,45813,33556
32480,45798,33571
32848,45751,33660
32968,45764,33556
32784,45765,33616
32460,45775,33629
32232,45789,33629
32130,45732,33606
32068,45823,33656
32100,45796,33568
32248,45797,33617
32420,45789,33573
32576,45721,33705
32724,45741,33573
32708,45752,33583
32489,45751,33654
32236,45765,33532
32029,45777,33533
31980,45807,33596
32064,45759,33559
32253,45792,33586
32420,45774,33543
32668,45751,33526
32869,45734,33572
32853,45724,33455
32642,45685,33482
32420,45759,33501
32148,45761,33415
31968,45781,33465
32012,45793,33479
32194,45781,33535
32392,45757,33412
32537,45742,33373
32661,45735,33389
32630,45732,33433
32392,45735,33296
32044,45735,33342
31848,45753,33341
31800,45773,33340
31928,45772,33257
32132,45767,33208
32408,45740,33299
32604,45727,33183
32749,45711,33183
32720,45703,33088
32524,45654,33084
32212,45727,33183
31936,45741,32999
31744,45750,32991
31720,45765,32980
31956,45759,33028
32388,45732,33031
32580,45679,32965
32716,45685,32785
32720,45692,32817
32581,45692,32797
32300,45716,32676
31994,45716,32676
31828,45677,32766
31976,45736,32564
32293,45719,32588
32596,45703,32615
32806,45695,32432
32869,45616,32475
32828,45662,32445
32596,45687,32321
32392,45691,32360
32216,45703,32333
32016,45716,32215
32008,45727,32204
32152,45703,32333
32436,45633,32141
32660,45671,32105
32804,45663,32165
32800,45652,32182
32648,45605,31969
32336,45685,31985
32014,45679,32031
31836,45703,31916
31872,45703,31911
32096,45633,31860
32352,45676,31971
32528,45657,31817
32627,45638,31804
32568,45637,31727
32365,45653,31687
32056,45609,31790
31908,45684,31591
31726,45703,31612
31653,45703,31649
31756,45687,31614
31900,45679,31513
32041,45599,31548
32244,45636,31494
32356,45636,31560
32324,45639,31409
32048,45660,31463
31810,45620,31416
31684,45691,31465
31691,45687,31495
31856,45685,31308
32060,45669,31314
32214,45661,31356
32364,45631,31367
32428,45626,31316
32340,45606,31284
31940,45653,31265
31590,45664,31410
31424,45679,31197
31592,45692,31239
31924,45629,31285
32220,45652,31148
32424,45651,31236
32582,45629,31244
32654,45617,31130
32528,45596,31175
32236,45647,31300
31984,45655,31125
31792,45676,31204
31709,45661,31169
31840,45668,31309
31952,45661,31156
32064,45639,31143
32276,45613,31163
32376,45614,31156
32296,45630,31213
32168,45631,31071
32024,45661,31156
31813,45676,31117
31776,45670,31220
31924,45603,31144
32152,45648,31118
32440,45620,31116
32612,45614,31219
32612,45571,31096
32548,45613,31105
32244,45623,31135
32100,45637,31110
31900,45652,31126
31936,45612,31229
32064,45647,31034
32212,45636,31132
32392,45569,31092
32521,45605,31250
32624,45596,31044
32620,45568,31122
32452,45613,31111
32204,45622,31165
31996,45639,31072
32004,45637,31124
32206,45631,31091
32572,45615,31236
32796,45596,31101
32897,45575,31084
32864,45572,31093
32744,45563,31204
32488,45607,31005
32261,45615,31105
32100,45562,31061
32087,45639,31211
32173,45617,31004
32316,45608,31087
32404,45602,31085
32608,45573,31061
32804,45568,31141
32684,45572,31140
32448,45591,31049
32212,45605,31085
32044,45608,31071
31972,45557,31193
32124,45546,31049
32348,45597,31076
32568,45574,31143
32716,45564,31086
32728,45559,31064
32620,45563,31224
32436,45572,31052
32290,45525,31076
32096,45607,31229
31960,45601,31029
32052,45596,31100
32288,45575,31119
32552,45556,31122
32772,45552,31184
32844,45547,31049
32736,45564,31099
32504,45538,31043
32256,45533,31092
32022,45591,31157
31940,45588,31069
32089,45522,31076
32337,45572,31236
32517,45548,31036
32640,45533,31068
32584,45525,31073
32344,45498,31084
32082,45532,31151
31808,45575,31093
31552,45575,31140
31568,45575,31010
31860,45570,31078
32312,45511,30976
32668,45553,31079
32868,45516,31117
32832,45512,30964
32621,45466,31059
32360,45541,31064
32088,45552,31077
31808,45574,30972
31708,45545,30975
31904,45565,31108
32240,45545,30965
32468,45511,30967
32632,45509,30943
32634,45501,31022
32374,45527,30903
32016,45527,30920
31824,45540,30876
31786,45501,31041
31876,45557,30838
32122,45539,30860
32437,45536,30776
32568,45468,30858
32692,45507,30895
32652,45495,30745
32461,45497,30793
32144,45460,30855
31836,45537,30688
31620,45528,30783
31664,45548,30884
31932,45531,30702
32196,45516,30691
32444,45447,30676
32592,45494,30685
32538,45479,30716
32258,45492,30636
31916,45445,30599
31628,45520,30639
31428,45524,30499
31400,45532,30583
31600,45524,30547
31972,45508,30665
32380,45431,30444
32744,45472,30510
32764,45463,30572
32512,45476,30367
32204,45494,30446
31888,45503,30412
31604,45453,30442
31525,45533,30337
31740,45509,30332
32120,45492,30404
32348,45481,30240
32528,45463,30284
32540,45460,30373
32432,45409,30188
32324,45470,30204
32140,45479,30340
31944,45500,30127
31872,45441,30124
32032,45503,30280
32276,45484,30087
32577,45455,30101
32876,45447,30188
32876,45401,30001
32668,45447,30020
32380,45444,30118
32148,45468,29918
31957,45446,29984
31929,45497,30045
32072,45487,29920
32264,45469,29927
32440,45389,29999
32576,45436,29884
32532,45425,29897
32324,45437,29855
32144,45447,29856
32073,45461,29724
31920,45476,29760
31780,45420,29668
31940,45415,29762
32257,45460,29637
32576,45429,29724
32774,45431,29839
32824,45413,29626
32593,45353,29684
32229,45428,29588
31949,45447,29652
31814,45461,29636
31972,45468,29647
32221,45404,29627
32440,45447,29630
32572,45421,29568
32694,45409,29564
32641,45415,29540
32404,45408,29703
32108,45429,29511
31880,45393,29508
31708,45463,29605
31648,45447,29463
31844,45407,29520
32144,45431,29536
32396,45417,29376
32636,45381,29457
32760,45383,29597
32632,45392,29365
32394,45413,29453
32164,45423,29485
31980,45431,29329
31946,45437,29380
32108,45367,29540
32432,45404,29369
32769,45393,29381
32916,45381,29381
32900,45377,29372
32684,45349,29362
32400,45399,29314
32116,45405,29345
31841,45431,29326
31774,45423,29380
31972,45405,29265
32256,45391,29295
32489,45335,29446
32644,45364,29197
32740,45357,29281
32840,45357,29329
32732,45340,29209
32538,45388,29246
32284,45399,29414
32224,45397,29156
32412,45397,29260
32628,45383,29245
32808,45372,29356
32960,45346,29244
33048,45319,29256
32872,45348,29124
32576,45367,29229
32380,45373,29220
32204,45399,29378
32177,45392,29127
32320,45319,29246
32548,45373,29228
32730,45356,29117
32901,45332,29252
32886,45343,29258
32692,45327,29319
32468,45364,29165
32244,45348,29245
32080,45381,29230
32132,45382,29382
32320,45391,29377
32672,45360,29399
32880,45347,29224
32940,45319,29149
32864,45277,29137
32600,45327,29162
32277,45333,29252
31896,45295,29248
31585,45372,29285
31412,45364,29363
31352,45364,29173
31400,45364,29248
31457,45341,29272
31488,45319,29384
31470,45311,29258
31346,45307,29233
31132,45313,29319
30947,45324,29311
30760,45308,29380
30874,45341,29473
31244,45328,29308
31844,45319,29230
32440,45281,29349
32984,45271,29332
33360,45198,29445
33540,45271,29290
33420,45277,29376
33276,45292,29413
33272,45319,29252
33496,45271,29377
33893,45301,29361
34180,45294,29404
34344,45287,29519
34380,45239,29292
34348,45274,29394
34360,45263,29360
34320,45249,29400
34024,45295,29467
33702,45311,29536
33502,45307,29284
33412,45303,29359
33440,45295,29409
33500,45228,29406
33540,45258,29477
33344,45257,29484
33040,45256,29548
32656,45271,29372
32277,45295,29324
31925,45309,29396
31885,45306,29446
32112,45305,29463
32373,45289,29456
32632,45221,29577
32852,45252,29403
32916,45251,29454
32737,45257,29644
32536,45276,29447
32296,45287,29487
32092,45300,29505
32092,45303,29684
32292,45256,29481
32548,45279,29544
32772,45261,29668
32928,45189,29709
32932,45253,29588
32735,45247,29633
32452,45270,29625
32173,45279,29627
31996,45229,29719
31980,45284,29745
32172,45284,29783
32404,45247,29821
32612,45253,29714
32792,45241,29836
32812,45164,29865
32600,45249,30023
32336,45251,29800
32106,45262,29940
31925,45287,29921
31948,45276,29972
32112,45275,29983
32366,45248,30020
32572,45244,30191
32712,45204,29981
32737,45205,30112
32616,45221,30117
32412,45239,30258
32272,45237,30143
32120,45205,30119
32152,45255,30158
32372,45199,30196
32636,45231,30263
32820,45229,30246
32964,45157,30409
32996,45199,30319
32836,45204,30237
32612,45223,30351
32413,45231,30376
32232,45255,30379
32210,45231,30336
32344,45236,30428
32584,45191,30417
32780,45221,30537
32949,45199,30609
33056,45191,30410
32948,45184,30529
32760,45221,30620
32588,45221,30467
32433,45190,30578
32392,45247,30628
32572,45220,30597
32812,45207,30564
32992,45189,30649
33168,45113,30727
33156,45167,30589
32976,45173,30677
32724,45132,30692
32500,45191,30669
32381,45225,30725
32404,45185,30856
32598,45204,30718
32828,45141,30653
33060,45183,30719
33232,45161,30782
33269,45121,30761
33084,45152,30900
32744,45127,30927
32516,45185,30740
32396,45199,30819
32397,45141,30837
32584,45199,30876
32824,45183,31011
33084,45159,30818
33240,45149,30929
33232,45141,30918
33157,45108,30936
33072,45157,31057
32920,45165,31111
32894,45191,30925
32942,45187,30982
33132,45180,31069
33428,45103,31063
33636,45151,31206
33800,45126,31096
33836,45103,31116
33697,45125,31184
33432,45087,31165
33180,45148,31239
32972,45167,31376
32884,45172,31190
33084,45159,31300
33344,45156,31391
33508,45124,31305
33644,45111,31385
33722,45111,31401
33537,45103,31543
33144,45077,31576
32860,45147,31428
32620,45159,31500
32525,45164,31541
32708,45154,31597
33132,45106,31737
33456,45119,31780
33585,45109,31679
33596,45111,31685
33381,45112,31781
33108,45111,31781
32916,45132,31816
32761,45114,31899
32732,45151,31962
32864,45155,31933
33076,45139,32004
33260,45116,31996
33344,45102,32135
33369,45103,32100
33216,45098,32150
32972,45131,32159
32748,45140,32304
32644,45141,32243
32700,45156,32305
32909,45152,32327
33216,45135,32479
33472,45063,32489
33676,45094,32435
33752,45111,32536
33580,45063,32629
33308,45106,32653
33096,45135,32628
32904,45145,32684
32752,45148,32862
32834,45146,32815
33060,45063,32839
33352,45118,33028
33628,45100,32929
33676,45033,33017
33500,45103,33052
33224,45115,33212
32968,45103,33153
32812,45147,33221
32800,45144,33287
32992,45107,33293
33276,45108,33391
33504,45109,33428
33684,45103,33535
33784,45095,33676
33714,45086,33588
33488,45117,33689
33284,45115,33743
33124,45141,33880
33088,45146,33863
33340,45139,33953
33687,45063,34012
33972,45111,34148
34204,45079,34108
34204,45085,34199
34016,45063,34277
33832,45100,34404
33624,45121,34384
33480,45147,34468
33420,45149,34534
33557,45104,34682
33812,45117,34655
34032,45109,34744
34132,45087,34801
34224,45079,34841
34036,45085,34940
33716,45103,35037
33452,45111,35068
33212,45095,35193
33097,45135,35180
33289,45127,35260
33677,45109,35385
34028,45102,35431
34216,45076,35479
34268,45073,35540
34032,45085,35652
33740,45108,35688
33484,45111,35742
33280,45115,35812
33260,45142,35880
33508,45117,35985
33852,45058,36032
34120,45100,36070
34352,45079,36143
34420,45076,36251
34269,45060,36247
33994,45096,36355
33744,45116,36432
33605,45126,36516
33656,45134,36535
33848,45125,36612
34148,45114,36703
34326,45063,36742
34460,45063,36817
34512,45063,36886
34368,45018,36932
34088,45097,37021
33864,45101,37079
33669,45129,37161
33568,45134,37209
33700,45127,37264
33952,45063,37328
34192,45103,37401
34432,45076,37476
34510,45063,37495
34353,45079,37585
34128,45080,37655
33964,45044,37724
33788,45139,37767
33732,45131,37845
33829,45116,37901
34016,45056,37965
34272,45088,38013
34501,45087,38089
34596,45063,38119
34420,45072,38212
34172,45087,38279
33998,45073,38308
33840,45135,38396
33708,45120,38472
33800,45135,38492
34036,45117,38551
34260,45100,38633
34472,45061,38693
34572,45089,38759
34436,45076,38789
34149,45047,38873
33908,45108,38940
33748,45132,38975
33780,45134,39063
34013,45111,39124
34328,45120,39167
34588,45094,39247
34776,45087,39313
34796,45024,39303
34544,45084,39431
34156,45111,39469
33849,45063,39548
33654,45132,39559
33644,45143,39627
33820,45136,39718
34076,45114,39806
34277,45101,39776
34500,45063,39887
34580,45087,39953
34408,45101,39943
34121,45104,40036
33853,45123,40134
33724,45102,40189
33768,45145,40199
34008,45128,40310
34260,45127,40372
34492,45117,40342
34688,45093,40471
34710,45087,40513
34484,45045,40599
34172,45127,40589
33901,45127,40600
33754,45150,40756
33752,45137,40812
33900,45140,40806
34176,45132,40908
34516,45063,40967
34728,45093,40922
34846,45102,41076
34673,45095,41136
34404,45119,41101
34100,45136,41223
33896,45111,41303
33860,45175,41234
34016,45156,41412
34308,45144,41437
34560,45131,41508
34720,45111,41479
34852,45104,41599
34641,45111,41663
34324,45130,41726
34060,45141,41677
33877,45173,41841
33852,45169,41862
34020,45173,41927
34272,45154,41991
34596,45144,41940
34812,45114,42084
34908,45119,42153
34829,45116,42092
34621,45140,42241
34404,45159,42312
34220,45175,42265
34104,45175,42279
34136,45177,42420
34292,45175,42492
34456,45156,42540
34656,45139,42532
34824,45124,42556
34650,45130,42532
34290,45161,42616
33933,45125,42738
33652,45191,42818
33588,45204,42740
33788,45136,42768
34064,45180,42951
34256,45183,42965
34412,45155,43031
34522,45117,42942
34420,45159,43124
34204,45164,43140
33980,45188,43233
33809,45187,43200
33784,45221,43180
33952,45212,43334
34220,45191,43391
34528,45180,43311
34789,45108,43465
35004,45164,43494
34900,45172,43572
34672,45189,43621
34424,45199,43550
34188,45215,43676
34066,45220,43732
34176,45227,43796
34417,45205,43757
34688,45191,43732
34862,45183,43911
34948,45183,43942
34752,45177,43927
34428,45197,43925
34105,45212,44061
33916,45228,44119
33856,45244,44021
33935,45247,44188
34152,45229,44256
34388,45217,44197
34680,45191,44335
34853,45199,44359
34712,45205,44421
34436,45220,44384
34144,45242,44381
33988,45267,44528
33932,45275,44538
34080,45253,44580
34332,45253,44516
34574,45191,44679
34762,45220,44709
34788,45215,44660
34582,45233,44679
34336,45191,44833
34177,45260,44837
34012,45279,44879
33972,45287,44813
34020,45283,44961
34232,45279,45020
34464,45257,44959
34616,45252,44956
34664,45240,44997
34512,45261,45141
34264,45262,45159
34008,45287,45126
33724,45311,45135
33576,45276,45237
33780,45311,45316
33941,45296,45301
33952,45287,45239
33920,45285,45396
33704,45276,45407
33292,45293,45471
32844,45293,45448
32492,45319,45408
32324,45343,45554
32408,45342,45568
32662,45332,45581
32968,45300,45621
33224,45305,45535
33424,45285,45678
33525,45287,45717
33488,45284,45597
33596,45255,45756
33700,45316,45748
33900,45334,45807
34093,45328,45813
34568,45329,45711
34928,45319,45863
35244,45304,45844
35444,45310,45868
35560,45292,45780
35420,45319,45927
35148,45313,45909
34960,45300,45896
34772,45376,45840
34728,45383,45976
34908,45372,46023
35256,45364,45914
35428,45361,46033
35416,45335,46004
35294,45347,46026
34980,45353,45929
34677,45373,46073
34412,45319,46110
34228,45423,45972
34173,45412,46106
34056,45379,46086
34112,45404,46064
34204,45389,45981
34260,45377,46100
34277,45377,46135
34052,45329,46004
33788,45415,46133
33540,45421,46164
33316,45446,46054
33068,45429,46164
33132,45445,46143
33440,45437,46180
33800,45369,46129
34040,45405,46181
34092,45401,46133
33920,45410,46181
33576,45438,46023
33306,45447,46125
33160,45485,46148
33169,45420,46000
33372,45471,46142
33668,45479,46117
33928,45447,46023
34148,45443,46100
34192,45439,46064
34064,45391,46087
33812,45468,45976
33592,45479,45927
33376,45456,46020
33293,45508,46061
33440,45507,45943
33664,45433,46012
33856,45494,45959
33984,45460,45966
33956,45479,45809
33756,45446,45925
33492,45492,45861
33252,45508,45868
33101,45476,45716
33060,45537,45687
33181,45529,45781
33388,45471,45724
33560,45516,45735
33604,45505,45628
33632,45493,45644
33546,45507,45575
33408,45528,45564
33180,45551,45492
33040,45560,45373
33021,45511,45303
33224,45575,45396
33476,45552,45329
33689,45545,45288
33804,45527,45245
33828,45528,45085
33692,45543,45144
33456,45550,45124
33188,45566,44999
32978,45549,44876
32936,45596,44973
33109,45592,44887
33304,45535,44853
33452,45564,44687
33534,45558,44736
33553,45553,44721
33345,45509,44573
33049,45575,44492
32766,45599,44516
32592,45613,44445
32692,45631,44445
32929,45630,44345
33236,45617,44231
33460,45607,44261
33604,45591,44167
33693,45599,44112
33572,45597,44033
33313,45556,43911
33072,45620,43937
32932,45647,43874
32904,45609,43703
33072,45663,43765
33366,45639,43684
33560,45604,43655
33704,45612,43585
33672,45615,43413
33545,45626,43353
33280,45641,43391
33065,45635,43357
32936,45671,43196
32848,45622,43124
33004,45677,43148
33310,45664,43086
33540,45657,43008
33653,45647,42826
33625,45648,42912
33497,45646,42825
33272,45679,42645
33048,45687,42681
32857,45703,42612
32848,45703,42476
33044,45716,42519
33304,45698,42473
33521,45644,42265
33640,45679,42310
33736,45669,42279
33652,45636,42070
33372,45703,42132
33112,45724,42039
32944,45684,41983
32842,45735,41833
32900,45748,41858
33092,45711,41799
33268,45733,41648
33372,45703,41663
33364,45684,41604
33192,45711,41585
32965,45677,41429
32744,45764,41351
32589,45785,41380
32568,45789,41317
32680,45780,41287
32856,45778,41207
33004,45759,41061
33112,45703,41008
33158,45756,41023
32892,45757,40956
32516,45785,40932
32244,45732,40850
32088,45823,40820
32184,45764,40711
32356,45825,40612
32556,45748,40576
32776,45804,40582
32952,45789,40551
32980,45765,40423
32676,45809,40423
32316,45823,40364
32118,45844,40319
32068,45852,40265
32009,45885,40237
32104,45855,40092
32268,45869,40070
32493,45845,40084
32692,45831,40025
32876,45831,40000
32884,45847,39940
32634,45858,39855
32384,45869,39855
32144,45831,39814
32100,45893,39783
32328,45877,39736
32600,45894,39671
32784,45890,39612
32905,45871,39567
32964,45872,39569
32784,45885,39529
32462,45831,39476
32198,45900,39445
32044,45877,39392
31988,45937,39373
32150,45935,39302
32421,45913,39239
32672,45926,39204
32852,45895,39161
32960,45852,39164
32908,45900,39129
32764,45927,39081
32560,45959,39036
32344,45958,38974
32276,45980,38964
32376,45972,38940
32648,45959,38865
32868,45956,38827
33024,45942,38796
33100,45935,38780
32972,45927,38751
32677,45959,38730
32424,45982,38694
32213,46007,38663
32109,46012,38636
32249,45949,38567
32460,45989,38564
32700,45986,38527
32852,45975,38509
32876,45974,38481
32704,45983,38436
32609,45943,38388
32532,46020,38389
32356,46028,38356
32302,46040,38354
32380,46029,38317
32596,45973,38277
32832,46017,38247
33032,45940,38248
33054,46005,38225
32881,46015,38208
32653,45965,38185
32501,46046,38151
32356,46064,38151
32226,46087,38134
32400,46073,38124
32630,45999,38108
32820,46055,38082
32984,46036,38080
33012,46039,38060
32776,46047,38060
32516,46056,38033
32340,46086,38006
32236,46087,38012
32320,46044,37998
32520,46100,37989
32724,46087,37968
32932,46022,37957
33094,46065,37941
33176,46063,37940
33096,46068,37910
32820,46087,37895
32524,46101,37895
32288,46076,37872
32216,46141,37889
32408,46140,37846
32648,46079,37825
32832,46087,37826
32972,46087,37808
33048,46079,37791
32905,46099,37783
32652,46119,37766
32416,46079,37762
32220,46161,37744
32224,46175,37716
32388,46122,37698
32612,46156,37689
32788,46149,37676
32908,46087,37661
32928,46125,37671
32772,46124,37631
32504,46151,37612
32308,46087,37600
32164,46189,37582
32096,46196,37583
32234,46168,37560
32456,46174,37527
32736,46166,37516
32884,46152,37507
32924,46151,37477
32760,46133,37469
32488,46179,37469
32272,46132,37458
32120,46205,37444
32046,46178,37417
32204,46215,37383
32432,46136,37352
32648,46199,37339
32772,46180,37336
32812,46189,37316
32672,46188,37305
32436,46207,37300
32224,46212,37297
32008,46183,37241
31940,46260,37247
32108,46253,37236
32384,46174,37223
32636,46215,37189
32804,46215,37174
32892,46204,37165
32728,46225,37151
32502,46231,37137
32332,46236,37127
32132,46268,37108
32052,46215,37100
32184,46271,37108
32404,46247,37095
32624,46246,37093
32793,46247,37054
32900,46241,37054
32864,46247,36990
32616,46263,36998
32344,46276,36983
32108,46287,36975
32000,46303,36953
32140,46305,36961
32380,46289,36964
32612,46268,36935
32808,46255,36936
32854,46245,36903
32700,46231,36860
32476,46285,36871
32268,46305,36860
32140,46329,36838
32032,46329,36844
32208,46302,36856
32484,46313,36805
32780,46313,36792
32920,46257,36789
32912,46287,36765
32624,46247,36767
32296,46319,36783
32008,46328,36772
31860,46295,36720
31844,46367,36725
32048,46356,36717
32324,46299,36709
32558,46333,36752
32704,46327,36727
32824,46327,36725
32772,46327,36700
32644,46343,36685
32464,46357,36663
32276,46339,36637
32164,46375,36633
32304,46385,36645
32520,46373,36631
32744,46353,36615
32928,46317,36599
32993,46319,36628
32857,46333,36593
32576,46321,36572
32301,46372,36565
32068,46396,36580
31992,46406,36548
32140,46405,36551
32396,46321,36596
32645,46372,36517
32814,46356,36527
32840,46361,36517
32720,46364,36516
32540,46380,36508
32380,46383,36503
32332,46374,36495
32328,46405,36484
32428,46420,36533
32660,46415,36508
32896,46399,36458
33092,46389,36452
33084,46342,36484
32908,46381,36460
32636,46397,36439
32382,46420,36447
32224,46441,36476
32156,46380,36399
32288,46445,36413
32556,46431,36401
32796,46357,36432
32912,46409,36396
32980,46392,36369
32808,46404,36359
32536,46423,36401
32300,46434,36366
32096,46468,36336
32000,46431,36340
32117,46458,36397
32352,46455,36308
32616,46373,36321
32799,46424,36310
32869,46413,36357
32736,46424,36297
32472,46389,36306
32196,46471,36295
31916,46471,36333
31705,46495,36295
31556,46431,36285
31496,46481,36339
31440,46470,36228
31404,46463,36260
31318,46441,36287
31100,46395,36255
30908,46476,36311
30717,46487,36245
30544,46439,36269
30569,46519,36327
30822,46501,36277
31156,46417,36237
31518,46471,36268
31992,46455,36276
32436,46447,36232
32632,46453,36237
32728,46407,36303
32893,46486,36252
32966,46495,36231
32928,46501,36220
33220,46444,36269
33780,46489,36198
34293,46471,36209
34680,46436,36215
34776,46469,36192
34520,46471,36238
34168,46471,36177
33824,46508,36189
33678,46529,36192
33500,46551,36221
33376,46537,36220
33277,46461,36143
33266,46525,36140
33305,46495,36140
33248,46441,36141
32894,46503,36176
32348,46529,36132
31872,46536,36087
31540,46554,36086
31532,46569,36135
31732,46527,36140
32053,46564,36055
32312,46544,36058
32428,46516,36042
32416,46524,36052
32176,46529,36072
31853,46540,36071
31585,46561,36059
31456,46571,36103
31432,46591,36121
31660,46572,36048
31893,46567,36069
32088,46559,36058
32252,46517,36111
32296,46525,36084
32084,46549,36056
31820,46532,36076
31556,46589,36108
31358,46588,36050
31325,46599,36089
31516,46599,36068
31820,46596,36087
32048,46589,36129
32216,46568,36151
32260,46544,36063
32052,46571,36080
31748,46524,36089
31504,46599,36063
31317,46628,36125
31240,46558,36072
31409,46624,36066
31668,46599,36068
31948,46599,36062
32156,46591,36045
32196,46589,36071
32028,46597,36024
31788,46596,36004
31488,46573,36034
31282,46640,36070
31236,46636,35963
31352,46568,35965
31584,46639,36022
31872,46599,35901
32096,46599,35920
32180,46599,35884
32060,46599,35937
31784,46599,35837
31548,46631,35847
31400,46639,35813
31340,46653,35869
31452,46581,35871
31720,46647,35756
31949,46628,35781
32100,46619,35769
32088,46599,35668
31908,46613,35743
31733,46640,35701
31544,46655,35746
31416,46652,35679
31392,46669,35668
31516,46677,35641
31720,46669,35693
31956,46640,35692
32088,46580,35565
32108,46631,35584
31968,46636,35559
31708,46615,35513
31472,46663,35500
31372,46685,35559
31413,46694,35549
31606,46684,35482
31876,46684,35428
32092,46662,35458
32280,46639,35439
32400,46637,35353
32240,46645,35261
31984,46652,35265
31732,46665,35256
31553,46628,35221
31509,46708,35181
31724,46695,35156
32020,46672,35129
32276,46655,35093
32416,46649,35132
32448,46582,35143
32360,46647,35130
32104,46639,35079
31892,46676,34948
31724,46695,34954
31656,46716,34948
31872,46652,34999
32158,46692,34842
32360,46681,34853
32420,46599,34805
32421,46662,34874
32292,46663,34730
31992,46676,34747
31828,46688,34719
31780,46708,34781
31744,46653,34753
31844,46703,34695
32084,46637,34589
32284,46687,34596
32472,46677,34567
32496,46627,34584
32375,46677,34603
32112,46690,34468
31744,46676,34495
31496,46719,34436
31424,46727,34545
31553,46662,34397
31821,46727,34371
32084,46703,34468
32316,46637,34306
32380,46694,34329
32228,46692,34303
31982,46641,34351
31752,46727,34237
31565,46732,34279
31496,46695,34229
31612,46756,34245
31828,46735,34279
32049,46652,34164
32204,46724,34151
32308,46700,34279
32185,46701,34142
31964,46689,34118
31829,46716,34220
31653,46761,34169
31609,46773,34070
31664,46741,34097
31872,46751,34110
32096,46743,34116
32316,46727,34005
32281,46711,34032
32093,46665,33981
31828,46745,34115
31652,46756,33927
31488,46781,33909
31388,46788,33961
31561,46780,33929
31856,46773,34023
32088,46759,33941
32156,46748,33868
32144,46727,33828
32056,46711,33769
31924,46751,33831
31748,46707,33829
31552,46796,33854
31508,46793,33797
31716,46749,33820
32049,46773,33903
32288,46717,33824
32448,46751,33732
32436,46743,33775
32192,46743,33767
31852,46759,33870
31584,46791,33722
31472,46805,33743
31436,46819,33700
31720,46805,33844
31990,46785,33708
32200,46773,33692
32405,46771,33778
32500,46713,33653
32366,46773,33668
32138,46776,33812
31881,46789,33654
31701,46821,33680
31588,46828,33655
31729,46828,33767
32004,46803,33615
32272,46727,33671
32402,46789,33634
32468,46765,33781
32400,46783,33624
32113,46789,33671
31824,46815,33719
31644,46821,33611
31620,46840,33649
31860,46831,33757
32128,46799,33593
32406,46803,33653
32644,46791,33644
32704,46781,33604
32560,46783,33689
32304,46751,33721
32104,46815,33562
31940,46833,33600
31864,46855,33639
32058,46836,33655
32253,46788,33620
32408,46804,33641
32544,46727,33757
32696,46805,33649
32577,46799,33657
32310,46749,33643
32088,46831,33773
32012,46837,33702
31964,46855,33628
32134,46841,33695
32404,46831,33709
32528,46818,33671
32556,46815,33799
32536,46804,33688
32404,46807,33714
32202,46813,33709
31984,46783,33861
31792,46855,33719
31708,46869,33739
31862,46813,33879
32145,46839,33791
32388,46823,33789
32594,46820,33790
32704,46805,33866
32605,46807,33755
32356,46767,33774
32176,46846,33788
32045,46855,33895
31968,46877,33774
32092,46855,33823
32352,46851,33827
32536,46839,33924
32645,46823,33846
32644,46813,33874
32492,46815,33823
32340,46765,33831
32208,46855,33854
32040,46855,33924
31952,46877,33820
32021,46873,33887
32222,46829,33925
32394,46807,33860
32592,46833,33892
32692,46821,33852
32628,46758,34007
32512,46850,33849
32240,46848,33868
31946,46873,34013
31836,46885,33873
31960,46884,33911
32164,46873,33892
32424,46853,33937
32672,46837,33887
32781,46831,33916
32716,46836,33946
32448,46849,33988
32208,46868,33852
32029,46876,33892
32008,46900,33957
32120,46855,33985
32380,46864,33840
32584,46855,33889
32713,46844,33852
32772,46848,33993
32644,46841,33858
32352,46855,33848
32060,46828,33988
31836,46889,33821
31762,46893,33885
32008,46895,33856
32340,46829,33957
32601,46868,33812
32768,46839,33852
32876,46773,33868
32740,46845,33952
32421,46848,33912
32240,46849,33807
32080,46905,33798
31952,46892,33915
32080,46900,33888
32318,46809,33773
32560,46868,33809
32728,46844,33777
32808,46845,33864
32680,46855,33895
32434,46855,33746
32281,46812,33774
32165,46909,33860
32088,46911,33812
32202,46900,33731
32364,46901,33760
32600,46873,33726
32840,46806,33725
32980,46845,33709
32908,46844,33729
32680,46855,33820
32424,46879,33695
32264,46903,33711
32212,46901,33732
32372,46908,33713
32604,46887,33772
32816,46877,33821
32976,46855,33644
33077,46848,33677
33028,46855,33705
32812,46883,33665
32484,46876,33797
32224,46911,33639
32049,46881,33671
32196,46902,33703
32412,46889,33687
32653,46887,33647
32772,46844,33630
32824,46854,33750
32738,46791,33618
32580,46855,33666
32364,46871,33758
32161,46902,33647
32037,46916,33598
32180,46892,33742
32404,46900,33573
32648,46879,33636
32856,46798,33637
33041,46855,33662
33125,46845,33629
33024,46871,33729
32772,46885,33631
32532,46839,33649
32468,46855,33561
32632,46917,33570
32894,46881,33722
33168,46868,33605
33332,46855,33684
33428,46788,33532
33252,46837,33575
32992,46879,33695
32660,46887,33532
32376,46848,33555
32266,46916,33663
32424,46894,33556
32656,46895,33548
32961,46821,33590
33184,46836,33585
33336,46845,33610
33241,46854,33604
32917,46839,33542
32684,46885,33562
32545,46896,33679
32474,46903,33560
32672,46900,33663
33020,46881,33572
33292,46817,33625
33416,46855,33616
33469,46838,33495
33320,46852,33506
33084,46823,33513
32864,46879,33516
32672,46908,33599
32625,46903,33497
32760,46903,33511
33036,46828,33655
33220,46876,33501
33424,46831,33551
33436,46847,33578
33280,46797,33503
33028,46865,33509
32765,46877,33618
32586,46900,33517
32465,46831,33508
32574,46905,33652
32780,46876,33519
33104,46864,33530
33325,46855,33668
33416,46813,33532
33274,46846,33533
32964,46855,33579
32641,46821,33580
32268,46907,33581
31848,46915,33608
31636,46896,33527
31617,46887,33598
31697,46887,33624
31728,46851,33676
31734,46847,33565
31652,46798,33631
31428,46871,33611
31160,46876,33629
31072,46864,33727
31049,46855,33636
31204,46892,33625
31716,46876,33612
32504,46855,33767
33185,46821,33605
33616,46823,33671
33776,46829,33651
33944,46780,33786
33952,46853,33634
33828,46855,33629
33956,46869,33786
34604,46812,33633
35348,46812,33639
35892,46841,33740
36197,46820,33647
36152,46811,33641
35832,46823,33773
35400,46839,33604
34984,46849,33641
34464,46873,33766
34004,46876,33644
33792,46864,33632
33765,46849,33621
33804,46855,33756
33824,46829,33575
33708,46817,33623
33392,46831,33589
33012,46839,33652
32688,46855,33722
32436,46877,33588
32292,46853,33574
32394,46872,33649
32576,46869,33549
32844,46776,33583
33028,46822,33670
33064,46799,33576
32908,46825,33613
32604,46837,33640
32284,46847,33633
32089,46877,33638
32060,46855,33600
32248,46868,33697
32552,46869,33671
32820,46847,33652
32956,46833,33612
32996,46829,33708
32824,46791,33665
32468,46836,33638
32136,46853,33671
31916,46839,33671
31816,46873,33657
31932,46871,33779
32208,46855,33719
32452,46841,33655
32596,46831,33696
32720,46773,33671
32668,46823,33789
32440,46829,33649
32224,46851,33660
32044,46868,33736
31900,46879,33781
32048,46855,33637
32336,46847,33700
32648,46784,33677
32832,46820,33779
32912,46811,33671
32720,46821,33671
32476,46820,33633
32304,46847,33749
32186,46855,33590
32101,46823,33645
32176,46855,33609
32424,46845,33702
32646,46798,33543
32720,46806,33602
32744,46796,33640
32612,46796,33692
32353,46751,33520
32104,46836,33529
31940,46845,33660
31840,46853,33524
32034,46845,33489
32380,46798,33612
32620,46823,33437
32832,46799,33453
32928,46780,33597
32779,46794,33439
32500,46796,33452
32296,46821,33552
32084,46823,33356
31950,46853,33353
32008,46844,33384
32284,46823,33354
32648,46800,33469
32864,46799,33316
32984,46772,33287
32920,46785,33260
32732,46799,33391
32500,46767,33183
32378,46822,33212
32296,46831,33189
32384,46837,33247
32658,46801,33165
32880,46791,33156
32996,46707,33124
33124,46766,33226
33121,46772,33010
33000,46737,33038
32845,46789,33018
32692,46820,33030
32656,46788,32988
32777,46823,32974
32988,46793,32943
33224,46775,32937
33388,46721,33025
33524,46764,32862
33414,46751,32867
33150,46767,32834
32908,46741,32823
32772,46796,32820
32768,46788,32912
32856,46796,32774
33048,46740,32669
33266,46777,32712
33452,46749,32711
33584,46671,32665
33594,46727,32701
33396,46748,32653
33176,46751,32605
33024,46767,32709
32936,46727,32513
33068,46727,32549
33286,46725,32676
33489,46756,32473
33724,46733,32514
33856,46725,32631
33744,46724,32473
33476,46727,32489
33276,46748,32519
33052,46772,32428
32928,46778,32473
33064,46709,32319
33296,46718,32375
33524,46748,32427
33632,46711,32316
33720,46713,32338
33632,46697,32324
33392,46748,32297
33184,46753,32358
32944,46766,32357
32836,46772,32196
33036,46767,32269
33388,46767,32221
33722,46684,32327
33936,46727,32149
34078,46709,32198
33858,46708,32172
33512,46661,32317
33136,46753,32094
32888,46765,32175
32788,46764,32169
32925,46710,32207
33207,46757,32098
33584,46727,32103
33857,46711,32237
34072,46703,32029
33928,46645,32081
33596,46725,32099
33340,46737,32200
33168,46711,32119
33152,46756,31963
33280,46758,32052
33468,46748,32020
33586,46716,32041
33720,46703,32084
33812,46708,31919
33708,46695,32015
33508,46717,31965
33348,46708,32033
33260,46741,32082
33193,46756,31901
33278,46748,31946
33466,46727,32034
33724,46724,31860
33928,46703,31972
34120,46693,31926
34114,46670,31959
33884,46708,32028
33668,46653,31887
33460,46743,31911
33392,46740,31901
33508,46735,31911
33732,46663,31868
33936,46717,31890
34064,46695,31993
34162,46684,31817
34096,46692,31895
33844,46701,31874
33584,46719,31949
33440,46727,31936
33344,46735,31807
33528,46727,31879
33892,46725,31884
34132,46709,31957
34320,46685,31826
34384,46629,31839
34284,46686,31961
34024,46690,31866
33716,46717,31780
33512,46695,31869
33440,46727,31871
33601,46679,31838
33844,46722,31908
34072,46693,31976
34252,46639,31831
34316,46657,31861
34272,46679,31844
34040,46690,31848
33736,46696,31863
33576,46719,31870
33553,46727,31823
33773,46720,31855
34200,46709,31879
34468,46694,32029
34505,46671,31867
34452,46624,31887
34212,46661,31874
34064,46679,32048
34016,46639,31911
33944,46708,31833
33869,46716,31917
33989,46715,31916
34152,46701,31997
34328,46687,31892
34516,46653,31968
34552,46663,31988
34424,46654,31891
34208,46671,31972
33960,46686,31900
33776,46685,32007
33700,46709,31991
33812,46709,32140
33996,46692,31932
34220,46671,32021
34388,46652,32035
34476,46639,32008
34384,46655,32047
34156,46666,32076
33968,46687,31961
33813,46692,32033
33708,46701,32183
33836,46683,32039
33996,46687,32076
34216,46668,32172
34424,46653,32088
34480,46586,32132
34292,46662,32007
34016,46652,32084
33776,46623,32127
33580,46693,32075
33493,46696,32038
33626,46661,32085
33850,46671,32109
34068,46663,32102
34199,46591,32068
34324,46655,32185
34248,46631,32057
33980,46661,32069
33669,46624,32180
33445,46661,32094
33300,46694,32100
33392,46688,32130
33666,46637,32047
33949,46661,32068
34144,46647,32220
34192,46637,32007
34036,46569,32101
33756,46655,32156
33493,46671,32084
33413,46680,32148
33393,46685,31997
33440,46684,32087
33626,46679,32228
33806,46599,32103
33996,46599,32135
34114,46583,32017
33988,46637,32108
33752,46658,32084
33514,46652,32204
33304,46676,32004
33248,46685,32101
33408,46677,32063
33716,46670,32231
33988,46654,32076
34173,46644,32076
34308,46588,32084
34168,46647,32091
33772,46637,32237
33472,46665,32018
33316,46679,32124
33252,46661,32124
33432,46674,32228
33744,46669,32038
33985,46655,32068
34048,46638,32127
34144,46631,32114
34056,46645,32160
33816,46636,32029
33573,46665,32132
33364,46615,32068
33212,46695,32135
33296,46685,32092
33456,46663,32140
33661,46660,32224
33820,46650,32064
33864,46577,32129
33740,46644,32100
33557,46641,32180
33280,46656,32147
33065,46671,32077
32996,46687,32135
33185,46690,32100
33372,46636,32213
33532,46637,32141
33728,46645,32104
33888,46633,32104
33872,46599,32151
33680,46645,32183
33336,46671,32251
33116,46687,32233
33104,46676,32046
33308,46687,32100
33508,46659,32127
33684,46654,32119
33824,46644,32071
33888,46620,32124
33760,46639,32108
33596,46647,32197
33360,46663,32103
33188,46686,32073
33076,46688,32093
33189,46631,32117
33380,46685,32218
33596,46663,32036
33760,46647,32084
33868,46599,32088
33740,46631,32147
33432,46661,32167
33140,46671,32041
32928,46692,32125
32872,46670,32109
33032,46685,32167
33345,46656,32239
33604,46677,32081
33728,46655,32082
33747,46639,32111
33596,46646,32101
33333,46648,32154
33152,46671,32153
32997,46676,32132
32912,46668,32113
33108,46692,32102
33408,46687,32213
33604,46599,32052
33673,46652,32116
33656,46639,32105
33448,46641,32262
33160,46588,32117
32932,46671,32112
32733,46693,32108
32656,46703,32124
32814,46703,32254
33024,46677,32053
33334,46673,32129
33500,46653,32100
33649,46638,32125
33576,46652,32263
33349,46653,32071
33060,46665,32124
32896,46687,32105
32842,46637,32217
32996,46694,32255
33272,46677,32044
33452,46655,32092
33528,46661,32108
33668,46647,32170
33614,46628,32237
33340,46652,32165
32924,46679,32045
32616,46689,32140
32540,46701,32127
32764,46709,32135
33121,46682,32047
33448,46663,32133
33648,46655,32164
33720,46655,32030
33548,46596,32141
33221,46663,32102
32897,46670,32194
32732,46695,32084
32664,46717,32071
32860,46705,32123
33164,46700,32111
33432,46648,32259
33525,46671,32061
33524,46655,32093
33340,46660,32213
33037,46623,32190
32764,46692,32094
32612,46711,32054
32565,46636,32135
32648,46717,32100
32864,46695,32219
33040,46687,32031
33095,46665,32134
33096,46599,32184
