ECG,EDA,RR
33236,33501,29238
33212,33503,29395
33061,33492,29204
33009,33485,29429
32909,33469,29516
32821,33471,29401
32865,33461,29257
32984,33463,29405
33152,33455,29411
33332,33460,29239
33440,33476,29333
33452,33455,29479
33436,33455,29095
33360,33450,29311
33301,33439,29484
33254,33439,29468
33260,33435,29242
33294,33428,29185
33308,33435,29164
33136,33433,29170
32961,33429,29164
32864,33424,29309
32911,33415,29310
32952,33412,28953
32836,33407,29199
32728,33404,29243
32712,33404,29243
32760,33399,29252
32884,33397,29215
33000,33386,29372
33032,33407,29183
33078,33391,29141
33212,33389,29090
33210,33380,29204
33181,33375,29209
33200,33375,29021
33140,33367,29179
32840,33367,29151
32908,33351,29044
32957,33356,29075
32960,33359,29125
33000,33353,29110
33082,33371,29249
33108,33350,29049
33064,33343,28959
33112,33335,29053
33061,33329,28795
33060,33333,29044
33013,33325,29178
33052,33324,28885
33134,33329,29041
33252,33326,29023
33368,33325,28989
33418,33323,28755
33476,33307,28807
33564,33315,28890
33599,33299,28959
33652,33317,29063
33664,33303,29079
33600,33297,28837
33586,33300,28997
33516,33287,29025
33488,33287,28849
33433,33286,28796
33540,33285,28815
33525,33279,28868
33368,33270,28517
33340,33275,28631
33432,33279,28575
33492,33277,28468
33549,33275,28788
33412,33263,28771
33184,33271,28609
33133,33257,28836
33165,33255,28829
33224,33251,28630
33248,33255,28694
33288,33244,28703
33168,33255,28629
33063,33252,28620
32900,33255,28469
32989,33251,28741
33207,33234,28775
33264,33245,28741
33188,33237,28557
33168,33231,28515
33240,33231,28483
33127,33222,28428
33046,33199,28348
33084,33222,28465
33081,33223,28460
32996,33223,28461
32861,33215,28580
32785,33213,28609
32858,33219,28659
32872,33211,28610
32864,33191,28583
32869,33193,28575
32924,33191,28487
32920,33207,28567
32909,33175,28449
32918,33190,28277
32894,33191,28325
32823,33183,28295
32753,33183,28349
32762,33175,28387
32760,33167,28404
32805,33167,28395
32785,33167,28397
32840,33175,28399
32792,33153,28389
32764,33169,28039
32798,33159,28063
32701,33171,28367
32519,33144,28455
32500,33159,28153
32494,33148,28157
32497,33143,28271
32509,33143,28227
32540,33147,28284
32700,33147,28301
32733,33135,28290
32665,33127,27947
32460,33135,28185
32405,33127,28187
32388,33119,28198
32610,33101,28324
32777,33101,28329
32822,33117,28380
32844,33105,28112
32953,33116,28204
32920,33099,28229
32821,33103,28224
32705,33103,27877
32588,33103,28023
32582,33095,28135
32692,33083,28295
32652,33087,28192
32688,33081,28269
32821,33082,28295
32940,33087,28195
32833,33085,28090
32533,33087,28031
32586,33077,28001
32573,33065,28133
32656,33063,28267
32732,33057,28305
32828,33060,28167
32886,33054,27993
32960,33061,28159
32888,33055,28149
32936,33055,28037
32848,33047,28157
32740,33045,28278
32668,33053,28300
32653,33031,28104
32513,33012,28007
32407,33023,28087
32416,33031,28141
32464,33030,28167
32576,33017,27829
32656,33029,28103
32732,33031,28305
32796,33012,28087
32829,32997,28117
32748,33003,28125
32681,32992,28183
32791,32991,27896
32746,32999,28183
32680,32999,28340
32770,32999,28271
32820,32995,28029
32884,32984,28216
32892,32983,28087
32868,32972,28349
32820,32965,28222
32765,32964,27927
32773,32967,28227
32812,32961,28313
32740,32964,28383
32749,32971,28110
32804,32974,28223
32768,32971,28263
32852,32943,28057
32892,32940,28236
32841,32935,28384
32728,32941,28089
32673,32935,28119
32799,32943,28245
32916,32939,28289
32972,32935,28275
32932,32935,28293
32836,32925,28254
32701,32921,28097
32636,32911,28182
32629,32919,28263
32632,32927,28279
32679,32903,28307
32704,32913,28309
32772,32911,28309
32781,32903,28311
32864,32903,28313
32877,32903,27982
32768,32893,28215
32720,32894,28231
32773,32887,28257
32696,32886,28381
32660,32885,28325
32749,32875,28495
32752,32883,28503
32817,32877,28447
32812,32877,28472
32766,32875,28425
32652,32875,28361
32500,32849,28477
32512,32857,28439
32532,32847,28455
32620,32855,28376
32752,32844,28349
32982,32853,28291
33152,32855,28586
33120,32841,28623
33081,32841,28571
32961,32836,28557
32808,32831,28590
32697,32831,28589
32660,32829,28611
32678,32828,28551
32792,32823,28725
32668,32833,28731
32552,32828,28699
32580,32829,28635
32552,32820,28591
32528,32815,28583
32464,32818,28596
32444,32805,28357
32430,32804,28705
32564,32804,28551
32614,32807,28875
32796,32799,28660
32889,32797,28791
32885,32789,28781
32965,32795,28632
32965,32789,28868
32888,32789,28865
32828,32775,28964
32882,32775,28956
32880,32773,28919
32726,32775,28895
32737,32775,28823
32764,32773,28791
32832,32775,28813
32780,32771,29047
32772,32772,29078
32717,32759,29109
32644,32755,29112
32704,32756,29111
32736,32756,29125
32828,32751,29287
32712,32753,29253
32608,32759,28951
32679,32757,29242
32628,32749,29301
32796,32742,29319
32965,32727,29167
33054,32725,29396
33007,32718,29523
32992,32723,29375
32964,32721,29385
33076,32727,29383
33071,32711,29382
33048,32729,29495
33077,32727,29551
33104,32721,29494
33045,32707,29708
32897,32715,29739
32708,32710,29578
32692,32707,29508
32716,32706,29700
32893,32697,29719
33053,32709,29749
33040,32708,29774
32928,32703,29767
32932,32692,29668
33004,32695,29694
33068,32688,29972
33023,32691,29857
32952,32679,29591
32856,32695,29959
32869,32684,29967
32879,32677,29833
32770,32692,30161
32808,32685,29983
32950,32676,30055
32901,32676,30044
32879,32667,30243
33028,32661,30029
33012,32669,30185
33062,32663,30051
33085,32671,30159
33036,32671,30303
33029,32671,30084
32972,32663,30314
32937,32655,30291
32892,32647,30437
32828,32655,30349
32685,32655,30141
32672,32647,30443
32729,32647,30283
32783,32651,30623
33004,32653,30439
33156,32651,30239
33228,32647,30538
33292,32639,30495
33268,32647,30623
33185,32646,30563
33166,32627,30300
33196,32628,30674
33112,32628,30613
33021,32634,30743
33025,32631,30685
33057,32619,30727
33108,32628,30793
33149,32635,30671
33132,32610,30887
33032,32619,30623
33012,32610,30877
32989,32609,30809
32936,32609,30823
32900,32620,31044
32880,32613,31049
32791,32613,31059
32660,32621,30939
32577,32612,30927
32628,32605,30724
32728,32607,30929
32940,32599,30965
33100,32599,31017
33200,32603,31175
33336,32607,31194
33329,32597,31255
33368,32601,31284
33336,32603,31197
33324,32597,31124
33240,32580,30869
33104,32580,31204
32953,32570,31265
32977,32577,31189
33132,32581,31393
33216,32583,31367
33204,32591,31273
33176,32571,31335
33040,32583,31396
33020,32579,31221
33020,32575,31564
32981,32559,31383
32976,32565,31487
33000,32567,31468
33029,32559,31446
33020,32548,31669
33062,32567,31607
33008,32561,31532
32889,32567,31564
32960,32557,31609
32917,32535,31628
32862,32551,31622
32868,32543,31409
32940,32542,31763
33016,32526,31639
33033,32551,31942
33140,32551,31924
33260,32551,31554
33396,32547,31932
33560,32543,31951
33988,32533,31804
34724,32518,31841
35401,32519,32037
36033,32508,32135
36804,32517,32111
37600,32515,32143
38416,32507,32077
38788,32517,31951
39040,32513,32180
39416,32509,32220
39812,32493,32231
39752,32495,32279
39133,32487,32205
38224,32498,32308
37188,32507,32421
35804,32505,32490
33936,32526,32479
31468,32535,32441
29676,32532,32372
28728,32543,32466
28461,32519,32434
28596,32525,32548
28919,32519,32511
29380,32511,32493
29920,32513,32479
30524,32519,32511
31031,32514,32482
31495,32506,32277
31696,32509,32607
31821,32501,32735
31978,32493,32757
32112,32489,32357
32113,32491,32809
32185,32503,32799
32057,32486,32795
32182,32475,32724
32217,32489,32961
32301,32495,33029
32320,32479,33031
32456,32471,33007
32508,32473,32909
32452,32475,32719
32458,32467,32949
32588,32469,32967
32564,32465,32997
32625,32471,32967
32696,32477,32911
32800,32475,32869
32732,32463,32977
32688,32455,33031
32740,32455,33031
32696,32453,33197
32700,32439,33255
32721,32453,33125
32821,32449,33211
32816,32443,33227
32788,32455,33220
32797,32455,33414
32781,32454,33275
32768,32445,33327
32740,32445,33349
32764,32421,33244
32830,32439,33388
32772,32421,33500
32760,32437,33476
32925,32435,33348
33072,32438,33165
33192,32439,33431
33244,32437,33449
33233,32428,33422
33145,32423,33460
33021,32415,33463
32996,32411,33449
33005,32407,33331
33024,32412,33319
33111,32404,33423
33113,32412,33336
32992,32407,33343
33051,32413,33348
33085,32412,33407
33016,32406,33433
32976,32407,33504
33135,32391,33583
33252,32396,33659
33232,32397,33714
33316,32397,33701
33444,32403,33673
33508,32402,33647
33612,32391,33773
33590,32398,33735
33353,32391,33799
33221,32391,33813
33332,32381,33812
33416,32389,33791
33557,32383,33559
33860,32367,33695
34177,32386,33879
34304,32391,33873
34112,32391,33821
34072,32381,33721
34056,32367,33767
34014,32359,33583
34015,32367,33764
34052,32365,33789
34215,32358,33725
34230,32373,33644
34228,32367,33631
34129,32367,33687
34232,32365,33885
34228,32364,33964
34028,32357,33949
33920,32355,33881
34029,32355,33887
34201,32351,33767
34220,32349,33759
34228,32359,33427
34180,32351,33829
34116,32355,33799
34132,32348,33799
34052,32343,33823
33981,32335,33833
33972,32333,33828
33969,32341,33667
33976,32335,33959
34000,32335,33861
33883,32327,33784
33701,32337,33748
33678,32327,33671
33550,32337,33815
33245,32333,33763
33160,32325,33765
33145,32326,33831
33124,32305,33735
33181,32327,33798
33230,32329,33767
33191,32321,33612
33118,32327,33653
33012,32322,33871
32892,32325,33853
32740,32309,33789
32612,32311,33727
32613,32309,33745
32544,32311,33703
32412,32311,33409
32353,32311,33745
32484,32308,33759
32590,32316,33585
32589,32311,33855
32540,32310,33799
32484,32303,33759
32412,32308,33695
32260,32296,33757
32181,32292,33732
32169,32292,33687
32012,32287,33752
31901,32292,33823
31980,32293,33713
32128,32297,33373
32096,32291,33717
32204,32292,33743
32340,32277,33743
32208,32281,33661
32100,32275,33782
32028,32285,33899
31988,32279,33819
31908,32281,33865
31924,32281,33740
31980,32281,33487
31938,32277,33761
31936,32273,33789
32023,32271,33769
32064,32263,33753
32076,32263,33767
31865,32261,33759
31784,32260,33652
31870,32263,33741
32020,32263,33673
32248,32258,33916
32420,32255,33927
32324,32244,33949
32248,32251,34002
32188,32245,33981
32184,32239,33815
32212,32231,33895
32296,32239,33905
32272,32244,33847
32181,32247,33759
32116,32248,33751
32040,32239,33821
32047,32241,33875
32005,32232,34079
32060,32231,34028
32064,32225,34001
32128,32231,34004
32260,32229,33895
32176,32231,33503
32137,32230,33919
32194,32229,33927
32192,32235,33939
32260,32222,33935
32389,32214,33885
32320,32215,33775
32328,32215,33742
32261,32215,33981
32197,32213,34011
32192,32219,33991
32241,32215,33972
32232,32219,33881
32287,32193,33829
32364,32191,33465
32468,32197,33867
32468,32191,33463
32452,32182,33895
32600,32189,33875
32613,32186,33837
32543,32183,33767
32508,32199,33703
32400,32192,33751
32302,32181,33792
32276,32190,34021
32175,32190,33952
32216,32180,33850
32337,32175,33875
32386,32175,33775
32334,32180,33431
32376,32167,33855
32512,32175,33815
32524,32179,33660
32318,32179,33653
32310,32187,33693
32284,32173,33663
32226,32167,33669
32236,32157,33855
32280,32153,33963
32350,32159,33823
32280,32164,33773
32319,32163,33767
32252,32167,33841
32161,32157,33815
32104,32164,33797
32156,32157,33763
32108,32157,33839
32208,32148,33905
32261,32149,33909
32293,32159,33799
32196,32157,33777
32188,32167,33781
32176,32154,33817
32272,32149,33751
32305,32146,33751
32321,32135,33883
32316,32125,33650
32236,32120,33735
32281,32117,33793
32352,32135,33791
32440,32123,33775
32424,32127,33722
32372,32135,33709
32261,32130,33665
32204,32129,33903
32096,32127,33799
32169,32115,33585
32142,32111,33572
32116,32110,33355
32220,32111,33314
32297,32109,33724
32262,32119,33661
32413,32109,33628
32408,32101,33583
32232,32115,33605
32092,32108,33665
32029,32109,33767
32113,32095,33751
32344,32097,33796
32429,32101,33618
32517,32095,33541
32400,32093,33511
32321,32099,33669
32224,32101,33741
32258,32095,33653
32263,32091,33729
32429,32083,33693
32465,32077,33606
32464,32060,33224
32432,32079,33661
32374,32086,33567
32417,32084,33471
32516,32079,33773
32500,32085,33623
32375,32071,33487
32268,32076,33295
32208,32076,33592
32214,32069,33607
32154,32069,33605
32200,32067,33559
32396,32067,33526
32388,32065,33420
32260,32068,33569
32317,32060,33571
32244,32071,33677
32180,32059,33493
32160,32061,33495
32178,32039,33483
32298,32051,33423
32489,32044,33600
32545,32055,33371
32413,32055,33451
32376,32055,33495
32286,32053,33468
32252,32054,33431
32160,32039,33285
32184,32051,33287
32287,32047,33543
32364,32036,33559
32375,32033,33412
32401,32021,33287
32593,32041,33047
32485,32043,33421
32352,32031,33372
32197,32033,33331
32097,32029,33508
32212,32015,33501
32344,32018,33415
32264,32007,33337
32185,32021,33335
32262,32015,33245
32287,32021,33031
32424,32025,33364
32415,32023,33374
32344,32017,33354
32372,32007,33313
32324,32005,33211
32288,32003,33487
32340,31999,33337
32368,31999,33070
32397,32004,33327
32369,32004,33248
32404,32007,33271
32437,31999,33445
32260,32001,33307
32357,31991,33231
32604,31994,33038
32596,31991,33255
32509,31988,33307
32582,31988,33271
32692,31987,33119
32668,31991,33118
32764,31983,33376
33228,31991,33292
33845,31975,33201
34568,31971,33243
35356,31957,33255
36129,31953,33237
36742,31950,33234
37348,31953,33079
37776,31962,33173
37991,31957,33131
38252,31963,33068
38541,31959,33050
38559,31949,33129
37872,31943,33196
36997,31951,33159
36028,31943,33147
34660,31959,33199
33056,31967,33184
30776,31977,33201
29185,31991,33185
28303,31983,33167
27885,31988,33213
27982,31981,33175
28180,31967,33055
28453,31966,33262
28937,31959,33343
29655,31947,33295
30332,31955,32883
30880,31973,33204
31480,31951,33167
31878,31948,33343
31957,31955,33265
32056,31948,33165
32037,31941,33167
31924,31931,33189
31892,31933,33188
31926,31927,33042
32020,31927,33311
32134,31935,33354
32216,31935,33145
32288,31941,33175
32352,31927,33175
32293,31925,33121
32204,31927,32995
32048,31919,33009
31975,31917,33287
32010,31919,33231
32132,31919,33255
32296,31922,33087
32459,31917,33101
32504,31919,33133
32426,31909,33077
32353,31917,33157
32348,31903,33262
32388,31908,33247
32376,31909,33215
32416,31911,33159
32344,31903,33098
32447,31908,33213
32525,31909,33159
32568,31907,33103
32679,31905,32939
32729,31903,33151
32552,31895,33175
32588,31879,33001
32589,31885,33029
32544,31891,33239
32592,31887,33264
32612,31889,33180
32704,31903,32828
32924,31895,33157
32885,31903,32965
32908,31879,33207
32988,31879,33261
32932,31871,33169
32842,31869,33026
32678,31876,32669
32785,31877,33081
32950,31876,33031
33052,31875,32908
33084,31875,33031
33151,31879,33031
33182,31879,32615
33132,31871,32985
33116,31857,32935
33153,31864,32883
33028,31859,33017
33001,31855,33069
33093,31860,32975
33236,31874,32847
33282,31871,32645
33376,31869,32858
33436,31863,32869
33393,31855,32476
33322,31843,32892
33484,31847,32769
33573,31845,32805
33652,31853,32723
33665,31849,32804
33700,31852,32879
33744,31861,32957
33747,31847,32979
33892,31840,32965
34074,31839,32870
34148,31839,32925
34268,31833,32940
34276,31831,32851
34297,31837,32815
34412,31831,32559
34300,31845,32815
34292,31838,32742
34300,31837,32615
34155,31830,32607
34004,31833,32699
33948,31829,32701
33948,31807,32720
34036,31823,32717
33991,31821,32601
33993,31828,32621
34021,31816,32708
34069,31831,32707
33996,31825,32709
33800,31823,32609
33668,31815,32592
33616,31815,32635
33529,31815,32595
33448,31807,32612
33332,31813,32532
33236,31827,32668
33336,31817,32655
33433,31823,32639
33448,31819,32579
33424,31815,32535
33281,31815,32463
33193,31807,32720
32937,31801,32756
32768,31790,32655
32680,31807,32639
32600,31809,32661
32568,31815,32537
32493,31809,32191
32428,31805,32594
32505,31799,32567
32328,31795,32455
32247,31793,32449
32296,31789,32484
32416,31783,32487
32392,31795,32646
32320,31799,32683
32231,31783,32577
32012,31805,32501
32036,31807,32535
32196,31796,32489
32168,31785,32532
32172,31781,32567
32178,31780,32529
32161,31783,32503
32254,31775,32401
32316,31781,32621
32268,31767,32601
32119,31773,32599
32089,31785,32517
31959,31788,32467
32052,31780,32127
32076,31772,32513
32076,31775,32540
31960,31772,32543
31941,31767,32508
31893,31773,32529
32064,31775,32532
32336,31773,32517
32276,31769,32524
32145,31773,32533
32029,31759,32527
32072,31767,32527
32064,31751,32515
32084,31751,32503
31996,31751,32428
32024,31764,32465
31972,31751,32506
32002,31759,32372
31916,31751,32354
31916,31751,32618
31932,31751,32633
32064,31748,32657
32169,31745,32665
32224,31743,32623
32264,31740,32572
32335,31749,32541
32412,31741,32559
32437,31744,32471
32260,31737,32530
32160,31751,32537
31988,31737,32569
31965,31727,32579
32132,31719,32567
32321,31717,32671
32320,31723,32677
32408,31723,32631
32272,31732,32649
32108,31735,32551
32028,31739,32519
32180,31730,32397
32277,31723,32417
32376,31717,32499
32421,31716,32436
32457,31713,32527
32544,31717,32519
32564,31723,32739
32461,31717,32676
32440,31723,32681
32420,31719,32737
32358,31717,32717
32285,31716,32733
32268,31710,32735
32216,31719,32767
32253,31707,32727
32284,31709,32733
32245,31711,32768
32285,31706,32671
32213,31707,32388
32262,31703,32383
32572,31703,32635
32404,31697,32647
32255,31701,32623
32282,31699,32604
32297,31691,32631
32421,31693,32535
32560,31697,32487
32542,31695,32531
32500,31709,32583
32498,31693,32628
32500,31701,32644
32492,31687,32643
32416,31683,32568
32308,31679,32557
32056,31663,32717
31937,31681,32676
31864,31687,32752
32078,31691,32871
32296,31690,32852
32520,31681,32886
32740,31687,32889
32868,31679,32839
32870,31669,32719
32776,31667,32414
32921,31667,32789
33072,31665,32815
32926,31673,32831
32825,31671,32799
32740,31673,32668
32800,31682,32997
32769,31666,32919
32652,31667,32837
32580,31663,32847
32541,31653,32764
32496,31652,32535
32548,31663,32949
32684,31660,32850
32708,31660,33075
32784,31665,33107
32784,31668,33133
32785,31652,32989
32772,31659,32727
32696,31653,33093
32549,31644,33047
32502,31653,33117
32569,31641,33287
32636,31645,33282
32701,31655,33215
32732,31653,33159
32724,31652,33119
32724,31646,33019
32668,31639,33305
32772,31639,33287
32877,31627,33450
32856,31623,33444
32988,31628,33372
32886,31631,33369
32812,31633,33470
32735,31634,33119
32740,31645,33567
32687,31636,33565
32561,31637,33588
32548,31623,33611
32585,31622,33657
32652,31623,33900
32772,31615,33908
32844,31623,33908
32893,31627,33932
32820,31631,34021
32783,31623,33975
32620,31622,34005
32464,31623,33943
32434,31609,33901
32636,31607,33772
32716,31601,34085
32774,31607,34109
32924,31605,34149
33068,31615,34159
33008,31614,34111
32932,31613,34263
32792,31603,34244
32608,31607,34279
32566,31605,34311
32681,31599,34279
32800,31593,34227
32924,31597,34526
32872,31598,34419
32929,31599,34055
32968,31601,34431
32918,31602,34497
32756,31595,34487
32708,31591,34519
32648,31591,34157
32669,31591,34575
32776,31569,34177
32777,31583,34347
32692,31591,34213
32633,31591,34679
32530,31596,34660
32425,31597,34679
32412,31591,34700
32468,31579,34709
32608,31581,34717
32671,31564,34743
32740,31575,34771
32780,31575,34784
32817,31568,34814
32749,31575,34823
32758,31583,34823
32808,31575,34849
32868,31575,34850
32758,31572,34854
32603,31563,34855
32663,31559,34914
32729,31567,34915
32916,31567,34903
33005,31569,34935
32984,31563,34943
33056,31569,34945
33056,31567,34967
33004,31559,34965
32916,31558,34983
32768,31545,34943
33000,31540,34519
33080,31551,34599
33276,31551,34901
33624,31556,34693
34144,31549,34580
34792,31558,34947
35492,31548,34687
36132,31535,34919
36716,31527,34919
37065,31529,34823
37453,31524,34941
37592,31524,34947
37765,31524,34959
38056,31527,34939
38368,31533,34928
38138,31527,34897
37520,31533,34909
36637,31529,34839
35725,31535,34807
34556,31527,34749
32848,31535,34789
30638,31540,34709
29228,31533,34963
28580,31556,35007
28302,31575,34823
28388,31558,34423
28589,31559,34867
29152,31559,34859
29796,31539,34823
30412,31531,34821
30954,31527,34689
31460,31519,34800
31740,31525,34929
31973,31535,34980
32108,31531,34948
32246,31531,34901
32418,31521,34837
32597,31516,34776
32694,31515,34764
32584,31511,34687
32493,31489,34759
32412,31495,34491
32357,31503,34716
32408,31515,34525
32494,31509,34695
32590,31517,34677
32653,31505,34695
32734,31505,34655
32905,31491,34648
32916,31483,34585
32824,31492,34495
32784,31485,34692
32604,31487,34531
32665,31491,34151
32704,31495,34567
32672,31508,34407
32700,31495,34657
32656,31491,34481
32662,31491,34503
32673,31479,34531
32824,31475,34543
32908,31477,34543
32772,31479,34548
32668,31479,34549
32763,31477,34545
32748,31485,34557
32805,31487,34548
32948,31479,34549
32982,31470,34550
32804,31468,34551
33024,31467,34532
33075,31460,34527
33053,31463,34472
33056,31471,34388
33148,31467,34639
33140,31469,34647
33015,31475,34577
32952,31462,34549
32936,31463,34505
32897,31455,34499
32968,31455,34531
32988,31453,34469
32897,31445,34513
33040,31448,34613
33124,31447,34584
33333,31447,34390
33390,31463,34327
33282,31453,34415
33196,31445,34477
33193,31447,34475
33160,31447,34471
33016,31429,34484
33070,31437,34487
33248,31445,34037
33164,31445,34461
33204,31441,34052
33108,31443,34485
33348,31439,34461
33417,31429,34514
33632,31423,34512
33461,31418,34519
33684,31413,34490
33916,31399,34517
33906,31409,34535
33949,31427,34522
33836,31421,34299
33732,31421,34209
33728,31419,34525
33845,31415,34549
33847,31399,34127
33945,31403,34295
34078,31405,34516
34142,31393,34183
33941,31407,34605
34016,31407,34549
34088,31407,34439
34164,31405,34580
34182,31397,34591
34060,31403,34638
33944,31397,34589
33892,31389,34583
33765,31386,34467
33736,31375,34647
33632,31391,34754
33580,31396,34631
33444,31405,34548
33431,31389,34581
33346,31389,34612
33312,31383,34610
33153,31389,34617
33068,31373,34523
33156,31381,34468
33232,31383,34521
33268,31391,34717
33216,31389,34752
33068,31375,34567
32956,31367,34567
32937,31366,34617
32929,31367,34605
32832,31359,34206
32697,31364,34532
32585,31352,34575
32615,31355,34596
32660,31362,34551
32686,31366,34500
32841,31357,34532
32805,31358,34727
32653,31357,34713
32584,31354,34717
32553,31343,34522
32464,31349,34573
32336,31343,34447
32161,31349,34671
32204,31349,34491
32244,31341,34581
32184,31357,34603
32080,31351,34585
32132,31349,34564
32158,31343,34593
32128,31327,34727
32092,31325,34599
32004,31332,34565
31924,31327,34583
31832,31327,34379
31936,31332,34281
32037,31327,34629
32144,31335,34533
32052,31331,34799
31956,31325,34685
31885,31317,34310
31944,31303,34663
32025,31318,34514
32086,31308,34847
32213,31311,34806
32369,31309,34679
32548,31315,34281
32454,31315,34757
32369,31300,34661
32317,31295,34837
32224,31299,34880
32201,31294,34711
32316,31283,34799
32389,31285,34815
32289,31287,34735
32302,31287,34981
32370,31284,34784
32372,31284,34877
32401,31273,34716
32309,31269,34999
32417,31266,34967
32408,31263,35015
32421,31259,35023
32457,31260,34927
32497,31257,34912
32484,31263,34675
32472,31261,34506
32569,31259,34967
32412,31249,34901
32356,31239,34980
32305,31239,34951
32329,31239,34609
32424,31235,35011
32325,31227,34989
32216,31239,34933
32400,31231,35119
32436,31228,35089
32576,31235,34981
32712,31223,34805
32748,31217,35052
32521,31214,35055
32348,31204,35060
32450,31205,35067
32685,31199,34911
32441,31198,35100
32632,31200,35225
32656,31205,35079
32744,31189,34965
32761,31197,35095
32593,31202,35087
32325,31183,35047
32200,31183,35261
32380,31175,35157
32577,31165,35129
32644,31179,35047
32720,31175,34901
32868,31175,35225
32744,31175,35231
32660,31174,35117
32540,31163,35209
32552,31151,35335
32544,31143,35387
32517,31132,35253
32608,31142,35249
32596,31135,35005
32656,31145,35305
32740,31147,35335
32612,31141,35335
32485,31143,35284
32441,31127,35364
32480,31111,35522
32449,31113,35384
32360,31111,34973
32476,31109,35425
32728,31119,35481
32756,31111,35487
32528,31119,35503
32548,31111,35508
32487,31103,35508
32480,31101,35514
32260,31095,35560
32300,31088,35549
32397,31087,35576
32640,31079,35566
32948,31087,35575
32736,31093,35619
32760,31092,35631
32508,31085,35645
32493,31085,35653
32685,31075,35669
32686,31071,35687
32681,31060,35681
32630,31052,35692
32629,31061,35700
32501,31055,35641
32454,31061,35580
32553,31058,35773
32644,31055,35847
32764,31059,35912
32808,31053,35909
32681,31047,35938
32602,31045,35965
32485,31033,35861
32636,31035,35876
32736,31037,35908
32687,31037,35868
32576,31043,35903
32520,31037,35919
32521,31019,35876
32508,31023,35557
32538,31019,35940
32549,31023,35943
32568,31013,35935
32417,31013,35938
32524,31013,35841
32804,31015,35862
32708,31023,36015
32636,31023,36183
32545,31012,36163
32437,31015,36039
32377,31001,35953
32381,30996,36041
32578,30993,36095
32632,30983,35948
32776,30996,36212
32748,31005,36247
32612,31001,36295
32622,30993,36265
32668,30993,36271
32604,30995,36195
32511,30980,35943
32593,30977,35719
32572,30975,36215
32620,30979,36227
32484,30983,36236
32392,30983,36229
32357,30983,36109
32401,30983,36249
32376,30977,36171
32420,30975,36223
32416,30967,36254
32356,30961,36287
32426,30960,36231
32580,30957,36141
32552,30957,36321
32416,30964,36205
32447,30967,36193
32413,30971,36349
32420,30959,36453
32318,30955,36407
32388,30945,36327
32407,30939,36327
32309,30937,36311
32184,30947,36276
32158,30956,35941
32224,30957,35901
32416,30948,36247
32460,30949,36385
32488,30943,36396
32468,30943,36423
32344,30934,36431
32324,30929,36397
32497,30926,36331
32538,30931,36588
32580,30927,36396
32376,30935,36435
32457,30925,36450
32565,30925,36458
32474,30919,36453
32637,30917,36439
32720,30907,36431
32901,30903,36356
33001,30895,36407
33064,30893,36453
33200,30903,36458
33448,30899,36452
34060,30891,36415
34556,30893,36443
35230,30885,36429
35808,30869,36422
36417,30871,36397
36749,30863,36404
36996,30852,36393
37076,30852,36429
37382,30855,36421
37769,30855,36408
38093,30855,36383
37984,30851,36399
37464,30845,36402
36584,30844,36407
35537,30843,36391
34192,30844,36380
31969,30846,35951
29716,30855,36319
28549,30864,35946
27996,30855,36356
27924,30854,36379
28106,30877,36395
28560,30843,36337
29135,30831,36207
29852,30819,36327
30440,30806,36275
30826,30807,36317
31508,30789,36223
31784,30799,36509
32018,30797,36509
32138,30793,36403
32252,30789,36397
32125,30782,36429
32072,30784,36388
32119,30767,36411
32176,30759,36389
32276,30750,36410
32396,30743,36412
32581,30741,36423
32576,30743,36375
32665,30735,36383
32732,30727,36389
32777,30725,36395
32588,30721,36345
32688,30703,36347
32740,30695,36311
32564,30692,36341
32469,30684,36328
32561,30687,36333
32676,30685,36318
32740,30678,36309
32793,30667,36315
32817,30656,36309
32638,30657,36301
32564,30636,36308
32625,30629,36311
32617,30622,36317
32646,30619,36327
32767,30613,36292
32765,30607,36255
32676,30604,36252
32556,30599,36166
32628,30584,36271
32656,30575,36315
32660,30565,36303
32724,30557,36246
32873,30539,36199
32800,30538,36293
32704,30534,36303
32810,30527,36463
32832,30521,36407
32820,30507,36440
32972,30492,36373
33016,30485,36265
32924,30477,36156
32908,30466,36239
32945,30447,36052
32888,30437,36245
33055,30439,36341
33008,30431,36207
33064,30428,36231
33054,30411,36210
33036,30405,36197
33004,30399,36175
33002,30376,35716
33078,30367,36095
33070,30359,36255
33285,30351,36279
33238,30351,36011
33437,30353,36149
33348,30335,36103
33420,30324,36020
33383,30317,36073
33294,30301,36087
33246,30287,35605
33437,30275,36031
33556,30261,36068
33505,30255,36055
33504,30259,36164
33364,30241,35878
33384,30228,35946
33504,30227,35820
33676,30215,36119
33924,30196,36060
34025,30183,36071
34088,30168,36071
34148,30157,35906
34116,30159,35846
33936,30141,35863
33956,30148,35876
33888,30147,35791
33834,30141,35669
33976,30129,35907
33956,30116,35913
33934,30097,35879
33988,30077,35847
33874,30065,35903
33799,30061,35887
33749,30059,35701
33677,30061,35287
33576,30049,35703
33480,30042,35645
33312,30036,35508
33261,30017,35661
33287,30012,35735
33314,29997,35741
33260,29991,35736
33124,29981,35645
33175,29973,35627
33121,29969,35501
32980,29964,35079
33037,29956,35065
33004,29948,35372
32948,29934,35495
32789,29931,35632
32694,29922,35628
32560,29910,35547
32612,29902,35308
32457,29893,35431
32229,29903,35415
32236,29902,35381
32289,29893,35283
32252,29887,35407
32185,29867,35446
32220,29863,35431
32352,29867,35399
32366,29861,35398
32702,29852,35173
32596,29846,34981
32533,29855,35183
32484,29852,35349
32284,29852,35399
32244,29845,35495
32240,29847,35373
32088,29831,35231
32086,29825,35235
31956,29823,35279
32054,29829,35313
32100,29821,35324
32148,29821,35286
32128,29827,35279
32198,29818,35253
32268,29815,35223
32296,29804,35241
32140,29804,35262
32108,29799,35215
32108,29789,35109
32181,29791,35120
32308,29790,35259
32276,29787,35276
32156,29795,35270
32320,29779,35265
32340,29787,34835
32240,29783,35207
32184,29779,35276
32129,29762,35265
32144,29759,35311
32093,29756,35212
32100,29756,35045
32044,29757,34996
32164,29757,34977
32392,29745,35218
32613,29740,35244
32549,29729,35258
32301,29723,35253
32272,29714,35095
32268,29708,35117
32217,29703,35265
32285,29703,35367
32372,29703,35301
32571,29703,35231
32534,29703,35248
32465,29689,35175
32388,29684,35197
32253,29679,35230
32140,29669,35335
32263,29667,35191
32654,29655,35204
32652,29655,35210
32572,29643,35165
32368,29655,35042
32376,29635,35031
32476,29628,35021
32441,29623,35131
32494,29613,35124
32400,29605,35275
32332,29591,35303
32437,29583,35309
32437,29593,35274
32457,29589,35204
32177,29581,35207
32320,29567,34983
32538,29548,35278
32604,29544,35204
32413,29537,35122
32293,29525,35069
32348,29514,35108
32401,29509,35108
32436,29502,34943
32448,29496,35239
32446,29491,34951
32481,29478,35059
32364,29467,35103
32357,29445,35073
32293,29437,35093
32389,29428,34973
32178,29407,35030
32064,29415,35214
32344,29396,35069
32464,29380,35059
32484,29383,35055
32388,29372,35023
32458,29353,35095
32286,29327,35201
32417,29319,35159
32456,29304,35046
32344,29295,34845
32236,29284,35063
32184,29271,35042
32365,29255,35017
32521,29247,34885
32652,29231,35030
32621,29221,35147
32696,29191,35122
32672,29177,34999
32508,29167,34780
32512,29149,34732
32644,29139,34767
32740,29127,34615
32605,29117,35023
32529,29100,34951
32495,29091,34917
32572,29081,34999
32612,29053,35103
32540,29039,34945
32620,29023,34927
32548,29002,34951
32592,28999,35003
32496,28974,34719
32516,28975,34897
32400,28967,34823
32493,28951,34668
32476,28932,34887
32458,28914,34893
32434,28899,34902
32576,28882,34892
32634,28871,34887
32480,28863,34871
32312,28843,34859
32279,28829,34823
32408,28818,34780
32540,28807,34663
32757,28785,34726
32860,28771,34753
32816,28749,34751
32672,28735,34765
32648,28717,34755
32672,28707,34737
32660,28695,34713
32767,28677,34708
32828,28664,34711
32761,28647,34679
32752,28639,34675
32696,28621,34625
32600,28597,34586
32560,28580,34555
32504,28563,34524
32692,28545,34497
32801,28531,34401
32872,28513,34529
32932,28507,34688
32748,28493,34597
32586,28477,34519
32736,28466,34455
32805,28435,34405
33056,28421,34196
32936,28399,34223
32842,28391,34507
32756,28383,34577
32780,28364,34479
32846,28357,34241
32613,28344,34329
32528,28327,34360
32317,28303,34375
32488,28292,34373
32417,28277,34309
32481,28262,34083
32469,28249,34247
32536,28239,34431
32644,28221,34382
32644,28215,34159
32510,28207,34103
32416,28189,34239
32244,28167,34255
32348,28146,34215
32452,28133,34064
32549,28122,34089
32648,28107,34175
32600,28101,34125
32548,28084,34191
32493,28077,34173
32432,28061,34127
32740,28047,34132
32776,28029,34139
32384,28019,34117
32410,27997,34051
32385,27977,34164
32489,27969,34204
32642,27958,34183
32656,27948,34146
32745,27935,34189
32836,27921,34171
32892,27903,34165
32892,27886,34067
32940,27875,33935
33208,27852,33949
33514,27841,33919
33705,27828,33946
34208,27819,33901
35018,27803,33861
35596,27791,33551
36301,27781,33900
36949,27757,33911
37264,27742,33841
37484,27722,33879
37596,27716,33836
37893,27699,33797
38284,27683,33831
38285,27675,33729
37509,27669,33733
36580,27655,33663
35836,27647,33777
34400,27637,33895
32479,27627,33881
30236,27627,33879
28888,27612,33914
27957,27601,33756
27744,27593,33757
27948,27582,33772
28404,27575,33762
28785,27561,33765
29640,27548,33755
30416,27527,33711
30872,27511,33420
31264,27488,33435
31556,27481,33683
31696,27465,33733
31701,27463,33685
31946,27452,33767
32110,27444,33865
32021,27437,33859
32148,27436,33799
32276,27411,33700
32372,27399,33738
32371,27392,33723
32572,27373,33543
32372,27367,33595
32300,27366,33589
32412,27359,33588
32205,27363,33543
32334,27351,33137
32492,27343,33492
32526,27339,33389
32600,27333,33435
32788,27322,33471
32716,27319,33589
32628,27315,33428
32645,27309,33255
32696,27308,33230
32705,27308,33485
32644,27313,33527
32440,27311,33497
32493,27307,33501
32808,27293,33407
33245,27297,33399
32943,27285,33513
32876,27284,33463
32789,27287,33508
32710,27285,33507
32722,27287,33402
32709,27287,33316
32913,27281,33253
32729,27281,33345
32804,27281,33364
32736,27285,33349
32604,27275,33167
32575,27271,33311
32656,27265,33345
32699,27271,33254
32884,27277,33300
32977,27271,33263
33051,27271,33156
33026,27268,33339
32948,27271,33351
33029,27265,33340
32992,27256,33255
32889,27254,33192
32880,27261,33119
33124,27263,33105
33088,27263,33121
33088,27256,33148
33151,27262,33069
33207,27261,33095
33308,27253,33198
33356,27255,32903
33397,27247,33083
33452,27244,32903
33400,27249,33135
33608,27247,33159
33468,27253,33089
33294,27255,32967
33332,27255,32593
33428,27252,32973
33604,27247,32925
33654,27237,33058
33557,27237,32983
33548,27234,32940
33604,27231,32603
33438,27237,32461
33524,27236,32871
33616,27239,32854
33625,27239,32692
33848,27239,32859
33904,27233,32633
33780,27227,32429
33820,27225,32786
33744,27219,32701
33836,27215,32601
33822,27221,32877
33941,27217,32661
33924,27221,32693
33877,27223,32685
33711,27218,32625
33692,27206,32764
33472,27207,32403
33078,27203,32644
33285,27197,32499
33473,27198,32644
33463,27195,32698
33492,27191,32526
33572,27193,32543
33653,27192,32551
33401,27187,32407
33324,27183,32628
33149,27167,32635
33052,27163,32637
32972,27159,32479
32980,27157,32423
33088,27143,32313
32984,27151,32199
32824,27154,32293
33001,27142,32255
32869,27135,32239
32833,27127,32143
32920,27125,32049
32700,27125,32405
32661,27114,32333
32594,27107,32341
32533,27105,32407
32564,27103,32484
32592,27105,32295
32533,27093,32135
32485,27093,31940
32352,27084,32363
32193,27081,32178
32132,27070,32341
31952,27060,32239
32174,27062,32189
32180,27051,32271
32125,27055,32404
32336,27055,32446
32180,27044,32309
31944,27039,32287
31774,27031,32239
31663,27023,32239
31588,27017,32065
31540,27009,31903
31664,27005,32103
32068,26999,32295
32097,26991,32293
32152,26991,32313
32102,26983,32303
32186,26979,32253
32150,26965,32147
32152,26957,32147
32228,26949,32119
32033,26945,32383
31920,26937,32383
32082,26938,32428
32053,26931,32334
32160,26923,32320
32132,26926,32407
32125,26916,32365
32220,26909,32380
32257,26894,32391
32136,26887,32299
32281,26879,32145
32541,26868,32085
32284,26869,32149
32113,26866,32080
32096,26867,31892
31943,26867,31989
32040,26852,32035
32056,26845,31903
31857,26833,32263
31972,26830,32285
31976,26816,32279
32233,26815,32245
32238,26810,32157
32037,26804,32135
31964,26799,32205
31940,26789,32068
32005,26783,32100
32094,26775,32221
32112,26767,31855
32223,26755,31912
32217,26749,32089
32218,26743,32173
32285,26731,32165
32264,26727,31831
32310,26725,32227
32396,26721,32043
32496,26711,32328
32432,26697,32263
32272,26689,32247
32173,26676,32277
32256,26671,32309
32337,26661,32317
32256,26663,32293
32420,26647,32263
32572,26645,32253
32224,26631,32257
32384,26621,32228
32404,26607,32130
32356,26605,32103
32364,26591,32085
32306,26583,32003
32180,26574,32006
32320,26572,32026
32176,26567,32019
32200,26567,32055
32202,26550,32135
32156,26551,32191
32001,26535,32134
32100,26520,32044
32120,26515,31878
32262,26503,32023
32289,26495,31959
32382,26491,31871
32444,26481,31953
32532,26471,31959
32552,26471,32015
32477,26458,32014
32356,26450,32015
32237,26437,31605
32220,26423,31688
32140,26413,31891
32172,26407,31889
32260,26399,31887
32449,26395,31917
32528,26390,32037
32600,26375,32011
32748,26369,32017
32704,26353,31967
32645,26340,32006
32733,26332,32035
32662,26327,31911
32406,26316,31871
32308,26309,31874
32180,26294,31671
32392,26292,31671
32512,26284,31812
32625,26270,31646
32626,26267,31703
32460,26251,31717
32445,26238,31901
32540,26229,31893
32480,26222,31795
32480,26215,31815
32564,26213,31703
32588,26202,31766
32552,26201,31807
32721,26187,31735
32652,26174,31665
32764,26165,31525
32972,26157,31435
32773,26151,31666
32536,26141,31684
32492,26135,31687
32604,26140,31669
32645,26129,31636
32612,26119,31607
32688,26110,31564
32698,26098,31445
32668,26101,31559
32620,26092,31701
32636,26091,31455
32592,26087,31420
32767,26079,31599
32908,26087,31597
32940,26085,31541
32972,26087,31567
32928,26081,31566
32728,26087,31533
32744,26084,31376
32776,26083,31391
32700,26084,31351
32662,26086,31437
32695,26087,31335
32728,26097,31335
32816,26101,31495
32809,26102,31573
32710,26111,31615
32658,26116,31595
32764,26109,31593
32804,26119,31537
32764,26118,31555
32736,26135,31525
32420,26137,31525
32414,26149,31547
32457,26159,31495
32356,26167,31319
32608,26174,31303
32599,26178,31223
32511,26183,31098
32441,26199,31231
32429,26202,31020
32448,26215,31325
32564,26221,31303
32464,26237,31235
32504,26257,31212
32471,26273,31231
32372,26279,31397
32229,26301,31325
32152,26311,31181
32176,26315,31234
32192,26326,31204
32432,26343,31141
32628,26351,31341
32744,26369,31251
32792,26383,31005
32632,26395,30814
32656,26407,30831
32697,26408,31156
32628,26413,31175
32759,26418,31151
32912,26422,31084
33126,26435,30953
33156,26445,31247
33256,26455,31152
33509,26457,30983
33824,26463,31015
34240,26471,31012
34812,26469,31015
35476,26469,31013
36140,26468,30857
36684,26465,30677
37156,26483,31068
37542,26478,31057
37727,26500,31045
37912,26499,30847
38119,26498,31033
38357,26495,31028
37857,26502,31023
36800,26503,30999
35720,26503,31007
34324,26511,31007
32821,26517,31004
30524,26534,30993
29061,26543,30983
28332,26549,30607
27966,26553,30660
28040,26553,30809
28316,26550,30895
28669,26551,30871
29312,26535,30905
30020,26543,31094
30821,26534,31079
31508,26535,31075
31905,26537,31035
32084,26539,31139
32319,26543,31124
32424,26530,31015
32432,26534,31048
32369,26526,31074
32240,26527,30996
32361,26527,31075
32413,26523,31113
32416,26525,31093
32228,26527,31108
32129,26529,31111
32223,26529,31095
32236,26524,30975
32426,26517,31037
32544,26504,31085
32472,26514,31021
32585,26503,30726
32454,26495,30852
32617,26503,30799
32756,26501,30865
32684,26503,30895
32800,26497,30759
32785,26495,30692
32864,26487,30873
32784,26479,30969
32558,26479,30941
32618,26470,30819
32520,26465,30758
32532,26466,30763
32580,26469,30885
32549,26463,30868
32536,26461,30895
32597,26451,30932
32660,26441,30905
32752,26434,30711
32792,26429,30773
32813,26415,30769
32893,26410,30583
32860,26410,30756
32861,26409,30756
32997,26409,30805
32880,26407,30743
32806,26402,30741
32660,26396,30781
32796,26380,30727
32797,26373,30697
32799,26367,30539
32836,26357,30500
32892,26359,30620
32880,26351,30629
32841,26341,30615
32892,26343,30588
33060,26333,30564
33188,26331,30444
33164,26311,30320
32992,26308,30048
33160,26309,30370
33388,26290,30308
33553,26284,30247
33636,26283,30428
33388,26279,30049
33369,26272,30285
33260,26267,30185
33060,26252,30375
33069,26239,30172
33214,26235,29907
33188,26227,30205
33325,26215,30117
33388,26213,30007
33481,26211,29967
33501,26203,30015
33600,26197,29943
33684,26189,29989
33734,26180,30025
33822,26164,30031
33937,26161,29896
33953,26145,30163
33885,26139,30057
33756,26143,29937
33845,26139,29772
33834,26135,30002
34012,26135,29983
33876,26133,29941
33724,26119,29959
33536,26119,29903
33396,26115,29725
33348,26106,29909
33548,26110,29715
33644,26108,29749
33524,26111,29861
33508,26105,29861
33252,26111,29909
33160,26102,29945
33268,26095,29927
33335,26095,29846
33114,26087,29723
33228,26087,29477
33156,26077,29515
33216,26085,29401
33112,26081,29686
33120,26085,29405
33096,26081,29701
32913,26085,29669
33013,26073,29655
33060,26068,29639
33149,26063,29581
33158,26063,29542
33017,26053,29457
33153,26053,29711
33269,26055,29725
33094,26051,29499
33020,26057,29583
32898,26047,29593
32748,26045,29596
32764,26046,29581
32608,26034,29589
32604,26034,29571
32592,26031,29457
32524,26028,29557
32580,26031,29503
32432,26027,29639
32396,26029,29564
32332,26023,29648
32632,26020,29573
32729,26009,29509
32532,26006,29487
32313,26007,29500
32210,26007,29605
31990,26009,29701
32076,26015,29671
32312,26011,29689
32343,26007,29721
32264,26001,29741
32406,26003,29605
32380,25999,29663
32244,25996,29527
32200,25995,29283
32008,25996,29631
32068,25998,29600
31884,26004,29535
32241,26005,29453
32476,26003,29471
32581,26005,29457
32496,26005,29551
32494,25998,29508
32476,26001,29644
32526,26004,29799
32572,26011,29605
32374,26021,29341
32468,26027,29655
32484,26030,29693
32367,26045,29684
32270,26047,29564
32226,26050,29637
32249,26059,29820
32176,26060,29735
32208,26069,29617
32408,26075,29439
32484,26084,29703
32421,26101,29695
32208,26113,29693
32348,26119,29525
32612,26135,29764
32633,26141,29759
32596,26147,29637
32592,26151,29500
32540,26164,29695
32564,26175,29711
32480,26183,29544
32472,26201,29641
32532,26213,29753
32596,26218,29351
32314,26221,29719
32257,26237,29700
32340,26239,29683
32292,26241,29684
32252,26259,29756
32384,26269,29385
32566,26277,29695
32654,26292,29725
32668,26300,29673
32680,26311,29565
32645,26314,29748
32412,26325,29845
32341,26329,29777
32317,26341,29667
32236,26345,29663
32249,26356,29452
32276,26365,29772
32284,26375,29747
32448,26391,29748
32468,26405,29756
32629,26407,29759
32796,26420,29661
32668,26422,29967
32644,26423,29801
32520,26439,29601
32556,26448,29837
32612,26465,29839
32576,26477,29677
32585,26491,29983
32449,26503,30004
32608,26505,29766
32673,26511,29890
32701,26529,29748
32500,26531,30022
32256,26546,29663
32670,26550,29959
32705,26571,29948
32525,26585,29799
32596,26605,29959
32544,26619,30092
32541,26627,30069
32693,26631,29940
32737,26647,29797
32624,26653,30036
32468,26663,30052
32436,26681,29998
32463,26695,30043
32500,26715,30117
32552,26727,30103
32620,26737,29772
32696,26757,30087
32500,26761,30105
32249,26777,30116
32092,26788,30133
32182,26799,30057
32404,26815,30254
32433,26833,30287
32569,26851,30303
32807,26857,30317
32868,26879,30340
32893,26893,30372
32720,26919,30368
32724,26917,30397
32756,26924,30247
32557,26935,30413
32481,26955,30592
32544,26969,30405
32628,26983,30484
32669,26997,30522
32584,27012,30476
32684,27027,30534
32614,27031,30679
32588,27045,30685
32742,27055,30695
32804,27063,30543
32900,27078,30545
32884,27090,30570
32837,27102,30573
32839,27125,30581
32924,27131,30317
32816,27147,30703
32612,27161,30700
32388,27172,30645
32316,27181,30799
32389,27189,30847
32565,27207,30672
32636,27223,30659
32615,27239,30484
32724,27255,30765
32692,27271,30783
32644,27279,30724
32613,27299,30775
32640,27311,30914
32481,27320,30727
32514,27334,30588
32516,27351,30441
32285,27383,30845
32178,27399,30820
32312,27425,30701
32500,27436,30687
32612,27453,31001
32804,27465,30807
32644,27477,30807
32692,27495,30767
32668,27501,30554
32784,27525,30927
32611,27541,30893
32493,27573,30763
32484,27596,30925
32529,27607,30934
32304,27637,30951
32328,27652,31051
32415,27675,31119
32604,27689,31070
32676,27703,31029
32517,27727,30983
32733,27751,30951
32956,27775,30983
32908,27801,30967
32640,27829,30821
32620,27847,30969
33001,27868,31044
33432,27887,31086
33604,27911,31055
33568,27927,31133
33852,27948,31127
34420,27971,31187
35252,27997,31227
36036,28021,31203
36815,28039,31052
37336,28071,31037
37940,28087,30833
37876,28106,31133
37772,28127,30989
38108,28145,31087
38292,28167,31268
38193,28194,31147
37516,28223,31046
36552,28247,30758
35360,28278,31097
33981,28309,31124
31825,28325,31085
29797,28351,31042
28424,28375,31079
27871,28401,30945
27869,28422,31239
28302,28440,31269
28560,28469,31164
29265,28487,31063
29960,28503,31153
30615,28516,31111
31061,28535,31310
31264,28543,31176
31516,28559,31009
31792,28573,31215
32153,28591,31047
32484,28615,31229
32552,28637,31327
32684,28655,31299
32633,28677,31201
32536,28695,31158
32596,28705,31069
32572,28727,31230
32757,28741,31206
32824,28759,31221
32852,28765,31205
32492,28789,31157
32400,28815,31335
32512,28833,31160
32606,28855,31178
32728,28867,31199
32838,28883,31081
32540,28901,31325
32648,28913,31215
32640,28927,31148
32432,28943,31055
32775,28964,31175
32730,28983,31137
32788,28999,31259
32764,29015,31071
32753,29033,31141
32909,29044,31141
32886,29059,30964
32700,29075,31227
32748,29087,31191
32684,29107,31081
32642,29119,30745
32640,29135,31079
32668,29158,31181
32724,29175,31137
32845,29183,30764
32889,29191,31028
33069,29207,30916
32958,29217,30901
33056,29231,31031
33053,29241,30935
32748,29271,30845
32924,29285,30967
33000,29303,30781
32864,29319,30590
32958,29331,30796
33096,29339,30711
33180,29356,30803
33188,29365,30405
33144,29373,30629
32985,29379,30553
32984,29395,30613
33116,29408,30670
33177,29437,30505
33116,29445,30481
32974,29447,30257
33065,29466,30471
33031,29471,30506
33189,29487,30379
33264,29487,30249
33444,29502,29929
33364,29515,30244
33592,29533,30212
33805,29541,30253
33756,29559,30055
33665,29573,29752
33537,29575,30085
33566,29581,29895
33640,29594,30076
33673,29597,29929
33892,29607,29933
34072,29623,29893
34052,29639,29703
34037,29647,29929
34044,29663,29957
33812,29675,29725
33676,29672,29772
33550,29687,29719
33472,29692,29565
33636,29700,29522
33844,29710,29733
33681,29724,29749
33776,29737,29577
33732,29753,29361
33600,29767,29565
33894,29771,29537
33804,29779,29375
33780,29789,29298
33701,29791,29460
33720,29798,29461
33708,29804,29221
33588,29819,29372
33520,29831,29355
33440,29844,29143
33242,29855,29421
33149,29863,29417
33089,29863,29335
33050,29853,29239
33262,29879,29018
33310,29885,29223
33384,29895,29173
33276,29909,29071
33224,29923,29133
33084,29919,29308
32901,29935,29093
32609,29949,28823
32504,29945,29127
32628,29951,29071
32728,29951,29051
32848,29959,29229
32885,29959,29189
32812,29975,29031
32756,29985,29101
32665,29999,29127
32588,30003,29119
32548,30012,28941
32468,30007,29223
32432,30023,28775
32439,30013,29113
32476,30022,29097
32494,30031,28949
32440,30037,29235
32336,30055,29023
32248,30061,29093
32127,30069,28954
32095,30077,29241
32317,30077,29021
32473,30083,28772
32520,30087,29111
32624,30087,29003
32392,30087,29147
32388,30103,29105
32516,30115,28789
32436,30121,29116
32292,30122,29030
32216,30129,29226
32092,30135,29026
32225,30132,29153
32505,30140,29135
32352,30143,29096
32218,30151,28977
32252,30159,29153
32160,30167,29262
32037,30175,29303
32352,30179,29219
32765,30183,29061
32844,30174,28973
32592,30183,28881
32417,30186,29215
32316,30191,29180
32288,30193,29255
32505,30198,29357
32665,30215,29306
32516,30223,29332
32454,30222,29257
32584,30236,29172
32366,30236,28935
32368,30231,29275
32324,30231,29285
32220,30231,29313
32388,30243,29317
32435,30241,29321
32472,30249,28988
32542,30270,29027
32520,30279,29333
32468,30279,29353
32357,30281,29356
32364,30287,29047
32438,30281,29173
32620,30286,29172
32728,30293,29319
32756,30303,29379
32780,30303,29375
32556,30319,29359
32440,30321,29335
32462,30323,29387
32605,30325,29150
32597,30324,29173
32700,30325,29375
32436,30327,29412
32432,30334,29380
32730,30343,29442
32788,30343,29343
32964,30357,29431
33157,30359,29377
32976,30365,29230
32705,30375,29487
32413,30367,29483
32344,30375,29481
32140,30372,29267
32604,30383,29567
32614,30387,29593
32640,30391,29582
32420,30401,29493
32248,30402,29735
32240,30419,29680
32352,30415,29679
32644,30415,29654
32615,30417,29538
32492,30421,29363
32414,30429,29311
32424,30431,29660
32424,30444,29685
32498,30447,29690
32601,30455,29703
32660,30461,29713
32516,30458,29709
32750,30460,29668
32749,30459,29719
32844,30459,29742
32807,30462,29785
32791,30471,29767
33045,30484,29701
32769,30495,29772
32532,30500,29760
32388,30505,29881
32552,30510,29983
32612,30501,30007
32574,30503,29925
32528,30503,30015
32447,30515,30029
32260,30519,29999
32420,30535,29991
32412,30525,30083
32561,30541,30068
32665,30547,29797
32520,30541,29972
32336,30539,29639
32356,30549,29797
32202,30559,29703
32213,30565,29922
32320,30575,29959
32304,30581,30061
32453,30588,30103
32660,30591,30027
32744,30599,30037
32793,30599,30111
32764,30592,30116
32642,30599,30073
32488,30597,30048
32557,30607,29983
32566,30615,29831
32792,30629,29958
32884,30639,30027
32897,30639,30069
32792,30652,30127
32621,30649,30086
32660,30651,30049
32420,30652,30036
32470,30647,29993
32436,30662,30071
32604,30683,30061
32485,30681,29884
32474,30684,29671
32532,30692,29691
32549,30703,30021
32486,30709,30017
32420,30711,30005
32332,30710,30003
32492,30715,29999
32545,30725,29988
32565,30727,29984
32440,30727,29983
32560,30745,29977
32212,30757,29977
32468,30759,29975
32504,30763,29967
32424,30764,29963
32372,30764,29959
32528,30765,29957
32466,30781,29857
32468,30776,29919
32555,30797,29999
32329,30801,30069
32392,30811,30078
32449,30808,30087
32438,30803,30031
32404,30818,30005
32428,30814,29980
32356,30823,30071
32380,30833,30087
32624,30838,30087
32632,30851,29990
32488,30855,29863
32653,30853,29823
32821,30877,29746
32841,30877,29894
32676,30887,29889
32601,30879,29879
32668,30892,29624
32813,30887,29639
33031,30891,29677
33143,30900,29659
33216,30921,29755
33548,30924,29815
34140,30927,29780
34812,30939,29940
35360,30933,30071
35977,30935,30121
36296,30941,30143
36896,30939,30139
37017,30950,30129
37048,30971,30087
37336,30971,30133
37580,30983,30140
37549,30983,30119
37445,30997,30037
36809,31004,30007
35652,31011,29988
34480,31017,29915
33080,31035,30010
30714,31055,29996
29088,31072,29959
28068,31095,29984
27624,31123,30005
27704,31099,29979
28193,31105,30004
28876,31103,29995
29532,31105,30007
30296,31101,29988
30769,31111,30019
31352,31116,29985
31764,31125,29991
31848,31140,29833
32009,31149,30108
32148,31145,29954
32183,31159,29946
32388,31159,29777
32396,31170,29849
32399,31167,29687
32364,31179,29996
32441,31188,29995
32626,31195,29651
32804,31199,29677
32837,31219,29989
32756,31220,29959
32909,31231,29957
32892,31237,29765
32592,31235,29927
32208,31247,29933
32353,31263,29919
32416,31264,29900
32632,31273,29852
32639,31282,29824
32700,31297,29681
32743,31301,29836
32760,31310,29969
32637,31303,29979
32715,31323,29799
32853,31327,29725
32716,31337,29684
32764,31349,29810
32520,31359,29789
32596,31367,29797
32864,31379,29812
32861,31383,29748
32730,31399,29653
32896,31388,29793
32904,31401,29887
32958,31407,29725
32837,31407,29734
33027,31417,29637
33225,31433,29688
33476,31441,29703
33161,31455,29540
32788,31463,29716
32536,31463,29725
32657,31475,29743
32916,31476,29647
33287,31479,29407
33088,31483,29543
33128,31492,29476
33197,31503,29351
33245,31523,29439
33324,31541,29371
33358,31545,29361
33277,31553,29405
33092,31550,29479
33220,31555,29453
33213,31563,29511
33460,31571,29520
33497,31569,29471
33405,31591,29396
33645,31603,29292
33693,31607,29311
33433,31622,29231
33396,31627,29212
33381,31629,29063
33500,31637,28925
33612,31639,29250
33868,31641,29031
34033,31659,29279
33892,31670,29293
33728,31687,29159
33748,31687,29120
33837,31700,29148
33756,31705,29045
33908,31703,29021
33980,31711,29001
34050,31711,28998
34006,31727,29005
34036,31735,28954
34080,31746,29007
33838,31751,29001
33824,31773,28870
33704,31779,28915
33689,31783,28895
33776,31791,29047
33836,31790,28906
33992,31796,28774
33960,31811,28879
33860,31810,28854
33825,31829,28807
33908,31844,28803
33916,31839,28797
33924,31860,28718
33500,31869,28674
33140,31865,28562
33481,31871,28509
33416,31874,28623
33570,31895,28665
33572,31901,28435
33433,31911,28589
33388,31911,28621
33224,31943,28543
33224,31943,28415
33090,31943,28466
33153,31957,28463
33160,31967,28388
32878,31959,28237
32801,31965,28325
32829,31975,28393
32950,31999,28442
33064,32005,28454
33005,32015,28376
32873,32007,28212
32737,32031,28081
32816,32039,27903
32762,32047,27973
32716,32042,27885
32772,32053,28013
32881,32052,27925
32644,32079,28044
32524,32095,27909
32297,32103,27803
32319,32109,28107
32424,32110,28081
32724,32111,27908
32836,32119,27911
32774,32119,27972
32332,32141,28115
32144,32151,28155
32236,32159,28065
32452,32149,27920
32593,32179,27655
32658,32182,27981
32593,32191,27807
32556,32198,27933
32245,32201,27964
32320,32201,28070
32588,32212,27877
32596,32215,27852
32628,32228,27831
32576,32245,27815
32548,32257,27831
32612,32263,27975
32524,32263,27969
32388,32263,28028
32356,32273,28031
32264,32276,28007
32225,32289,27960
32404,32294,27895
32542,32315,27804
32717,32317,27789
32694,32333,27801
32493,32333,27783
32606,32343,27749
32586,32343,27791
32500,32327,27795
32448,32351,27745
32397,32365,27796
32384,32373,27843
32600,32383,27845
32716,32383,27783
32648,32391,27751
32832,32387,27861
32717,32407,27903
32540,32415,27879
32406,32415,27791
32494,32411,27979
32576,32429,27877
32764,32447,27821
32696,32451,27903
32724,32443,27905
32660,32463,27923
32752,32469,27921
32820,32478,27925
32844,32479,27956
32544,32473,27943
32516,32485,27835
32424,32500,28110
32648,32495,28039
32788,32503,27903
32733,32513,27985
32476,32533,28009
32580,32535,27943
32740,32519,27881
32652,32541,27866
32316,32549,28073
32418,32553,28153
32449,32544,27975
32516,32564,27996
32604,32570,27788
32628,32591,28119
32572,32595,28101
32544,32597,28085
32612,32601,28204
32564,32601,28189
32405,32597,28135
32513,32607,28218
32756,32615,28224
32981,32615,28199
33032,32628,28436
32972,32637,28357
33033,32639,28334
33144,32647,28351
33191,32657,28167
33008,32653,28417
32805,32655,28423
32696,32663,28412
32757,32665,28580
32948,32671,28627
33063,32679,28663
33108,32670,28594
32928,32703,28502
32736,32703,28465
32538,32708,28413
32869,32711,28677
32944,32711,28695
32959,32701,28748
32941,32717,28781
32985,32711,28739
32945,32722,28655
32822,32734,28783
32623,32751,28711
32640,32751,28762
32629,32750,28799
32592,32751,28921
32661,32755,29119
32668,32755,28975
32624,32743,28919
32560,32773,29029
32781,32767,29051
33036,32775,28991
33072,32783,29095
33060,32775,29280
32910,32807,29298
32952,32799,29252
32442,32805,29285
32385,32806,29191
32660,32807,29222
32849,32801,29153
32916,32821,29305
33048,32822,29461
33124,32830,29258
33127,32828,29122
33117,32832,29381
33124,32839,29266
33069,32840,29565
32976,32844,29543
32954,32841,29501
32832,32839,29412
32638,32863,29285
32629,32860,29359
32648,32873,29319
32940,32867,29232
32951,32871,29583
32917,32871,29603
32912,32881,29607
32799,32877,29652
32660,32879,29677
32732,32885,29685
32716,32879,29677
32696,32901,29735
32781,32901,29736
32964,32911,29771
32892,32903,29764
32632,32909,29655
32524,32901,29765
32421,32905,29871
32309,32916,29823
32208,32924,29758
32350,32927,30015
32564,32929,29871
32634,32935,29953
32725,32920,29957
32904,32940,29858
32812,32945,29879
32564,32941,29819
32588,32941,29975
32692,32927,30019
32614,32948,30049
32356,32956,30036
32325,32963,30049
32378,32966,30215
32456,32967,30212
32392,32964,30175
32714,32972,30148
32961,32959,29860
32712,32965,30247
32596,32964,30212
32677,32973,30311
32900,32975,30351
32940,32975,30252
32904,32989,30252
32913,32981,30303
32788,32988,30341
33073,32983,30397
33388,32980,30460
34000,32987,30455
34932,32981,30500
35656,32987,30585
36428,32979,30471
36796,32991,30393
37232,32999,30395
37296,32999,30631
37312,33007,30645
37600,32999,30519
37741,32995,30771
37644,32997,30711
37442,32991,30727
36695,32999,30823
35780,33017,30793
34474,33019,30825
32496,33031,30883
30268,33037,30759
28740,33057,30782
27908,33055,30903
27684,33031,31028
27968,33057,31019
28269,33059,30900
28936,33047,30617
29424,33056,31021
29810,33059,31059
30569,33053,31079
31185,33052,31111
31352,33051,31135
31728,33053,30788
31868,33053,31199
31696,33047,31227
31924,33051,31261
32064,33047,31273
32320,33061,31197
32268,33039,31279
32463,33065,31383
32484,33065,31273
32425,33079,31009
32396,33063,31399
32346,33053,31238
32286,33049,31332
32380,33063,31525
32502,33065,31463
32697,33065,31549
32526,33069,31555
32496,33076,31555
32404,33085,31408
32308,33091,31433
32141,33079,31437
32404,33076,31477
32604,33065,31461
32816,33066,31356
32612,33087,31538
32632,33083,31589
32652,33083,31588
32769,33087,31623
32644,33092,31635
32641,33083,31631
32600,33079,31634
32527,33087,31615
32692,33087,31517
32746,33085,31668
32656,33087,31837
32676,33090,31815
32680,33095,31868
32639,33097,31878
32552,33095,31807
32721,33100,31735
32848,33097,31687
32764,33095,31763
32673,33087,31791
32708,33093,31724
32748,33082,31599
32749,33103,31903
33156,33111,31804
33221,33111,31819
33028,33103,31767
33036,33101,31747
33065,33095,31743
32906,33087,31706
32641,33099,31733
32873,33092,31709
33085,33093,31515
33089,33093,31612
32989,33111,31661
33025,33104,31372
32950,33111,31431
32973,33105,31382
33040,33105,31517
33253,33111,31655
33386,33098,31751
33312,33103,31709
33088,33105,31660
33234,33115,31630
33348,33117,31729
33638,33123,31824
33804,33115,31654
33838,33115,31714
33742,33111,31766
33652,33103,31781
33520,33109,31797
33258,33111,31775
33492,33111,31751
33520,33113,31669
33700,33125,31676
33880,33108,31529
33912,33100,31597
33868,33119,31604
33918,33108,31435
33928,33101,31719
33748,33110,31663
33754,33104,31601
33557,33100,31580
33496,33109,31508
33793,33119,31527
33996,33117,31483
33856,33133,31167
33852,33113,31527
33722,33119,31502
33559,33111,31286
33550,33102,31283
33460,33110,31131
33377,33103,31475
33312,33117,31501
33188,33119,31443
33186,33125,31414
33214,33117,31604
33208,33124,31517
33004,33111,31485
32885,33108,31477
32616,33101,31395
32600,33107,31367
32812,33109,31239
32976,33109,31432
32908,33103,31421
33006,33109,31337
33022,33113,31480
32896,33111,31513
32807,33105,31381
32429,33101,31252
32309,33103,31009
32364,33097,31397
32544,33103,31221
32605,33100,31521
32517,33105,31363
32397,33112,31327
32352,33095,31149
32408,33103,31391
32357,33103,31407
32284,33089,31340
32236,33093,31363
32240,33095,31388
32073,33095,31391
31965,33099,31177
32008,33095,31025
32184,33111,31391
32080,33111,31415
31940,33099,31391
31848,33093,31383
31952,33084,31106
32124,33085,31366
32104,33079,31373
32165,33076,31367
32237,33085,31461
32436,33087,31468
32556,33087,31437
32392,33078,31506
32280,33079,31487
32072,33085,31492
32140,33093,31441
32108,33083,31380
32180,33071,31379
32196,33071,31367
32177,33076,31388
32188,33071,31375
32261,33084,31258
32256,33087,31309
32240,33085,31393
32137,33069,31372
32100,33075,31367
32090,33061,31388
32056,33063,31406
31761,33065,31383
31632,33063,31292
32020,33055,31435
32324,33063,31467
32487,33063,31452
32401,33057,31449
32216,33067,31417
32205,33052,31429
32012,33053,31359
32140,33051,31611
32000,33047,31525
31908,33045,31300
32168,33055,31489
32008,33055,31412
32234,33057,31623
32220,33061,31421
32310,33046,31397
32260,33031,31292
31989,33021,31495
31932,33043,31366
31916,33031,31628
31977,33031,31575
31937,33036,31271
31660,33047,31115
31792,33031,31525
32212,33039,31491
32210,33028,31358
32037,33021,31527
32164,33027,31669
32278,33015,31604
32245,33011,31541
32157,32999,31418
32200,33023,31478
32311,33025,31197
32525,33007,31588
32484,33021,31567
32284,33004,31458
31812,33007,31637
31510,33007,31761
31764,33007,31751
31976,33005,31673
32040,33003,31511
31968,32981,31304
32204,33005,31700
32268,33005,31695
32273,33001,31612
32244,32999,31868
32094,32996,31878
32029,32991,31887
31975,32983,31887
31952,32989,31915
32044,32993,31911
32036,32989,31869
32320,32983,31909
32409,32980,31951
32296,32986,31879
32388,32973,31764
32450,32970,31494
32141,32967,31844
31884,32973,31871
32087,32975,31733
32064,32957,31991
32288,32975,31847
32240,32989,31644
31968,32967,31855
32156,32979,31873
32220,32963,31751
32532,32957,31975
32484,32951,32019
32144,32951,31895
31934,32950,31508
32157,32954,31891
32304,32932,31885
32340,32951,31876
32176,32957,31709
32204,32943,32021
32093,32933,32021
32097,32935,31981
32220,32937,31821
32292,32933,31511
32108,32927,31887
32372,32922,31874
32424,32925,31853
32312,32925,31725
32208,32935,31961
32228,32927,31943
32302,32910,31876
32304,32912,31759
32348,32909,31813
32237,32908,31829
32188,32903,31812
32276,32903,31815
32389,32903,31807
32428,32903,31613
32439,32903,31654
32560,32919,31639
32483,32895,31897
32567,32876,31869
32580,32887,31791
32584,32879,31810
32466,32879,31836
32438,32886,31677
32324,32879,31569
32096,32891,31626
31957,32887,31636
32040,32877,31495
32483,32867,31412
32534,32858,31367
32621,32863,31389
32518,32860,31431
32116,32865,31487
32058,32852,31437
32029,32865,31397
32174,32871,31389
32252,32852,31367
32441,32845,31311
32388,32845,31220
32208,32837,31092
32132,32837,31253
32024,32839,31157
32124,32831,31109
32184,32823,31083
32280,32831,31099
32204,32829,31052
32060,32807,31015
32340,32823,31180
32318,32813,31137
32400,32811,31097
32332,32807,31063
32188,32805,30869
32191,32797,30707
32169,32797,30788
32180,32775,30798
32311,32799,30633
32288,32775,30767
32464,32799,30740
32492,32791,30619
32364,32785,30575
32510,32756,30821
32596,32757,30761
32428,32769,30675
32440,32771,30714
32519,32769,30674
32560,32768,30548
32721,32771,30543
32970,32762,30508
33153,32743,30431
33463,32743,30215
33887,32731,30479
34332,32725,30479
34924,32725,30404
35425,32727,30392
36168,32725,30269
36728,32717,30525
37144,32719,30525
37326,32711,30509
37516,32710,30369
37820,32699,30343
37776,32701,30255
37908,32689,29951
37580,32693,30303
36884,32685,30297
35873,32695,30271
34430,32701,30252
32413,32707,30183
30309,32715,30215
29196,32722,30287
28424,32711,30321
28250,32705,30351
28372,32703,30300
28717,32693,30142
29190,32692,29890
29617,32695,30187
30376,32677,30197
31034,32671,30183
31560,32663,30197
31916,32663,30155
32102,32663,30165
32336,32647,30158
32468,32639,30150
32432,32639,30153
32512,32624,30151
32512,32639,30136
32445,32647,30123
32480,32636,29748
32236,32630,29869
32252,32628,29719
32201,32619,30063
32485,32609,30052
32801,32602,30031
32951,32599,29978
32889,32599,29951
32654,32605,29945
32496,32595,29918
32542,32597,29883
32765,32591,29754
33112,32591,29862
33176,32589,29994
33048,32569,29941
32950,32564,29953
33001,32563,29903
32952,32567,29931
32908,32567,29791
32868,32556,29689
32916,32559,29452
32942,32555,29743
33028,32548,29744
32812,32535,29703
32712,32535,29546
32679,32527,29555
32804,32511,29831
32881,32519,29685
33000,32517,29550
33084,32519,29313
33008,32517,29648
32910,32519,29643
32884,32511,29609
32788,32501,29567
32872,32492,29405
32960,32471,29561
32941,32489,29527
32942,32480,29414
32952,32477,29527
32966,32484,29613
33036,32477,29579
33185,32479,29515
33335,32463,29478
33357,32457,29407
33276,32457,29289
33193,32455,29255
33285,32445,29157
33284,32449,28935
33344,32450,29250
33400,32441,29246
33520,32443,29213
33598,32439,29133
33717,32426,29051
33652,32423,29099
33492,32412,29132
33368,32407,29127
33404,32399,29097
33552,32412,29077
33584,32404,29055
33548,32407,28935
33636,32396,29021
33744,32386,29037
33830,32383,29027
33825,32383,28996
33736,32375,28924
33700,32359,28793
33964,32357,28895
34084,32373,28948
34145,32365,29051
34144,32359,28827
34285,32359,28786
34336,32348,28780
34238,32327,28705
33962,32334,28799
33756,32333,28802
33726,32332,28772
33742,32321,28741
33826,32315,28677
34081,32313,28687
34012,32306,28813
34064,32311,28687
34010,32311,28447
33944,32300,28551
33892,32295,28523
33568,32287,28693
33444,32283,28702
33464,32271,28511
33492,32276,28445
33588,32279,28397
33632,32275,28247
33708,32263,28487
33671,32263,28482
33825,32258,28501
33809,32247,28493
33604,32235,28467
33492,32233,28327
33556,32229,28583
33548,32225,28413
33600,32229,28316
33461,32225,28249
33448,32229,28377
33420,32221,28217
33380,32207,28537
33457,32204,28567
33548,32195,28602
33584,32172,28605
33651,32190,28605
33600,32191,28527
33520,32191,28545
33511,32193,28604
33452,32183,28969
33116,32180,28998
32910,32167,29063
32608,32165,29055
32526,32157,28976
32588,32143,28964
32656,32143,28817
32764,32141,28909
32849,32135,29268
32848,32133,29343
32806,32123,29431
32780,32125,29502
32865,32123,29580
32848,32107,29628
32833,32103,29741
32840,32087,29818
32788,32101,29894
32774,32103,29996
32782,32098,30106
32703,32095,30156
32640,32093,30127
32641,32084,30343
32600,32069,30471
32420,32055,30701
32334,32067,30831
32340,32055,30829
32420,32055,30711
32380,32047,31055
32686,32044,31197
32840,32045,31303
32736,32039,31447
32541,32038,31400
32360,32027,31684
32388,32021,31831
32369,32015,31964
32444,32007,32149
32440,32005,32292
32448,32000,32435
32632,32006,32519
32423,31999,32651
32445,31993,32784
32292,31983,33097
32220,31991,33267
32144,31983,33383
32172,31967,33499
32116,31965,33660
32013,31960,33809
32125,31953,33885
32260,31956,33860
32364,31959,33831
32520,31947,33971
32656,31949,34303
32628,31941,34661
32352,31929,34807
32166,31925,35047
31969,31918,35124
31905,31915,35295
31884,31911,35389
32045,31905,35580
32381,31901,35748
32637,31903,35909
32628,31893,36026
32584,31887,36212
32556,31879,36359
32425,31879,36436
32212,31871,36525
32176,31863,36699
32108,31863,36871
32022,31865,37161
32032,31855,37349
32164,31855,37516
32244,31853,37621
32153,31847,37759
32081,31836,37855
31984,31827,38081
31777,31825,38189
31939,31817,38335
32052,31823,38389
32044,31821,38207
32096,31818,38649
31944,31813,38307
31660,31808,38708
31472,31809,39151
31586,31789,39268
31862,31783,39311
32056,31783,39576
32140,31774,39788
32373,31764,39979
32556,31764,40159
32506,31767,40319
32280,31766,40540
32052,31761,40663
32048,31751,40669
32110,31751,40621
32129,31730,40949
32185,31727,41142
32224,31724,41223
32192,31725,41567
32104,31733,41620
31992,31724,41709
31708,31730,41883
31456,31717,42081
31457,31711,42245
31631,31699,42393
31841,31689,42557
32037,31693,42715
32020,31684,42860
32006,31679,43015
32020,31680,43139
32033,31681,43143
32029,31677,43439
31914,31663,43655
31865,31660,43783
31879,31652,43879
31848,31647,44011
31820,31639,44143
31833,31631,44039
32088,31630,44497
32204,31631,44551
32128,31633,44629
32086,31623,44877
32148,31623,45023
32056,31613,45157
31712,31605,45281
31599,31598,45431
31734,31596,45511
31916,31588,45596
32026,31585,45525
32242,31581,45980
32304,31590,46057
32446,31578,46081
32460,31573,46279
32356,31556,46349
32292,31558,46439
32156,31549,46580
32090,31543,46779
32249,31545,46935
32341,31533,46933
32116,31542,46803
32077,31541,47239
31936,31551,47354
31712,31529,47548
31592,31523,47655
31372,31521,47735
31197,31509,47764
31228,31487,47980
31253,31503,48113
31391,31495,48167
31452,31495,47788
31568,31495,48469
31672,31495,48583
31790,31481,48647
31901,31463,48767
31876,31465,48948
31773,31457,49076
31606,31452,49199
31481,31451,49311
31461,31447,49431
31540,31449,49504
31742,31453,49207
31972,31447,49719
32093,31443,49887
31853,31431,49869
31757,31420,50036
31878,31417,50213
31908,31405,50333
31841,31399,50383
31996,31404,50415
32085,31399,50463
32112,31397,50591
32368,31385,50687
32772,31374,50182
33304,31383,50932
34154,31367,51029
34944,31357,51207
35789,31337,51239
36612,31337,51361
37184,31334,51463
37913,31329,51591
38253,31332,51631
38625,31327,51119
39094,31321,51847
39428,31305,51885
39468,31303,51877
38412,31301,52063
37069,31300,52148
35708,31305,52119
33994,31311,52247
32120,31319,52359
29880,31335,52327
28278,31333,52455
27348,31333,52591
26925,31324,52615
26912,31314,52615
27152,31303,52613
27500,31295,52757
28028,31283,52839
28652,31285,52759
29392,31278,52935
29660,31279,52936
30065,31270,52951
30308,31269,52692
30516,31252,53025
30692,31247,53111
30800,31233,53076
30893,31228,53175
30954,31231,53204
31056,31223,53181
31189,31220,53151
31276,31229,53077
31380,31217,53225
31480,31212,53213
31776,31193,53143
31863,31193,53172
31800,31186,53108
31888,31183,53044
31756,31175,52987
31800,31177,52897
31886,31178,52999
32033,31175,52860
32004,31175,52767
31960,31163,52837
31948,31157,52631
31828,31153,52599
31718,31140,52607
31797,31133,52567
31972,31132,52391
32119,31129,52463
32184,31132,52324
32124,31132,52231
32152,31123,52268
32145,31116,52167
32174,31099,52103
32310,31101,52031
32349,31093,51895
32236,31083,51253
32157,31079,51709
32220,31085,51655
32345,31079,51679
32484,31077,51527
32559,31057,51364
32728,31075,51324
32712,31059,51187
32676,31055,51159
32600,31045,51015
32596,31037,50991
32640,31046,50911
32668,31039,50788
32673,31033,50657
32809,31030,50533
32945,31026,50405
32944,31012,50105
32885,31015,50183
32836,31007,50069
32908,30983,49997
32992,30997,49881
33071,30993,49583
33068,30993,48983
32972,30980,49519
33080,30993,49415
33156,30988,49292
33415,30976,49105
33496,30971,48929
33364,30959,48877
33329,30957,48813
33241,30959,48714
33256,30953,48612
33196,30949,48503
33385,30951,48333
33637,30945,48205
33877,30941,48121
34044,30935,48009
34129,30927,47917
34036,30913,47718
33975,30911,47651
33988,30903,47607
34072,30903,47495
34244,30903,47383
34224,30910,47199
34261,30903,47087
34120,30893,46965
33964,30899,46529
33892,30887,46749
33860,30877,46756
33892,30871,46629
33924,30867,46511
34077,30871,46415
34293,30866,46279
34404,30855,46119
34452,30853,46087
34440,30855,46023
34304,30852,45812
34045,30842,45293
34025,30829,45685
33829,30831,45644
33688,30823,45537
33676,30820,45445
33711,30820,45316
33704,30827,45209
33617,30823,45023
33472,30819,44973
33400,30807,44886
33289,30809,44797
33205,30804,44727
33160,30793,44575
33134,30781,44471
33016,30780,44423
32824,30781,44353
32792,30783,44255
32904,30777,44127
32924,30775,43733
32866,30773,43861
32754,30772,43852
32552,30747,43797
32464,30751,43739
32460,30748,43645
32536,30743,43559
32596,30729,43347
32708,30741,43311
32781,30735,43359
32749,30735,43252
32652,30727,43185
32420,30727,43111
32224,30717,42951
32097,30716,42759
31924,30715,42503
31905,30707,42650
32026,30703,42538
32100,30703,42564
32122,30701,42503
32164,30695,42428
32216,30695,42289
32141,30682,42295
32012,30687,42311
31974,30675,42335
32021,30655,42299
32108,30663,42079
32348,30665,41415
32464,30655,41940
32492,30653,41914
32460,30661,41821
32228,30655,41711
32012,30650,41858
31973,30637,41036
31934,30635,41631
32048,30631,41415
32180,30625,41575
32138,30625,41512
32212,30631,40871
32248,30626,41303
32303,30617,41389
32309,30610,41165
32316,30612,41137
32285,30613,41047
32160,30599,41087
32167,30575,41033
32236,30585,40839
32252,30587,40783
32512,30585,40823
32640,30574,40855
32649,30577,40654
32628,30577,40575
32648,30572,40405
32648,30567,40621
32584,30557,40213
32492,30551,40317
32486,30546,40231
32484,30546,40295
32436,30549,40169
32576,30543,39471
32716,30539,39967
32805,30535,39943
32905,30529,39993
32929,30519,39815
32980,30516,39715
32917,30508,39593
32780,30507,39775
32768,30503,39501
32806,30505,39487
32796,30503,39295
32700,30508,39503
32668,30505,39393
32704,30493,39135
32748,30481,39071
32799,30471,39261
32788,30471,39215
32740,30465,39005
32724,30468,38915
32797,30460,38897
32919,30471,38919
32972,30469,38767
32924,30463,38741
32844,30451,38597
32748,30452,38780
32780,30433,38573
32838,30437,38423
32912,30431,38471
32968,30423,38310
33068,30435,38519
33096,30431,38290
33064,30430,38263
32996,30421,38041
32877,30417,38233
32836,30413,38101
32721,30403,38039
32648,30401,37966
32609,30397,37929
32700,30395,37729
32774,30395,37941
33052,30391,37308
33243,30397,37717
33196,30388,37601
33061,30375,37727
32974,30373,37679
33009,30357,37470
33049,30357,36983
33049,30348,37357
33098,30353,37287
33278,30359,37095
33196,30359,37341
33192,30359,37151
33145,30343,36703
33180,30351,37007
33088,30335,36975
33028,30335,36871
33004,30319,36735
33020,30317,36956
32972,30319,36780
32932,30313,36500
33000,30317,36667
33162,30320,36597
33213,30319,36539
33161,30303,36645
33305,30293,36429
33313,30292,36143
33288,30289,36343
33301,30283,36276
33160,30279,36370
33110,30287,36308
33084,30276,35911
32976,30277,36135
32965,30278,36031
32929,30279,36013
32876,30269,36103
32916,30259,35525
32968,30250,35911
33004,30244,35893
33020,30255,35695
32952,30255,35881
32764,30255,35829
32600,30251,35457
32492,30251,35295
32408,30241,35666
32422,30239,35557
32569,30226,35463
32628,30215,35648
32552,30215,35607
32484,30215,35335
32510,30215,35404
32661,30213,35414
32748,30215,35237
32780,30210,35271
32736,30201,35415
32609,30197,35363
32556,30183,35183
32600,30183,35204
32579,30176,35159
32617,30180,35119
32708,30180,35242
32700,30180,35207
32608,30181,35095
32592,30175,35087
32800,30169,34959
32877,30159,34823
33092,30149,34620
33736,30149,34871
34416,30139,34880
35092,30132,34789
35941,30135,34690
36916,30125,34890
37606,30124,34804
38125,30124,34361
38392,30119,34727
38584,30115,34665
38976,30105,34501
39412,30087,34695
39464,30083,34733
38848,30099,34727
37732,30105,34613
36524,30104,34076
35068,30111,34385
33233,30116,34604
30768,30111,34452
28904,30127,34439
27889,30119,34289
27477,30095,34511
27573,30116,34298
27988,30119,34343
28512,30107,34285
29224,30098,34165
29913,30094,34283
30574,30087,34369
31121,30081,34155
31585,30066,34236
31816,30061,34043
32005,30062,34009
32204,30051,34311
32257,30055,34117
32352,30051,33927
32512,30049,34093
32464,30053,34107
32383,30044,34028
32224,30037,33914
32204,30029,34137
32168,30031,34031
32035,30022,33716
32074,30017,33519
32201,30023,33939
32444,30020,33799
32670,30019,33746
32677,30019,33913
32757,30015,33825
32785,30014,33677
32732,29999,33751
32692,29993,33735
32740,29989,33615
32714,29988,33846
32692,29981,33517
32774,29988,33692
32847,29982,33668
32824,29983,33617
32820,29980,33543
32812,29979,33655
33061,29967,33559
33040,29957,33473
32942,29954,33703
32830,29951,33532
32841,29949,33592
32892,29953,33411
32972,29959,33378
32984,29959,33669
32916,29949,33483
32964,29941,33363
33020,29940,33443
33054,29939,33412
33129,29921,33231
33260,29925,33428
33228,29927,33357
33152,29925,33217
33238,29927,32833
33412,29927,33219
33400,29927,33181
33381,29917,32964
33412,29911,33079
33393,29903,33117
33292,29897,32755
33224,29893,32677
33336,29901,32621
33445,29899,32983
33460,29901,32919
33450,29901,32927
33532,29897,32884
33440,29887,32857
33346,29883,32848
33312,29879,32855
33313,29876,32756
33390,29868,32854
33423,29867,32595
33472,29867,32487
33572,29867,32791
33565,29867,32775
33560,29867,32703
33593,29852,32620
33654,29859,32565
33740,29845,32838
33740,29847,32647
33788,29837,32660
33886,29835,32665
33800,29843,32570
33820,29837,32595
33892,29839,32748
33924,29843,32541
33912,29830,32603
34024,29823,32615
34068,29820,32591
34075,29817,32527
34088,29813,32471
34184,29815,32391
34156,29815,32566
34013,29807,32564
33876,29815,32187
33856,29819,32495
33858,29810,32515
33852,29799,32509
33757,29799,32480
33708,29795,32457
33624,29789,32303
33703,29793,32309
33724,29790,32311
33780,29795,32588
33632,29791,32413
33479,29783,32591
33284,29784,32468
33181,29771,32375
33200,29779,32433
33192,29775,32447
33071,29756,32407
33133,29759,32325
33252,29765,32383
33237,29769,32559
33116,29763,32519
33044,29767,32353
32838,29756,32053
32694,29755,32401
32650,29732,32396
32536,29743,32270
32540,29739,32513
32588,29742,32319
32573,29743,32375
32414,29741,32423
32442,29739,32351
32424,29735,32544
32376,29743,32385
32312,29727,32131
32216,29726,32420
32232,29717,32407
32237,29715,32260
32244,29719,32546
32224,29719,32437
32204,29719,32363
32232,29717,32017
32196,29716,32436
32072,29703,32262
31980,29703,32572
31977,29684,32481
31944,29693,32364
31913,29687,32409
31936,29693,32447
32029,29693,32321
32103,29693,32551
32125,29693,32501
32072,29689,32154
32246,29685,32455
32284,29677,32463
32388,29663,32497
32540,29663,32501
32609,29661,32501
32705,29660,32327
32752,29662,32502
32820,29661,32645
32848,29663,32487
32665,29667,32167
32430,29647,32534
32377,29655,32392
32372,29642,32653
32373,29643,32527
32410,29639,32342
32516,29645,32159
32584,29643,32588
32741,29642,32391
32736,29643,32723
32844,29638,32482
32844,29630,32583
32737,29629,32575
32665,29627,32487
32600,29623,32523
32568,29620,32404
32712,29613,32671
32722,29614,32503
32734,29623,32307
32781,29621,32538
32880,29613,32559
32788,29615,32528
32692,29613,32509
32740,29599,32487
32720,29596,32474
32612,29591,32525
32589,29597,32487
32781,29593,32485
32928,29587,32472
32927,29589,32423
32885,29589,32445
32917,29586,32514
32888,29583,32629
32824,29567,32620
32796,29573,32455
32816,29565,32309
32830,29573,32159
32906,29569,32519
33117,29568,32493
33189,29575,32373
33177,29572,32444
33188,29573,32629
33089,29567,32647
33025,29557,32665
32973,29551,32625
32988,29543,32353
32936,29555,32513
32940,29551,32538
32774,29557,32537
32721,29554,32439
32782,29553,32676
32804,29543,32697
32876,29543,32691
32869,29527,32708
32845,29521,32519
32772,29525,32302
32848,29525,32608
32864,29533,32619
32900,29527,32623
33001,29525,32647
33136,29533,32612
33144,29517,32469
33058,29518,32740
32942,29504,32775
32828,29510,32627
32780,29505,32276
32845,29497,32657
32938,29510,32705
32876,29509,32717
32805,29515,32645
32806,29513,32711
32812,29504,32797
32828,29501,32631
32668,29493,32715
32574,29487,32673
32725,29484,32841
32873,29487,32677
32976,29487,32727
33016,29476,32741
32840,29491,32605
32864,29487,32887
32808,29479,32739
32756,29481,32694
32773,29471,32511
32772,29475,32775
32741,29463,32903
32756,29463,32805
32660,29468,32475
32681,29469,32825
32736,29469,32758
32754,29477,32931
32794,29463,32741
32741,29462,32850
32628,29458,32867
32476,29447,32718
32412,29447,32925
32425,29447,32987
32492,29440,32901
32588,29457,32733
32576,29457,32862
32608,29447,32815
32661,29445,32839
32576,29439,32972
32591,29437,32844
32580,29433,32877
32552,29429,32837
32632,29429,32999
32708,29428,32929
32764,29431,32652
32724,29435,32515
32780,29431,32903
32745,29427,32903
32697,29409,32757
32576,29413,32980
32452,29415,32957
32412,29407,32841
32588,29411,32823
32784,29415,32575
33022,29409,32887
33210,29413,32717
33574,29411,32884
34044,29407,32959
34676,29393,32710
35457,29381,32865
36268,29381,32818
36985,29375,32905
37540,29375,32887
38028,29381,32664
38205,29377,32839
38320,29385,32823
38589,29385,32743
38892,29380,32711
38636,29369,32693
37824,29375,32660
36812,29377,32786
35741,29375,32870
34361,29383,32476
32255,29391,32759
30004,29403,32703
28654,29414,32689
28014,29415,32877
27874,29401,32719
28038,29389,32526
28544,29391,32747
29135,29383,32655
29840,29375,32605
30505,29374,32559
31076,29375,32827
31504,29372,32845
31800,29372,32329
32008,29371,32759
32229,29361,32703
32318,29351,32679
32376,29350,32630
32497,29351,32608
32592,29341,32615
32576,29341,32900
32592,29351,32829
32565,29349,32645
32548,29349,32742
32457,29341,32661
32444,29349,32721
32420,29340,32775
32425,29335,32607
32528,29339,32351
32653,29327,32599
32708,29335,32631
32724,29339,32581
32900,29335,32469
33026,29335,32706
33039,29329,32583
33052,29334,32423
33012,29324,32567
32992,29319,32511
32952,29316,32546
32819,29319,32580
32769,29317,32355
32748,29319,32580
32648,29327,32439
32716,29333,32684
32672,29319,32570
32677,29321,32625
32773,29311,32589
32916,29310,32731
33018,29309,32742
33140,29308,32457
33132,29315,32635
33129,29301,32529
33144,29309,32653
33213,29316,32372
33300,29315,32615
33330,29311,32427
33282,29307,32695
33236,29305,32453
33072,29295,32560
33108,29301,32565
33110,29296,32655
33056,29301,32608
33152,29307,32615
33166,29301,32564
33193,29303,32391
33216,29299,32219
33221,29296,32434
33241,29291,32391
33232,29293,32447
33310,29284,32167
33324,29288,32375
33288,29295,32389
33331,29299,32361
33345,29301,32322
33413,29295,32239
33369,29286,32462
33173,29295,32423
33125,29281,32321
33240,29287,31925
33420,29277,32321
33708,29285,32293
33799,29280,32291
33797,29287,32367
33856,29287,32202
33913,29287,31896
33892,29287,32220
33836,29285,32236
33761,29279,32201
33736,29279,32092
33860,29283,32244
33972,29281,32303
33997,29283,32129
34098,29287,31943
34145,29287,31763
34167,29287,32116
34064,29289,32119
34104,29279,32051
34031,29275,31977
34024,29278,32183
33988,29285,32093
33989,29279,31971
34071,29286,31929
33840,29284,31684
33716,29290,31895
33616,29292,31957
33500,29297,31866
33416,29285,31540
33356,29291,31933
33184,29283,31893
33116,29287,31834
33149,29283,31885
33263,29290,31983
33292,29295,31975
33295,29295,31963
33310,29295,31919
33303,29301,31833
33108,29294,31897
32876,29289,31774
32632,29295,31685
32592,29285,31367
32582,29293,31487
32692,29300,31341
32688,29308,31679
32652,29317,31717
32640,29308,31673
32620,29309,31333
32580,29309,31623
32432,29311,31611
32324,29309,31455
32248,29309,31503
32191,29309,31599
32288,29309,31598
32362,29319,31587
32464,29319,31735
32476,29329,31733
32376,29319,31547
32212,29317,31471
32064,29327,31569
32000,29317,31571
31997,29323,31735
32141,29337,31668
32169,29333,31689
32156,29331,31580
32160,29343,31630
32148,29349,31766
31988,29343,31607
31892,29341,31265
31885,29341,31635
31950,29343,31661
32100,29343,31639
32284,29340,31475
32417,29353,31591
32456,29357,31641
32381,29367,31643
32344,29373,31663
32268,29362,31661
32164,29365,31672
32284,29359,31670
32416,29365,31637
32320,29371,31671
32224,29375,31676
32316,29379,31677
32319,29379,31668
32249,29387,31645
32253,29397,31474
32384,29391,31479
32452,29396,31495
32370,29399,31677
32265,29391,31777
32277,29397,31679
32310,29394,31381
32319,29413,31630
32300,29409,31621
32289,29431,31523
32294,29423,31746
32384,29433,31623
32409,29433,31336
32492,29435,31589
32422,29433,31407
32336,29437,31389
32325,29439,31495
32380,29447,31569
32472,29461,31662
32644,29465,31511
32708,29471,31461
32696,29475,31455
32664,29473,31524
32600,29471,31527
32504,29477,31423
32516,29479,31479
32580,29483,31510
32476,29491,31351
32504,29501,31483
32432,29509,31607
32327,29505,31407
32320,29519,31254
32416,29519,31070
32478,29519,31447
32577,29523,31443
32740,29524,31556
32800,29530,31540
32829,29541,31517
32804,29543,31493
32865,29552,31334
32865,29567,31437
32849,29565,31315
32853,29565,31447
32804,29568,31495
32821,29575,31525
32809,29575,31444
32740,29591,31444
32647,29594,31360
32609,29605,31470
32625,29620,31454
32717,29623,31381
32757,29630,31359
32736,29635,31293
32816,29631,31168
32737,29639,31359
32772,29641,31363
32732,29651,31265
32540,29663,31343
32527,29671,31395
32519,29682,31453
32487,29687,31433
32629,29686,31445
32814,29685,31335
32808,29695,31221
32808,29702,30918
32761,29703,31295
32844,29711,31268
32784,29727,31092
32799,29743,31077
32928,29751,31186
32934,29757,31151
32936,29758,31055
32900,29766,31289
32836,29767,31301
32873,29772,31141
32924,29770,30972
33072,29791,31071
33085,29799,31109
32912,29807,31074
32737,29815,31087
32766,29827,31072
32884,29831,31075
32896,29839,31091
32916,29845,31059
32748,29845,31033
32645,29861,30951
32628,29869,31103
32684,29881,31077
32805,29886,31084
32944,29893,31066
33084,29901,31001
33097,29917,30999
33049,29919,30983
32972,29919,30981
32776,29927,31005
32707,29940,31013
32737,29932,30972
32793,29955,30963
32900,29972,30975
32968,29977,30957
32924,29991,30943
32820,29993,30927
32709,29999,30865
32548,30002,30737
32521,30009,30700
32488,30023,30879
32440,30029,30941
32504,30047,30873
32556,30065,30965
32561,30063,30804
32644,30076,30742
32661,30080,30709
32468,30092,30544
32397,30095,30726
32368,30101,30759
32332,30101,30704
32428,30117,30599
32652,30129,30695
32788,30141,30831
32888,30151,30735
32976,30167,30695
32920,30171,30306
32836,30173,30637
32708,30178,30623
32676,30184,30630
32704,30197,30629
32664,30201,30253
32692,30215,30287
32741,30235,30575
32917,30241,30559
33049,30254,30567
33136,30259,30471
33425,30258,30519
34104,30268,30565
34981,30269,30157
35917,30268,30509
36724,30281,30429
37201,30295,30351
37604,30317,30598
37772,30321,30572
37997,30334,30503
38326,30335,30380
38585,30339,30023
38568,30349,30359
38084,30359,30295
37068,30369,30149
36008,30387,30343
34770,30399,30435
33020,30421,30325
30574,30444,30229
28893,30462,30258
28012,30465,30127
27693,30471,30101
27782,30487,29797
28172,30487,30125
28696,30489,30133
29329,30499,30128
29952,30506,30098
30532,30513,30085
31057,30525,30068
31516,30525,30039
31906,30538,30045
32085,30543,29991
32244,30546,29940
32369,30551,29677
32353,30554,29950
32342,30575,29949
32328,30589,29789
32389,30594,30005
32484,30604,30022
32480,30615,29989
32456,30625,29959
32400,30623,29915
32428,30639,29764
32442,30637,29755
32496,30647,29626
32564,30661,29671
32576,30667,29631
32633,30681,29647
32728,30692,29563
32780,30700,29669
32760,30709,29595
32704,30708,29483
32692,30719,29407
32668,30727,29525
32600,30727,29484
32521,30737,29414
32632,30756,29374
32784,30765,29486
32820,30781,29645
32868,30791,29619
32892,30793,29663
32908,30799,29657
32932,30794,29595
32916,30801,29653
32920,30813,29465
32948,30819,29159
32980,30835,29513
32972,30845,29391
32948,30855,29498
32888,30876,29375
32809,30879,29447
32756,30877,29415
32732,30879,29317
32812,30887,29280
32960,30898,29447
32990,30896,29447
33069,30907,29263
33180,30931,29317
33281,30938,29271
33232,30949,29292
33238,30949,29349
33252,30951,29087
33157,30957,29223
33076,30964,29241
33053,30971,29190
33028,30978,29103
33111,30983,29325
33218,31005,29190
33408,31015,28846
33588,31021,29147
33696,31023,29080
33696,31031,29292
33628,31035,29113
33599,31041,29047
33568,31035,29021
33596,31050,29127
33641,31061,29061
33725,31071,28918
33842,31080,29117
33959,31087,29188
33928,31095,28977
33836,31095,29057
33762,31100,28884
33772,31099,29175
33832,31118,28942
33924,31119,29009
33972,31125,28926
33880,31137,28917
33726,31151,29109
33684,31159,28991
33652,31165,28743
33767,31165,28957
33896,31172,28828
33873,31171,28893
33904,31183,28949
33876,31183,28793
33840,31191,28837
33897,31205,28845
33744,31214,28659
33764,31223,28917
33685,31229,28501
33652,31228,28771
33620,31235,28897
33565,31239,28678
33399,31239,28769
33188,31254,28613
33146,31252,28796
33248,31271,28770
33329,31279,28493
33388,31287,28701
33304,31293,28575
33140,31287,28607
33108,31287,28639
33001,31285,28551
32933,31297,28783
32820,31309,28501
32792,31315,28639
32888,31327,28618
32880,31335,28573
32760,31341,28503
32614,31348,28605
32480,31348,28575
32341,31347,28735
32208,31356,28591
32204,31360,28449
32172,31363,28603
32202,31374,28547
32316,31380,28420
32432,31388,28724
32445,31395,28693
32237,31397,28519
32037,31395,28581
31956,31405,28619
31876,31407,28549
31808,31407,28750
31912,31413,28535
32021,31417,28613
32000,31436,28519
31917,31437,28773
31837,31448,28541
31840,31445,28449
31892,31439,28641
31876,31451,28660
31961,31448,28659
32016,31445,28668
32164,31447,28609
32218,31465,28611
32240,31471,28796
32320,31477,28747
32352,31471,28615
32234,31490,28716
32159,31485,28669
32180,31487,28571
32124,31490,28845
32060,31485,28829
32038,31493,28857
31956,31487,28874
32040,31517,28695
32164,31524,28485
32308,31519,28743
32468,31519,28781
32493,31527,28742
32466,31512,28767
32492,31517,28917
32528,31527,28701
32564,31527,28766
32524,31539,28787
32549,31547,28647
32544,31550,28699
32413,31554,28935
32193,31561,28847
32156,31555,28699
32347,31555,28804
32489,31551,28801
32536,31559,28679
32528,31563,28811
32503,31564,28627
32493,31568,28739
32548,31573,28917
32516,31589,28935
32508,31575,28933
32508,31585,28871
32428,31591,28726
32436,31577,28631
32489,31575,28477
32496,31586,28794
32598,31593,28803
32676,31599,28799
32740,31602,28789
32717,31605,28780
32757,31611,28642
32796,31605,28878
32735,31604,28781
32738,31607,28693
32693,31610,28525
32648,31615,28432
32588,31619,28487
32650,31623,28773
32692,31621,28644
32757,31628,28595
32704,31627,28863
32538,31623,28829
32476,31623,28768
32392,31623,28736
32352,31629,28878
32388,31630,28713
32468,31631,28597
32465,31644,28745
32367,31653,28567
32406,31653,28852
32488,31651,28805
32588,31651,28707
32680,31647,28627
32720,31636,28709
32660,31647,28719
32693,31651,28695
32752,31647,28551
32804,31657,28527
32908,31663,28658
32965,31655,28580
32788,31665,28789
32873,31661,28739
32789,31648,28692
32669,31654,28669
32765,31663,28616
32764,31671,28615
32728,31669,28525
32705,31679,28671
32696,31668,28711
32704,31681,28669
32869,31682,28533
32916,31675,28711
32836,31669,28836
32860,31669,28748
32842,31677,28676
32760,31675,28671
32705,31685,28549
32680,31687,28700
32780,31687,28688
32856,31692,28727
32884,31691,28709
32864,31679,28645
32804,31687,28581
32780,31687,28661
32713,31687,28737
32744,31685,28839
32764,31693,28879
32773,31695,28877
32766,31700,28780
32805,31699,28667
32805,31695,28637
32716,31700,28564
32588,31697,28579
32513,31695,28769
32576,31693,28786
32464,31683,28739
32564,31695,28655
32724,31711,28911
32880,31703,28871
32872,31709,28759
32804,31707,28668
32816,31695,28839
32756,31685,28844
32780,31688,28857
32869,31702,28878
32968,31693,28881
32973,31699,28886
33040,31697,28889
33136,31705,28725
33095,31709,29047
32954,31703,28747
32848,31705,28927
32680,31701,28951
32712,31699,28853
32837,31695,29007
32790,31701,29094
32864,31703,29046
32908,31703,28917
32797,31711,28883
32854,31707,28703
32916,31712,28856
32848,31700,29037
32840,31686,29053
32828,31699,29037
32760,31694,28935
32751,31701,29229
32844,31703,29221
32917,31705,29004
32880,31708,29127
32884,31707,29071
32879,31707,28965
32772,31707,29008
32624,31701,29239
32562,31697,29223
32444,31697,29083
32484,31699,29044
32564,31702,29167
32677,31703,29079
32688,31711,29135
32553,31702,29289
32472,31711,29263
32324,31699,29166
32288,31687,29105
32300,31701,28844
32308,31695,29189
32372,31695,29101
32356,31700,29249
32460,31709,29246
32564,31705,29108
32620,31703,29207
32670,31701,29149
32804,31691,29275
32808,31701,29220
32796,31685,28861
32801,31687,29223
32876,31687,29076
32961,31687,29309
33032,31697,29041
33252,31701,29218
33602,31695,29191
34087,31694,29191
34764,31685,29290
35537,31676,29147
36288,31673,28887
36892,31663,29240
37293,31671,29113
37580,31671,29388
37678,31674,29161
37980,31671,29243
38432,31673,29244
38632,31673,29063
38429,31667,29385
37690,31666,29170
36740,31667,29251
35556,31675,29259
33924,31681,29244
31488,31695,29274
29412,31700,29378
28317,31719,29423
27916,31711,29213
27872,31700,28949
28064,31701,29319
28486,31697,29239
29154,31677,29466
29865,31681,29271
30512,31672,29335
30996,31677,29388
31360,31679,29382
31672,31677,29231
31868,31669,29517
32169,31675,29533
32276,31668,29371
32277,31651,29443
32309,31655,29455
32304,31659,29318
32324,31649,29423
32287,31655,29570
32356,31655,29505
32300,31657,29351
32244,31663,29471
32341,31663,29381
32572,31653,29569
32584,31647,29348
32532,31647,29293
32631,31638,29357
32600,31645,29407
32544,31639,29314
32540,31623,29531
32460,31641,29334
32448,31644,29110
32492,31647,29391
32360,31635,29391
32284,31635,29349
32260,31631,29497
32351,31623,29551
32556,31623,29352
32740,31628,29128
32824,31623,29453
32833,31628,29329
32886,31629,29524
32778,31622,29535
32821,31618,29496
32850,31618,29382
32804,31609,29148
32694,31607,29511
32632,31610,29373
32609,31621,29633
32620,31600,29412
32652,31622,29183
32718,31607,29476
32740,31615,29349
32796,31597,29567
32848,31597,29399
32761,31599,29319
32856,31591,29145
32980,31597,29322
33064,31584,29277
33189,31599,29127
33197,31599,29350
33224,31605,29207
33030,31595,29239
32845,31589,29287
32732,31589,29365
32725,31580,29319
32948,31572,29199
33097,31577,29258
33262,31591,29261
33381,31581,29167
33438,31583,29124
33432,31582,29398
33504,31583,29355
33484,31569,29404
33480,31567,29260
33525,31565,29085
33452,31559,29227
33460,31556,29220
33588,31567,29243
33616,31559,29247
33784,31561,29174
33824,31554,29225
33851,31559,29255
33745,31554,29077
33708,31537,29197
33695,31543,29205
33686,31535,29181
33660,31543,29148
33776,31540,29201
33908,31542,29285
33960,31546,29086
34060,31541,28925
34052,31541,29107
33994,31531,29141
33951,31529,29116
33840,31527,29036
33720,31527,28935
33710,31516,28949
33605,31519,29149
33552,31529,29127
33552,31529,28997
33320,31529,28775
33268,31521,29035
33292,31519,29057
33314,31516,29004
33308,31507,29007
33188,31503,29087
33157,31501,29019
33156,31501,28781
33174,31511,28991
33173,31507,28948
33052,31503,28919
32873,31503,28911
32704,31495,29085
32648,31503,29048
32657,31487,28989
32744,31463,28835
32904,31476,28800
32988,31477,28884
32912,31479,28880
32888,31483,28894
32820,31479,28837
32688,31476,28839
32502,31476,28703
32377,31469,28987
32348,31463,28798
32304,31452,28495
32438,31455,28837
32520,31457,28836
32524,31460,28711
32576,31456,28957
32470,31460,28847
32360,31463,28749
32244,31459,28694
32148,31449,28795
32068,31445,28805
31929,31435,28807
31880,31435,28781
31848,31441,28612
31908,31439,28759
31982,31437,28855
32045,31443,28586
32012,31439,28799
31911,31433,28741
31986,31415,28757
32035,31419,28875
32090,31412,28700
32132,31404,28679
32244,31406,28460
32297,31399,28789
32320,31408,28601
32204,31423,28628
32148,31415,28701
32148,31391,28883
32060,31395,28885
32036,31391,28695
32021,31383,28678
32093,31380,28633
32164,31375,28647
32268,31383,28429
32372,31383,28599
32436,31380,28637
32396,31375,28519
32433,31370,28606
32520,31367,28712
32452,31359,28748
32420,31357,28707
32428,31364,28653
32452,31359,28867
32478,31355,28827
32532,31356,28849
32504,31356,28789
32500,31359,28812
32412,31349,28820
32292,31343,28725
32242,31335,28733
32317,31327,28806
32388,31324,28804
32436,31334,28751
32560,31330,28781
32556,31335,28785
32552,31330,28667
32488,31327,28485
32497,31311,28302
32597,31311,28537
32640,31303,28539
32516,31298,28551
32584,31298,28533
32676,31297,28527
32544,31303,28519
32609,31307,28274
32606,31301,28604
32687,31297,28595
32548,31287,28581
32365,31283,28588
32316,31268,28543
32433,31271,28549
32569,31269,28620
32592,31269,28469
32645,31274,28453
32620,31278,28241
32512,31275,28543
32492,31269,28421
32546,31253,28593
32584,31255,28667
32580,31239,28533
32672,31237,28457
32696,31230,28201
32668,31236,28547
32782,31237,28533
32736,31239,28527
32624,31232,28527
32570,31237,28465
32641,31228,28474
32544,31226,28375
32463,31212,28391
32553,31207,28370
32668,31204,28644
32788,31199,28573
32694,31206,28483
32574,31211,28445
32536,31207,28207
32623,31206,28545
32656,31197,28519
32676,31193,28363
32628,31186,28665
32528,31175,28550
32592,31172,28448
32640,31175,28206
32741,31174,28540
32708,31169,28517
32504,31173,28455
32536,31167,28597
32556,31159,28535
32609,31149,28343
32708,31151,28565
32788,31135,28499
32921,31131,28605
32956,31135,28567
32869,31135,28526
32840,31141,28538
32812,31141,28421
32788,31131,28668
32740,31124,28697
32684,31124,28483
32716,31109,28437
32720,31105,28573
32753,31101,28535
32800,31100,28407
32810,31103,28565
32732,31109,28717
32692,31101,28724
32716,31095,28706
32804,31089,28495
32840,31083,28527
32825,31079,28549
32777,31071,28476
32817,31060,28434
32816,31061,28260
32816,31075,28581
32804,31061,28557
32849,31061,28605
32768,31063,28731
32757,31051,28581
32654,31046,28485
32653,31045,28265
32737,31028,28591
32824,31037,28593
32868,31021,28397
32868,31023,28660
32840,31027,28704
32704,31031,28709
32584,31023,28567
32496,31007,28365
32450,31014,28238
32580,30996,28567
32705,30988,28559
32782,30997,28429
32850,30983,28679
32888,30975,28501
32829,30991,28343
32868,30997,28525
32996,30977,28531
33008,30972,28375
32948,30967,28220
32858,30967,28357
32812,30961,28541
32836,30947,28447
32832,30951,28502
32901,30947,28639
32988,30951,28615
33081,30949,28487
33143,30946,28581
33046,30928,28647
33010,30927,28559
32876,30923,28589
32721,30927,28561
32552,30919,28610
32532,30916,28527
32570,30912,28578
32788,30911,28533
32972,30908,28557
33004,30905,28564
32932,30900,28527
32932,30893,28467
32860,30881,28252
32892,30879,28485
32837,30871,28470
32796,30863,28434
32788,30875,28357
32960,30871,28293
32994,30866,28343
32962,30865,28388
32778,30855,28339
32672,30853,28263
32677,30847,28415
32637,30836,28572
32605,30845,28471
32592,30839,28455
32612,30844,28455
32584,30843,28508
32646,30831,28471
32700,30823,28537
32844,30822,28523
32772,30812,28404
32729,30809,28397
32808,30799,28500
32839,30794,28477
32884,30799,28533
32854,30797,28399
32837,30793,28566
32885,30793,28556
32904,30791,28564
32916,30777,28519
32866,30774,28586
32791,30759,28551
32797,30756,28589
32873,30757,28577
32932,30757,28593
32920,30749,28543
32973,30741,28483
33180,30756,28463
33444,30746,28423
33729,30740,28393
34256,30727,28373
34836,30717,28223
35564,30712,28457
36272,30708,28487
36808,30695,28463
37292,30699,28469
37753,30698,28348
37780,30699,28345
38017,30692,28431
38297,30684,28359
38516,30676,28467
38048,30677,28458
37308,30667,28516
36300,30663,28337
35080,30671,28343
33582,30677,28366
31265,30687,28325
29380,30693,28390
28361,30695,28391
27977,30683,28415
27829,30677,28515
28072,30671,28455
28620,30646,28482
29218,30652,28660
29904,30644,28588
30589,30645,28352
31154,30643,28519
31580,30635,28361
31881,30629,28453
32048,30621,28551
32040,30613,28662
32016,30607,28703
32020,30597,28629
32101,30595,28565
32160,30591,28535
32212,30595,28487
32416,30593,28505
32452,30588,28347
32495,30583,28242
32500,30565,28516
32448,30567,28499
32413,30560,28486
32540,30559,28500
32610,30557,28481
32672,30543,28431
32772,30535,28417
32689,30549,28428
32637,30545,28401
32556,30540,28391
32481,30540,28409
32472,30526,28421
32500,30519,28253
32510,30509,28381
32608,30511,28525
32645,30508,28591
32652,30509,28601
32689,30503,28467
32788,30503,28545
32861,30495,28565
32888,30491,28607
32908,30483,28499
32926,30471,28391
32933,30471,28423
32882,30465,28588
32904,30467,28551
33032,30463,28639
33085,30463,28609
32828,30463,28525
32848,30461,28623
32910,30453,28596
32868,30445,28549
32992,30436,28516
33080,30429,28569
33100,30410,28550
33032,30422,28503
32972,30427,28437
32981,30429,28414
33017,30415,28285
33055,30419,28235
33104,30413,28256
32960,30406,28021
32860,30394,28311
33050,30386,28294
33138,30383,28296
33245,30391,28272
33288,30383,28285
33372,30383,28263
33381,30381,28247
33304,30380,28151
33269,30372,28105
33210,30371,28039
33261,30359,28367
33356,30351,28128
33398,30348,27893
33480,30343,28167
33545,30343,28188
33608,30343,28167
33475,30343,28118
33456,30343,28074
33328,30331,28147
33356,30327,27935
33448,30313,28083
33484,30311,28066
33492,30303,27767
33545,30311,28059
33572,30309,28021
33652,30309,27841
33733,30309,28128
33876,30299,28114
33900,30293,28111
33836,30281,28007
33688,30287,27748
33577,30276,27629
33652,30268,27756
33660,30271,27909
33500,30275,27884
33560,30265,27837
33512,30273,27731
33400,30265,27704
33270,30267,27669
33114,30247,27625
32972,30247,27605
32942,30237,27671
32936,30233,27593
32840,30236,27645
32932,30235,27757
33004,30229,27813
32832,30231,27732
32681,30231,27825
32714,30225,27629
32705,30215,27509
32760,30209,27476
32840,30205,27350
32852,30196,27647
32830,30196,27637
32772,30189,27607
32774,30199,27519
32661,30196,27743
32548,30195,27556
32424,30185,27433
32384,30180,27557
32310,30173,27561
32188,30167,27527
32140,30170,27533
32100,30151,27391
32192,30165,27502
32136,30171,27640
32020,30161,27669
31912,30158,27553
31932,30151,27521
31920,30149,27503
31929,30141,27431
32086,30136,27417
32208,30123,27236
32208,30130,27513
32124,30132,27316
32097,30137,27643
32129,30134,27479
32156,30122,27375
32076,30127,27493
31968,30113,27511
32068,30103,27508
32100,30101,27517
32101,30093,27489
32135,30094,27501
32213,30095,27215
32268,30093,27248
32228,30100,27522
32097,30091,27511
32100,30087,27551
32040,30078,27549
32137,30071,27527
32040,30067,27452
31956,30060,27548
31976,30063,27429
32084,30061,27559
32186,30055,27449
32213,30060,27463
32236,30063,27487
32191,30047,27431
32089,30045,27567
32109,30046,27443
32021,30037,27443
31958,30035,27590
32012,30029,27542
32072,30035,27567
32220,30033,27507
32406,30024,27471
32541,30020,27585
32556,30021,27492
32448,30010,27468
32329,30007,27477
32249,30006,27503
32193,29999,27567
32253,29993,27723
32340,29989,27661
32401,29996,27651
32372,30002,27679
32365,29993,27596
32370,29991,27535
32408,29981,27646
32449,29973,27620
32384,29975,27561
32382,29971,27770
32478,29964,27707
32414,29972,27567
32408,29973,27342
32516,29970,27674
32681,29967,27639
32709,29959,27543
32704,29947,27676
32645,29945,27766
32537,29941,27770
32620,29941,27758
32756,29941,27779
32800,29940,27805
32806,29933,27756
32744,29937,27655
32661,29941,27593
32600,29935,27593
32484,29919,27532
32420,29919,27670
32340,29909,27716
32316,29913,27690
32548,29913,27693
32604,29919,27703
32464,29918,27708
32540,29912,27732
32528,29909,27751
32684,29902,27726
32644,29899,27463
32564,29887,27745
32524,29886,27765
32504,29889,27791
32673,29887,27806
32740,29887,27811
32724,29887,27799
32748,29891,27515
32825,29878,27525
32813,29877,27607
32572,29877,27591
32425,29871,27564
32465,29863,27573
32516,29859,27801
32608,29867,27807
32757,29863,27685
32877,29860,27655
32927,29861,27717
32904,29857,27662
32824,29861,27666
32730,29849,27997
32576,29847,28015
32512,29844,28012
32585,29839,28045
32623,29831,28076
32748,29845,28067
32756,29833,28101
32796,29838,28098
32877,29839,28050
32892,29827,28075
32860,29828,28133
32800,29823,28153
32696,29819,28210
32686,29815,28197
32729,29815,28094
32716,29809,28164
32604,29818,28071
32604,29821,28102
32724,29823,28124
32780,29807,28215
32736,29808,28151
32606,29805,28299
32602,29791,28178
32688,29797,28213
32812,29795,28463
32916,29796,28404
32913,29799,28499
32812,29796,28556
32846,29801,28564
32929,29791,28562
32924,29789,28551
32916,29783,28527
32848,29777,28485
32748,29778,28337
32708,29779,28340
32748,29774,28526
32766,29775,28551
32768,29782,28563
32764,29772,28415
32652,29777,28453
32486,29773,28595
32636,29767,28631
32617,29763,28699
32572,29753,28764
32764,29755,28748
32976,29758,28479
33042,29753,28604
33150,29757,28573
33137,29757,28501
33032,29744,28529
32888,29746,28551
32712,29744,28682
32676,29743,28715
32816,29741,28711
32848,29735,28589
32948,29738,28759
32941,29738,28899
32872,29743,28750
32752,29746,28495
32833,29740,28813
32842,29733,28754
32824,29727,28895
32851,29719,28956
32864,29719,28867
32924,29719,28788
32894,29724,28542
32996,29721,28895
33088,29727,28895
32765,29731,28906
32680,29719,28916
32805,29703,28919
32866,29713,28925
32972,29703,28924
33166,29703,28910
33240,29709,28759
33166,29711,28768
33038,29703,29014
33004,29703,29111
33036,29703,29044
33042,29700,29084
33080,29700,29021
33077,29701,29009
32897,29687,28919
32999,29684,28813
33120,29687,28729
33074,29687,29055
32951,29697,29014
32963,29701,28893
33000,29691,29140
32929,29687,29185
32832,29684,28844
32852,29679,29076
32920,29671,29124
32908,29669,29239
32850,29671,29183
32865,29671,29021
32888,29676,29031
32869,29679,29055
32836,29679,29063
32864,29671,28820
32853,29671,29175
32788,29669,29165
32740,29661,29031
32673,29650,29208
32672,29661,29309
32728,29661,29367
32897,29669,29249
33056,29663,29215
33248,29669,29318
33276,29663,29279
33244,29653,29303
33136,29649,29297
33162,29651,29289
33220,29647,29373
33236,29653,29239
33204,29647,29169
33108,29647,29351
33205,29653,29325
33356,29647,29199
33485,29649,29475
33812,29639,29505
34332,29631,29333
34984,29626,29309
35612,29621,29269
36377,29614,29057
36934,29621,29428
37401,29620,29327
37711,29622,29334
37727,29625,29586
37850,29626,29509
38133,29623,29425
38260,29619,29399
38172,29609,29389
37764,29607,29174
37012,29605,29294
36124,29620,29509
34818,29623,29503
32893,29631,29469
30420,29645,29380
28868,29646,29659
28132,29647,29677
27990,29640,29647
28221,29627,29703
28728,29623,29719
29356,29626,29695
29900,29633,29533
30430,29625,29604
30880,29627,29643
31384,29615,29623
31769,29617,29487
31960,29611,29647
32133,29607,29839
32285,29605,29859
32369,29599,29791
32384,29598,29743
32412,29604,29661
32445,29602,29676
32552,29604,29423
32688,29603,29781
32758,29599,29772
32685,29603,29720
32720,29591,29651
32676,29591,29843
32645,29583,29685
32720,29583,29588
32856,29585,29676
32815,29591,29553
32708,29595,29735
32572,29593,29754
32644,29597,29692
32816,29575,29735
32804,29573,29887
32893,29569,29765
33008,29567,29713
32944,29575,29753
32988,29574,29719
32957,29572,29679
32805,29582,29483
32768,29575,29852
32853,29569,29789
32812,29567,29687
32912,29565,29975
32968,29553,29987
33019,29553,29827
33081,29557,29813
33045,29563,29664
33012,29569,29930
32976,29566,29797
32900,29567,30055
32870,29562,29831
32869,29555,29923
32848,29557,29900
32856,29543,29871
32940,29545,30028
33065,29548,29703
33156,29558,29917
33121,29551,29845
33124,29551,29908
33117,29547,30014
33140,29550,29946
33168,29551,29639
33112,29540,29847
33192,29542,29864
33256,29533,29805
33216,29543,29983
33304,29537,29847
33308,29543,29849
33248,29551,29744
33164,29548,29793
33174,29543,29959
33095,29535,29939
33022,29527,29780
33108,29527,29509
33356,29533,29868
33468,29533,29833
33573,29527,29959
33729,29531,29959
33804,29532,29893
33772,29522,29887
33765,29531,29863
33689,29527,29781
33582,29525,29661
33477,29517,29506
33517,29519,29847
33736,29515,29855
33964,29512,29837
34062,29518,29799
34032,29515,29980
33892,29519,29865
33749,29518,29685
33600,29517,29495
33462,29511,29835
33689,29503,29815
33756,29495,29728
33728,29499,29693
33713,29504,29755
33694,29513,29868
33529,29510,29717
33512,29511,29637
33544,29507,29437
33516,29501,29783
33500,29503,29737
33351,29495,29719
33216,29495,29840
33172,29503,29671
33088,29497,29726
33189,29502,29711
33092,29500,29569
32996,29503,29765
32964,29495,29839
32844,29494,29631
32708,29487,29703
32741,29485,29703
32764,29479,29667
32640,29487,29702
32616,29487,29729
32608,29487,29529
32624,29495,29671
32680,29481,29651
32724,29487,29512
32727,29481,29795
32652,29483,29567
32568,29468,29637
32492,29473,29760
32357,29475,29563
32284,29475,29643
32180,29479,29487
32008,29479,29671
31932,29479,29297
31850,29473,29503
31724,29475,29739
31796,29465,29412
31964,29460,29613
32108,29461,29606
32178,29455,29567
32186,29468,29491
32140,29467,29759
32137,29467,29551
32146,29461,29606
32092,29463,29525
31989,29457,29653
31908,29455,29695
31812,29444,29575
31742,29453,29540
31680,29447,29314
31862,29441,29673
32056,29463,29612
32112,29459,29641
32200,29453,29806
32244,29453,29815
32149,29443,29635
32186,29439,29381
32196,29429,29746
32232,29430,29697
32241,29437,29869
32264,29439,29753
32312,29439,29717
32320,29439,29779
32279,29437,29773
32224,29439,29724
32148,29433,29935
32144,29429,29883
32212,29412,29772
32409,29415,29845
32453,29423,29895
32520,29423,29847
32541,29423,30013
32455,29428,29833
32440,29421,29580
32412,29420,29941
32284,29410,29957
32213,29419,29780
32201,29415,29781
32308,29400,30039
32431,29407,29999
32509,29409,29783
32430,29412,29657
32356,29415,30036
32276,29411,29970
32248,29414,29879
32229,29407,30175
32109,29397,29983
32049,29399,29716
32149,29397,30064
32176,29397,30091
32285,29399,30117
32424,29395,30119
32424,29399,30118
32344,29391,30132
32528,29391,30143
32588,29391,30115
32536,29389,30135
32367,29383,30109
32260,29383,30117
32514,29383,30049
32532,29388,30180
32461,29378,30180
32421,29383,30055
32472,29387,30343
32431,29384,30327
32340,29383,30199
32271,29373,30303
32296,29370,30260
32253,29377,30135
32360,29356,30439
32508,29369,30437
32700,29371,30281
32600,29367,30353
32637,29366,30413
32576,29364,30395
32505,29367,30390
32504,29359,30325
32408,29353,30415
32370,29348,30445
32306,29349,30381
32265,29357,30349
32245,29359,30516
32372,29354,30575
32436,29354,30573
32436,29351,30639
32289,29353,30718
32216,29351,30764
32229,29344,30687
32348,29332,30667
32140,29340,30623
32064,29351,30571
32072,29345,30727
32324,29348,30861
32384,29348,30783
32356,29343,30810
32448,29335,30812
32504,29333,30717
32556,29329,30784
32576,29335,30906
32489,29321,30965
32511,29321,31034
32542,29333,31052
32506,29319,30927
32506,29332,31055
32383,29321,31108
32464,29319,31056
32520,29319,31053
32599,29311,31057
32588,29313,30993
32512,29315,30961
32434,29313,30820
32536,29314,30705
32644,29319,31087
32738,29319,31115
32702,29311,30756
32530,29309,31111
32341,29297,31162
32288,29301,31164
32413,29293,31159
32462,29291,31143
32564,29301,31035
32642,29300,31199
32646,29299,31343
32702,29307,31315
32552,29297,31201
32368,29293,31044
32321,29287,31100
32324,29278,30948
32362,29277,31329
32351,29279,31364
32452,29279,31285
32544,29282,31381
32540,29289,31533
32496,29291,31377
32546,29285,31310
32613,29279,31460
32496,29271,31516
32557,29271,31517
32571,29267,31543
32501,29263,31415
32569,29262,31563
32572,29271,31619
32485,29269,31746
32504,29271,31694
32613,29268,31573
32708,29260,31309
32632,29257,31303
32585,29249,31317
32586,29249,31349
32538,29250,31700
32500,29254,31741
32453,29252,31423
32624,29252,31772
32701,29260,31775
32752,29255,31751
32756,29250,31779
32644,29246,31791
32672,29243,31817
32768,29233,31857
33023,29239,31837
33108,29239,31834
33040,29241,31899
32984,29243,31901
32856,29244,31895
32568,29239,31924
32501,29232,31575
32612,29225,31777
32461,29223,31972
32704,29216,31991
32806,29220,31949
32846,29223,31956
32812,29225,31963
32825,29227,32015
32921,29220,32165
32868,29223,32191
32820,29213,32195
32732,29213,32073
32693,29207,32020
32901,29206,32030
32914,29207,32063
33038,29199,32077
33069,29210,32073
32972,29213,32103
32813,29211,32159
32692,29207,32213
32677,29197,32121
32528,29191,32125
32324,29191,32151
32342,29190,32125
32488,29191,31962
32501,29191,32217
32642,29191,32241
32668,29191,32013
32764,29191,32210
32829,29183,32335
32785,29173,32392
32780,29177,32375
32796,29173,32417
32752,29175,32393
32724,29163,32423
32841,29173,32374
32946,29175,32285
32924,29182,32101
32796,29175,32279
32852,29175,32492
32813,29167,32471
32740,29165,32514
32732,29165,32439
32920,29153,32420
33140,29157,32412
33516,29157,32516
34081,29157,32498
34669,29157,32401
35408,29156,32467
36093,29147,32519
36577,29143,32508
36984,29137,32519
37192,29133,32448
37332,29135,32453
37520,29132,32365
37952,29134,32159
38220,29135,32335
37976,29138,32351
37239,29137,32353
36212,29141,32311
35016,29139,32184
33460,29143,32189
31092,29164,32271
29120,29167,32211
28001,29159,32132
27623,29159,32321
27664,29159,32321
27996,29156,32289
28478,29157,32289
29058,29147,32262
29780,29141,32197
30565,29127,32135
31152,29119,32112
31482,29117,32238
31748,29124,32263
31940,29113,32381
32012,29119,32353
32207,29117,32381
32256,29122,32230
32328,29108,31924
32404,29101,32233
32408,29106,32237
32421,29101,32209
32360,29094,32057
32336,29093,32205
32365,29095,32190
32373,29107,31948
32474,29095,32111
32525,29093,32089
32735,29103,32135
32788,29095,32169
32608,29095,32085
32548,29079,31944
32628,29082,31591
32640,29085,31958
32432,29083,31967
32482,29085,31917
32588,29085,31751
32608,29085,31773
32696,29081,32047
32833,29068,31980
32757,29071,31935
32836,29063,31913
32972,29063,31804
33033,29063,31799
33013,29065,31821
32992,29066,31813
32996,29071,31871
33013,29063,31892
32988,29063,31919
32821,29063,31924
32652,29061,31887
32624,29044,31831
32721,29047,31700
32928,29047,31663
33020,29047,31509
33100,29047,31633
33031,29052,31611
32985,29047,31565
33085,29047,31685
33182,29053,31565
33264,29037,31427
33268,29043,31239
33293,29037,31469
33232,29041,31403
33040,29029,31293
33172,29036,31401
33140,29036,30967
33220,29037,31325
33389,29031,31291
33554,29031,31221
33457,29021,31069
33429,29023,31325
33472,29013,31337
33612,29020,31117
33613,29013,31155
33447,29015,31093
33428,29029,31266
33374,29017,31047
33377,29015,31095
33440,29012,31013
33600,29009,31195
33670,29003,31001
33728,29007,30829
33708,29007,30980
33788,28997,30912
33825,28999,31079
33782,29007,30866
33876,29003,30543
33977,29001,30874
34228,28989,30837
34173,28995,30684
34037,28987,30871
33860,28987,30900
33797,28981,30567
33796,28985,30752
33801,28983,30703
33852,28989,30513
33880,28987,30743
33896,28991,30639
33849,28982,30604
33650,28981,30617
33408,28980,30599
33352,28975,30546
33229,28974,30482
33189,28981,30409
33357,28973,30365
33524,28975,30471
33496,28972,30533
33278,28980,30531
33292,28967,30492
33314,28965,30505
33208,28964,30396
33124,28951,30207
33116,28959,30351
33037,28964,30431
32804,28966,30253
32804,28963,30292
32776,28967,30337
32765,28967,30203
32720,28959,30189
32671,28957,30091
32600,28949,30124
32637,28949,30149
32606,28949,30223
32533,28946,30192
32528,28951,30159
32461,28955,30087
32468,28951,30049
32440,28951,30023
32388,28947,29711
32381,28934,29967
32216,28935,29953
32080,28929,29914
32160,28927,29772
32056,28930,29750
31945,28935,29714
31941,28935,29902
31984,28927,29895
31992,28931,29761
32072,28933,29937
31886,28932,29909
31900,28921,29726
31807,28911,29484
31860,28919,29797
31989,28916,29771
32094,28925,29609
32205,28925,29875
32090,28924,29674
31988,28919,29742
31982,28911,29725
31892,28909,29543
31740,28909,29789
31668,28909,29359
31732,28905,29695
31946,28900,29525
31968,28905,29781
31889,28908,29623
31901,28911,29700
31917,28903,29628
31920,28908,29679
31940,28897,29783
32116,28893,29639
32226,28887,29573
32300,28886,29317
32293,28891,29647
32368,28888,29641
32288,28891,29607
32380,28891,29557
32474,28889,29445
32516,28887,29429
32408,28875,29721
32224,28871,29633
32218,28875,29492
32324,28868,29555
32382,28879,29541
32372,28876,29529
32388,28877,29655
32384,28883,29519
32303,28875,29415
32317,28865,29318
32399,28869,29503
32420,28863,29394
32373,28857,29580
32460,28863,29588
32349,28854,29569
32263,28863,29566
32312,28863,29443
32230,28862,29223
32287,28861,29409
32216,28861,29428
32252,28851,29417
32271,28852,29367
32324,28843,29385
32320,28845,29348
32472,28842,29373
32524,28853,29367
32416,28847,29332
32360,28842,29359
32405,28852,29345
32423,28841,29285
32412,28837,29270
32400,28836,29329
32500,28829,29438
32452,28839,29262
32377,28831,29270
32392,28833,29324
32332,28839,29284
32241,28839,29215
32312,28839,29093
32332,28837,28969
32420,28831,29295
32636,28815,29322
32702,28817,29223
32513,28810,29323
32512,28821,29380
32564,28819,29181
32716,28823,29323
32584,28829,29317
32483,28821,29308
32540,28821,29244
32439,28813,29133
32428,28807,29191
32584,28799,29181
32634,28803,29271
32673,28805,29151
32668,28807,29431
32636,28807,29480
32704,28815,29479
32690,28812,29437
32616,28803,29303
32564,28796,29277
32534,28793,29253
32584,28799,29353
32690,28793,29348
32660,28796,29387
32684,28799,29385
32810,28791,29047
32881,28801,29357
32824,28801,29383
32707,28791,29325
32708,28789,29241
32748,28775,29364
32663,28775,29333
32616,28781,29356
32720,28775,29399
32672,28781,29390
32580,28783,29241
32578,28789,29423
32538,28788,29537
32536,28781,29554
32607,28780,29518
32820,28766,29541
32689,28770,29563
32609,28769,29460
32748,28772,29377
32804,28773,29359
32756,28780,29453
32928,28774,29481
32940,28756,29484
32797,28767,29319
32593,28763,29582
32512,28765,29636
32738,28759,29547
32840,28751,29484
32732,28759,29455
32743,28761,29481
32624,28767,29549
32679,28764,29499
32888,28765,29606
32689,28761,29492
32452,28759,29605
32400,28759,29645
32544,28749,29591
32544,28747,29618
32652,28749,29575
32796,28753,29711
32685,28757,29607
32761,28754,29589
32937,28756,29521
32964,28748,29507
32885,28749,29697
32868,28743,29749
32724,28743,29717
32692,28734,29733
32676,28743,29692
32697,28751,29619
32582,28746,29588
32572,28748,29667
32660,28747,29844
32791,28743,29927
32754,28738,29924
32836,28732,29909
33092,28735,29949
32936,28731,30066
32921,28735,30178
32860,28735,30031
32980,28739,30097
33068,28741,30166
32716,28743,30107
32500,28733,30209
32440,28733,30245
32377,28730,30085
32544,28725,30317
32854,28727,30041
33132,28727,30274
33060,28735,30418
32996,28733,30581
33057,28727,30317
33088,28735,30521
32940,28727,30292
32720,28723,30332
32656,28723,30531
32704,28713,30681
32712,28719,30668
32640,28723,30557
32673,28724,30780
32681,28725,30899
32872,28731,31003
32805,28723,30905
32676,28725,30812
32494,28709,30917
32389,28713,31035
32486,28715,31065
32500,28711,30757
32576,28719,31094
32672,28709,31340
32762,28724,31239
32768,28723,31148
32760,28719,31349
32868,28718,31299
32804,28715,31479
32718,28711,31567
32788,28711,31375
32740,28711,31509
32679,28714,31587
32670,28711,31604
32523,28715,31359
32440,28722,31655
32448,28725,31836
32484,28711,31717
32516,28711,31791
32768,28708,31617
33220,28711,31663
33848,28698,31817
34460,28703,31860
35180,28701,31844
36006,28703,31809
36508,28706,31840
37028,28703,31879
37204,28710,31973
37216,28703,32084
37383,28702,31959
37808,28695,31837
37989,28689,32088
37573,28700,31952
37014,28700,31968
36025,28706,32068
34727,28715,31927
33038,28717,32024
30574,28743,32116
28948,28735,32211
27937,28739,31983
27535,28731,32167
27704,28723,32055
27980,28733,32236
28540,28731,32335
29220,28721,32175
30017,28727,32200
30762,28720,31895
31254,28719,32317
31554,28711,32383
31610,28708,32375
31769,28709,32129
31998,28703,32343
32092,28709,32340
32108,28713,31991
32168,28711,32289
32200,28717,32437
32252,28719,32509
32228,28711,32207
32172,28710,32340
32308,28705,32383
32352,28692,32181
32343,28703,32373
32380,28701,32417
32409,28709,32386
32618,28710,32484
32708,28719,32482
32612,28711,32442
32702,28711,32463
32594,28711,32404
32445,28708,32423
32400,28700,32439
32492,28707,32423
32732,28705,32394
32840,28709,32172
32846,28711,32227
32870,28711,32127
32804,28711,32149
32620,28715,32151
32444,28703,32258
32540,28706,32310
32761,28702,32321
32862,28703,32315
32960,28703,32303
33070,28706,32239
33176,28716,32439
33174,28718,32335
33065,28711,32311
32977,28709,32270
32940,28711,32283
33008,28703,32287
32860,28701,32179
32882,28703,32103
32976,28707,31847
33192,28713,31829
33189,28719,31831
33092,28719,32175
33018,28713,32196
32980,28717,32173
32977,28715,32167
32976,28710,32143
33084,28707,32135
33210,28704,32119
33212,28715,32093
33356,28705,32007
33448,28720,31966
33340,28724,32007
33328,28722,32013
33383,28719,31885
33328,28721,32048
33383,28711,32018
33404,28708,31644
33317,28713,31909
33420,28713,31975
33505,28721,32046
33500,28724,32051
33604,28717,31929
33605,28719,31901
33644,28723,31886
33634,28719,31941
33710,28723,32049
33900,28715,32034
33928,28711,31861
33938,28715,31835
33744,28724,31875
33780,28724,31559
33972,28726,31783
33948,28727,31945
33836,28731,31735
33845,28727,31794
33844,28714,31741
33672,28725,31519
33684,28723,31620
33736,28721,31612
33864,28724,31697
33968,28721,31769
34061,28734,31792
33941,28735,31483
33904,28724,31601
33941,28722,31427
33700,28733,31527
33455,28723,31589
33287,28722,31623
33260,28735,31631
33310,28729,31612
33292,28739,31573
33268,28749,31533
33160,28739,31542
33040,28735,31329
32988,28732,31185
32956,28731,31247
32944,28723,31196
32946,28727,31097
32861,28733,31213
32809,28741,31103
32977,28738,31109
32898,28742,31303
32792,28739,31263
32871,28734,31028
32852,28741,30811
32783,28730,30725
32609,28732,31087
32425,28735,31055
32419,28741,30973
32332,28747,30932
32304,28742,30978
32444,28743,30980
32517,28745,30941
32452,28743,30614
32320,28745,30841
32224,28742,30863
32084,28743,30983
31956,28743,30897
31980,28743,30693
32101,28751,30776
32224,28750,30805
32102,28756,30789
32260,28750,30800
32228,28753,30785
32288,28756,30761
32184,28748,30380
32236,28749,30481
32300,28751,30659
32300,28753,30667
32196,28750,30755
32304,28759,30695
32199,28765,30607
32005,28761,30594
32005,28763,30597
32088,28753,30595
32124,28753,30573
32175,28753,30615
32165,28753,30597
32248,28761,30599
32430,28753,30461
32461,28755,30402
32367,28766,30522
32316,28765,30422
32388,28767,30559
32388,28757,30579
32340,28751,30537
32440,28751,30452
32420,28753,30423
32284,28751,30535
32420,28763,30665
32316,28765,30468
32534,28767,30456
32577,28770,30324
32492,28767,30517
32352,28767,30546
32224,28762,30471
32120,28753,30471
32224,28761,30349
32343,28757,30537
32552,28765,30663
32535,28765,30583
32671,28774,30495
32448,28771,30253
32220,28775,30564
32326,28765,30231
32290,28765,30577
32128,28754,30628
32192,28765,30622
32216,28765,30648
32252,28767,30661
32465,28775,30663
32546,28774,30695
32460,28769,30659
32296,28773,30487
32393,28775,30685
32649,28765,30487
32712,28767,30429
32800,28757,30653
32516,28773,30724
32444,28775,30823
32705,28777,30870
32678,28773,30922
32722,28781,30835
32684,28780,30827
32591,28775,30815
32552,28767,30653
32411,28767,30593
32476,28769,30945
32524,28767,30948
32560,28777,30831
32732,28783,30914
32570,28783,30983
32444,28785,30994
32357,28785,31051
32364,28779,30941
32224,28773,30991
32396,28770,30949
32444,28771,31051
32598,28773,31239
32557,28778,31316
32738,28777,31149
32784,28788,31122
32680,28787,31033
32672,28783,31209
32792,28778,31383
32799,28773,31225
32765,28769,31297
32590,28772,31318
32662,28773,30995
32485,28775,31091
32388,28783,31403
32316,28788,31511
32173,28793,31523
32160,28788,31239
31968,28785,31397
32188,28777,31461
32684,28774,31373
32964,28772,31524
33004,28771,31637
32812,28775,31328
32728,28780,31461
32797,28783,31529
