ECG,EDA,RR
33712,24925,28264
33756,24948,28492
33844,24968,28756
33904,24995,29053
33900,24997,29310
33884,24984,29575
33868,24976,29773
33841,24952,29959
33880,24932,30372
33889,24939,30559
33932,24967,30839
33808,24997,31063
33460,25024,31474
33276,25040,31713
33298,25047,31975
33312,25044,32343
33330,25030,32515
33264,25001,32720
33248,24999,33026
33296,25007,33469
33296,25019,33775
33240,25039,34036
33229,25076,34145
33149,25101,34449
33108,25101,34951
33064,25095,35221
32968,25077,35629
32904,25062,35892
32801,25049,36135
32745,25063,36392
32644,25087,36721
32648,25117,36999
32704,25137,37196
32740,25160,37755
32768,25180,38084
32828,25175,38351
32852,25159,38654
32806,25151,38965
32813,25135,39344
32764,25151,39554
32720,25167,39765
32640,25200,39916
32652,25247,40165
32672,25260,40677
32628,25264,40967
32588,25268,41113
32601,25260,41452
32608,25247,41863
32704,25236,42119
32800,25252,42287
32835,25275,42529
32900,25312,42621
33056,25341,42887
33136,25373,43453
33092,25382,43740
32756,25380,44012
32420,25373,44020
31965,25358,44364
31720,25359,44704
31856,25365,44901
32036,25394,45059
32054,25424,45517
32084,25467,45729
32080,25492,45974
32040,25501,46204
32078,25504,46510
32140,25485,46676
32178,25474,46768
32220,25466,47205
32260,25481,47469
32157,25503,47604
32148,25541,47893
32180,25572,48125
32264,25601,48064
32224,25613,48572
32216,25605,48775
32144,25599,48989
31909,25589,49149
31796,25573,49424
31901,25586,49524
32104,25613,49641
32192,25645,50063
32216,25672,50183
32253,25705,50372
32265,25711,50651
32164,25701,50823
32184,25698,50951
32176,25687,50897
32128,25671,51335
32216,25677,51525
32300,25709,51689
32264,25735,51879
32228,25771,52044
32248,25798,52181
32204,25798,52281
32204,25797,52432
32213,25790,52695
32212,25782,52855
32153,25762,52967
32160,25765,53072
32232,25790,53292
32260,25828,53439
32148,25855,53628
32190,25884,53782
32200,25889,53933
32140,25885,54068
32220,25876,54207
32240,25856,54343
32256,25853,54487
32130,25858,54661
32088,25883,54836
32052,25911,54893
32068,25940,54927
32040,25964,55008
32041,25975,55377
32149,25981,55420
32149,25952,55630
32072,25950,55778
31972,25930,55792
31916,25947,55723
31906,25973,56111
31988,25990,56258
32064,26025,56354
32080,26040,56417
32125,26054,56636
32152,26044,56729
32160,26036,56881
32120,26023,56989
32048,26008,57092
32048,26020,57148
32004,26038,57189
31985,26064,57316
32004,26092,57508
32008,26116,57607
32028,26135,57640
32009,26119,57745
32048,26110,57876
31996,26081,57957
32033,26077,58108
32160,26080,58190
32180,26098,58284
32112,26119,58396
32024,26148,58471
31966,26177,58204
31900,26184,58605
31984,26170,58749
32002,26159,58843
32001,26139,58886
32040,26119,58990
32056,26127,59065
32148,26141,59103
32164,26166,59244
32152,26198,59333
32112,26209,59375
32104,26217,59509
32058,26208,59436
32072,26190,59596
32090,26164,59767
32096,26148,59824
32140,26148,59885
32117,26170,59980
32132,26180,60036
32164,26215,60100
32168,26228,60200
32153,26223,60263
32156,26211,60345
32104,26181,60332
32040,26164,60423
32012,26141,60469
31937,26135,60564
31964,26143,60679
32012,26158,60669
32108,26176,60629
32156,26187,60858
32170,26184,60839
32132,26175,60997
32080,26141,60964
32023,26110,60679
32000,26085,61080
32024,26077,61191
32076,26085,61300
32180,26100,61351
32252,26116,61344
32320,26119,61360
32314,26109,61524
32330,26089,61567
32252,26057,61549
32125,26029,61526
32056,25996,61630
32025,25980,61692
32084,25988,61485
32144,25999,61825
32180,26018,61908
32197,26019,61959
32172,26011,61924
32164,25983,62063
32208,25957,62113
32260,25908,62168
32232,25881,62192
32248,25871,62255
32216,25869,62316
32148,25881,62343
32116,25899,62342
32044,25903,62215
32085,25895,62368
32124,25863,62431
32173,25845,62524
32108,25811,62520
32141,25771,62557
32188,25760,62588
32112,25761,62631
32016,25767,62651
32012,25791,62791
32092,25796,62788
32156,25787,62727
32148,25763,62781
32181,25729,62895
32238,25697,62909
32208,25664,62928
32168,25656,63047
32120,25661,63036
32140,25668,62975
32056,25678,63039
32085,25692,63149
32124,25681,63133
32124,25657,63166
32236,25629,63239
32308,25592,63303
32297,25565,63295
32196,25555,63343
32152,25562,63328
32124,25567,63300
32100,25583,63220
32136,25584,63441
32100,25581,63392
32056,25559,63495
32092,25533,63444
32096,25500,63463
32120,25466,63568
32136,25449,63593
32024,25460,63636
31945,25476,63622
31992,25485,63668
32016,25482,63709
32034,25482,63696
32124,25454,63708
32236,25428,63692
32408,25391,63751
32484,25373,63773
32448,25356,63789
32412,25350,63896
32313,25369,63844
32268,25377,63705
32248,25396,63871
32268,25381,63924
32332,25365,63956
32348,25328,63983
32348,25299,64005
32384,25261,64007
32504,25253,64007
32584,25253,63999
32548,25263,64007
32452,25285,64134
32370,25292,64135
32432,25291,64069
32508,25254,64001
32368,25238,64111
32216,25207,64172
32200,25172,64157
32272,25162,64244
32232,25176,64256
32192,25182,64280
32169,25199,64263
32208,25210,64252
32245,25206,64247
32312,25184,64231
32320,25148,64252
32368,25115,64284
32385,25094,64254
32376,25076,64359
32452,25084,64301
32520,25095,64356
32584,25119,63975
32596,25127,64420
32532,25123,64421
32488,25095,64408
32464,25087,64431
32504,25050,64445
32505,25027,64196
32476,25007,64484
32472,25013,64516
32500,25027,64528
32496,25044,64519
32448,25060,64552
32448,25046,64551
32424,25032,64540
32420,25007,64608
32423,24972,64581
32404,24950,64537
32380,24943,64569
32456,24954,64495
32508,24959,64477
32504,24980,64469
32426,24991,64301
32406,24989,64584
32396,24967,64044
32404,24940,64108
32284,24909,64564
32372,24885,64575
32424,24871,64562
32468,24880,64536
32540,24900,64560
32504,24908,64516
32458,24933,64445
32508,24918,64473
32504,24901,64493
32492,24877,64445
32492,24845,64484
32552,24820,64391
32553,24805,64407
32469,24815,64412
32288,24831,64348
32352,24853,64380
32416,24861,64365
32512,24860,64332
32537,24844,64237
32548,24811,64055
32524,24786,64205
32528,24761,64189
32464,24757,64125
32477,24750,64127
32500,24778,64134
32580,24790,64135
32793,24798,64079
33046,24792,63965
33367,24783,63956
33696,24755,63903
34149,24721,63820
34597,24692,63820
35196,24683,63616
35912,24688,63679
36632,24711,63288
37236,24729,63868
37536,24745,63861
37790,24753,63813
37724,24718,63844
37264,24704,63837
36236,24676,63751
34917,24667,63797
33761,24644,63840
32608,24649,63813
31668,24667,63749
30852,24684,63681
30152,24700,63674
29904,24692,63620
30052,24671,63680
30472,24643,63436
30964,24618,63366
31392,24583,63692
31560,24571,63637
31800,24573,63596
32052,24593,63572
32176,24616,63623
32252,24631,63623
32324,24620,63534
32326,24607,63476
32340,24581,63296
32344,24548,63360
32320,24527,63437
32248,24515,63517
32188,24527,63480
32188,24541,63420
32216,24558,63447
32321,24567,63500
32380,24570,63509
32384,24550,63449
32357,24524,63231
32336,24497,63472
32296,24477,63407
32329,24456,63491
32392,24473,63495
32428,24476,63428
32504,24501,63421
32520,24516,63495
32384,24519,63477
32308,24493,63492
32313,24469,63431
32360,24441,63519
32340,24415,63456
32393,24413,63462
32484,24412,63495
32484,24429,63495
32500,24445,63487
32488,24463,63479
32484,24466,63487
32552,24452,63527
32544,24423,63388
32538,24388,63484
32556,24364,63456
32537,24367,63528
32512,24372,63446
32493,24384,63239
32469,24400,63471
32489,24424,63399
32416,24423,63485
32409,24409,63356
32464,24377,62936
32556,24351,63460
32569,24327,63415
32496,24316,63398
32396,24327,63432
32495,24356,63485
32668,24357,63417
32672,24383,63068
32620,24380,63479
32648,24367,63444
32704,24342,63540
32708,24319,63460
32716,24289,63363
32708,24279,63548
32804,24289,63540
32864,24303,63479
32842,24320,63619
32761,24345,63495
32784,24340,63545
32840,24316,63607
32838,24306,63553
32844,24278,63677
32898,24247,63644
32920,24239,63546
32956,24256,63660
32992,24262,63623
33048,24284,63642
33004,24311,63719
32968,24311,63548
32961,24290,63645
32933,24271,63705
32944,24236,63668
32950,24221,63751
33000,24217,63652
33086,24223,63319
33176,24244,63732
33208,24260,63751
33248,24292,63649
33180,24283,63652
33192,24270,63684
33224,24251,63634
33332,24215,63686
33344,24199,63649
33381,24193,63599
33341,24199,63480
33284,24217,63596
33265,24234,63516
33280,24257,63564
33316,24246,63532
33341,24246,63407
33380,24224,63271
33391,24190,63412
33441,24172,63333
33446,24158,63367
33396,24175,63276
33380,24182,63073
33417,24215,63228
33468,24236,63144
33500,24239,63111
33460,24221,63100
33468,24197,63021
33472,24177,63052
33508,24146,62936
33480,24143,62855
33488,24154,62833
33432,24170,62765
33390,24200,62720
33360,24214,62776
33384,24208,62727
33360,24199,62640
33372,24180,62713
33332,24151,62628
33340,24139,62169
33300,24119,62593
33317,24138,62575
33240,24151,62471
33156,24172,62500
33092,24197,62532
33070,24189,62530
33156,24172,62527
33172,24164,62505
33141,24134,62431
33120,24108,62362
33061,24100,62414
33094,24121,62452
33096,24128,62388
33064,24152,62373
33096,24174,62373
33072,24181,62485
33040,24161,62500
32972,24138,62484
32944,24124,62532
32912,24087,62557
32885,24082,62548
32836,24100,62583
32812,24112,62471
32784,24136,62205
32876,24152,62548
32940,24163,62616
32932,24143,62598
32924,24124,62692
32876,24089,62695
32876,24071,62621
32892,24063,62500
32856,24081,62775
32820,24097,62737
32800,24124,62791
32820,24143,62854
32772,24150,62629
32797,24133,62933
32808,24112,62888
32760,24093,62961
32740,24055,63052
32760,24061,62978
32761,24057,62895
32748,24080,62608
32775,24105,62908
32776,24121,63140
32764,24127,63204
32752,24117,63253
32760,24093,63303
32824,24068,63340
32841,24047,63356
32741,24039,63386
32660,24051,63393
32633,24071,63400
32733,24096,63525
32772,24108,63493
32820,24108,63450
32790,24097,63517
32782,24071,63325
32748,24053,63271
32769,24024,63352
32764,24031,63181
32756,24032,63716
32780,24060,63737
32796,24069,63748
32828,24095,63749
32828,24098,63775
32765,24077,63780
32684,24060,63900
32688,24040,63942
32708,24004,63911
32694,24010,63807
32704,24015,63952
32708,24036,64007
32644,24050,64047
32628,24081,64047
32640,24084,64085
32641,24069,64100
32684,24037,64132
32716,24025,64148
32708,23996,63828
32680,23975,64109
32648,24000,63948
32612,24013,64172
32616,24036,64276
32672,24063,64332
32724,24063,64352
32648,24045,64360
32609,24028,64404
32545,24001,64391
32532,23975,64425
32532,23966,64420
32536,23978,64471
32600,24009,64453
32580,24028,64437
32548,24045,64415
32464,24047,64420
32424,24042,64439
32424,24012,64447
32460,23992,64069
32460,23964,64519
32440,23956,64548
32448,23975,64519
32464,23988,64544
32476,24017,64570
32508,24037,64618
32560,24039,64642
32612,24024,64660
32608,24015,64663
32604,23977,64644
32596,23960,64679
32604,23956,64647
32620,23961,64608
32564,23980,64629
32512,23995,64665
32476,24029,64676
32440,24036,64647
32496,24017,64607
32509,23999,64608
32472,23975,64580
32536,23957,64553
32548,23949,64568
32532,23959,64428
32484,23980,64408
32440,23998,64544
32420,24022,64108
32408,24030,64604
32364,24028,64608
32374,24004,64545
32364,23975,64532
32375,23950,64561
32414,23954,64551
32476,23959,64512
32545,23985,64500
32541,24004,64485
32532,24025,64503
32516,24036,64492
32544,24029,64519
32561,24015,64540
32527,23980,64519
32544,23965,64500
32536,23957,64485
32524,23965,64428
32472,23983,64391
32480,24020,64344
32520,24031,64391
32548,24040,64239
32564,24030,64444
32528,24015,64416
32488,23985,64452
32452,23969,64380
32440,23962,64321
32428,23975,64287
32400,24001,64080
32370,24024,64314
32344,24040,64332
32325,24049,64340
32272,24047,64332
32232,24026,64324
32208,24004,64323
32312,23966,64295
32406,23975,64258
32465,23991,64291
32468,24007,64284
32513,24023,64252
32512,24055,64189
32500,24055,64199
32540,24053,64220
32604,24035,64189
32588,24019,64255
32489,23990,64285
32424,23981,64322
32340,23996,64340
32368,24010,64339
32520,24039,64340
32592,24066,64357
32576,24081,64359
32633,24057,64342
32576,24045,64391
32544,24027,64420
32558,23999,64365
32576,23990,64446
32612,24007,64416
32598,24020,64415
32564,24049,64423
32572,24071,64468
32586,24083,64471
32568,24082,64500
32580,24044,64516
32652,24023,64518
32724,24008,64555
32752,23995,64567
32718,24015,64555
32652,24045,64560
32628,24059,64564
32652,24087,64592
32653,24092,64647
32652,24077,64647
32600,24063,64621
32564,24039,64588
32612,24015,64582
32614,24004,64554
32660,24021,64703
32624,24044,64703
32536,24062,64716
32548,24089,64720
32568,24101,64743
32569,24087,64357
32520,24071,64542
32588,24049,64500
32678,24030,64671
32692,24018,64700
32728,24039,64773
32814,24047,64796
32813,24071,64809
32736,24099,64800
32732,24104,64808
32740,24111,64814
32780,24079,64807
32832,24052,64788
32808,24029,64775
32804,24029,64775
32805,24041,64756
32770,24059,64756
32717,24084,64749
32664,24109,64748
32640,24115,64756
32636,24115,64748
32632,24099,64728
32584,24068,64757
32568,24048,64740
32608,24041,64692
32624,24049,64647
32704,24077,64629
32760,24101,64597
32752,24125,64472
32736,24135,64646
32756,24120,64673
32684,24105,64604
32596,24095,64660
32564,24063,64636
32556,24062,64628
32580,24071,64610
32620,24092,64556
32657,24119,64516
32748,24151,64039
32762,24151,64508
32820,24145,64508
32873,24127,64455
32909,24118,64484
32824,24080,64485
32721,24080,64471
32668,24093,64445
32700,24110,64431
32680,24144,64420
32768,24167,64400
32816,24180,64381
32805,24175,64372
32832,24151,64356
32861,24135,64324
32840,24105,64300
32800,24106,64295
32820,24119,64217
32828,24149,64229
32820,24165,64228
32856,24197,64199
32864,24209,64109
32824,24196,64113
32820,24186,64091
32769,24180,64068
32730,24143,64084
32708,24141,64007
32628,24155,63980
32556,24170,63981
32552,24199,63943
32604,24223,63924
32668,24245,63916
32728,24214,63879
32748,24213,63863
32692,24199,63800
32708,24165,63751
32728,24169,63748
32736,24186,63748
32737,24199,63717
32740,24231,63644
32760,24263,63596
32800,24269,63580
32808,24253,63580
32808,24247,63512
32836,24231,63516
32856,24203,63532
32760,24212,63471
32728,24213,63396
32629,24236,63397
32612,24257,63421
32640,24293,63400
32664,24297,63367
32665,24293,63312
32624,24279,63304
32637,24260,63239
32633,24235,63205
32628,24230,63215
32656,24246,63261
32684,24269,63253
32640,24292,63212
32576,24327,63181
32548,24324,63172
32605,24322,63151
32655,24306,63078
32652,24288,63101
32617,24266,63031
32540,24265,62976
32564,24269,62789
32608,24293,62681
32672,24323,62982
32680,24359,62997
32648,24360,62941
32632,24365,62471
32640,24340,62908
32688,24324,62523
32712,24295,62388
32676,24292,62855
32708,24309,62836
32710,24316,62852
32688,24349,62528
32641,24383,62386
32617,24387,62493
32644,24380,62668
32700,24365,62653
32852,24335,62816
33056,24321,62828
33309,24316,62749
33564,24335,62855
33904,24357,62808
34368,24376,62727
34892,24412,62580
35556,24414,62791
36254,24408,62752
36860,24391,62700
37360,24367,62804
37764,24364,62777
37984,24347,62716
37896,24365,62548
37368,24389,62309
36236,24419,62663
34916,24449,62767
33756,24452,62723
32428,24449,62668
31464,24431,62788
30672,24414,62716
30104,24383,62679
29944,24377,62624
30116,24383,62592
30560,24407,62591
31084,24423,62624
31556,24453,62580
31844,24455,62599
32048,24452,62583
32200,24437,62557
32332,24419,62573
32349,24392,62541
32340,24396,62536
32392,24399,62512
32461,24422,62087
32484,24444,62573
32460,24471,62676
32408,24487,62614
32390,24471,62629
32392,24461,62608
32380,24439,62727
32386,24420,62654
32416,24417,62657
32492,24419,62727
32495,24451,62764
32476,24469,62774
32488,24498,62727
32501,24504,62850
32556,24497,62775
32588,24486,62784
32596,24469,62695
32600,24436,62809
32524,24436,62892
32525,24447,62925
32536,24465,62833
32548,24487,62885
32585,24512,62975
32600,24541,63000
32552,24533,62982
32524,24509,62983
32604,24488,63052
32620,24476,63000
32648,24469,62961
32622,24468,62919
32600,24501,62652
32604,24521,62824
32604,24548,62949
32592,24562,62972
32582,24549,62937
32630,24536,62772
32636,24527,63021
32680,24494,63039
32660,24497,62940
32672,24504,63007
32681,24524,63055
32725,24555,63039
32708,24583,62952
32720,24588,62919
32661,24583,62873
32652,24566,62897
32708,24551,62959
32782,24526,62919
32788,24530,62884
32796,24538,62890
32840,24563,62872
32888,24590,62908
32900,24617,62916
32897,24624,62919
32884,24625,62909
32872,24610,62900
32846,24605,62886
32892,24575,62816
32984,24567,62825
33072,24578,62834
33100,24593,62781
33088,24622,62848
33132,24650,62823
33122,24666,62807
33108,24660,62765
33084,24647,62824
33068,24632,62828
33136,24612,62877
33156,24601,62852
33220,24613,62861
33216,24639,62834
33196,24664,62838
33184,24692,62825
33216,24703,62783
33276,24702,62701
33361,24688,62727
33384,24669,62772
33460,24648,62727
33436,24642,62727
33368,24652,62641
33409,24672,62632
33496,24696,62674
33548,24729,62423
33509,24742,62311
33544,24743,62322
33561,24733,62683
33576,24710,62724
33592,24679,62748
33620,24678,62727
33632,24695,62648
33652,24713,62609
33657,24740,62651
33693,24764,62599
33708,24781,62436
33721,24778,62471
33728,24759,62428
33760,24748,62453
33780,24727,62428
33804,24706,62460
33752,24724,62470
33740,24745,62468
33652,24772,62516
33584,24792,62503
33592,24813,62456
33601,24809,62456
33613,24797,62460
33564,24772,62417
33560,24761,62406
33576,24751,62400
33533,24759,62388
33476,24786,62296
33404,24804,62292
33380,24837,62343
33392,24851,62288
33376,24837,62276
33360,24831,62295
33348,24808,62245
33294,24786,62214
33260,24770,62197
33280,24788,62153
33228,24807,62184
33304,24831,62246
33376,24858,62240
33360,24868,62236
33228,24876,62230
33150,24850,62191
33146,24832,62207
33224,24817,62215
33200,24801,62208
33172,24820,62197
33172,24839,62087
33164,24861,62036
33196,24893,61990
33172,24903,61748
33068,24892,62013
33088,24880,62103
33116,24860,62085
33117,24835,61983
33142,24828,62070
33116,24839,62079
33048,24858,61998
33008,24880,61948
33048,24905,61873
33084,24924,61513
33056,24917,62020
32976,24911,61905
32912,24881,62028
32892,24859,61927
32864,24853,61840
32830,24862,61871
32838,24879,61767
32924,24897,61812
32972,24932,61927
32944,24943,61895
33001,24937,61810
33004,24929,61894
32952,24905,61809
32904,24871,61821
32920,24865,61820
32968,24869,61765
32956,24893,61741
32944,24919,61772
32864,24943,61764
32848,24960,61768
32912,24945,61767
32946,24934,61746
32917,24918,61717
32910,24898,61620
32854,24881,61301
32852,24892,61575
32850,24910,61596
32852,24923,61620
32800,24958,61613
32782,24967,61564
32756,24974,61503
32788,24958,61569
32824,24937,61540
32864,24910,61447
32844,24893,61436
32805,24901,61236
32732,24924,61508
32720,24946,61471
32744,24979,61384
32744,24987,61415
32712,24981,61461
32672,24967,61468
32664,24943,61469
32656,24912,61447
32692,24904,61439
32733,24914,61356
32766,24930,61221
32764,24959,61340
32612,24981,61392
32480,25001,61276
32464,24989,61273
32556,24965,61296
32668,24957,61370
32653,24924,61280
32664,24916,61223
32672,24913,61253
32664,24939,61255
32688,24960,61218
32641,24987,61281
32696,24992,61159
32724,24993,61113
32760,24980,60838
32716,24958,61039
32664,24924,61107
32657,24920,61132
32637,24928,61089
32637,24946,61119
32564,24967,61048
32568,24988,61063
32510,24999,61072
32536,24996,61021
32493,24980,61029
32489,24962,61030
32556,24933,61092
32616,24925,61063
32632,24923,60996
32680,24949,61044
32696,24969,61089
32664,24996,60953
32608,25012,60862
32527,25001,60524
32520,24983,61010
32520,24967,61045
32528,24932,61030
32480,24927,60935
32477,24923,60933
32508,24948,60916
32480,24967,61021
32472,24997,60996
32501,25007,60884
32564,25001,60577
32576,24991,60927
32502,24964,60953
32465,24936,60880
32440,24929,60964
32444,24930,60935
32468,24950,60924
32440,24972,60905
32448,24997,60880
32448,25010,60845
32464,25005,60751
32391,24989,60783
32372,24967,60868
32332,24943,60877
32342,24931,60876
32412,24936,60767
32413,24948,60764
32450,24973,60732
32456,24998,60724
32448,25001,60748
32396,25002,60692
32392,24980,60679
32400,24965,60737
32412,24932,60679
32380,24924,60656
32364,24924,60612
32343,24948,60527
32340,24968,60542
32369,24998,60572
32364,25013,60533
32388,25002,60532
32300,24991,60471
32332,24962,60473
32356,24933,60535
32356,24918,60423
32356,24922,60481
32393,24951,60496
32416,24967,60463
32412,24996,60460
32420,25006,60416
32448,24999,60340
32464,24983,60292
32440,24967,60244
32344,24935,60140
32272,24922,60167
32288,24933,60033
32392,24945,59800
32492,24967,60071
32496,24996,60204
32428,25015,60240
32416,24999,60285
32397,24980,60156
32428,24964,60233
32456,24940,59805
32480,24927,59768
32448,24932,59967
32424,24951,59668
32460,24967,59829
32448,24995,59652
32472,25011,60079
32480,24999,60063
32544,24982,59965
32624,24967,60060
32613,24957,60039
32540,24923,60012
32512,24933,59984
32524,24944,59967
32489,24966,59900
32460,24999,59911
32464,25003,59900
32432,25005,59846
32484,24981,59847
32508,24964,59768
32448,24941,59726
32329,24925,59684
32284,24926,59636
32312,24947,59677
32302,24967,59700
32388,25003,59669
32472,24995,59645
32476,24998,59565
32512,24987,59584
32556,24967,59551
32540,24938,59575
32536,24927,59492
32510,24927,59482
32488,24949,59462
32545,24965,59431
32544,24986,59399
32544,25013,59493
32493,24996,59396
32516,24983,59389
32448,24958,59373
32390,24925,59395
32444,24917,59373
32444,24923,59271
32480,24936,59285
32508,24967,59292
32517,24996,59337
32520,24999,59333
32468,24999,59189
32444,24980,59111
32444,24959,59177
32468,24931,59124
32532,24916,59143
32526,24925,59172
32540,24940,59129
32556,24962,58716
32604,24980,59157
32616,25009,59164
32596,24999,59117
32476,24983,58706
32520,24956,59061
32512,24927,59127
32520,24912,59092
32540,24919,59063
32636,24941,59079
32685,24958,59060
32688,24989,58945
32593,24994,58966
32544,24994,59015
32492,24980,58992
32508,24959,58999
32516,24929,58916
32569,24925,58855
32592,24918,58949
32616,24935,58943
32644,24963,58912
32692,24988,58861
32669,24997,58716
32661,24992,58631
32693,24983,58663
32724,24959,58324
32736,24935,58797
32690,24922,58698
32674,24919,58713
32680,24940,58660
32652,24967,58636
32644,24983,58741
32708,25009,58620
32752,24996,58328
32772,24985,58516
32720,24967,58119
32736,24941,58559
32644,24916,58580
32600,24919,58607
32640,24939,58613
32644,24967,58573
32656,24984,58540
32648,25006,58484
32640,25005,58456
32644,24983,58471
32660,24963,58471
32668,24932,58549
32652,24925,58511
32664,24926,58401
32673,24942,58399
32664,24962,58375
32672,24991,58393
32685,25012,58368
32736,25005,58375
32828,24991,58433
32824,24967,58429
32753,24950,58456
32720,24929,58450
32737,24933,58421
32720,24953,58317
32685,24967,58374
32662,25001,58370
32676,25017,58372
32676,25013,58388
32669,25004,58375
32628,24967,58375
32645,24944,58369
32620,24933,58343
32576,24939,58029
32610,24960,58117
32684,24976,58295
32718,24996,58329
32644,25017,58344
32620,25010,58309
32672,24997,58341
32690,24983,58340
32724,24954,58200
32764,24949,58303
32796,24943,58231
32782,24961,57998
32732,24985,58222
32672,25013,58284
32650,25026,58204
32720,25028,58246
32737,25007,58296
32712,24997,58220
32685,24967,58263
32708,24949,58287
32752,24959,58285
32737,24973,58279
32721,24998,58253
32737,25022,58270
32764,25034,58228
32828,25035,58181
32956,25017,58231
33136,25009,58132
33436,24980,57856
33756,24957,57908
34114,24956,58116
34532,24985,58119
35056,25004,58172
35780,25031,58159
36632,25044,58185
37416,25052,58180
37988,25041,58247
38473,25031,58247
38805,24995,58260
38820,24977,58159
38412,24988,58228
37316,25013,58188
35820,25039,58247
34416,25061,58247
33000,25084,58183
31772,25085,58161
30800,25070,58190
30132,25052,58213
29900,25019,58204
30072,25001,58212
30516,25006,58180
31040,25029,57756
31528,25046,57924
31752,25068,57967
31818,25084,58071
31936,25087,58063
31981,25076,58087
32085,25048,58070
32177,25028,58111
32304,25015,58103
32382,25018,58109
32348,25037,58103
32340,25061,58061
32356,25090,57999
32373,25103,58061
32392,25109,58029
32420,25089,58055
32460,25070,58157
32504,25052,58100
32493,25031,58045
32480,25045,58180
32416,25058,58216
32376,25079,58141
32413,25103,58236
32436,25134,57863
32480,25127,58168
32524,25125,58281
32545,25095,58236
32552,25073,58284
32536,25055,57852
32520,25060,58229
32464,25081,58284
32443,25103,58271
32521,25141,58297
32542,25149,58079
32505,25153,58206
32480,25145,58300
32524,25125,58224
32584,25108,58221
32580,25085,58262
32650,25092,57785
32592,25116,58148
32556,25137,58220
32584,25164,58236
32623,25180,58119
32584,25178,58228
32489,25178,57708
32404,25156,58105
32436,25131,58190
32553,25115,58108
32616,25124,58092
32676,25149,58105
32714,25163,58039
32716,25193,58119
32708,25209,58084
32752,25214,57917
32745,25201,58087
32738,25188,57988
32714,25167,58084
32740,25147,57719
32797,25153,57904
32812,25179,57909
32836,25191,57951
32864,25224,57928
32884,25247,58031
32864,25247,58004
32892,25235,58037
32940,25218,58061
32984,25191,58020
32984,25177,58044
33018,25185,58061
33036,25206,58055
33048,25237,58076
33088,25255,58055
33078,25274,58068
33100,25280,58028
33174,25263,58055
33229,25247,58092
33276,25229,58087
33344,25204,58111
33365,25223,58020
33342,25231,58055
33380,25256,58119
33396,25284,58117
33444,25314,58095
33522,25306,58052
33484,25303,57853
33405,25284,57756
33420,25264,57685
33440,25247,58048
33476,25251,58036
33500,25270,58069
33528,25296,58049
33596,25321,58116
33684,25345,58133
33722,25343,58116
33736,25337,58118
33780,25316,58119
33812,25294,58100
33788,25283,58101
33768,25288,57991
33820,25303,57988
33780,25333,58001
33728,25365,58012
33712,25380,58060
33684,25386,58052
33673,25373,57988
33708,25351,57580
33732,25336,57664
33789,25316,57545
33776,25319,57988
33760,25343,57999
33708,25367,57973
33732,25399,57965
33728,25416,57975
33692,25424,57972
33712,25415,57959
33716,25391,57900
33656,25372,57832
33624,25351,57677
33592,25367,57548
33568,25383,57863
33500,25405,57860
33512,25432,57893
33465,25453,57860
33400,25463,57892
33429,25444,57892
33412,25437,57863
33432,25413,57844
33448,25399,57832
33456,25396,57832
33430,25412,57841
33376,25443,57847
33354,25471,57840
33336,25496,57735
33332,25501,57759
33302,25487,57786
33296,25476,57735
33316,25445,57693
33272,25434,57604
33192,25439,57801
33096,25458,57798
33028,25479,57719
33044,25511,57790
32996,25529,57333
32892,25541,57732
32936,25533,57772
32993,25511,57729
33012,25482,57711
32996,25468,57711
33024,25476,57696
33024,25493,57720
33029,25524,57675
33024,25548,57605
32941,25561,57500
32908,25579,57588
32921,25560,57607
32940,25546,57651
32961,25526,57600
32900,25511,57637
32880,25515,57652
32848,25524,57607
32836,25556,57603
32830,25584,57585
32868,25607,57536
32872,25607,57580
32912,25603,57553
32952,25577,57557
32974,25559,57432
32984,25548,57439
32948,25552,57501
32964,25564,57389
32932,25588,57349
32886,25620,57412
32916,25632,57444
32924,25651,57319
32876,25637,57382
32856,25623,57351
32808,25598,57268
32793,25575,56839
32788,25575,57169
32772,25603,57140
32736,25633,57161
32714,25660,57194
32748,25679,57223
32757,25684,57191
32828,25676,57144
32804,25653,57115
32804,25637,57092
32744,25617,57048
32736,25619,56961
32720,25632,57032
32720,25661,56803
32744,25692,56980
32752,25719,56951
32740,25725,56837
32737,25707,56908
32720,25693,56831
32700,25676,56839
32669,25655,56776
32645,25657,56837
32618,25677,56505
32632,25701,56724
32620,25724,56765
32620,25753,56722
32558,25756,56583
32512,25749,56647
32564,25720,56630
32552,25706,56519
32584,25686,56612
32669,25691,56560
32708,25704,56455
32661,25732,56444
32626,25764,56455
32640,25789,56501
32660,25790,56429
32728,25781,56389
32742,25759,56357
32769,25742,56381
32708,25727,56308
32621,25721,56071
32536,25743,56232
32448,25769,56242
32428,25794,56311
32449,25823,56189
32492,25823,56232
32492,25817,56113
32504,25789,56199
32568,25768,56184
32600,25757,56126
32580,25753,56196
32540,25775,55768
32508,25793,56071
32464,25827,56149
32480,25851,56116
32484,25856,56089
32476,25840,56119
32528,25831,55815
32572,25807,56064
32504,25786,55972
32484,25792,56036
32456,25802,55943
32416,25833,55940
32400,25861,55957
32424,25882,55999
32376,25884,55976
32396,25871,55943
32381,25858,55860
32320,25829,55895
32352,25815,55876
32365,25823,55492
32385,25831,55668
32384,25861,55808
32332,25885,55863
32292,25908,55741
32320,25915,55809
32361,25905,55716
32384,25884,55692
32421,25862,55720
32420,25849,55736
32372,25842,55646
32337,25864,55580
32293,25889,55700
32308,25922,55600
32296,25939,55643
32234,25938,55264
32250,25926,55525
32288,25918,55580
32328,25883,55500
32344,25873,55548
32360,25874,55492
32392,25893,55297
32442,25916,55372
32432,25948,55470
32304,25958,55460
32224,25973,55356
32244,25959,55393
32276,25941,55373
32281,25923,55079
32288,25892,55375
32316,25903,55269
32316,25915,55303
32260,25945,55221
32236,25972,54824
32228,25992,54984
32244,25991,55197
32280,25983,55232
32312,25963,55119
32336,25951,55149
32364,25923,55164
32372,25925,54700
32416,25943,55021
32404,25962,55004
32386,25991,55068
32401,26005,55086
32377,26017,55041
32320,26005,54919
32340,25986,54972
32356,25965,54895
32352,25949,54948
32384,25949,54869
32393,25961,54558
32388,25988,54505
32384,26013,54787
32330,26037,54749
32340,26041,54588
32396,26035,54591
32424,26019,54492
32417,25993,54711
32384,25971,54645
32380,25971,54648
32408,25987,54671
32456,26010,54655
32484,26037,54560
32481,26061,54607
32456,26069,54581
32348,26053,54484
32392,26031,54469
32400,26013,54113
32421,25990,54505
32412,25991,54511
32432,26005,54484
32460,26031,54457
32502,26052,54440
32416,26081,54388
32340,26091,54317
32332,26078,54313
32286,26054,54368
32304,26038,54364
32308,26015,54249
32348,26020,54242
32420,26025,54327
32452,26052,54233
32452,26078,54199
32476,26103,54279
32525,26106,54172
32536,26095,54248
32544,26082,54252
32572,26055,54212
32604,26027,54133
32624,26024,54124
32652,26053,54100
32660,26067,54156
32640,26100,54148
32640,26119,54112
32628,26127,54100
32612,26117,54064
32600,26095,54096
32536,26076,53758
32508,26044,54029
32472,26052,54079
32408,26065,54006
32420,26085,53957
32449,26116,54023
32460,26137,53999
32448,26143,53823
32456,26128,53944
32452,26108,53980
32436,26084,53895
32462,26073,53956
32520,26062,53893
32560,26079,53729
32564,26117,53836
32580,26127,53548
32588,26154,53852
32600,26159,53895
32609,26149,53784
32580,26131,53842
32560,26100,53837
32588,26083,53852
32645,26079,53820
32696,26092,53765
32695,26116,53791
32600,26141,53820
32544,26156,53812
32500,26171,53792
32500,26150,53780
32460,26140,53780
32424,26114,53766
32440,26088,53677
32456,26084,53762
32453,26095,53759
32540,26127,53724
32560,26148,53335
32601,26174,53487
32621,26183,53620
32505,26165,53688
32448,26143,53712
32464,26127,53633
32504,26090,53636
32536,26098,53709
32516,26109,53648
32516,26137,53541
32429,26156,53652
32420,26179,53684
32508,26182,53600
32472,26173,53677
32444,26148,53614
32422,26119,53537
32384,26107,53664
32460,26100,53628
32500,26120,53639
32516,26145,53597
32537,26161,53639
32544,26190,53669
32513,26185,53613
32504,26177,53681
32442,26153,53639
32428,26132,53586
32442,26118,53702
32477,26108,53629
32572,26127,53636
32717,26153,53668
32980,26176,53668
33308,26196,53688
33716,26199,53477
34204,26181,53700
34764,26163,53639
35424,26142,53716
36216,26110,53668
37008,26116,53732
37712,26132,53652
38268,26156,53710
38680,26183,53687
38848,26204,53748
38568,26207,53647
37692,26204,53732
36272,26180,53628
34853,26161,53764
33436,26140,53728
32149,26143,53671
31084,26161,53646
30232,26181,53736
29776,26204,53532
29840,26222,53704
30148,26223,53716
30580,26212,53628
30996,26186,53700
31356,26159,53637
31636,26135,53672
31868,26130,53648
32044,26157,53684
32212,26167,53429
32332,26194,53684
32368,26221,53591
32364,26220,53671
32352,26205,53287
32244,26190,53639
32188,26165,53668
32248,26144,53596
32264,26140,53693
32240,26163,53716
32225,26181,53717
32301,26201,53333
32344,26224,53663
32412,26223,53788
32417,26213,53803
32404,26191,53732
32484,26173,53833
32464,26142,53863
32428,26142,53876
32404,26167,53526
32384,26183,53804
32344,26207,53895
32340,26231,53880
32368,26236,53804
32432,26227,53836
32488,26195,53878
32468,26183,53568
32368,26159,53855
32356,26157,53892
32438,26170,53798
32534,26197,53863
32580,26215,53877
32609,26236,53454
32648,26242,53708
32668,26220,53812
32628,26205,53732
32604,26191,53789
32596,26167,53507
32596,26170,53740
32596,26183,53700
32596,26201,53718
32672,26220,53661
32672,26255,53573
32660,26247,53661
32592,26239,53541
32540,26216,53575
32549,26206,53556
32580,26173,53461
32596,26176,53543
32672,26196,53453
32740,26212,53322
32752,26241,53374
32684,26262,53421
32668,26264,53335
32620,26247,53380
32645,26231,53396
32676,26207,53349
32704,26188,53228
32736,26185,53336
32798,26193,53332
32884,26217,53311
33008,26247,53160
33040,26269,53317
33085,26271,53216
33109,26271,53285
33036,26241,53157
32988,26213,53269
33032,26196,53228
33076,26196,53255
33106,26212,53255
33135,26231,53255
33168,26279,53197
33212,26276,53270
33248,26287,53252
33318,26273,53152
33373,26252,53255
33412,26223,53205
33428,26207,53245
33440,26199,53220
33469,26220,52988
33496,26241,52959
33545,26265,53024
33624,26288,53093
33620,26295,53236
33561,26281,53192
33592,26262,52999
33656,26235,53188
33648,26213,53181
33664,26217,53172
33636,26231,53055
33680,26252,53096
33677,26279,53119
33733,26303,53112
33820,26300,53052
33900,26284,52743
33916,26269,52768
33884,26245,52871
33864,26225,52869
33832,26223,52917
33817,26236,52972
33824,26267,52576
33740,26285,52824
33673,26310,52887
33692,26309,52889
33724,26288,52807
33712,26273,52825
33744,26252,52824
33788,26229,52831
33824,26231,52756
33824,26241,52680
33829,26266,52653
33784,26293,52660
33692,26312,52692
33608,26309,52694
33600,26303,52607
33548,26281,52520
33460,26258,52536
33452,26245,52572
33452,26241,52588
33472,26244,52504
33509,26276,52509
33527,26300,52508
33496,26316,52463
33476,26320,52160
33424,26300,52333
33380,26286,52377
33376,26260,52373
33324,26247,52399
33196,26240,52388
33148,26253,52345
33108,26280,52261
33080,26307,52315
33149,26322,52317
33180,26333,52253
33204,26314,51864
33152,26303,52097
33124,26268,52069
33157,26252,52079
33120,26244,52156
33032,26260,52193
32980,26284,52185
32949,26306,52095
32896,26329,52092
32854,26330,52132
32873,26316,52125
32916,26302,52025
32952,26277,51999
33004,26244,52012
32988,26246,52084
32952,26260,52027
32888,26284,51989
32812,26312,51900
32768,26335,51884
32788,26341,51896
32832,26321,51873
32833,26308,51908
32892,26276,51889
32916,26255,51910
32872,26252,51903
32848,26262,51892
32824,26283,51904
32808,26306,51893
32816,26339,51875
32792,26337,51761
32760,26327,51766
32760,26305,51799
32780,26276,51801
32800,26267,51788
32800,26252,51766
32869,26268,51745
32823,26285,51719
32764,26311,51489
32692,26338,51573
32657,26343,51572
32618,26327,51636
32672,26306,51652
32724,26284,51520
32716,26258,51622
32696,26253,51311
32676,26268,51463
32685,26286,51564
32720,26309,51552
32716,26341,51509
32592,26334,51462
32528,26327,51424
32604,26309,51412
32680,26273,51423
32764,26260,51460
32780,26254,51463
32712,26269,51103
32708,26285,51404
32644,26301,51367
32600,26334,51388
32522,26339,51406
32510,26328,51383
32601,26301,51287
32612,26280,51327
32676,26263,51372
32708,26256,51100
32616,26265,51335
32600,26292,51356
32576,26317,51281
32549,26336,50934
32508,26335,51247
32540,26333,51317
32588,26301,51295
32653,26284,51120
32728,26263,51287
32708,26250,51279
32652,26268,50892
32576,26293,51175
32532,26308,51207
32480,26335,51184
32476,26337,51255
32584,26324,51047
32632,26308,51254
32665,26284,51180
32584,26267,51231
32528,26261,51207
32556,26271,50951
32648,26287,51172
32684,26318,51152
32708,26335,51231
32700,26341,51193
32637,26328,51189
32585,26310,51097
32556,26276,51225
32528,26255,51145
32568,26256,51188
32536,26272,50880
32516,26292,51136
32558,26308,51180
32548,26336,51185
32588,26342,51149
32580,26330,51188
32544,26308,51165
32572,26286,51127
32560,26261,51139
32516,26260,50940
32468,26271,50980
32440,26295,50900
32405,26316,51021
32428,26341,51078
32408,26340,51147
32376,26325,51054
32433,26305,51089
32560,26277,51079
32584,26261,50713
32472,26261,50796
32381,26270,50917
32317,26289,50893
32292,26313,50975
32292,26336,51045
32264,26337,50951
32292,26322,50978
32344,26311,51004
32348,26273,50757
32384,26255,50849
32424,26247,50909
32444,26269,50968
32445,26276,50849
32404,26308,50927
32360,26329,50580
32300,26335,50796
32317,26322,50901
32330,26296,50871
32343,26276,50847
32352,26263,50510
32349,26256,50865
32268,26266,50773
32164,26291,50804
32212,26309,50855
32217,26335,50805
32200,26337,50685
32216,26323,50788
32295,26298,50756
32333,26276,50788
32306,26257,50815
32320,26245,50773
32364,26265,50660
32384,26295,50660
32400,26315,50724
32376,26335,50756
32384,26340,50751
32405,26317,50677
32372,26301,50682
32388,26277,50685
32464,26248,50679
32448,26263,50717
32388,26263,50664
32336,26284,50530
32340,26313,50671
32321,26325,50600
32324,26333,50665
32324,26316,50662
32320,26295,50292
32388,26275,50272
32396,26252,50512
32406,26244,50544
32392,26269,50600
32400,26280,50596
32388,26304,50518
32365,26329,50501
32388,26333,50478
32452,26307,50502
32426,26293,50567
32364,26279,50565
32320,26252,50540
32312,26241,50556
32364,26258,50540
32420,26277,50529
32428,26306,50429
32421,26325,50503
32440,26333,50524
32501,26311,50486
32564,26292,50479
32593,26271,50415
32519,26244,50496
32480,26239,50503
32455,26251,50515
32380,26273,50439
32308,26309,50431
32265,26324,50439
32229,26320,50525
32314,26305,50384
32396,26292,50463
32456,26267,50517
32528,26243,50341
32416,26241,50532
32396,26254,50541
32506,26278,50447
32600,26305,50556
32625,26319,50511
32631,26319,50490
32576,26304,50580
32516,26293,50524
32442,26260,50485
32388,26239,50487
32332,26239,50533
32304,26251,50580
32320,26267,50454
32404,26304,50580
32457,26317,50559
32484,26313,50585
32482,26304,50287
32556,26284,50516
32625,26261,50583
32676,26237,50597
32717,26232,50588
32700,26247,50604
32588,26269,50229
32497,26289,50479
32557,26319,50557
32601,26319,50612
32560,26303,50511
32544,26280,50599
32572,26256,50592
32608,26233,50504
32688,26228,50567
32712,26242,50549
32704,26268,50212
32656,26295,50440
32644,26309,50567
32676,26309,50517
32760,26296,50477
32764,26278,50556
32684,26254,50508
32564,26233,50272
32457,26228,50453
32368,26239,50548
32352,26263,50452
32454,26276,50439
32549,26311,50524
32588,26308,50500
32616,26294,50292
32572,26272,50493
32576,26247,50525
32540,26229,50448
32452,26226,50492
32452,26239,50535
32502,26253,50543
32568,26273,50516
32596,26300,50509
32664,26307,50545
32700,26294,50542
32656,26271,50540
32608,26247,50557
32552,26222,50492
32504,26220,50566
32524,26225,50543
32512,26254,50465
32452,26276,50549
32488,26300,50575
32552,26301,50580
32612,26287,50209
32673,26263,50493
32701,26234,50608
32724,26206,50513
32732,26207,50565
32785,26221,50612
32724,26247,50564
32668,26268,50412
32812,26290,50385
33124,26280,50470
33374,26279,50580
33620,26255,50600
33980,26229,50554
34378,26203,50631
35048,26207,50311
35956,26217,50521
36872,26239,50606
37676,26259,50564
38368,26292,50464
38924,26277,50639
39264,26269,50581
39264,26244,50612
38808,26228,50604
37616,26208,50240
36101,26207,50237
34668,26225,50261
32984,26247,50528
31552,26273,50557
30584,26297,50537
29908,26300,50567
29716,26284,50527
29944,26260,50156
30400,26234,50373
30920,26209,50500
31428,26197,50406
31772,26208,50469
31924,26229,50423
32020,26254,50229
32112,26278,50376
32144,26273,50375
32160,26260,50332
32200,26237,50325
32205,26222,50356
32232,26191,50359
32328,26188,50023
32372,26201,49996
32421,26221,50135
32452,26253,50276
32500,26265,50381
32492,26265,50298
32428,26255,50385
32332,26239,50405
32348,26215,50404
32388,26193,50392
32268,26185,50300
32204,26203,50388
32204,26217,50439
32196,26247,50380
32244,26276,50412
32316,26274,50417
32388,26259,50125
32368,26236,50375
32372,26205,50092
32440,26180,50263
32544,26181,50310
32576,26193,50383
32641,26213,50279
32676,26238,50357
32612,26256,50183
32513,26263,50272
32542,26258,50311
32500,26228,50324
32380,26213,50311
32308,26182,50272
32373,26178,50161
32408,26188,50085
32444,26215,50052
32480,26239,50030
32556,26261,49990
32654,26261,50085
32712,26245,50108
32748,26229,50135
32728,26209,50125
32676,26183,50111
32588,26173,50039
32492,26189,50047
32532,26207,49992
32576,26241,50008
32628,26256,50050
32668,26264,50029
32696,26247,49968
32744,26220,50004
32812,26199,49990
32864,26175,49671
32904,26172,49924
32964,26180,49927
33028,26209,49868
32912,26224,49894
32840,26248,49919
32836,26267,49889
32865,26245,49892
32944,26227,49895
33032,26199,49916
33052,26179,49940
33060,26169,49916
33108,26182,49871
33132,26206,49916
33192,26235,49897
33300,26254,49927
33254,26246,49881
33300,26237,49855
33344,26216,49808
33308,26193,49711
33352,26177,49708
33424,26166,49885
33468,26181,49927
33448,26201,49587
33452,26224,49799
33421,26253,49856
33385,26257,49881
33369,26241,49900
33412,26216,49889
33540,26196,49798
33676,26167,49855
33760,26167,49833
33732,26180,49783
33724,26201,49821
33668,26221,49852
33616,26247,49825
33592,26247,49798
33660,26241,49724
33744,26217,49765
33772,26196,49799
33760,26167,49788
33724,26173,49775
33660,26176,49767
33720,26192,49761
33652,26225,49505
33616,26245,49573
33620,26247,49607
33640,26236,49585
33728,26215,49644
33788,26192,49669
33817,26161,49670
33852,26159,49543
33828,26176,49496
33804,26193,49622
33681,26213,49718
33645,26237,49701
33608,26247,49600
33524,26229,49620
33504,26215,49671
33484,26191,49668
33508,26159,49541
33422,26159,49665
33404,26174,49663
33441,26195,49597
33408,26222,49666
33388,26244,49391
33480,26246,49565
33500,26235,49623
33416,26214,49632
33372,26188,49628
33340,26164,49620
33312,26164,49529
33332,26172,49508
33228,26191,49532
33248,26215,49508
33380,26236,49543
33284,26244,49220
33164,26238,49415
33120,26208,49496
33048,26181,49539
32996,26161,49511
33054,26158,49436
33133,26175,49474
33148,26191,49508
33088,26218,49301
33072,26238,49468
33033,26241,49415
32964,26229,49369
32892,26211,49360
32864,26183,49361
32800,26168,49351
32720,26157,49359
32736,26179,49368
32812,26189,49325
32824,26215,49376
32828,26245,49344
32844,26238,49327
32864,26234,49332
32804,26211,49260
32892,26183,49318
32864,26157,49324
32884,26148,49309
32892,26171,49302
32812,26187,49238
32724,26214,49268
32732,26237,49212
32714,26239,49220
32716,26216,48853
32770,26211,49189
32804,26188,49136
32740,26161,49156
32656,26153,49143
32692,26170,49108
32732,26190,48725
32761,26215,48759
32720,26237,48760
32694,26236,48679
32720,26231,49008
32720,26212,48980
32714,26191,48965
32711,26163,48932
32697,26156,48599
32624,26164,48631
32544,26183,48615
32476,26214,48679
32488,26232,48668
32568,26243,48484
32612,26224,48454
32624,26206,48639
32636,26187,48676
32752,26161,48665
32800,26151,48576
32852,26153,48595
32900,26185,48625
32845,26214,48489
32776,26234,48580
32700,26232,48464
32648,26224,48541
32552,26207,48263
32572,26183,48280
32640,26159,48436
32644,26149,48448
32654,26164,48360
32588,26183,48320
32654,26208,48413
32718,26232,48347
32765,26236,48023
32724,26229,48056
32660,26198,48263
32645,26182,48199
32688,26156,48257
32732,26148,48224
32768,26159,48092
32760,26179,48159
32732,26207,48172
32660,26229,48064
32576,26233,48121
32532,26217,47767
32624,26197,47837
32624,26175,47933
32580,26156,47957
32620,26149,48016
32586,26149,47928
32557,26179,48004
32557,26198,47972
32584,26221,47684
32620,26231,47861
32617,26220,47909
32609,26200,47916
32557,26177,47894
32493,26149,47538
32488,26151,47623
32510,26151,47677
32516,26170,47751
32588,26199,47796
32620,26221,47780
32604,26228,47775
32552,26214,47751
32592,26205,47744
32670,26173,47733
32676,26143,47700
32568,26149,47648
32516,26149,47589
32416,26172,47512
32340,26194,47419
32377,26219,47300
32377,26225,47423
32360,26215,47484
32344,26190,47432
32424,26177,47312
32504,26156,47212
32596,26150,47213
32508,26149,47488
32333,26171,47152
32196,26194,47336
32205,26221,47445
32256,26223,47328
32228,26213,47329
32136,26187,47287
32230,26177,47295
32260,26143,47336
32308,26141,47327
32284,26150,47296
32284,26175,47228
32280,26188,47255
32224,26222,47197
32192,26229,47225
32172,26213,47196
32172,26194,47156
32169,26174,47092
32189,26141,47079
32300,26135,47111
32484,26149,47124
32568,26165,47111
32532,26185,47093
32396,26217,46769
32336,26220,47079
32292,26213,47052
32229,26191,47048
32196,26167,47020
32140,26145,46973
32140,26129,46932
32117,26149,46960
32180,26171,46927
32284,26182,46925
32336,26210,46916
32288,26217,46833
32300,26204,46823
32232,26187,46806
32216,26161,46881
32196,26141,46868
32268,26126,46594
32332,26147,46695
32408,26157,46797
32480,26202,46816
32496,26219,46757
32386,26220,46708
32308,26201,46700
32224,26185,46767
32167,26166,46768
32192,26141,46757
32224,26133,46741
32268,26141,46420
32272,26159,46485
32272,26191,46560
32290,26212,46649
32332,26215,46655
32357,26212,46660
32336,26182,46617
32332,26167,46617
32313,26136,46584
32334,26133,46581
32396,26140,46503
32512,26157,46542
32576,26183,46526
32609,26213,46279
32668,26221,46511
32648,26196,46212
32649,26184,46221
32716,26156,46308
32632,26133,46236
32508,26134,46239
32300,26146,46159
32192,26165,46292
32061,26183,46343
31986,26200,46343
32012,26212,46294
32149,26205,46292
32316,26187,46284
32428,26158,46301
32440,26135,46308
32365,26120,46071
32332,26141,45996
32348,26153,46147
32380,26179,46215
32384,26205,46199
32356,26215,46199
32336,26204,46124
32348,26181,46116
32416,26167,46156
32528,26134,45964
32613,26128,46135
32664,26128,46068
32636,26156,46118
32440,26183,45888
32256,26208,46020
32244,26204,46079
32316,26199,45991
32442,26180,46012
32520,26151,46055
32548,26135,46029
32524,26124,46008
32485,26137,45991
32496,26156,45676
32434,26183,45703
32325,26198,45799
32212,26209,45871
32284,26193,45883
32410,26180,45863
32380,26159,45816
32314,26128,45748
32336,26126,45737
32460,26139,45769
32508,26149,45815
32572,26172,45799
32653,26196,45471
32580,26206,45566
32448,26199,45703
32292,26178,45693
32252,26160,45652
32288,26127,45679
32364,26119,45649
32400,26136,45633
32452,26152,45636
32468,26169,45612
32472,26201,45543
32476,26207,45504
32552,26197,45589
32672,26180,45305
32712,26159,45340
32632,26131,45369
32600,26127,45407
32576,26124,45490
32604,26151,45447
32714,26181,45428
32688,26212,45365
32744,26205,45460
33064,26201,45447
33488,26181,45429
34008,26161,45447
34686,26129,45380
35428,26106,45404
36292,26130,45396
37236,26148,45390
38064,26167,45380
38680,26199,45356
39230,26213,45167
39492,26198,45220
39356,26179,45284
38784,26159,45304
37528,26137,45252
36024,26143,45169
34580,26146,45260
32941,26160,45233
31568,26182,45216
30484,26221,45189
29777,26222,45166
29566,26214,45140
29708,26188,45135
30244,26164,45108
30806,26132,45055
31222,26127,45004
31536,26135,44928
31752,26156,44888
31904,26173,44965
31973,26203,44769
32024,26212,44804
32052,26193,44879
32100,26175,44839
32140,26156,44773
32174,26126,44736
32144,26118,44767
32168,26134,44828
32228,26159,44807
32244,26176,44817
32277,26201,44813
32320,26210,44781
32276,26196,44524
32320,26173,44609
32304,26167,44661
32293,26132,44772
32292,26119,44705
32341,26126,44679
32316,26151,44660
32236,26172,44641
32265,26193,44603
32380,26197,44645
32392,26195,44615
32400,26177,44600
32436,26151,44429
32420,26129,44364
32473,26119,44593
32472,26130,44319
32428,26148,44306
32413,26170,44284
32450,26205,44489
32456,26210,44516
32494,26191,44498
32492,26172,44479
32481,26155,44152
32553,26124,44247
32592,26116,44359
32572,26130,44261
32480,26150,44263
32444,26175,44317
32500,26196,44015
32621,26207,44200
32663,26197,44084
32636,26177,44092
32680,26151,44156
32708,26124,44109
32685,26112,43910
32720,26127,43957
32740,26151,44003
32772,26167,44002
32732,26191,43941
32676,26199,43826
32772,26190,43783
32911,26175,43893
32957,26143,43889
32992,26126,43559
32908,26116,43660
32896,26127,43735
32992,26148,43741
33068,26173,43617
33116,26196,43716
33106,26193,43708
33102,26193,43399
33157,26172,43399
33172,26155,43384
33188,26116,43445
33272,26119,43504
33269,26134,43616
33309,26149,43474
33344,26178,43444
33348,26199,43570
33373,26205,43305
33352,26198,43399
33317,26171,43525
33360,26149,43380
33440,26126,43511
33460,26112,43193
33472,26127,43389
33500,26148,43452
33496,26177,43288
33472,26196,43447
33516,26199,43239
33556,26193,43386
33556,26164,43222
33540,26148,43372
33608,26135,43065
33697,26111,43164
33766,26116,43303
33764,26145,43128
33772,26172,43117
33812,26197,43183
33812,26195,43230
33828,26189,43212
33828,26166,43155
33856,26142,43165
33790,26112,43095
33782,26119,43097
33760,26119,42780
33720,26151,42908
33676,26168,42887
33728,26199,42860
33813,26197,42834
33888,26187,42900
33964,26165,42965
34032,26155,42817
34024,26119,42780
34044,26114,42752
33956,26119,42725
33816,26140,42829
33728,26170,42823
33652,26191,42792
33608,26199,42807
33600,26189,42734
33576,26169,42423
33568,26151,42463
33576,26129,42557
33560,26117,42645
33552,26119,42687
33544,26140,42613
33492,26159,42553
33444,26188,42564
33453,26204,42214
33504,26191,42343
33461,26173,42529
33352,26150,42437
33288,26128,42302
33310,26110,42384
33320,26124,42389
33336,26141,42313
33368,26159,42221
33326,26189,42252
33340,26201,42277
33332,26191,42293
33344,26165,42088
33288,26151,42077
33192,26128,42121
33112,26111,42085
33096,26119,41900
33084,26147,42020
33021,26160,42133
32960,26191,41978
32948,26196,41991
32918,26188,41957
32916,26173,41920
32968,26148,41705
32956,26119,41852
32996,26109,41794
33009,26127,41922
32993,26138,41879
33076,26165,41863
33056,26189,41816
33044,26191,41817
32984,26191,41780
32985,26162,41727
33064,26153,41607
33080,26119,41479
33016,26119,41449
32944,26118,41428
32922,26140,41620
32892,26160,41535
32849,26191,41429
32804,26191,41332
32752,26191,41383
32760,26164,41396
32828,26147,41372
32924,26116,41241
32988,26109,41388
33061,26118,41416
33081,26137,41177
33076,26167,41216
32996,26188,41247
32932,26194,41215
32864,26181,40903
32784,26167,41185
32748,26147,41280
32724,26118,41252
32789,26113,40999
32836,26117,41077
32864,26131,41077
32864,26159,40765
32841,26181,40918
32868,26189,41124
32869,26183,41004
32864,26161,40858
32776,26141,40820
32736,26108,40928
32788,26111,40709
32701,26116,40768
32652,26133,40771
32592,26155,40775
32580,26191,40852
32570,26196,40925
32636,26183,40752
32666,26158,40683
32592,26141,40743
32600,26108,40740
32560,26102,40729
32605,26108,40389
32680,26129,40685
32712,26151,40708
32744,26180,40623
32688,26189,40625
32696,26181,40316
32768,26159,40504
32812,26134,40536
32792,26107,40572
32792,26100,40492
32744,26109,40557
32741,26127,40549
32756,26145,40452
32768,26177,40453
32716,26187,40420
32756,26172,40577
32772,26149,40629
32760,26132,40503
32781,26102,40392
32741,26095,40444
32732,26111,40485
32734,26127,40359
32648,26140,40364
32656,26172,40491
32624,26181,40382
32624,26175,40388
32628,26149,40392
32524,26131,40474
32453,26100,40545
32452,26096,40479
32420,26100,40327
32404,26116,40393
32380,26143,40388
32424,26167,40356
32472,26178,40060
32444,26166,40045
32478,26151,40251
32538,26134,40275
32536,26092,40248
32561,26091,40230
32520,26107,40213
32388,26112,40287
32424,26143,40337
32452,26164,40248
32468,26177,40096
32436,26166,40165
32421,26143,40156
32400,26119,40037
32420,26091,40041
32404,26095,40164
32381,26092,40197
32336,26114,40018
32368,26138,39924
32364,26169,40001
32400,26161,39736
32405,26157,39854
32396,26151,39885
32388,26119,39964
32380,26093,39829
32340,26085,39844
32312,26095,39601
32280,26114,39684
32292,26135,39745
32272,26156,39789
32260,26173,39813
32258,26164,39756
32264,26148,39727
32296,26118,39617
32328,26101,39615
32292,26077,39318
32308,26093,39430
32213,26104,39663
32212,26129,39625
32168,26162,39552
32104,26175,39533
32124,26153,39497
32228,26137,39344
32316,26118,39405
32344,26087,39407
32352,26074,39164
32328,26084,39415
32364,26099,39449
32360,26132,39256
32268,26151,39311
32256,26156,39057
32288,26156,39174
32269,26140,39191
32320,26111,39289
32372,26082,39103
32384,26076,39175
32344,26085,38882
32340,26105,39023
32308,26119,39165
32320,26149,39204
32308,26167,39039
32281,26156,39017
32306,26127,39027
32348,26119,39020
32388,26081,38876
32444,26075,39007
32372,26079,39053
32369,26102,38910
32329,26119,38867
32310,26148,38919
32285,26150,38901
32266,26145,38873
32244,26124,38871
32263,26106,38649
32304,26077,38567
32348,26063,38727
32352,26079,38893
32284,26095,38885
32288,26116,38716
32364,26145,38764
32400,26150,38759
32412,26150,38756
32456,26119,38735
32512,26101,38463
32496,26075,38432
32472,26070,38663
32404,26071,38773
32316,26089,38734
32328,26107,38766
32264,26136,38737
32276,26153,38604
32288,26143,38540
32340,26119,38623
32372,26097,38622
32364,26073,38527
32384,26063,38684
32413,26069,38535
32432,26095,38583
32441,26106,38591
32372,26133,38565
32376,26140,38476
32416,26137,38617
32396,26119,38626
32404,26095,38591
32429,26069,38439
32456,26056,38503
32448,26056,38244
32424,26092,38433
32417,26109,38533
32344,26125,38577
32324,26133,38397
32320,26128,38360
32349,26115,38540
32410,26094,38340
32396,26066,38433
32385,26041,38327
32320,26060,38511
32340,26071,38293
32382,26099,38391
32432,26121,38279
32436,26132,38292
32376,26129,38356
32372,26114,38356
32342,26084,38380
32344,26055,38421
32348,26056,38391
32396,26055,38383
32480,26069,38292
32512,26090,38263
32510,26108,38017
32466,26130,38244
32460,26119,38343
32356,26100,38231
32312,26082,38137
32348,26055,38157
32398,26039,38208
32373,26044,38108
32340,26065,38268
32372,26087,38084
32376,26112,38151
32349,26119,38168
32304,26111,38037
32264,26099,38215
32236,26079,38145
32232,26047,37951
32270,26031,38140
32296,26043,38077
32344,26057,38085
32396,26077,38093
32400,26109,37877
32420,26110,37975
32400,26101,37949
32380,26085,38045
32384,26066,38116
32377,26036,37967
32416,26019,37935
32452,26029,38012
32520,26045,38017
32664,26068,37751
32840,26098,37924
33126,26106,38052
33452,26101,37956
33964,26077,37938
34620,26060,37966
35356,26029,37751
36236,26009,37869
37145,26016,37948
37924,26037,37999
38548,26061,37817
39048,26094,37903
39272,26111,37895
39084,26088,37783
38360,26075,37788
37049,26061,37888
35612,26025,37940
34080,26021,37870
32508,26029,37785
31096,26052,37809
29992,26074,37814
29359,26100,37693
29312,26103,37840
29676,26094,37787
30166,26071,37671
30624,26047,37724
31040,26013,37476
31324,26011,37589
31544,26000,37639
31688,26018,37725
31768,26038,37638
31866,26071,37455
31936,26085,37629
32020,26077,37628
32044,26054,37604
32076,26028,37629
32096,26005,37484
32136,25991,37600
32121,25995,37711
32104,26012,37632
32045,26031,37567
31997,26054,37663
32004,26068,37680
31992,26058,37599
31984,26039,37783
31976,26014,37671
32052,25990,37636
32124,25979,37677
32144,25980,37725
32200,25999,37481
32096,26020,37645
32056,26044,37801
32068,26052,37752
32116,26052,37632
32104,26034,37604
32084,26017,37639
32060,25987,37663
32082,25961,37671
32129,25967,37684
32180,25990,37679
32240,26016,37431
32177,26033,37563
32172,26044,37692
32184,26039,37598
32220,26024,37573
32266,25991,37655
32272,25964,37633
32228,25956,37533
32204,25964,37644
32212,25977,37612
32225,26001,37597
32230,26023,37564
32204,26034,37556
32240,26027,37567
32250,26007,37540
32298,25988,37485
32308,25949,37409
32356,25953,37303
32324,25953,37312
32360,25964,37325
32401,25981,37221
32448,26012,37294
32488,26020,37079
32544,26010,37127
32568,25998,37273
32484,25971,37306
32496,25942,37269
32540,25926,37084
32560,25937,37124
32592,25960,37079
32620,25980,37135
32644,25997,37113
32688,26000,37101
32736,26004,37093
32772,25981,36860
32840,25965,37116
32878,25929,36948
32932,25917,37013
32940,25924,37034
32916,25941,36909
32948,25964,36969
32992,25979,37073
33012,25991,36957
33060,25988,36975
33028,25969,36976
33008,25951,36965
33064,25924,36724
33108,25909,36847
33125,25900,36941
33148,25926,36988
33192,25955,36990
33248,25971,36832
33256,25988,36817
33257,25982,36836
33340,25960,36864
33376,25937,36615
33356,25904,36660
33380,25892,36693
33452,25893,36718
33516,25917,36642
33512,25940,36751
33477,25957,36741
33528,25971,36725
33584,25975,36477
33604,25951,36527
33652,25925,36575
33668,25885,36655
33673,25892,36644
33708,25889,36564
33716,25903,36543
33664,25925,36494
33668,25967,36512
33620,25959,36479
33596,25952,36452
33632,25935,36441
33677,25916,36393
33680,25883,36380
33644,25880,36127
33600,25876,36204
33616,25892,36228
33597,25906,36311
33556,25937,36245
33504,25949,36180
33448,25948,36185
33384,25925,36148
33336,25900,36113
33324,25869,36092
33360,25861,36049
33284,25863,36037
33268,25883,35993
33224,25898,35860
33220,25930,35887
33188,25935,35954
33176,25939,35966
33164,25916,35913
33152,25893,35777
33176,25863,35730
33188,25850,35776
33164,25849,35673
33066,25862,35655
33020,25887,35700
32976,25915,35663
32926,25920,35652
32856,25917,35636
32864,25900,35645
32888,25876,35621
32928,25852,35605
32876,25841,35588
32884,25833,35353
32861,25850,35359
32824,25877,35319
32796,25900,35297
32824,25922,35359
32821,25909,35345
32828,25889,35376
32838,25863,35471
32796,25836,35431
32754,25825,35462
32780,25828,35436
32832,25837,35428
32844,25861,35407
32805,25881,35382
32812,25893,35301
32824,25893,35182
32780,25881,35149
32773,25857,35137
32708,25827,35116
32644,25812,35137
32616,25816,35212
32612,25828,35180
32620,25850,35170
32572,25876,35148
32590,25885,35135
32616,25881,35117
32656,25862,35093
32704,25845,34899
32752,25811,34967
32796,25799,35036
32824,25805,35009
32804,25822,34920
32808,25839,35049
32812,25863,35022
32780,25879,35001
32764,25863,34909
32724,25855,34778
32672,25828,34724
32588,25805,34756
32568,25787,34724
32548,25788,34679
32508,25809,34823
32512,25829,34820
32496,25851,34797
32504,25863,34777
32524,25857,34777
32544,25844,34753
32572,25817,34748
32556,25796,34728
32548,25775,34532
32573,25777,34593
32556,25791,34585
32544,25815,34641
32552,25841,34748
32524,25853,34711
32484,25844,34684
32514,25829,34636
32496,25803,34576
32484,25777,34639
32444,25766,34638
32453,25772,34647
32462,25781,34663
32436,25801,34663
32452,25829,34665
32420,25836,34656
32428,25836,34649
32420,25814,34660
32392,25791,34655
32380,25760,34472
32369,25753,34630
32360,25752,34621
32360,25773,34717
32378,25797,34613
32384,25817,34579
32356,25814,34660
32368,25825,34689
32392,25801,34711
32392,25785,34704
32376,25765,34716
32376,25735,34537
32384,25739,34687
32380,25754,34725
32352,25772,34663
32353,25807,34725
32388,25819,34765
32394,25809,34762
32349,25799,34799
32380,25767,34671
32436,25749,34724
32420,25729,34711
32408,25734,34700
32386,25745,34709
32368,25775,34719
32381,25797,34757
32372,25807,34732
32344,25815,34695
32356,25788,34752
32351,25765,34729
32356,25733,34797
32360,25717,34997
32360,25725,34852
32384,25736,34880
32356,25762,34963
32328,25788,34790
32302,25793,34862
32240,25795,34973
32244,25780,35032
32228,25757,34964
32175,25721,34992
32160,25711,34847
32204,25711,34903
32176,25735,35058
32200,25751,35036
32216,25780,35092
32188,25795,35100
32160,25783,35008
32172,25759,35060
32176,25746,35105
32188,25711,35062
32216,25702,35093
32160,25709,35084
32178,25714,34959
32140,25741,34952
32077,25765,34953
32052,25786,34951
32068,25775,34900
32084,25758,35101
32128,25730,35108
32132,25713,35089
32160,25693,35102
32254,25695,35116
32272,25714,35120
32216,25730,35118
32149,25760,35091
32124,25768,35105
32132,25772,35205
32152,25746,35183
32156,25719,35046
32164,25703,34996
32168,25687,35192
32204,25685,35175
32232,25706,35164
32184,25725,35141
32196,25754,35166
32188,25762,35166
32180,25759,35163
32152,25740,35199
32149,25721,35329
32192,25694,35278
32193,25673,35173
32232,25679,35176
32240,25695,35183
32236,25714,35289
32280,25730,35335
32281,25759,35324
32296,25743,35279
32308,25727,35220
32304,25711,35175
32276,25677,35365
32288,25667,35335
32284,25663,35460
32277,25685,35437
32300,25707,35477
32332,25730,35436
32312,25743,35426
32300,25742,35348
32272,25726,35296
32308,25701,35447
32292,25674,35477
32316,25667,35472
32320,25662,35476
32352,25676,35460
32336,25696,35404
32356,25733,35479
32360,25735,35500
32377,25735,35444
32380,25712,35481
32375,25700,35453
32337,25673,35564
32380,25648,35520
32404,25656,35476
32424,25677,35442
32400,25689,35376
32392,25710,35388
32388,25735,35604
32359,25735,35621
32356,25709,35463
32388,25695,35524
32416,25671,35660
32463,25651,35640
32504,25649,35580
32524,25671,35559
32480,25685,35679
32452,25713,35660
32468,25734,35748
32489,25727,35749
32460,25709,35637
32456,25681,35621
32452,25655,35532
32480,25644,35551
32508,25644,35568
32464,25660,35572
32468,25682,35652
32464,25698,35762
32524,25727,35748
32546,25724,35676
32564,25703,35671
32536,25687,35663
32472,25662,35637
32468,25638,35607
32485,25648,35653
32524,25657,35724
32568,25679,35735
32564,25698,35809
32564,25723,35887
32593,25717,35932
32640,25692,35957
32696,25676,35828
32696,25657,35796
32608,25644,35825
32588,25644,35806
32638,25655,35893
32640,25684,35919
32612,25700,35940
32565,25722,35745
32584,25721,35957
32608,25706,35964
32656,25682,35975
32656,25650,35960
32660,25632,35882
32680,25636,35945
32645,25650,35999
32624,25673,35841
32632,25703,35808
32630,25726,36012
32628,25716,35807
32641,25702,35802
32720,25683,35818
32710,25655,35799
32668,25631,35821
32612,25636,35847
32548,25657,36036
32552,25674,36023
32544,25701,36039
32555,25712,36028
32560,25716,36041
32592,25700,36047
32640,25683,35826
32655,25655,36051
32680,25642,36054
32712,25639,36046
32728,25645,36038
32736,25679,35954
32748,25706,35986
32740,25719,36132
32717,25716,36121
32677,25702,36084
32592,25679,35991
32572,25656,35951
32634,25633,35876
32700,25637,36077
32726,25654,36081
32696,25673,36040
32709,25703,36049
32688,25712,36069
32652,25716,36078
32620,25698,36048
32688,25679,35964
32680,25653,36095
32680,25637,36060
32690,25637,36023
32732,25654,36165
32732,25673,36150
32709,25696,36163
32676,25720,36124
32604,25714,36143
32596,25700,36048
32608,25679,35973
32652,25647,35975
32696,25639,35972
32724,25637,35972
32737,25652,35957
32678,25676,35927
32665,25703,35863
32622,25726,36069
32588,25714,36079
32564,25697,36005
32570,25687,36132
32600,25659,36103
32653,25636,36045
32737,25637,35993
32816,25655,35973
32864,25674,35981
32983,25702,35917
33180,25725,35884
33500,25718,36103
33880,25694,36037
34360,25679,36128
35000,25657,35975
35817,25636,36069
36808,25625,36111
37708,25659,36077
38392,25678,36100
38916,25701,36085
39212,25721,36048
39244,25727,36093
38756,25718,36084
37632,25695,36079
36236,25673,36058
34936,25653,36077
33497,25660,36084
32112,25669,36088
30892,25697,36108
29962,25716,36103
29628,25741,36100
29876,25735,36080
30346,25713,36080
30909,25690,35904
31413,25659,35918
31734,25647,35844
31980,25641,35866
32188,25655,35796
32280,25677,35788
32336,25708,35775
32332,25722,35759
32332,25712,35973
32322,25709,35791
32284,25681,35878
32280,25668,35988
32292,25644,35988
32256,25644,35974
32308,25661,35864
32328,25687,35847
32328,25705,35904
32300,25722,35912
32304,25727,35912
32320,25701,35767
32348,25693,35796
32336,25661,35941
32356,25636,35815
32364,25640,35825
32368,25664,35843
32378,25680,35847
32396,25709,35809
32424,25727,35817
32460,25732,35821
32456,25710,35817
32448,25692,35813
32485,25671,35794
32484,25647,35766
32528,25647,35557
32560,25661,35529
32572,25685,35604
32620,25709,35629
32636,25732,35668
32621,25734,35718
32612,25711,35669
32620,25697,35569
32613,25669,35557
32660,25649,35566
32696,25655,35588
32694,25665,35581
32632,25684,35566
32668,25717,35532
32760,25734,35471
32788,25733,35463
32724,25719,35428
32716,25694,35298
32724,25669,35356
32749,25654,35335
32780,25644,35335
32816,25673,35164
32822,25691,35311
32832,25723,35239
32844,25743,35154
32858,25730,35193
32896,25723,35168
32940,25697,35175
32944,25679,35157
32929,25656,35132
32908,25652,35100
32880,25666,35085
32848,25691,34858
32853,25718,34897
32880,25732,34892
32909,25736,34898
32960,25724,34977
33028,25695,34927
33080,25677,34928
33088,25652,34949
33104,25663,34897
33132,25677,34912
33157,25697,34895
33197,25724,34732
33256,25740,34748
33281,25735,34756
33284,25727,34757
33348,25709,34540
33357,25681,34592
33381,25655,34757
33436,25660,34701
33482,25680,34565
33524,25697,34628
33469,25724,34619
33440,25736,34439
33472,25744,34449
33477,25724,34566
33505,25701,34521
33564,25684,34325
33633,25663,34346
33657,25661,34492
33704,25675,34337
33760,25701,34405
33792,25727,34265
33820,25748,34356
33816,25741,34331
33848,25731,34167
33840,25711,34301
33790,25678,34183
33808,25657,34038
33908,25668,34072
33905,25679,34072
33917,25694,34001
33945,25718,34114
33968,25741,34039
33948,25745,34045
33928,25732,33866
33904,25704,33893
33874,25680,33963
33876,25668,33911
33924,25674,33739
33940,25676,33887
33928,25700,33831
33872,25720,33645
33856,25743,33788
33848,25742,33634
33821,25732,33551
33820,25716,33629
33844,25684,33556
33828,25668,33607
33740,25671,33408
33712,25676,33471
33684,25701,33543
33676,25727,33391
33618,25746,33442
33472,25746,33252
33417,25735,33372
33368,25706,33353
33399,25689,33222
33460,25666,33237
33517,25671,33287
33464,25685,33159
33439,25697,33183
33428,25726,33180
33456,25755,32993
33436,25750,32960
33474,25734,32947
33440,25716,33025
33416,25693,33062
33376,25674,32897
33360,25676,32986
33320,25688,32789
33300,25705,32804
33304,25733,32828
33256,25750,32879
33200,25755,32700
33108,25735,32807
33108,25708,32799
33136,25695,32765
33156,25673,32620
33164,25669,32753
33180,25680,32662
33164,25712,32701
33116,25729,32526
33106,25749,32492
33076,25747,32603
33048,25740,32505
33058,25717,32586
33020,25703,32422
33012,25672,32397
32988,25669,32436
32980,25687,32519
32964,25703,32369
32984,25732,32410
32992,25755,32406
33000,25745,32238
33072,25740,32349
33092,25717,32277
33040,25695,32312
32984,25674,32148
32992,25669,32193
33032,25682,32276
33032,25703,32184
33008,25732,32090
33012,25756,32142
33008,25757,32141
33024,25737,32032
33020,25716,31916
33028,25693,32064
33028,25672,32007
33016,25671,32015
32973,25685,31841
32948,25703,31823
32936,25732,31828
32832,25756,31944
32812,25747,31900
32824,25746,31806
32804,25718,31858
32688,25697,31857
32613,25679,31847
32516,25679,31688
32616,25689,31656
32728,25711,31690
32804,25729,31765
32820,25754,31808
32800,25751,31708
32752,25745,31751
32736,25727,31684
32704,25698,31588
32644,25671,31585
32616,25672,31566
32616,25686,31596
32576,25715,31556
32512,25729,31564
32476,25758,31623
32464,25762,31680
32476,25743,31605
32536,25720,31701
32616,25703,31673
32612,25669,31569
32604,25679,31570
32644,25692,31599
32664,25703,31573
32688,25735,31560
32712,25766,31633
32736,25756,31585
32709,25743,31623
32660,25727,31560
32638,25707,31558
32636,25677,31616
32648,25677,31623
32652,25688,31641
32624,25711,31485
32594,25738,31490
32500,25755,31620
32481,25757,31629
32492,25749,31615
32536,25726,31639
32500,25703,31639
32469,25680,31506
32488,25676,31478
32508,25690,31490
32486,25707,31478
32512,25735,31495
32516,25756,31541
32544,25761,31637
32528,25743,31556
32528,25724,31598
32568,25695,31439
32544,25675,31481
32505,25681,31415
32456,25685,31439
32416,25710,31556
32388,25734,31518
32356,25762,31461
32336,25759,31524
32404,25740,31468
32484,25727,31533
32516,25702,31401
32500,25683,31400
32484,25673,31392
32500,25689,31517
32556,25710,31351
32568,25733,31343
32568,25759,31342
32564,25759,31321
32508,25751,31317
32472,25727,31373
32508,25694,31460
32532,25676,31466
32496,25679,31399
32405,25692,31335
32384,25709,31351
32388,25734,31290
32364,25756,31339
32348,25761,31341
32356,25750,31307
32316,25728,31338
32264,25705,31246
32277,25693,31184
32272,25676,31166
32285,25695,31172
32289,25709,31310
32316,25735,31186
32393,25762,31255
32424,25759,31117
32448,25751,31100
32436,25728,31081
32432,25714,31100
32420,25684,31188
32436,25682,31144
32452,25686,31108
32448,25713,31180
32436,25734,31089
32408,25759,31169
32454,25759,31007
32500,25749,31117
32546,25731,31155
32568,25700,31028
32492,25687,31101
32444,25682,30970
32413,25695,30934
32432,25716,30916
32464,25735,31057
32448,25759,31001
32428,25766,30934
32468,25759,31014
32512,25729,30852
32504,25713,30983
32548,25692,30909
32592,25680,30922
32630,25701,30928
32692,25717,30767
32608,25741,30847
32568,25764,30905
32596,25772,30727
32613,25760,30719
32578,25740,30809
32620,25709,30871
32665,25693,30763
32660,25690,30828
32688,25700,30666
32700,25727,30696
32692,25751,30772
32698,25774,30793
32696,25775,30757
32712,25764,30676
32680,25735,30630
32632,25714,30719
32601,25689,30662
32600,25689,30697
32650,25707,30585
32632,25725,30530
32676,25759,30535
32684,25772,30684
32608,25772,30612
32552,25769,30555
32517,25745,30599
32500,25727,30588
32484,25700,30565
32497,25694,30559
32542,25710,30575
32560,25727,30491
32552,25751,30414
32616,25768,30480
32620,25780,30460
32616,25767,30521
32636,25753,30439
32668,25727,30379
32656,25701,30340
32680,25695,30432
32684,25711,30368
32700,25735,30375
32680,25749,30426
32704,25780,30436
32668,25782,30353
32620,25765,30356
32584,25749,30449
32584,25729,30343
32584,25713,30420
32620,25701,30271
32620,25720,30257
32596,25735,30374
32572,25757,30373
32616,25785,30229
32668,25788,30215
32676,25780,30369
32660,25757,30302
32601,25730,30343
32568,25713,30193
32620,25704,30236
32700,25716,30245
32736,25732,30316
32716,25760,30152
32716,25781,30305
32708,25793,30308
32640,25784,30156
32648,25756,30292
32696,25749,30308
32696,25721,30253
32687,25713,30292
32714,25716,30126
32720,25742,30276
32632,25768,30276
32476,25791,30240
32472,25799,30179
32637,25787,30137
32716,25766,30108
32764,25744,30252
32844,25716,30194
32844,25714,30246
32820,25727,30263
32812,25744,30249
32812,25772,30111
32788,25796,30076
32820,25802,30247
32793,25792,30274
32788,25769,30149
32780,25748,30265
32784,25731,30247
32805,25727,30236
32789,25734,30200
32775,25760,30191
32720,25780,30230
32673,25796,30142
32588,25806,30177
32616,25799,30227
32672,25775,30103
32684,25759,30149
32704,25740,30141
32748,25733,30214
32792,25743,30220
32784,25762,30074
32696,25789,30244
32696,25806,30141
32718,25813,30224
32776,25799,30058
32816,25795,30172
32838,25765,30206
32836,25727,30196
32824,25733,30118
32796,25748,30094
32768,25766,30243
32752,25794,30185
32764,25814,30078
32772,25823,30184
32780,25808,30213
32775,25783,30106
32762,25764,30088
32736,25749,30247
32776,25743,30140
32789,25749,30224
32792,25769,30084
32805,25785,30132
32800,25821,30215
32769,25824,30249
32740,25810,30140
32656,25797,30225
32637,25773,30116
32644,25745,30080
32644,25744,30111
32668,25751,30223
32680,25773,30183
32680,25795,30232
32688,25821,30131
32712,25830,30061
32744,25821,30253
32733,25799,30191
32724,25778,30239
32696,25751,30095
32636,25748,30262
32628,25756,30237
32632,25786,30173
32684,25796,30222
32801,25824,30245
32797,25829,30100
32750,25820,30257
32696,25804,30194
32640,25790,30231
32648,25756,30260
32696,25749,30214
32721,25761,30133
32740,25780,30229
32809,25805,30307
32896,25837,30253
33052,25831,30268
33276,25834,30276
33568,25817,30308
33920,25794,30220
34400,25764,30185
34996,25750,30348
35706,25759,30349
36544,25785,30356
37316,25814,30245
37924,25832,30231
38332,25838,30256
38532,25832,30404
38492,25829,30404
38012,25803,30364
36900,25777,30262
35548,25773,30244
34302,25788,30437
33024,25809,30400
31904,25837,30324
30934,25863,30292
30140,25871,30329
29796,25859,30453
29996,25833,30402
30488,25813,30352
31072,25785,30288
31524,25777,30462
31852,25781,30381
32044,25801,30448
32088,25831,30479
32168,25858,30377
32265,25860,30341
32416,25855,30325
32480,25828,30469
32448,25815,30496
32424,25779,30548
32404,25786,30551
32432,25780,30501
32471,25801,30580
32484,25839,30591
32480,25860,30600
32392,25863,30618
32276,25848,30644
32280,25835,30523
32296,25813,30488
32352,25796,30677
32436,25778,30613
32568,25789,30612
32568,25804,30660
32548,25833,30567
32596,25858,30577
32612,25863,30683
32688,25863,30756
32684,25832,30631
32660,25814,30625
32644,25795,30629
32609,25789,30746
32596,25799,30703
32622,25817,30786
32648,25843,30801
32680,25863,30666
32620,25875,30664
32596,25863,30823
32639,25849,30754
32692,25826,30802
32710,25791,30688
32700,25785,30646
32665,25804,30696
32684,25815,30764
32668,25842,30751
32680,25863,30786
32725,25872,30683
32748,25860,30788
32768,25845,30769
32752,25825,30700
32840,25807,30751
32822,25794,30588
32784,25795,30578
32832,25821,30708
32900,25842,30700
32868,25875,30660
32868,25873,30634
32796,25871,30681
32756,25852,30699
32796,25828,30696
32836,25808,30694
32880,25798,30701
32892,25807,30692
32892,25829,30679
32924,25843,30558
32952,25876,30519
32988,25885,30513
32972,25872,30526
33000,25848,30658
33048,25827,30639
33124,25810,30567
33180,25796,30623
33216,25805,30624
33236,25836,30631
33256,25852,30644
33228,25877,30501
33160,25887,30470
33168,25871,30617
33188,25870,30572
33252,25836,30628
33220,25815,30537
33208,25801,30465
33216,25807,30652
33253,25832,30559
33236,25852,30623
33364,25877,30488
33480,25877,30500
33512,25873,30633
33557,25861,30575
33608,25838,30500
33616,25808,30516
33672,25793,30453
33676,25810,30560
33672,25820,30626
33604,25846,30516
33616,25877,30565
33636,25891,30553
33633,25881,30549
33612,25863,30557
33608,25831,30410
33593,25818,30368
33617,25814,30524
33660,25810,30428
33700,25828,30452
33765,25849,30333
33732,25879,30461
33749,25881,30352
33772,25883,30388
33752,25853,30401
33812,25835,30317
33822,25812,30276
33774,25796,30284
33752,25818,30329
33728,25828,30143
33645,25852,30292
33592,25883,30222
33548,25879,30116
33528,25879,30167
33472,25857,30227
33484,25837,30173
33470,25806,30165
33437,25805,30012
33473,25808,29973
33412,25831,30013
33344,25848,30109
33349,25882,30085
33344,25888,29994
33344,25876,30053
33300,25861,29935
33288,25837,29884
33244,25810,29895
33270,25799,29964
33272,25808,29940
33236,25837,29925
33236,25855,29946
33193,25876,29834
33224,25892,29863
33200,25873,29895
33152,25861,29797
33092,25843,29759
33017,25813,29792
32992,25797,29847
32992,25807,29847
33020,25828,29701
32953,25851,29664
32908,25898,29831
32968,25884,29731
33004,25877,29782
32976,25850,29653
33060,25843,29723
33064,25815,29691
33045,25800,29752
32956,25813,29616
32814,25828,29631
32772,25851,29746
32784,25875,29671
32836,25887,29703
32832,25877,29631
32845,25863,29533
32828,25831,29540
32860,25813,29527
32896,25801,29532
32868,25806,29669
32880,25825,29596
32872,25851,29636
32820,25875,29493
32844,25876,29476
32856,25879,29594
32868,25860,29551
32858,25832,29489
32805,25813,29409
32798,25795,29396
32832,25807,29529
32835,25816,29466
32833,25847,29497
32814,25877,29405
32812,25879,29408
32769,25879,29404
32760,25855,29428
32736,25829,29276
32752,25806,29303
32800,25795,29377
32740,25802,29319
32724,25822,29340
32728,25844,29208
32740,25865,29157
32736,25873,29118
32684,25866,29289
32656,25853,29238
32620,25831,29229
32564,25807,29145
32556,25791,29087
32536,25801,29057
32564,25815,29199
32608,25842,29127
32668,25871,29144
32636,25873,29014
32629,25863,29111
32648,25837,29055
32628,25821,29095
32608,25803,28994
32612,25781,29009
32588,25798,29098
32560,25805,29053
32548,25829,29057
32552,25852,28905
32526,25866,29041
32535,25863,28996
32521,25839,28900
32480,25813,28871
32470,25785,28972
32444,25786,28984
32488,25783,28865
32476,25799,28813
32476,25824,28959
32460,25858,28831
32404,25860,28925
32472,25853,28870
32456,25836,28935
32428,25812,28865
32392,25783,28842
32380,25773,28825
32464,25779,28761
32495,25797,28877
32509,25815,28889
32524,25847,28726
32533,25853,28878
32492,25849,28839
32440,25824,28718
32442,25800,28790
32373,25773,28734
32336,25764,28800
32332,25771,28792
32341,25784,28748
32332,25804,28793
32376,25833,28773
32408,25855,28820
32412,25838,28673
32416,25819,28772
32500,25791,28737
32629,25775,28695
32569,25756,28794
32456,25759,28756
32388,25785,28783
32364,25807,28644
32404,25823,28726
32440,25832,28671
32412,25826,28780
32361,25809,28679
32292,25788,28748
32284,25765,28601
32309,25749,28573
32320,25761,28717
32304,25773,28659
32356,25788,28708
32372,25825,28592
32336,25827,28556
32340,25822,28649
32300,25803,28678
32285,25782,28594
32297,25750,28601
32292,25733,28647
32305,25746,28665
32328,25767,28551
32336,25786,28503
32372,25813,28511
32358,25826,28661
32292,25821,28572
32296,25795,28631
32284,25771,28545
32296,25737,28618
32236,25735,28604
32212,25733,28607
32264,25760,28594
32280,25779,28599
32288,25806,28598
32278,25823,28597
32252,25806,28572
32240,25786,28474
32296,25765,28442
32292,25738,28450
32316,25719,28587
32384,25732,28504
32420,25748,28522
32432,25768,28551
32484,25799,28552
32468,25805,28588
32476,25797,28507
32544,25774,28469
32472,25753,28437
32404,25732,28566
32328,25715,28591
32308,25742,28566
32376,25735,28601
32404,25764,28482
32400,25788,28467
32428,25797,28470
32436,25788,28605
32448,25764,28551
32432,25750,28532
32472,25721,28461
32461,25701,28529
32484,25714,28596
32496,25735,28521
32500,25747,28581
32484,25785,28493
32468,25792,28449
32472,25775,28557
32504,25765,28587
32518,25735,28436
32480,25711,28599
32484,25700,28521
32476,25702,28590
32404,25720,28452
32408,25748,28444
32428,25765,28603
32493,25780,28540
32597,25768,28491
32628,25744,28480
32637,25729,28462
32645,25703,28607
32636,25686,28519
32597,25698,28563
32576,25709,28591
32544,25729,28615
32532,25757,28493
32552,25772,28577
32552,25761,28551
32552,25754,28582
32548,25725,28639
32548,25689,28521
32544,25685,28493
32556,25692,28607
32576,25702,28661
32548,25729,28656
32556,25756,28546
32544,25765,28565
32584,25754,28703
32614,25729,28669
32628,25717,28714
32608,25685,28724
32632,25673,28609
32660,25676,28679
32686,25695,28686
32692,25717,28731
32712,25741,28775
32712,25744,28676
32688,25746,28689
32668,25725,28754
32644,25708,28796
32608,25672,28679
32580,25668,28761
32624,25665,28853
32640,25687,28806
32648,25706,28861
32656,25732,28709
32660,25743,28749
32660,25732,28894
32652,25713,28804
32600,25687,28876
32596,25665,28817
32620,25658,28798
32672,25657,28912
32661,25675,28893
32540,25695,28842
32500,25727,28788
32528,25735,28773
32545,25724,28891
32596,25709,28969
32602,25678,28895
32648,25659,28965
32708,25636,28889
32676,25650,28924
32640,25664,28940
32630,25690,29009
32586,25711,28882
32644,25722,28992
32682,25711,28970
32648,25695,29046
32662,25677,28951
32704,25643,29063
32720,25639,29060
32780,25645,29054
32829,25653,28999
32769,25676,29013
32744,25703,29046
32720,25717,29132
32720,25708,29012
32740,25686,29070
32748,25665,29147
32748,25630,29159
32728,25635,29063
32704,25634,29180
32700,25653,29121
32684,25672,29191
32712,25697,29227
32677,25700,29133
32668,25694,29124
32648,25679,29288
32580,25655,29247
32560,25629,29287
32576,25618,29329
32612,25620,29197
32652,25633,29214
32662,25657,29329
32672,25682,29380
32725,25690,29417
32732,25689,29421
32728,25670,29454
32721,25648,29404
32732,25621,29431
32760,25605,29492
32692,25607,29517
32624,25631,29544
32660,25644,29545
32648,25679,29569
32645,25685,29599
32648,25677,29540
32652,25654,29551
32616,25637,29612
32624,25612,29661
32672,25601,29532
32672,25606,29549
32648,25620,29626
32652,25636,29754
32648,25670,29727
32609,25681,29795
32612,25671,29718
32592,25642,29693
32588,25628,29728
32596,25598,29895
32584,25589,29836
32576,25589,29871
32608,25607,29818
32636,25632,29836
32638,25662,29998
32648,25671,29923
32636,25661,30012
32620,25649,30052
32684,25614,29980
32745,25594,29953
32724,25574,29958
32729,25583,30054
32704,25590,30020
32640,25617,30147
32600,25643,30236
32600,25655,30225
32616,25645,30225
32664,25629,30196
32705,25606,30237
32720,25583,30308
32716,25565,30342
32760,25575,30359
32785,25586,30405
32856,25607,30281
32912,25634,30295
33124,25639,30427
33376,25642,30511
33668,25629,30461
34088,25599,30541
34672,25565,30445
35348,25552,30493
36152,25556,30626
36868,25580,30599
37480,25596,30590
37924,25628,30679
38156,25640,30727
38176,25637,30616
37788,25618,30628
36828,25599,30802
35488,25569,30847
34216,25564,30783
33012,25567,30866
31828,25587,30896
30828,25602,30920
30014,25639,30792
29637,25641,30840
29713,25632,30934
30136,25621,30947
30722,25583,31047
31272,25553,31009
31580,25543,30957
31844,25536,31028
32024,25561,31101
32176,25581,30958
32260,25607,31164
32341,25628,31071
32414,25621,31140
32424,25591,31217
32368,25575,31098
32380,25547,31117
32412,25522,31266
32428,25524,31335
32416,25551,31204
32400,25567,31359
32404,25599,31372
32413,25606,31442
32416,25605,31484
32407,25588,31345
32396,25567,31567
32360,25543,31552
32281,25519,31452
32304,25527,31464
32332,25543,31494
32364,25565,31696
32412,25585,31604
32450,25598,31716
32440,25596,31594
32444,25575,31804
32464,25565,31711
32468,25532,31843
32448,25517,31709
32516,25513,31738
32538,25525,31767
32505,25554,31884
32484,25582,31995
32505,25588,31937
32524,25585,31972
32556,25572,32013
32600,25548,32053
32608,25531,32064
32604,25509,31930
32612,25513,32084
32600,25526,32109
32616,25545,32167
32624,25575,32167
32617,25587,32194
32564,25584,32103
32508,25569,32185
32496,25541,32204
32493,25517,32049
32549,25502,32141
32632,25500,32228
32712,25527,32254
32690,25540,32292
32684,25569,32185
32668,25580,32293
32724,25575,32154
32816,25555,32356
32876,25539,32239
32912,25507,32335
32908,25497,32365
32902,25491,32227
32876,25500,32335
32844,25533,32416
32892,25559,32383
32908,25575,32439
32905,25567,32455
32924,25550,32318
32928,25533,32387
32884,25501,32498
32925,25494,32540
32933,25489,32471
32944,25504,32529
32993,25532,32571
33033,25548,32415
33076,25564,32508
33096,25567,32608
33116,25544,32487
33172,25524,32688
33184,25502,32671
33216,25484,32549
33204,25480,32631
33192,25499,32728
33248,25521,32745
33300,25542,32671
33317,25564,32789
33308,25553,32636
33320,25539,32681
33332,25517,32772
33308,25494,32903
33308,25479,32828
33376,25479,32877
33445,25495,32745
33532,25513,32868
33564,25540,32897
33593,25557,32903
33632,25557,32962
33636,25541,32796
33672,25512,32840
33716,25481,32909
33693,25478,33025
33676,25479,32984
33677,25486,33031
33656,25500,33076
33668,25530,32983
33636,25551,33056
33608,25546,32909
33600,25532,32993
33526,25508,33117
33472,25482,33049
33544,25468,32927
33532,25467,33119
33462,25485,33133
33516,25502,33012
33548,25535,33135
33564,25543,32959
33540,25541,33096
33484,25522,33061
33444,25506,33159
33396,25478,33124
33372,25459,33071
33360,25461,33188
33328,25479,33052
33281,25506,33240
33256,25529,33124
33228,25548,33222
33180,25543,33099
33176,25524,33285
33164,25505,33252
33149,25477,33141
33124,25452,33159
33136,25463,33230
33140,25477,33362
33120,25493,33248
33128,25527,33360
33140,25529,33399
33120,25528,33405
33088,25521,33329
33080,25501,33286
33080,25475,33282
33064,25455,33392
33084,25462,33564
33061,25477,33501
33056,25492,33381
33064,25515,33433
33017,25536,33620
32949,25539,33672
32896,25509,33684
32864,25498,33660
32812,25471,33527
32812,25445,33644
32796,25452,33810
32800,25469,33741
32830,25484,33799
32908,25518,33681
32985,25532,33908
32970,25533,33851
32960,25516,33700
32948,25491,33900
32957,25460,33970
32984,25449,33860
32996,25449,33972
32960,25462,33999
32892,25479,33833
32892,25508,33905
32852,25525,33968
32837,25527,34147
32884,25512,34040
32936,25487,34124
32936,25463,33956
32894,25444,34071
32896,25447,34159
32900,25468,34209
32868,25484,34032
32857,25507,34140
32834,25519,34258
32852,25526,34263
32838,25507,34311
32836,25492,34127
32840,25459,34214
32820,25437,34361
32776,25438,34332
32772,25461,34393
32760,25479,34216
32720,25505,34349
32733,25516,34456
32736,25516,34463
32772,25500,34501
32760,25479,34399
32768,25452,34596
32768,25441,34476
32776,25438,34610
32812,25455,34436
32804,25477,34519
32788,25502,34665
32732,25526,34727
32652,25515,34769
32696,25503,34665
32700,25479,34773
32712,25463,34720
32608,25440,34771
32593,25441,34847
32591,25447,34861
32629,25477,34681
32656,25503,34789
32688,25519,34951
32684,25516,34876
32632,25497,34980
32640,25476,35016
32608,25452,35045
32590,25436,34897
32588,25434,35020
32564,25450,35167
32540,25475,35077
32500,25503,35190
32516,25509,35086
32532,25511,35238
32574,25500,35207
32629,25473,35321
32656,25443,35213
32656,25428,35357
32624,25445,35422
32624,25440,35486
32612,25469,35460
32664,25493,35521
32688,25504,35412
32652,25510,35644
32596,25499,35508
32572,25473,35657
32616,25449,35453
32645,25424,35644
32628,25434,35790
32628,25441,35847
32644,25467,35812
32612,25492,35644
32592,25509,35776
32568,25503,36009
32588,25501,35960
32588,25472,35991
32529,25436,35804
32504,25445,36012
32526,25428,36070
32556,25444,36141
32568,25463,36172
32513,25484,36053
32484,25508,36277
32481,25508,36185
32544,25492,36305
32569,25472,36165
32576,25445,36425
32576,25424,36396
32538,25427,36215
32512,25443,36543
32536,25457,36468
32544,25485,36564
32573,25503,36487
32568,25511,36685
32560,25495,36644
32500,25475,36688
32437,25449,36612
32432,25418,36838
32444,25424,36736
32444,25431,36833
32412,25458,36694
32348,25479,36986
32341,25501,36908
32308,25506,36719
32388,25486,36924
32468,25464,37123
32540,25442,36985
32544,25423,36850
32558,25423,37140
32545,25437,37078
32548,25454,37215
32532,25497,37149
32505,25502,37293
32510,25499,37405
32543,25490,37380
32524,25463,37460
32500,25443,37540
32528,25421,37436
32580,25422,37520
32577,25437,37365
32584,25455,37605
32620,25479,37652
32646,25509,37639
32676,25511,37720
32716,25479,37509
32701,25461,37728
32692,25432,37836
32664,25425,37794
32620,25410,38009
32586,25433,37969
32570,25455,37977
32612,25479,38060
32664,25497,38004
32688,25498,38205
32668,25479,38213
32600,25468,38202
32584,25437,38295
32632,25407,38241
32640,25420,38469
32632,25428,38535
32584,25447,38414
32556,25476,38529
32584,25507,38399
32584,25498,38699
32556,25477,38628
32564,25461,38722
32596,25437,38796
32584,25413,38724
32654,25414,38849
32692,25433,38609
32704,25448,38952
32700,25474,38902
32708,25492,39042
32717,25488,38990
32693,25479,39172
32672,25455,39119
32677,25430,39205
32704,25415,39203
32729,25405,39313
32720,25420,39453
32712,25452,39299
32724,25469,39399
32700,25492,39375
32761,25493,39534
32764,25479,39524
32772,25448,39543
32744,25431,39623
32672,25412,39660
32664,25408,39609
32676,25421,39785
32672,25439,39728
32712,25465,39791
32688,25485,39872
32665,25488,39892
32660,25472,39655
32656,25451,39736
32652,25420,39953
32628,25408,39983
32680,25411,40096
32704,25409,40273
32688,25436,40273
32676,25463,40143
32680,25474,40274
32668,25484,40191
32708,25468,40311
32724,25447,40433
32728,25425,40345
32710,25408,40413
32752,25401,40484
32752,25413,40551
32744,25439,40684
32768,25469,40549
32725,25483,40333
32724,25479,40737
32708,25468,40628
32768,25447,40729
32800,25422,40632
32852,25404,40903
32849,25399,40783
32737,25409,40868
32709,25433,40577
32668,25464,40932
32684,25479,41089
32660,25479,40996
32700,25465,40708
32666,25439,41079
32700,25418,41164
32720,25396,41098
32760,25396,40909
32776,25397,41249
32748,25429,41351
32720,25455,41159
32712,25473,41301
32713,25477,41118
32768,25458,41366
32768,25444,41365
32752,25410,41438
32764,25396,41261
32776,25395,41412
32780,25400,41593
32812,25424,41655
32804,25458,41501
32832,25467,41657
32856,25470,41444
32832,25465,41713
32834,25435,41886
32894,25403,41903
32948,25388,41821
32924,25381,41548
32900,25397,41793
32848,25430,41871
32773,25444,42079
32736,25469,42106
32685,25465,42149
32694,25448,41964
32656,25437,42141
32644,25407,41844
32660,25386,42152
32644,25380,42305
32696,25402,42173
32728,25419,42324
32697,25445,42151
32644,25463,42134
32664,25464,42396
32722,25452,42535
32804,25429,42588
32800,25409,42420
32724,25391,42599
32720,25383,42470
32786,25388,42721
32812,25415,42575
32774,25441,42743
32780,25463,42476
32796,25463,42672
32736,25447,42864
32704,25425,42850
32680,25409,42712
32700,25382,42804
32684,25377,42969
32676,25393,43015
32660,25408,42813
32696,25438,43105
32708,25457,42976
32712,25455,43154
32704,25441,43031
32668,25425,43225
32656,25397,43196
32676,25373,42972
32652,25378,43164
32657,25391,43341
32649,25401,43221
32636,25430,43404
32648,25450,43433
32613,25457,43289
32676,25437,43495
32688,25419,43393
32701,25395,43552
32676,25373,43494
32648,25367,43469
32648,25383,43452
32672,25409,43636
32684,25427,43636
32661,25443,43716
32596,25447,43653
32580,25431,43626
32613,25412,43517
32612,25384,43816
32668,25364,43879
32697,25364,43588
32722,25372,43839
32765,25391,43905
32776,25415,43671
32900,25445,43879
33112,25438,43953
33372,25429,44065
33660,25411,43900
34060,25387,44069
34564,25361,44086
35188,25357,43856
35980,25374,44108
36692,25393,44069
37276,25413,44252
37752,25433,43964
38064,25445,44197
38152,25424,44285
37852,25413,44252
36996,25388,44329
35736,25372,44097
34492,25357,44244
33284,25379,44303
32164,25397,44469
31244,25423,44276
30372,25441,44473
29913,25447,44420
29956,25431,44519
30324,25407,44573
30816,25377,44383
31320,25351,44576
31704,25346,44625
31870,25358,44387
31952,25383,44639
31993,25401,44679
32093,25421,44533
32148,25425,44679
32204,25410,44631
32224,25393,44781
32168,25364,44532
32150,25343,44743
32204,25339,44836
32213,25351,44807
32156,25373,44956
32125,25401,44679
32160,25417,44861
32136,25420,45004
32152,25404,45000
32188,25384,45063
32200,25363,44863
32253,25332,44990
32253,25327,45192
32237,25345,45191
32224,25372,45249
32212,25388,45073
32244,25407,45289
32196,25410,45343
32185,25404,45301
32220,25375,45380
32228,25354,45340
32220,25334,45364
32256,25319,45479
32280,25335,45473
32280,25364,45420
32261,25378,45552
32294,25403,45380
32284,25405,45492
32312,25389,45550
32308,25374,45538
32360,25356,45638
32368,25327,45363
32364,25317,45527
32332,25327,45588
32308,25346,45647
32348,25375,45568
32380,25399,45629
32380,25401,45703
32392,25382,45420
32412,25364,45560
32400,25343,45684
32374,25318,45703
32410,25319,45661
32388,25318,45703
32394,25342,45717
32407,25366,45692
32436,25387,45671
32414,25397,45661
32460,25375,45641
32484,25357,45654
32524,25332,45661
32544,25313,45692
32596,25311,45741
32576,25313,45768
32564,25335,45768
32613,25360,45526
32638,25377,45604
32612,25382,45572
32664,25369,45812
32720,25349,45570
32760,25330,45656
32828,25304,45752
32904,25295,45876
32958,25304,45831
32984,25326,45606
33048,25343,45875
33072,25375,45925
33100,25383,45877
33076,25359,45987
32992,25341,45703
33000,25322,45804
33088,25292,45825
33140,25285,45783
33160,25299,45865
33212,25317,45924
33266,25337,46080
33236,25361,46062
33216,25373,46109
33192,25359,46148
33150,25342,46160
33204,25317,45900
33272,25287,46160
33317,25281,46164
33345,25292,46087
33296,25317,46148
33326,25331,46132
33372,25356,46185
33420,25367,46188
33500,25344,46100
33548,25325,46158
33616,25308,46233
33620,25273,46231
33600,25284,46191
33524,25303,46175
33524,25308,46261
33558,25327,46276
33536,25351,45973
33520,25355,46076
33516,25343,46197
33461,25316,46247
33432,25294,46241
33484,25276,46189
33561,25268,46178
33604,25275,46256
33616,25295,46271
33584,25317,46215
33568,25343,46293
33536,25339,45981
33480,25337,46048
33461,25314,46207
33432,25288,46269
33384,25269,46215
33344,25265,46292
33308,25271,46100
33272,25289,46280
33268,25314,46233
33216,25329,46305
33140,25341,46309
33109,25324,46204
33148,25311,46255
33180,25284,46328
33200,25255,46172
33212,25250,46316
33208,25264,46229
33181,25285,46335
33124,25303,46343
33084,25319,46340
32996,25327,46158
32972,25316,46339
33029,25297,46360
33112,25274,46054
33148,25253,46133
33144,25245,46266
33100,25255,46364
33072,25271,46272
33044,25294,46389
33028,25324,46224
32996,25319,46403
33005,25317,46309
33016,25290,46412
33024,25256,46273
33052,25239,46414
33000,25236,46324
32876,25249,46439
32841,25263,46368
32876,25289,46391
32904,25319,46223
32925,25313,46431
32928,25305,46392
32960,25277,46204
33004,25261,46435
32966,25229,46377
32984,25223,46260
32965,25236,46333
32953,25256,46420
32952,25279,46284
32960,25309,46356
32957,25307,46431
32968,25297,46117
32944,25276,46275
32932,25262,46320
32888,25229,46412
32836,25217,46383
32841,25233,46329
32844,25252,46414
32852,25273,46215
32900,25301,46359
32892,25303,46319
32892,25289,46303
32889,25270,46343
32848,25249,46372
32836,25214,46127
32864,25221,46268
32864,25222,46343
32852,25249,46293
32864,25257,46255
32900,25291,46316
32920,25288,46327
32848,25287,46343
32732,25260,46297
32708,25233,46096
32669,25210,46311
32660,25205,46215
32670,25218,46293
32644,25236,46327
32620,25256,46256
32634,25285,46205
32644,25291,46299
32600,25271,46267
32606,25249,46284
32636,25237,46109
32664,25213,46269
32652,25199,46304
32644,25211,46220
32612,25228,46327
32548,25254,46047
32550,25268,46309
32572,25281,46236
32568,25275,46317
32524,25239,46084
32492,25217,46267
32465,25197,46244
32480,25182,46343
32508,25197,46111
32572,25223,46319
32664,25236,46249
32708,25262,46362
32668,25271,46128
32636,25259,46337
32660,25241,46305
32660,25215,46136
32600,25186,46315
32510,25185,46349
32528,25197,46368
32488,25218,46333
32484,25233,46391
32500,25254,46303
32516,25265,46410
32464,25253,46369
32383,25239,46420
32388,25212,46213
32428,25186,46372
32444,25180,46425
32432,25191,46340
32498,25200,46433
32468,25223,46136
32468,25252,46384
32476,25260,46462
32504,25247,46412
32449,25217,46391
32476,25199,46428
32457,25176,46465
32444,25165,46369
32396,25175,46455
32400,25195,46504
32292,25212,46276
32296,25241,46421
32325,25249,46501
32325,25233,46513
32364,25212,46206
32410,25188,46428
32396,25167,46516
32376,25157,46495
32388,25162,46212
32392,25188,46276
32392,25209,46447
32408,25230,46527
32392,25239,46437
32304,25227,46471
32270,25212,46525
32258,25186,46253
32280,25165,46469
32372,25149,46447
32440,25159,46540
32442,25174,46508
32408,25199,46549
32400,25228,46444
32376,25235,46453
32340,25221,46535
32400,25199,46509
32432,25173,46553
32430,25151,46404
32448,25134,46559
32404,25147,46471
32384,25167,46535
32356,25189,46556
32400,25212,46533
32412,25223,46258
32440,25210,46424
32460,25188,46540
32492,25173,46503
32464,25142,46549
32472,25129,46400
32468,25143,46553
32432,25153,46495
32396,25181,46560
32392,25201,46239
32417,25211,46452
32390,25204,46533
32372,25182,46577
32400,25155,46252
32394,25134,46425
32412,25122,46532
32384,25133,46541
32484,25151,46501
32532,25170,46593
32532,25198,46581
32485,25217,46284
32476,25191,46311
32488,25172,46304
32550,25151,46285
32528,25120,46336
32488,25119,46461
32448,25116,46598
32416,25145,46588
32360,25162,46546
32421,25186,46631
32440,25191,46638
32468,25185,46364
32460,25165,46599
32444,25140,46639
32464,25117,46620
32482,25101,46375
32616,25119,46661
32716,25130,46579
32744,25159,46628
32721,25175,46700
32544,25189,46453
32446,25183,46680
32512,25156,46687
32576,25132,46356
32576,25109,46487
32572,25095,46620
32616,25103,46635
32628,25124,46695
32564,25145,46471
32532,25169,46684
32505,25175,46655
32504,25169,46599
32518,25151,46690
32568,25124,46623
32602,25095,46381
32662,25093,46628
32716,25095,46709
32685,25116,46665
32653,25133,46628
32661,25163,46718
32672,25168,46457
32676,25159,46700
32677,25140,46646
32644,25116,46719
32580,25081,46396
32633,25079,46628
32648,25089,46695
32624,25100,46668
32636,25123,46741
32672,25149,46476
32656,25162,46584
32556,25148,46700
32476,25135,46716
32484,25111,46708
32520,25081,46765
32592,25074,46556
32636,25081,46757
32670,25095,46692
32628,25116,46780
32624,25145,46621
32660,25149,46783
32672,25147,46748
32678,25127,46788
32744,25108,46492
32804,25077,46599
32780,25065,46616
32737,25063,46655
32728,25082,46793
32724,25111,46724
32708,25137,46833
32640,25135,46789
32652,25131,46533
32716,25112,46743
32740,25088,46759
32800,25060,46838
32768,25060,46780
32728,25063,46785
32780,25079,46751
32776,25100,46805
32736,25127,46744
32724,25130,46764
32712,25131,46767
32704,25104,46813
32708,25077,46471
32728,25059,46595
32737,25049,46724
32745,25053,46764
32829,25068,46688
32836,25092,46725
32820,25119,46773
32847,25125,46774
32912,25111,46748
32993,25100,46608
32980,25070,46788
32848,25053,46789
32832,25031,46756
32740,25041,46742
32773,25068,46775
32824,25084,46696
32816,25111,46724
32792,25119,46797
32745,25115,46468
32700,25092,46780
32676,25068,46711
32672,25032,46460
32724,25027,46692
32776,25034,46756
32812,25052,46785
32856,25073,46780
32760,25094,46471
32748,25113,46665
32840,25095,46721
32872,25077,46804
32876,25061,46691
32856,25037,46756
32824,25020,46820
32821,25023,46631
32788,25047,46753
32761,25069,46708
32764,25095,46781
32816,25100,46594
32872,25095,46744
32890,25068,46511
32897,25048,46655
32885,25027,46767
32880,25015,46692
32836,25018,46769
32685,25044,46448
32616,25057,46559
32648,25089,46695
32660,25095,46631
32656,25087,46684
32712,25055,46645
32765,25039,46668
32740,25014,46681
32752,24999,46588
32797,25012,46629
32956,25037,46572
33156,25048,46654
33374,25076,46648
33661,25081,46604
34024,25076,46479
34465,25060,46593
35048,25036,46500
35648,25019,46592
36437,24987,46269
37204,25006,46548
37864,25028,46525
38452,25041,46540
38821,25076,46215
38896,25091,46493
38602,25079,46423
37756,25061,46471
36446,25038,46437
35080,25007,46413
33708,24998,46449
32396,25002,46205
31348,25023,46382
30528,25053,46343
30100,25071,46367
30196,25079,46027
30580,25066,46295
31084,25046,46076
31520,25023,46076
31815,24989,46087
31980,24978,46184
32056,25001,46174
32193,25003,46134
32352,25023,46077
32500,25046,46042
32560,25053,46045
32588,25048,45993
32536,25038,46065
32420,25011,45789
32372,24975,45941
32396,24967,46017
32432,24975,46007
32428,24989,45999
32396,25015,45885
32386,25036,45998
32432,25038,45975
32432,25037,46036
32444,25028,46045
32465,24999,45984
32538,24975,45737
32492,24961,45881
32440,24967,45973
32429,24988,45936
32386,24998,46007
32378,25029,45932
32364,25041,45980
32360,25032,45764
32392,25012,45820
32476,24984,45950
32473,24957,45857
32473,24948,45943
32408,24951,45653
32436,24973,45817
32444,24992,45881
32473,25019,45807
32448,25025,45829
32448,25014,45869
32464,25007,45540
32496,24981,45671
32564,24947,45741
32613,24935,45800
32640,24942,45732
32676,24965,45526
32520,24985,45708
32457,25006,45431
32472,25009,45542
32457,25012,45660
32540,24987,45645
32572,24972,45367
32586,24933,45545
32628,24925,45575
32652,24930,45557
32685,24954,45313
32740,24971,45421
32809,24997,45509
32864,25004,45460
32880,24996,45405
32924,24983,45477
32956,24959,45479
32988,24926,45430
32844,24919,45243
32748,24928,45361
32792,24935,45335
32960,24959,45368
33088,24983,45049
33135,24994,45207
33088,24985,45289
33048,24969,45271
33020,24949,45260
33036,24905,45236
33061,24909,45191
33036,24913,45164
33024,24929,45231
33084,24953,45233
33152,24979,44967
33254,24994,45056
33285,24976,45191
33296,24959,45101
33324,24941,45216
33396,24911,44890
33430,24892,45051
33504,24903,45164
33573,24922,45008
33564,24943,45143
33584,24964,44948
33544,24981,45085
33512,24971,45033
33552,24953,45097
33580,24925,45129
33609,24896,44909
33641,24882,45063
33620,24893,45036
33532,24908,44820
33460,24935,45028
33440,24958,44934
33456,24969,45038
33540,24960,44745
33564,24945,44919
33572,24923,44988
33592,24877,44887
33560,24873,44911
33584,24886,44972
33624,24903,44671
33593,24920,44891
33568,24953,44903
33508,24966,44868
33504,24952,44892
33560,24933,44716
33640,24903,44857
33708,24878,44772
33744,24870,44900
33716,24881,44568
33680,24892,44660
33592,24920,44767
33440,24939,44839
33328,24951,44655
33172,24943,44724
33088,24921,44816
33008,24901,44705
32956,24871,44775
32968,24865,44725
32960,24876,44757
33001,24891,44728
33008,24907,44604
32992,24941,44724
33032,24941,44745
33092,24933,44679
33125,24917,44477
33076,24903,44711
32929,24868,44705
32856,24857,44783
32808,24856,44545
32840,24880,44728
32872,24900,44789
32844,24932,44679
32816,24942,44653
32852,24933,44784
32932,24913,44653
32933,24890,44716
32957,24865,44474
32984,24839,44728
32932,24851,44773
32896,24870,44724
32828,24895,44648
32820,24922,44775
32692,24935,44577
32588,24925,44711
32580,24904,44756
32628,24883,44761
32616,24855,44548
32704,24844,44729
32776,24851,44652
32796,24869,44721
32720,24889,44753
32732,24927,44505
32676,24926,44521
32592,24919,44527
32544,24902,44613
32552,24876,44637
32536,24847,44710
32525,24836,44423
32549,24847,44651
32557,24863,44645
32548,24881,44647
32548,24903,44598
32572,24917,44669
32548,24912,44396
32516,24895,44620
32533,24869,44629
32522,24845,44390
32540,24826,44524
32564,24835,44580
32512,24849,44566
32524,24876,44508
32512,24895,44502
32436,24917,44460
32397,24903,44415
32413,24877,44513
32492,24861,44535
32580,24828,44255
32648,24820,44350
32612,24821,44391
32524,24845,44456
32476,24865,44433
32428,24888,44333
32368,24894,44397
32401,24898,44398
32359,24876,44356
32380,24862,44428
32316,24824,44366
32332,24831,44273
32376,24823,44388
32324,24839,44380
32304,24858,44221
32328,24878,44349
32380,24885,44313
32386,24895,44229
32388,24873,44359
32413,24846,44326
32446,24817,44268
32437,24806,44225
32460,24812,44277
32382,24828,44004
32264,24850,44242
32232,24873,44199
32268,24881,44212
32336,24876,44247
32460,24858,44265
32556,24837,44039
32601,24808,44218
32608,24791,44236
32556,24811,44127
32468,24813,44181
32364,24837,43935
32336,24865,44081
32324,24879,44073
32296,24869,44140
32240,24853,43863
32300,24831,44104
32416,24801,44100
32481,24785,43996
32456,24796,44076
32328,24814,44108
32160,24829,43884
32140,24859,43911
32116,24868,44023
32148,24868,44080
32184,24839,43752
32216,24819,43761
32196,24803,43944
32231,24781,44008
32232,24782,43932
32296,24799,44021
32336,24829,43982
32336,24847,43679
32316,24858,43767
32336,24853,43845
32366,24833,43922
32325,24814,43852
32268,24781,43628
32248,24775,43734
32200,24782,43796
32140,24799,43805
32088,24820,43848
32072,24852,43807
32056,24852,43548
32160,24849,43481
32208,24824,43764
32196,24803,43706
32160,24780,43397
32100,24769,43527
32137,24768,43607
32192,24789,43503
32214,24799,43629
32200,24831,43298
32252,24839,43429
32310,24834,43527
32300,24825,43406
32284,24799,43454
32260,24773,43461
32232,24748,43172
32240,24759,43241
32204,24773,43344
32201,24796,43383
32272,24828,43053
32256,24837,43217
32240,24828,43287
32220,24815,43116
32172,24788,43239
32145,24763,43237
32096,24747,43183
32064,24749,42911
32172,24767,43141
32277,24793,43092
32344,24816,43031
32340,24836,43096
32332,24819,43031
32384,24804,42791
32393,24781,43004
32390,24756,42933
32340,24740,42973
32248,24749,42927
32104,24767,42631
32112,24783,42935
32152,24813,42870
32244,24823,42791
32380,24815,42826
32484,24801,42540
32542,24765,42721
32520,24748,42822
32449,24734,42653
32416,24735,42685
32416,24747,42724
32404,24773,42730
32348,24799,42351
32368,24820,42532
32392,24807,42684
32332,24784,42535
32328,24758,42621
32324,24736,42437
32324,24720,42538
32304,24735,42604
32276,24743,42498
32269,24759,42345
32309,24789,42557
32356,24800,42404
32400,24804,42487
32392,24775,42469
32380,24753,42359
32332,24727,42447
32349,24717,42382
32369,24723,42053
32365,24737,42415
32469,24754,42311
32538,24775,42141
32510,24793,42356
32532,24794,42320
32464,24774,41967
32444,24751,42260
32421,24719,42306
32432,24717,42151
32476,24709,42208
32516,24727,42273
32608,24751,42102
32576,24781,41840
32606,24782,42273
32541,24783,42137
32476,24768,41879
32368,24740,42199
32268,24719,41975
32277,24699,42079
32332,24702,42005
32372,24724,41925
32396,24743,41958
32405,24771,42064
32484,24780,41956
32504,24775,41808
32620,24751,42045
32666,24732,41846
32614,24711,41934
32580,24695,41809
32592,24704,41895
32557,24718,41887
32497,24736,41860
32396,24761,41502
32320,24783,41735
32296,24773,41801
32320,24759,41903
32389,24733,41860
32440,24716,41677
32392,24686,41764
32441,24687,41621
32428,24708,41735
32460,24729,41701
32536,24746,41695
32629,24770,41398
32710,24767,41780
32713,24754,41557
32648,24724,41593
32660,24705,41500
32700,24681,41561
32724,24685,41583
32700,24703,41215
32652,24729,41517
32572,24747,41461
32621,24758,41513
32662,24759,41319
32704,24742,41591
32732,24713,41461
32716,24690,41350
32572,24674,41444
32430,24679,41421
32436,24697,41471
32464,24716,41383
32408,24745,41320
32400,24751,41316
32480,24755,41045
32538,24735,41333
32544,24719,41364
32524,24690,41405
32532,24674,41264
32576,24679,41282
32668,24681,41056
32724,24711,41229
32760,24733,41392
32700,24748,41140
32616,24741,41223
32572,24729,40967
32552,24703,41303
32480,24668,41105
32441,24665,41196
32392,24670,41086
32384,24678,41189
32393,24703,41194
32500,24733,40963
32592,24743,41039
32632,24735,41188
32620,24717,41105
32668,24697,40965
32724,24673,41159
32804,24652,41141
32884,24657,41013
32900,24685,41048
33080,24690,40809
33304,24724,41132
33628,24730,40967
34032,24733,40708
34588,24714,40954
35284,24692,40946
36108,24673,40943
36988,24652,40816
37736,24659,40967
38418,24666,40935
38864,24688,40850
39079,24703,40849
38940,24740,40521
38300,24735,40660
36996,24725,40813
35505,24702,40669
34124,24677,40756
32636,24656,40484
31380,24659,40629
30406,24677,40836
29776,24692,40615
29664,24721,40628
29912,24724,40445
30344,24721,40501
30840,24703,40658
31240,24681,40420
31521,24653,40497
31780,24635,40352
31961,24639,40479
32072,24644,40484
32132,24671,40372
32120,24693,40045
32128,24711,40259
32148,24709,40442
32172,24694,40212
32250,24662,40208
32236,24646,40352
32200,24623,40285
32152,24629,40351
32117,24644,40263
32192,24664,40065
32176,24692,40351
32108,24700,40224
32044,24692,40299
32125,24677,40317
32205,24665,40183
32200,24633,40400
32220,24613,40236
32293,24612,40309
32341,24629,40240
32332,24652,40172
32326,24677,40273
32328,24686,40052
32356,24687,40406
32464,24661,40191
32437,24644,40244
32424,24621,40105
32384,24603,40324
32296,24600,40171
32332,24624,39884
32381,24638,40107
32412,24660,40085
32396,24676,40149
32380,24663,39975
32333,24655,40206
32378,24632,40020
32428,24599,40044
32420,24596,39728
32444,24583,40097
32492,24607,39940
32492,24621,39952
32477,24651,39746
32460,24662,39951
32452,24663,39988
32508,24642,39854
32561,24617,39827
32581,24599,39512
32628,24580,39692
32721,24567,39736
32688,24590,39849
32660,24613,39684
32736,24631,39401
32848,24643,39681
32888,24650,39508
32924,24637,39593
32996,24611,39662
33053,24583,39583
33056,24567,39506
33048,24567,39521
33044,24581,39215
33048,24600,39509
33045,24630,39357
32989,24641,39429
32956,24647,39325
32980,24624,39495
33030,24594,39357
33092,24567,39359
33160,24557,39165
33228,24561,39261
33284,24575,39263
33277,24588,39357
33284,24621,39287
33268,24635,39175
33264,24632,39239
33292,24609,39248
33324,24595,38956
33316,24565,39137
33404,24553,39291
33365,24565,39110
33356,24571,39164
33348,24586,39159
33308,24622,38855
33330,24635,39047
33432,24631,39195
33592,24609,39028
33710,24583,39092
33744,24556,39047
33770,24543,38853
33784,24546,39015
33752,24559,39083
33688,24589,39112
33562,24615,38888
33512,24622,38965
33436,24621,38725
33486,24602,38951
33504,24580,38839
33472,24559,38893
33488,24535,38748
33578,24541,38870
33656,24556,38813
33688,24575,38797
33664,24605,38812
33645,24623,38770
33652,24619,38844
33640,24605,38663
33569,24581,38465
33560,24551,38765
33532,24538,38839
33512,24537,38630
33500,24552,38727
33444,24566,38676
33429,24597,38426
33404,24613,38607
33364,24611,38655
33292,24603,38629
33252,24583,38692
33248,24550,38781
33212,24537,38552
33184,24535,38373
33180,24550,38644
33216,24570,38736
33293,24605,38700
33300,24618,38659
33258,24613,38637
33248,24596,38662
33261,24573,38597
33256,24550,38559
33100,24528,38661
32973,24535,38472
32924,24548,38527
32940,24569,38585
32992,24609,38591
33025,24605,38601
33126,24607,38732
33149,24591,38772
33058,24569,38652
33024,24546,38600
32976,24526,38783
32978,24528,38721
32964,24549,38692
33000,24564,38489
32968,24601,38737
32942,24610,38729
32892,24603,38636
32832,24583,38653
32784,24568,38482
32632,24533,38777
32580,24525,38701
32617,24529,38765
32604,24547,38757
32604,24567,38676
32597,24589,38869
32568,24607,38677
32572,24607,38757
32568,24583,38788
32592,24559,38500
32680,24535,38743
32756,24519,38828
32784,24526,38780
32752,24533,38532
32772,24559,38860
32765,24580,38726
32716,24613,38519
32722,24599,38866
32672,24581,38717
32644,24553,38785
32644,24535,38697
32636,24511,38764
32660,24516,38599
32704,24535,38848
32705,24559,38772
32712,24583,38763
32641,24592,38780
32608,24583,38719
32460,24569,38860
32420,24551,38663
32460,24528,38753
32540,24509,38521
32580,24515,38784
32685,24528,38647
32685,24548,38694
32612,24575,38726
32596,24588,38721
32617,24583,38441
32580,24567,38568
32508,24545,38530
32460,24516,38601
32492,24502,38703
32548,24502,38628
32600,24521,38654
32576,24548,38372
32574,24574,38540
32500,24583,38716
32480,24581,38591
32548,24557,38613
32604,24541,38423
32641,24521,38575
32640,24500,38569
32628,24500,38279
32564,24516,38343
32468,24537,38399
32432,24566,38485
32440,24579,38524
32442,24570,38606
32432,24557,38436
32420,24534,38592
32480,24508,38375
32501,24494,38445
32528,24495,38465
32572,24506,38375
32549,24525,38535
32548,24553,38369
32456,24571,38388
32276,24563,38399
32292,24557,38197
32420,24535,38377
32453,24503,38428
32476,24485,38368
32460,24484,38089
32384,24509,38334
32328,24526,38279
32344,24561,38165
32372,24563,38353
32404,24564,38331
32424,24540,38279
32473,24526,38101
32421,24500,38319
32388,24486,38167
32309,24491,38047
32280,24502,38084
32232,24527,38190
32238,24549,38279
32268,24561,38095
32292,24561,38181
32300,24543,37927
32340,24516,38038
32412,24507,38117
32440,24479,38096
32400,24480,37988
32388,24496,38053
32344,24516,38045
32336,24548,37956
32409,24551,37950
32392,24551,37944
32428,24539,38016
32356,24518,37805
32262,24492,37879
32252,24471,37672
32194,24474,37759
32200,24495,37856
32212,24516,37680
32230,24540,37757
32280,24553,37495
32356,24546,37623
32341,24527,37760
32344,24511,37749
32368,24487,37588
32400,24472,37580
32416,24469,37584
32436,24488,37572
32425,24505,37289
32388,24535,37472
32384,24546,37581
32376,24540,37460
32404,24521,37199
32372,24506,37476
32344,24478,37364
32356,24467,37383
32372,24468,37204
32396,24484,37318
32432,24503,37296
32469,24537,37246
32516,24541,37340
32528,24541,37198
32456,24522,37189
32416,24503,37200
32412,24473,36931
32376,24455,37193
32424,24463,37100
32500,24475,37095
32577,24495,36896
32541,24521,37103
32480,24541,36954
32504,24536,36996
32460,24519,36718
32448,24495,36975
32472,24473,36803
32504,24445,36887
32561,24455,36829
32592,24471,36777
32600,24489,36855
32636,24522,36664
32588,24526,36743
32468,24523,36708
32468,24519,36548
32464,24493,36671
32524,24462,36639
32560,24449,36608
32584,24447,36478
32556,24469,36646
32548,24487,36420
32581,24506,36471
32644,24518,36466
32628,24521,36349
32616,24502,36493
32632,24479,36284
32608,24453,36373
32568,24439,36138
32564,24440,36158
32577,24450,36148
32557,24479,36277
32556,24500,36261
32512,24522,36127
32544,24514,36185
32542,24497,36103
32538,24476,36075
32512,24448,36135
32532,24421,35995
32584,24433,36151
32588,24445,35975
32602,24469,36040
32550,24492,35828
32548,24512,36005
32532,24507,36055
32548,24490,35985
32548,24467,35896
32556,24438,35917
32565,24433,35733
32556,24437,35909
32572,24436,35770
32588,24459,35780
32580,24482,35819
32605,24511,35673
32641,24493,35828
32692,24479,35518
32588,24463,35792
32612,24431,35718
32652,24422,35730
32653,24409,35687
32670,24430,35613
32648,24461,35637
32549,24477,35396
32505,24493,35472
32520,24487,35476
32528,24468,35508
32473,24444,35308
32496,24422,35305
32528,24405,35362
32550,24404,35463
32556,24423,35463
32576,24441,35326
32553,24462,35394
32568,24485,35372
32578,24479,35133
32597,24458,35199
32596,24433,35284
32576,24407,35231
32520,24396,35172
32544,24404,35220
32528,24421,35009
32540,24436,35097
32540,24458,35223
32542,24481,35032
32592,24469,35122
32548,24455,34900
32528,24426,34948
32572,24401,35124
32485,24388,34991
32408,24388,35009
32377,24407,34893
32408,24425,34966
32442,24456,34927
32504,24462,34927
32485,24465,34745
32472,24455,34868
32472,24420,34805
32528,24396,34837
32612,24373,34644
32724,24373,34863
32900,24388,34740
33152,24425,34556
33518,24441,34719
33952,24457,34745
34468,24449,34684
35148,24434,34468
35940,24409,34660
36840,24387,34541
37608,24373,34460
38228,24383,34498
38725,24398,34532
38960,24428,34481
38848,24455,34373
38308,24471,34548
37180,24467,34497
35756,24441,34340
34380,24413,34461
32832,24385,34403
31492,24379,34453
30436,24378,34300
29760,24399,34399
29617,24415,34289
29884,24437,34348
30340,24447,34340
30853,24439,34301
31268,24424,34114
31588,24407,34119
31777,24372,34281
31856,24357,34074
32004,24359,34199
32093,24376,34084
32096,24399,33933
32084,24421,34092
32093,24441,33997
32096,24433,34092
32097,24416,33956
32184,24396,34069
32174,24369,33908
32132,24357,34000
32085,24352,34117
32096,24364,34063
32096,24389,33895
32036,24415,34013
32036,24431,34055
32016,24423,34063
31972,24413,33922
32016,24387,33949
32160,24363,33844
32276,24344,34069
32320,24340,34035
32344,24361,33887
32381,24380,33993
32380,24402,33905
32384,24427,33887
32340,24418,33866
32312,24401,33871
32312,24377,33937
32296,24349,33838
32272,24334,33895
32284,24338,33900
32265,24357,33709
32260,24377,33870
32300,24401,33752
32312,24415,33636
32288,24406,33700
32316,24399,33787
32388,24377,33709
32439,24342,33528
32432,24327,33628
32324,24327,33576
32329,24351,33644
32336,24365,33595
32369,24399,33520
32360,24407,33589
32392,24407,33428
32420,24382,33537
32385,24369,33474
32424,24342,33412
32452,24326,33484
32516,24325,33287
32532,24339,33341
32564,24360,33327
32568,24397,33412
32604,24404,33454
32624,24392,33345
32640,24377,33214
32701,24363,33228
32724,24337,33241
32732,24316,33329
32704,24318,33175
32704,24347,33342
32712,24359,33274
32776,24389,33222
32816,24393,33268
32850,24389,33233
32910,24373,33228
32908,24352,33061
32945,24332,33278
32954,24311,33159
33020,24313,33244
33072,24333,33052
33124,24359,33111
33134,24373,33287
33180,24389,33152
33168,24396,33166
33168,24370,33221
33264,24353,33197
33344,24301,33173
33376,24295,33214
33380,24301,33040
33365,24319,33217
33461,24351,33128
33452,24373,32985
33456,24385,33120
33472,24381,33084
33457,24358,33142
33420,24344,32980
33420,24311,32970
33448,24295,33156
33508,24299,33021
33546,24319,32917
33588,24340,32916
33596,24370,33012
33600,24385,32998
33604,24375,32829
33648,24358,32845
33670,24327,33017
33704,24306,32860
33696,24286,32941
33704,24295,32740
33740,24319,32773
33752,24327,32903
33784,24361,32824
33764,24373,32639
33772,24369,32792
33792,24349,32760
33776,24327,32589
33740,24295,32588
33640,24285,32719
33588,24281,32698
33560,24308,32517
33548,24327,32694
33540,24349,32597
33580,24364,32423
33520,24365,32445
33488,24349,32614
33496,24324,32502
33457,24303,32343
33420,24277,32357
33413,24280,32538
33404,24300,32420
33356,24321,32441
33312,24352,32289
33280,24363,32379
33262,24359,32436
33248,24338,32337
33248,24325,32347
33272,24295,32207
33292,24282,32388
33308,24285,32233
33292,24295,32135
33220,24317,32196
33199,24335,32287
33156,24358,32276
33128,24359,32260
33118,24335,32097
33040,24314,32083
32968,24296,32080
32980,24259,32058
32964,24287,32034
32980,24292,32213
32993,24308,32132
32992,24335,32058
32968,24345,32135
32945,24345,31997
32932,24334,31981
32912,24311,32128
32900,24283,32004
32900,24266,31991
32886,24268,32053
32884,24287,32005
32879,24304,31878
32884,24327,31878
32896,24348,32033
32854,24340,32061
32884,24325,31988
32881,24299,31834
32847,24279,31857
32796,24255,32002
32774,24262,31958
32748,24277,31782
32744,24305,31876
32776,24329,31852
32752,24359,31890
32736,24340,31748
32720,24321,31791
32742,24293,31807
32742,24265,31832
32740,24255,31668
32733,24261,31863
32712,24270,31788
32704,24291,31640
32710,24313,31774
32676,24326,31684
32646,24321,31740
32660,24308,31575
32661,24289,31728
32632,24263,31623
32644,24253,31689
32624,24252,31540
32592,24276,31663
32564,24292,31586
32552,24319,31655
32532,24349,31494
32512,24335,31684
32544,24306,31535
32544,24279,31637
32548,24259,31468
32524,24245,31473
32504,24247,31653
32489,24260,31627
32432,24287,31486
32412,24303,31641
32372,24316,31572
32400,24325,31624
32388,24311,31476
32444,24277,31612
32357,24257,31573
32265,24246,31457
32276,24243,31558
32340,24253,31623
32352,24287,31462
32332,24295,31646
32340,24310,31603
32348,24313,31470
32345,24295,31656
32384,24271,31623
32390,24256,31488
32352,24229,31657
32361,24231,31582
32356,24247,31620
32261,24276,31631
32248,24303,31501
32220,24309,31557
32232,24311,31684
32320,24295,31683
32328,24276,31663
32260,24245,31668
32212,24228,31696
32228,24236,31543
32264,24250,31557
32260,24265,31751
32290,24293,31660
32288,24317,31716
32271,24311,31580
32288,24293,31572
32284,24265,31782
32296,24242,31653
32286,24222,31764
32316,24229,31601
32292,24243,31785
32241,24260,31749
32248,24293,31616
32288,24306,31698
32329,24303,31750
32304,24288,31751
32228,24265,31791
32200,24246,31645
32217,24221,31837
32237,24220,31703
32200,24239,31628
32200,24261,31719
32206,24284,31789
32192,24292,31773
32152,24301,31623
32118,24279,31788
32152,24256,31679
32200,24229,31639
32225,24209,31700
32216,24209,31709
32268,24228,31773
32208,24249,31610
32144,24281,31791
32072,24288,31649
31976,24289,31607
32016,24273,31583
32096,24249,31751
32144,24225,31710
32196,24214,31766
32192,24207,31660
32156,24223,31716
32189,24245,31566
32239,24274,31623
32224,24289,31622
32232,24284,31575
32268,24271,31557
32266,24247,31743
32252,24229,31602
32216,24199,31687
32228,24204,31549
32224,24221,31688
32194,24239,31655
32176,24272,31689
32160,24284,31527
32204,24285,31708
32196,24261,31585
32205,24242,31639
32248,24221,31668
32244,24199,31517
32244,24199,31644
32260,24225,31575
32300,24239,31456
32329,24261,31597
32328,24279,31524
32316,24279,31517
32340,24258,31596
32356,24239,31436
32372,24210,31591
32364,24188,31433
32344,24201,31423
32321,24215,31550
32308,24235,31580
32360,24261,31546
32380,24279,31509
32372,24276,31399
32384,24255,31363
32372,24238,31526
32313,24210,31476
32308,24196,31332
32348,24197,31494
32328,24205,31401
32344,24225,31447
32384,24248,31273
32384,24263,31425
32360,24266,31416
32416,24253,31255
32429,24234,31361
32460,24204,31277
32486,24180,31365
32516,24185,31192
32504,24199,31365
32537,24222,31236
32520,24244,31327
32476,24261,31148
32454,24255,31337
32476,24249,31202
32492,24228,31197
32564,24207,31266
32644,24183,31268
32684,24181,31175
32556,24196,31162
32444,24213,31119
32464,24234,31246
32516,24263,31148
32585,24257,31224
32594,24247,31060
32576,24220,31223
32564,24193,31116
32532,24180,31200
32556,24175,31042
32549,24188,31229
32581,24208,31147
32649,24231,31153
32628,24255,31036
32676,24263,31168
32728,24236,31005
32708,24218,31200
32652,24184,31092
32644,24169,31145
32640,24164,31005
32596,24190,31021
32572,24215,31129
32576,24229,31162
32540,24253,31108
32544,24260,30952
32529,24236,31143
32576,24217,31079
32581,24186,31096
32588,24173,30938
32644,24169,31120
32688,24183,31007
32712,24199,31066
32696,24229,31076
32664,24247,30908
32648,24245,31004
32600,24229,31063
32551,24207,31028
32592,24193,30910
32588,24165,30876
32625,24165,31062
32672,24174,30930
32648,24199,31000
32672,24224,30873
32728,24245,30865
32746,24241,31027
32696,24221,30996
32692,24207,31007
32672,24173,30841
32668,24156,31007
32684,24159,30908
32665,24173,30987
32628,24191,30998
32653,24219,30829
32628,24228,30901
32624,24237,30962
32668,24216,30992
32628,24195,30823
32630,24175,30941
32596,24148,30904
32608,24149,30930
32613,24169,30967
32620,24197,30793
32612,24205,30799
32616,24222,30839
32580,24224,30933
32586,24205,30919
32620,24191,30792
32636,24164,30781
32644,24146,30880
32608,24141,30918
32608,24159,30845
32600,24181,30812
32615,24199,30800
32636,24228,30807
32632,24219,30900
32606,24205,30909
32570,24187,30752
32604,24165,30893
32636,24140,30839
32632,24132,30844
32669,24151,30890
32704,24175,30733
32868,24194,30800
33132,24217,30915
33440,24223,30888
33804,24209,30868
34328,24177,30735
34988,24159,30903
35796,24135,30847
36704,24136,30880
37548,24145,30712
38180,24169,30725
38605,24193,30791
38772,24214,30808
38676,24218,30869
38140,24219,30706
37077,24186,30841
35788,24172,30846
34540,24138,30709
33176,24139,30734
31892,24163,30876
30716,24182,30807
29916,24202,30832
29708,24217,30677
29924,24220,30841
30396,24198,30786
30969,24181,30703
31444,24150,30620
31744,24132,30802
32000,24117,30724
32125,24135,30612
32164,24165,30664
32144,24181,30682
32136,24199,30621
32124,24202,30700
32124,24189,30598
32137,24175,30559
32220,24138,30738
32261,24121,30621
32316,24113,30727
32320,24132,30582
32328,24157,30606
32332,24179,30663
32276,24196,30791
32248,24199,30727
32200,24181,30624
32220,24169,30818
32284,24141,30784
32298,24113,30678
32328,24112,30791
32377,24127,30804
32380,24148,30674
32356,24175,30679
32376,24196,30716
32460,24196,30869
32512,24188,30848
32524,24164,30717
32524,24135,30885
32544,24113,30849
32576,24116,30703
32557,24123,30884
32580,24147,30817
