ECG,EDA,RR
36580,38801,30133
35428,38785,30127
34164,38809,30124
32993,38781,30033
31852,38840,30032
30972,38867,30017
30262,38887,29992
29777,38889,29973
29792,38855,29932
30156,38833,29925
30648,38805,29950
31160,38775,29880
31552,38777,29841
31798,38765,29836
31920,38815,29816
32000,38831,29801
32056,38833,29782
32088,38855,29789
32172,38823,29825
32241,38791,29767
32324,38772,29727
32358,38753,29741
32356,38717,29719
32372,38772,29703
32372,38791,29700
32308,38821,29709
32277,38837,29676
32244,38808,29684
32192,38817,29671
32212,38744,29693
32248,38756,29721
32216,38729,29658
32224,38714,29629
32268,38753,29648
32308,38782,29615
32328,38799,29636
32344,38815,29655
32328,38817,29556
32348,38781,29543
32352,38766,29537
32362,38735,29511
32340,38727,29502
32360,38711,29509
32380,38721,29502
32404,38754,29493
32381,38788,29457
32324,38785,29416
32296,38789,29381
32264,38775,29300
32320,38743,29284
32364,38716,29247
32440,38663,29236
32496,38699,29274
32545,38712,29140
32568,38725,29145
32580,38757,29084
32620,38772,29088
32684,38757,29092
32696,38751,28950
32693,38720,28929
32648,38692,28889
32648,38660,28837
32653,38652,28823
32694,38688,28777
32728,38713,28718
32700,38741,28668
32620,38749,28674
32704,38714,28679
32748,38737,28642
32736,38709,28527
32724,38663,28449
32748,38648,28441
32800,38655,28391
32780,38669,28319
32784,38694,28377
32820,38715,28236
32840,38743,28188
32841,38735,28148
32860,38713,28073
32900,38695,28045
32944,38637,28015
32935,38652,27968
32964,38641,27887
32997,38663,27868
32988,38681,27797
32932,38709,27792
32896,38730,27820
32872,38730,27753
32858,38706,27594
32864,38684,27551
32908,38657,27498
32972,38623,27458
33040,38631,27417
33136,38653,27456
33192,38690,27323
33200,38708,27278
33188,38727,27271
33169,38732,27249
33148,38701,27196
33168,38689,27143
33184,38663,27100
33201,38644,27074
33180,38641,26990
33156,38660,26955
33176,38681,27017
33196,38722,27013
33212,38724,26908
33236,38733,26772
33256,38725,26737
33232,38700,26722
33268,38662,26705
33292,38647,26612
33320,38649,26631
33333,38679,26692
33344,38695,26655
33312,38725,26500
33337,38748,26420
33348,38740,26375
33328,38701,26352
33298,38711,26360
33278,38682,26340
33236,38657,26260
33188,38663,26287
33136,38676,26306
33168,38700,26303
33132,38725,26261
33164,38756,26176
33132,38748,26052
33156,38747,26076
33192,38724,26052
33208,38683,25990
33216,38655,26037
33180,38672,26065
33152,38694,25893
33092,38708,25863
33072,38759,25902
33054,38753,25842
33020,38757,25853
32976,38740,25948
32964,38725,25726
32964,38678,25777
32952,38679,25749
32952,38663,25708
32972,38690,25644
32932,38692,25659
32930,38742,25685
32916,38767,25673
32937,38760,25655
32965,38740,25663
32960,38715,25620
32976,38677,25572
32997,38663,25636
32992,38643,25492
32948,38688,25392
32952,38719,25366
32964,38741,25415
32960,38759,25404
32964,38750,25389
32925,38732,25358
32901,38705,25293
32886,38685,25276
32860,38663,25246
32852,38663,25228
32864,38676,25231
32841,38692,25254
32824,38727,25301
32774,38744,25273
32762,38718,25089
32756,38727,25087
32752,38701,25124
32752,38663,25053
32840,38652,25185
32900,38661,24977
32893,38660,24954
32880,38681,24940
32949,38709,24908
32968,38712,24918
32968,38703,24954
32941,38692,24930
32896,38656,24916
32928,38652,24844
32924,38629,24944
32952,38615,24981
33012,38647,24837
33028,38647,24727
33056,38695,24700
33036,38705,24673
32984,38700,24657
32960,38684,24636
32956,38655,24666
32941,38636,24818
32928,38609,24729
32916,38607,24740
32916,38617,24633
32936,38637,24583
32932,38636,24600
32924,38675,24607
32940,38675,24605
32968,38647,24537
32982,38605,24545
33072,38612,24601
33100,38590,24628
33052,38586,24632
32996,38609,24655
32948,38626,24533
32949,38652,24613
32948,38656,24564
32928,38661,24503
32888,38639,24428
32904,38621,24481
32916,38591,24416
32953,38561,24423
32944,38561,24416
32952,38577,24439
32960,38606,24412
32920,38637,24448
32929,38644,24374
32916,38645,24350
32832,38631,24288
32828,38597,24292
32828,38581,24260
32836,38564,24165
32814,38556,24133
32816,38581,24116
32797,38596,24084
32808,38626,24079
32788,38639,24120
32788,38607,24055
32796,38599,24036
32752,38607,24048
32762,38581,24008
32812,38543,23994
32824,38540,23962
32808,38564,23942
32820,38589,24004
32782,38621,23909
32808,38629,24012
32849,38631,23943
32844,38621,23772
32820,38588,23789
32816,38569,23846
32820,38529,23781
32780,38511,23805
32761,38567,23836
32792,38585,23919
32784,38596,23676
32790,38636,23664
32752,38628,23672
32738,38596,23731
32680,38595,23724
32644,38560,23719
32632,38535,23696
32624,38535,23609
32594,38559,23640
32533,38566,23684
32541,38617,23621
32568,38629,23623
32596,38631,23621
32624,38607,23652
32640,38585,23663
32664,38557,23675
32620,38534,23780
32596,38525,23673
32606,38557,23552
32615,38580,23630
32632,38600,23713
32640,38613,23753
32636,38623,23722
32612,38604,23504
32552,38575,23548
32576,38543,23570
32532,38528,23524
32500,38527,23570
32436,38512,23576
32404,38579,23525
32420,38599,23530
32508,38615,23511
32540,38621,23517
32540,38583,23580
32544,38575,23660
32580,38556,23545
32592,38527,23416
32524,38532,23504
32493,38535,23512
32496,38556,23461
32528,38597,23458
32472,38607,23467
32448,38619,23468
32464,38574,23461
32424,38575,23509
32389,38546,23578
32388,38516,23575
32382,38511,23599
32364,38535,23613
32366,38551,23570
32380,38573,23543
32392,38599,23540
32413,38591,23591
32453,38585,23685
32492,38557,23629
32540,38533,23465
32596,38513,23476
32644,38503,23575
32644,38519,23555
32616,38543,23657
32632,38564,23724
32632,38559,23580
32596,38591,23522
32560,38572,23569
32576,38551,23632
32600,38503,23622
32589,38493,23812
32552,38501,23582
32540,38519,23591
32520,38535,23613
32536,38569,23711
32577,38588,23676
32628,38581,23796
32640,38564,23716
32612,38508,23661
32584,38527,23769
32636,38495,23735
32684,38476,23877
32660,38503,23705
32637,38527,23708
32669,38549,23745
32660,38568,23801
32688,38569,23816
32704,38557,23936
32756,38535,23882
32800,38511,23782
32824,38469,23829
32824,38473,23894
32813,38488,23870
32761,38515,23968
32750,38527,24054
32752,38556,23980
32736,38564,24006
32684,38529,24095
32644,38524,23959
32636,38497,23901
32656,38449,23912
32661,38469,23924
32640,38495,24010
32696,38519,23988
32761,38533,24071
32837,38545,24190
32836,38549,24106
32920,38535,23993
32968,38516,24081
32948,38493,24112
32912,38471,24063
32889,38457,24143
32884,38477,24269
32856,38501,24106
32836,38523,24061
32812,38557,24095
32756,38557,24157
32740,38533,24161
32788,38509,24133
32800,38471,24161
32824,38464,24193
32804,38462,24204
32792,38478,24171
32784,38503,24191
32768,38535,24289
32753,38556,24261
32720,38535,24311
32720,38535,24313
32716,38508,24114
32716,38461,24071
32716,38467,24125
32740,38463,24134
32832,38474,24152
32848,38496,24179
32796,38516,24153
32764,38535,24280
32764,38543,24301
32704,38535,24260
32708,38475,24173
32744,38479,24099
32817,38458,24071
32857,38453,24088
32836,38469,24143
32804,38493,24161
32800,38523,24164
32820,38535,24132
32780,38540,24183
32784,38533,24175
32824,38501,24069
32860,38477,24123
32908,38455,24108
32916,38464,24152
32904,38471,24148
32906,38485,24150
32896,38513,24131
32836,38535,24228
32788,38519,24263
32756,38535,24077
32780,38517,24067
32817,38477,24057
32836,38460,24060
32810,38455,24060
32800,38463,24119
32796,38499,24143
32752,38532,24110
32660,38549,24111
32618,38555,24159
32605,38533,24164
32632,38491,24174
32652,38487,24149
32685,38471,24144
32696,38467,24141
32756,38471,24147
32781,38501,24145
32809,38519,24143
32824,38531,24149
32812,38553,24145
32804,38532,24174
32820,38511,24173
32852,38476,24277
32896,38468,24339
32960,38455,24118
33052,38477,24203
33236,38513,24249
33464,38541,24296
33696,38543,24142
34042,38559,24188
34574,38543,24231
35216,38511,24213
35868,38490,24289
36444,38456,24372
36876,38463,24340
37172,38479,24184
37344,38513,24260
37372,38535,24233
37008,38561,24363
36040,38575,24429
34820,38572,24294
33684,38551,24226
32572,38524,24293
31624,38505,24329
30864,38503,24336
30217,38531,24348
29993,38527,24313
30144,38569,24420
30556,38589,24498
31076,38596,24284
31572,38529,24286
31920,38541,24383
32133,38535,24329
32284,38492,24490
32397,38494,24388
32436,38519,24380
32460,38535,24381
32468,38535,24444
32477,38599,24550
32521,38580,24370
32524,38581,24376
32516,38535,24401
32524,38535,24476
32572,38511,24439
32596,38504,24513
32560,38519,24519
32548,38542,24496
32536,38575,24519
32436,38609,24671
32428,38605,24553
32477,38580,24469
32524,38559,24495
32524,38551,24575
32488,38532,24573
32488,38516,24642
32572,38543,24724
32584,38548,24655
32572,38599,24548
32584,38623,24648
32601,38613,24662
32664,38612,24636
32704,38576,24623
32720,38528,24653
32692,38542,24790
32656,38547,24681
32640,38535,24702
32668,38582,24695
32676,38613,24868
32652,38639,24676
32620,38617,24750
32604,38627,24724
32540,38599,24813
32553,38580,24785
32600,38567,24701
32600,38558,24802
32670,38573,24769
32716,38573,24788
32736,38629,24798
32743,38663,24773
32788,38656,24797
32788,38649,24863
32792,38639,24952
32829,38599,24831
32805,38585,24753
32760,38589,24801
32772,38607,24844
32768,38639,24790
32776,38655,24932
32828,38655,24748
32897,38684,24839
32908,38671,24797
32936,38629,24892
32932,38636,24828
32936,38607,24737
32944,38617,24822
32980,38631,24772
32952,38645,24908
32917,38693,24749
32924,38701,24767
32960,38726,24751
32965,38708,24824
32992,38677,24802
33040,38637,24726
33064,38639,24740
33056,38639,24885
33122,38645,24772
33180,38700,24751
33248,38723,24737
33248,38721,24870
33232,38749,24716
33268,38736,24789
33257,38707,24812
33212,38700,24932
33288,38682,24748
33320,38677,24763
33344,38703,24796
33384,38725,24797
33388,38741,24839
33353,38775,24978
33364,38791,24765
33348,38775,24773
33340,38748,24831
33409,38732,24863
33468,38723,24812
33520,38695,24865
33544,38743,24907
33542,38772,24783
33564,38805,24871
33596,38827,24864
33557,38828,24855
33580,38821,24905
33544,38805,24973
33485,38778,24776
33448,38767,24866
33400,38772,24815
33408,38781,24960
33438,38805,24887
33432,38836,24770
33428,38873,24797
33424,38877,24826
33424,38871,24941
33392,38844,24717
33396,38827,24764
33460,38816,24750
33432,38804,24841
33388,38829,24703
33404,38862,24791
33340,38889,24765
33333,38914,24892
33280,38893,24711
33220,38909,24736
33172,38892,24713
33156,38868,24782
33132,38846,24737
33084,38852,24713
33076,38879,24725
33029,38892,24805
33000,38919,24664
32968,38965,24721
32960,38960,24807
32936,38947,24838
32972,38940,24708
33016,38919,24661
33049,38901,24745
33101,38903,24711
33132,38941,24773
33108,38948,24882
33116,38988,24780
33052,39015,24665
33012,39023,24663
32989,39015,24678
32960,38999,24734
32924,38964,24797
32912,38949,24663
32932,38951,24745
32916,38991,24810
32876,39004,24729
32852,39009,24733
32808,39079,24772
32728,39085,24717
32708,39067,24810
32732,39047,24783
32764,39038,24723
32832,39028,24761
32844,39021,24911
32901,39013,24690
32816,39076,24745
32840,39108,24918
32816,39137,24697
32752,39141,24796
32676,39130,24827
32660,39116,24817
32692,39057,24720
32720,39082,24805
32740,39077,24757
32760,39100,24927
32728,39125,24705
32780,39159,24757
32756,39195,24915
32720,39207,24791
32777,39188,24768
32768,39173,24805
32760,39148,24804
32749,39138,24856
32732,39149,24934
32693,39131,24721
32712,39205,24785
32736,39222,24823
32709,39254,24905
32704,39260,24933
32656,39256,24864
32624,39213,24705
32576,39231,24705
32600,39213,24734
32636,39209,24701
32660,39201,24708
32692,39271,24753
32652,39266,24738
32628,39322,24698
32612,39344,24780
32656,39336,24738
32646,39325,24857
32656,39303,24805
32688,39268,24697
32704,39287,24752
32708,39302,24764
32696,39333,24888
32685,39369,24759
32640,39399,24684
32645,39404,24737
32624,39401,24749
32616,39388,24799
32644,39361,24867
32696,39346,24677
32656,39344,24673
32608,39332,24730
32600,39412,24681
32592,39430,24801
32588,39461,24750
32588,39464,24655
32612,39464,24618
32640,39452,24609
32680,39431,24631
32676,39419,24651
32652,39391,24690
32613,39404,24688
32578,39460,24676
32540,39511,24668
32562,39549,24656
32592,39543,24692
32544,39540,24659
32528,39528,24693
32520,39503,24784
32556,39498,24709
32621,39487,24593
32640,39509,24622
32628,39533,24696
32632,39575,24682
32708,39592,24658
32724,39583,24744
32700,39615,24756
32672,39584,24583
32656,39578,24606
32630,39554,24692
32596,39559,24696
32588,39590,24638
32552,39597,24716
32542,39612,24827
32572,39685,24586
32564,39687,24588
32593,39684,24668
32614,39665,24698
32648,39653,24686
32645,39628,24705
32680,39628,24676
32704,39652,24676
32652,39680,24741
32600,39719,24826
32598,39727,24776
32526,39762,24676
32468,39753,24617
32472,39749,24612
32508,39713,24620
32464,39703,24625
32452,39709,24662
32488,39717,24729
32420,39759,24685
32432,39799,24688
32484,39825,24796
32476,39839,24849
32512,39828,24858
32568,39815,24774
32572,39798,24622
32569,39775,24659
32596,39788,24681
32560,39793,24685
32584,39833,24706
32676,39863,24689
32572,39880,24709
32572,39906,24740
32576,39904,24828
32544,39875,24602
32484,39868,24672
32448,39853,24647
32468,39858,24767
32420,39871,24673
32412,39904,24668
32461,39935,24693
32481,39940,24661
32545,39943,24679
32552,39940,24713
32556,39959,24802
32592,39935,24605
32608,39924,24581
32564,39932,24624
32572,39943,24674
32573,39943,24789
32549,40013,24543
32518,40044,24580
32512,40053,24637
32544,40047,24647
32578,40029,24604
32628,40011,24634
32640,39988,24609
32572,40010,24618
32560,40013,24644
32576,40044,24695
32620,40053,24511
32596,40111,24557
32589,40125,24620
32568,40117,24582
32613,40096,24748
32596,40068,24570
32572,40070,24538
32564,40071,24594
32548,40084,24582
32596,40117,24693
32652,40153,24713
32636,40189,24561
32628,40193,24489
32602,40191,24575
32580,40164,24544
32589,40135,24709
32629,40131,24615
32596,40125,24465
32652,40153,24566
32684,40180,24589
32652,40225,24659
32676,40244,24583
32688,40259,24473
32669,40253,24503
32640,40238,24522
32652,40215,24612
32669,40191,24419
32688,40195,24410
32632,40213,24481
32620,40244,24500
32613,40263,24445
32608,40325,24516
32633,40327,24583
32613,40325,24559
32622,40292,24615
32644,40269,24408
32672,40240,24357
32688,40261,24389
32688,40287,24439
32656,40313,24399
32668,40348,24455
32644,40380,24548
32644,40390,24293
32656,40380,24285
32736,40364,24381
32740,40324,24354
32736,40279,24324
32712,40324,24317
32672,40353,24325
32679,40377,24332
32704,40402,24309
32670,40439,24338
32632,40441,24355
32712,40439,24425
32712,40406,24164
32713,40405,24265
32676,40391,24231
32700,40388,24266
32656,40367,24389
32648,40441,24132
32652,40468,24180
32684,40496,24239
32732,40514,24231
32694,40495,24183
32704,40495,24263
32672,40455,24300
32677,40421,24063
32652,40451,24184
32700,40455,24125
32741,40487,24220
32749,40516,24142
32692,40559,24018
32716,40572,24103
32710,40565,24085
32680,40535,24180
32672,40476,24245
32636,40501,23973
32628,40505,24071
32608,40527,24060
32620,40559,24057
32633,40573,24023
32632,40609,24017
32640,40583,24069
32680,40609,23957
32637,40583,24006
32664,40561,23965
32676,40543,24028
32672,40551,24068
32708,40547,24022
32686,40593,23895
32698,40628,23948
32661,40631,24061
32664,40671,23815
32645,40655,23888
32644,40641,23898
32652,40622,23878
32628,40604,23932
32644,40559,23893
32608,40623,23826
32574,40635,23874
32584,40679,23997
32576,40664,23785
32564,40725,23773
32602,40706,23820
32620,40703,23933
32584,40652,23813
32616,40647,23762
32684,40640,23812
32744,40652,23954
32712,40654,23713
32716,40721,23855
32688,40748,23872
32704,40751,23719
32712,40735,23822
32736,40724,23806
32724,40701,23968
32716,40688,23743
32736,40678,23701
32720,40710,23781
32716,40732,23788
32717,40769,23818
32672,40788,23908
32628,40805,23764
32648,40757,23696
32660,40775,23829
32676,40745,23805
32680,40724,23908
32648,40735,23697
32628,40747,23812
32624,40777,23805
32656,40805,23784
32670,40830,23815
32748,40839,23812
32876,40815,23888
33020,40775,23952
33240,40796,23916
33460,40761,23716
33652,40769,23725
34032,40749,23780
34486,40802,23815
35092,40839,23860
35720,40865,23929
36245,40869,23860
36644,40856,23735
36972,40836,23875
37132,40829,23820
37012,40792,23993
36470,40812,23751
35457,40839,23876
34224,40861,23837
33125,40886,23988
32094,40923,23770
31332,40916,23863
30753,40913,23844
30208,40865,23916
30065,40879,24052
30292,40839,23844
30726,40831,23812
31224,40855,23881
31614,40838,23929
31860,40916,23991
32064,40935,23824
32224,40941,23961
32368,40944,24044
32456,40914,23972
32524,40889,23882
32524,40876,23925
32576,40863,23991
32584,40870,24104
32548,40893,24037
32477,40900,24043
32424,40967,23994
32460,40967,24120
32456,40961,24218
32454,40949,24143
32412,40919,24085
32420,40884,24182
32428,40887,24206
32465,40903,24356
32504,40937,24294
32560,40955,24200
32612,40980,24286
32612,40967,24292
32584,40983,24484
32616,40967,24250
32661,40924,24342
32669,40919,24386
32664,40909,24389
32678,40895,24468
32680,40953,24589
32639,40967,24377
32572,41009,24425
32544,41009,24528
32553,40991,24513
32577,40967,24540
32620,40947,24609
32660,40927,24701
32700,40933,24772
32720,40940,24712
32748,40960,24640
32712,40989,24565
32728,41028,24603
32672,41025,24673
32700,41014,24748
32736,40991,24737
32716,40967,24736
32676,40936,24791
32708,40935,24889
32728,40963,24815
32764,40964,24709
32748,41012,24834
32756,41032,24831
32780,41044,24998
32788,41005,24908
32768,41009,24836
32772,40987,24756
32744,40956,24893
32724,40959,24855
32748,40967,24881
32783,40989,25012
32808,41008,24761
32860,41008,24824
32868,41047,24872
32888,41042,24865
32885,40992,24945
32876,40983,24768
32876,40967,24850
32848,40967,24889
32884,40967,24865
32908,40967,25033
32926,41030,24777
32964,41052,24879
32988,41049,24919
32968,41044,24901
32988,41028,24891
33068,40997,24888
33132,40945,24946
33172,40967,25092
33228,40983,25075
33260,41014,24863
33288,41029,24991
33316,41057,24980
33332,41069,25049
33357,41052,25180
33376,41036,25163
33401,40997,24961
33396,40948,24984
33380,40980,25110
33385,40994,25128
33348,41017,25143
33368,41005,25252
33348,41063,25265
33309,41064,25095
33306,41061,25136
33332,41039,25238
33354,40967,25267
33392,40988,25247
33432,40987,25385
33472,40991,25445
33508,41012,25226
33472,41029,25221
33412,41077,25271
33388,41079,25348
33376,41057,25409
33390,41019,25290
33388,41014,25399
33383,40983,25416
33376,40967,25545
33384,40983,25605
33365,41015,25575
33360,41055,25462
33320,41072,25423
33273,41082,25524
33260,41060,25517
33244,41032,25607
33266,40984,25672
33248,40989,25553
33220,40997,25540
33217,41001,25552
33196,41025,25580
33156,41052,25707
33084,41069,25707
33072,41079,25813
33072,41050,25900
33070,41042,25912
33056,41020,25918
33100,40989,25769
33080,40967,25825
33084,40996,25893
33045,41015,26008
33060,41049,26127
33054,41065,25917
33044,41085,25940
33016,41063,26020
33032,41047,26052
33056,41007,26125
33017,40993,26167
32988,40997,26220
32954,40996,26143
32944,40980,26225
32908,41055,26305
32884,41069,26298
32864,41063,26437
32832,41060,26441
32860,41042,26328
32916,40991,26375
32928,40983,26468
32928,40967,26537
32936,40995,26532
32940,41000,26565
32962,41031,26668
32996,41057,26783
32968,41031,26727
32960,41061,26630
32976,41029,26740
32988,41009,26745
32940,40981,26906
32864,40977,26810
32844,40983,26852
32828,41015,26890
32848,40997,27076
32868,41018,27055
32864,41068,27044
32869,41053,27028
32912,41021,26988
32924,40996,27099
32949,40967,27093
32916,40967,27288
32889,40977,27101
32876,40997,27173
32893,41031,27249
32852,41055,27248
32816,41048,27281
32836,41025,27328
32864,41016,27468
32869,40992,27377
32853,40960,27444
32852,40966,27441
32849,40967,27513
32852,40984,27508
32888,41016,27615
32864,41047,27749
32824,41036,27580
32804,41028,27653
32824,41021,27699
32900,40989,27826
32916,40955,27817
32948,40916,27813
32966,40967,27878
32916,40985,27898
32924,41013,28015
32888,41023,28106
32860,41045,27975
32864,41028,28102
32836,40998,28120
32828,40967,28148
32805,40918,28354
32788,40943,28248
32804,40943,28295
32820,40967,28407
32797,41007,28517
32780,41020,28581
32790,40989,28462
32828,41025,28519
32828,40996,28604
32848,40963,28683
32824,40932,28821
32768,40933,28777
32772,40919,28761
32748,40980,28812
32720,40997,28903
32716,41029,28980
32736,41031,29001
32728,41005,29148
32734,40978,29223
32700,40959,29287
32684,40932,29334
32676,40922,29293
32687,40933,29372
32684,40959,29365
32668,40945,29420
32672,41018,29498
32672,41017,29560
32664,41015,29618
32660,40983,29677
32698,40948,29768
32732,40924,29825
32756,40914,29868
32736,40909,29940
32676,40953,30060
32620,40991,30159
32592,41012,30176
32549,41005,30244
32559,40967,30215
32612,40967,30308
32644,40933,30386
32648,40918,30425
32680,40904,30509
32673,40904,30545
32666,40950,30629
32660,40967,30781
32608,40967,30789
32604,41000,30802
32552,40988,30888
32540,40961,30972
32536,40937,31015
32500,40877,31087
32497,40900,31196
32564,40908,31292
32544,40935,31343
32540,40939,31381
32544,40991,31384
32560,41000,31452
32580,40976,31550
32573,40955,31585
32597,40935,31710
32572,40892,31778
32572,40901,31804
32556,40909,31837
32516,40931,31917
32500,40950,31980
32504,40961,32062
32568,40988,32139
32548,40965,32148
32532,40953,32223
32534,40923,32294
32544,40903,32349
32540,40887,32420
32528,40909,32506
32516,40883,32546
32512,40951,32613
32500,40967,32684
32516,40979,32760
32532,40951,32846
32560,40947,32900
32581,40918,32967
32588,40892,33044
32616,40880,33127
32596,40889,33196
32592,40916,33271
32544,40944,33356
32536,40964,33439
32480,40963,33510
32428,40924,33580
32428,40908,33655
32448,40921,33727
32460,40884,33812
32492,40873,33896
32549,40847,33988
32572,40913,34065
32500,40930,34142
32520,40961,34214
32508,40964,34297
32500,40961,34372
32520,40925,34425
32556,40902,34498
32544,40839,34564
32548,40870,34694
32540,40884,34766
32516,40898,34849
32552,40903,34885
32552,40967,34956
32548,40967,35045
32608,40943,35145
32637,40928,35237
32633,40878,35303
32544,40878,35385
32528,40877,35468
32532,40869,35516
32525,40903,35559
32557,40933,35652
32576,40955,35728
32616,40954,35837
32644,40951,35908
32728,40916,35975
32760,40860,36053
32772,40870,36132
32772,40860,36193
32753,40876,36252
32709,40896,36311
32666,40920,36353
32609,40951,36388
32644,40957,36476
32615,40936,36589
32600,40914,36650
32648,40886,36741
32712,40859,36788
32776,40853,36874
32824,40839,36936
32832,40895,36944
32796,40925,37023
32796,40948,37063
32800,40961,37140
32788,40933,37300
32804,40905,37348
32836,40876,37444
32840,40859,37447
32856,40807,37511
32864,40857,37650
32868,40877,37708
32784,40912,37780
32728,40928,37863
32672,40935,37951
32648,40924,38060
32644,40903,38101
32704,40871,38164
32756,40838,38237
32780,40839,38309
32872,40830,38364
32896,40877,38437
32961,40900,38548
32932,40913,38695
32904,40903,38744
32920,40912,38823
32896,40885,38933
32940,40855,39008
32960,40825,39021
32916,40831,39047
32876,40839,39132
32856,40852,39229
32820,40868,39289
32832,40896,39388
32817,40902,39460
32840,40892,39541
32864,40829,39724
32889,40814,39662
32908,40815,39879
32902,40798,39911
32876,40814,39980
32845,40853,40076
32804,40847,40020
32764,40857,40105
32724,40861,40172
32697,40876,40357
32724,40863,40397
32732,40825,40445
32712,40799,40556
32688,40791,40640
32732,40793,40658
32805,40793,40735
32865,40839,40725
32910,40872,40720
32932,40839,40927
32924,40855,40958
32921,40839,41007
32904,40815,41058
32881,40781,41170
32832,40773,41161
32788,40765,41111
32740,40804,41188
32729,40833,41364
32680,40846,41410
32708,40861,41468
32761,40844,41540
32748,40829,41476
32760,40788,41526
32768,40756,41540
32764,40759,41606
32780,40772,41807
32780,40797,41833
32776,40812,41951
32744,40839,41967
32716,40851,41856
32684,40830,42092
32684,40805,42100
32672,40775,42202
32656,40756,42074
32660,40743,42276
32672,40757,42304
32700,40740,42281
32684,40796,42458
32680,40827,42453
32709,40826,42580
32716,40775,42540
32704,40798,42460
32748,40772,42503
32776,40737,42588
32762,40716,42806
32728,40740,42806
32724,40727,42880
32716,40791,42957
32720,40813,43014
32704,40814,43045
32696,40800,42990
32740,40777,42949
32744,40747,43004
32728,40697,43236
32712,40669,43285
32708,40726,43270
32664,40748,43369
32669,40765,43449
32684,40791,43427
32745,40797,43344
32748,40772,43364
32780,40753,43442
32774,40743,43647
32777,40701,43648
32812,40687,43695
32912,40668,43797
33064,40719,43823
33232,40759,43822
33420,40773,43800
33680,40777,43770
33984,40756,43971
34436,40748,43964
34940,40711,43996
35580,40673,44069
36260,40676,44060
36716,40685,44132
37065,40705,43993
37368,40727,44213
37472,40756,44242
37212,40759,44245
36476,40748,44295
35344,40725,44284
34252,40703,44311
33212,40679,44407
32252,40672,44415
31479,40684,44364
30736,40708,44381
30297,40717,44488
30288,40733,44513
30588,40756,44548
31005,40693,44543
31460,40706,44551
31784,40679,44455
31988,40640,44679
32140,40628,44655
32240,40655,44741
32312,40662,44789
32358,40686,44741
32408,40711,44804
32409,40716,44827
32408,40695,44748
32404,40669,44844
32444,40644,44957
32400,40621,44991
32424,40613,45037
32405,40583,44985
32398,40636,44948
32420,40668,44989
32396,40687,45191
32428,40688,45212
32444,40676,45255
32476,40654,45283
32481,40628,45292
32484,40596,45359
32480,40583,45246
32500,40611,45425
32500,40613,45396
32552,40639,45443
32562,40645,45382
32564,40676,45520
32544,40661,45512
32576,40636,45513
32641,40604,45584
32640,40583,45598
32602,40566,45507
32596,40578,45661
32556,40592,45647
32608,40615,45660
32609,40645,45737
32584,40649,45694
32584,40631,45652
32573,40615,45604
32596,40588,45800
32638,40556,45799
32684,40537,45776
32728,40553,45861
32740,40571,45755
32760,40599,45703
32756,40597,45839
32748,40631,45885
32756,40615,45783
32744,40591,45713
32732,40540,45743
32748,40541,45924
32744,40526,45929
32716,40521,45879
32657,40554,45880
32644,40575,45893
32656,40561,45957
32732,40604,45863
32789,40584,45767
32852,40553,45935
32844,40542,45917
32872,40504,45972
32904,40503,45930
32912,40482,45846
32908,40533,45783
32848,40555,45968
32868,40576,45912
32876,40583,45981
32900,40575,45948
33001,40541,45857
33064,40532,45806
33108,40495,46016
33196,40493,45962
33220,40495,46031
33236,40519,45929
33272,40535,45871
33289,40548,46061
33284,40574,46064
33284,40556,46049
33288,40524,46039
33308,40493,46116
33308,40473,46080
33364,40453,45972
33348,40473,46137
33380,40485,46139
33388,40511,46127
33374,40500,46119
33360,40540,46172
33396,40527,46197
33429,40496,46087
33445,40479,46015
33436,40439,46223
33464,40444,46212
33452,40450,46213
33448,40455,46189
33484,40501,46204
33520,40501,46241
33565,40519,46109
33601,40509,46052
33620,40484,46244
33646,40455,46188
33636,40424,46247
33592,40415,46269
33552,40429,46220
33536,40441,46113
33428,40455,46064
33340,40493,46269
33328,40502,46223
33376,40487,46196
33344,40455,46284
33297,40438,46129
33349,40412,46260
33344,40399,46215
33332,40398,46279
33332,40423,46081
33313,40436,46249
33232,40473,46239
33168,40485,46135
33121,40455,46272
33097,40437,46226
33056,40400,46311
33084,40381,46148
33145,40367,46311
33136,40377,46315
33192,40400,46279
33212,40383,46332
33198,40450,46201
33184,40446,46343
33196,40442,46287
33228,40413,46377
33204,40384,46364
33192,40319,46183
33167,40343,46381
33118,40351,46328
33084,40359,46404
33036,40392,46318
32996,40420,46236
32976,40415,46422
33004,40383,46439
32956,40392,46417
32953,40367,46399
32876,40327,46399
32798,40281,46468
32818,40327,46464
32820,40355,46435
32920,40357,46292
32984,40402,46493
33048,40410,46455
33040,40391,46488
33064,40365,46413
33049,40295,46327
33029,40307,46532
33004,40290,46519
32952,40300,46538
32964,40327,46516
32948,40327,46533
32938,40364,46548
32936,40366,46479
32924,40367,46372
32884,40301,46565
32880,40315,46556
32888,40288,46511
32846,40276,46485
32864,40278,46550
32896,40292,46463
32868,40324,46388
32904,40345,46352
32884,40343,46361
32852,40349,46343
32840,40309,46276
32844,40255,46460
32848,40263,46453
32869,40244,46426
32869,40252,46420
32848,40270,46348
32824,40303,46329
32801,40327,46343
32822,40320,46222
32796,40276,46319
32784,40295,46260
32816,40263,46249
32800,40232,46236
32773,40231,46225
32784,40229,46204
32776,40244,46180
32780,40272,46127
32780,40292,46183
32738,40304,46137
32714,40294,46036
32728,40268,45895
32756,40249,46060
32800,40212,46025
32808,40207,45966
32790,40213,45935
32762,40239,45892
32764,40253,45871
32740,40276,45860
32696,40293,45868
32644,40270,45703
32640,40255,45791
32652,40228,45769
32644,40187,45703
32656,40175,45724
32621,40149,45656
32645,40215,45597
32668,40229,45479
32760,40245,45588
32788,40261,45537
32820,40212,45485
32752,40236,45500
32700,40221,45396
32637,40173,45263
32612,40162,45414
32616,40175,45396
32600,40199,45343
32636,40176,45285
32653,40244,45289
32616,40263,45205
32596,40239,45142
32624,40188,45220
32636,40199,45145
32639,40167,45109
32652,40157,45159
32612,40148,45119
32592,40148,44981
32629,40197,45063
32625,40228,44985
32588,40221,44975
32556,40221,44984
32548,40199,44933
32516,40173,44935
32492,40141,44793
32436,40137,44868
32418,40140,44818
32428,40144,44836
32460,40180,44645
32504,40204,44753
32552,40215,44711
32600,40209,44524
32584,40187,44668
32560,40156,44572
32465,40132,44600
32409,40113,44508
32393,40121,44329
32380,40151,44484
32348,40143,44439
32356,40199,44344
32374,40197,44345
32416,40173,44335
32384,40149,44132
32388,40132,44197
32368,40101,44189
32340,40097,43969
32336,40108,44125
32322,40112,44028
32284,40153,44028
32268,40172,43836
32317,40182,43773
32286,40175,43892
32288,40143,43796
32336,40116,43805
32360,40092,43654
32388,40085,43520
32365,40085,43676
32360,40110,43556
32358,40135,43575
32340,40154,43391
32360,40156,43271
32321,40151,43268
32252,40129,43329
32236,40098,43334
32224,40069,43101
32228,40038,43239
32246,40068,43161
32311,40103,43132
32340,40111,42913
32328,40108,43054
32312,40149,42969
32264,40127,42988
32268,40103,42852
32284,40077,42692
32313,40055,42758
32320,40047,42788
32308,40047,42525
32276,40068,42671
32312,40079,42576
32348,40123,42592
32404,40131,42338
32408,40117,42473
32408,40087,42407
32392,40047,42308
32404,40029,42304
32404,40020,42276
32348,40031,42036
32300,40045,41991
32280,40065,42077
32268,40095,42084
32212,40109,41863
32244,40084,41781
32308,40063,41881
32328,40007,41780
32420,40008,41797
32436,39995,41529
32480,40015,41583
32444,40022,41603
32420,40041,41337
32480,40055,41266
32452,40085,41319
32440,40063,41311
32388,40003,41060
32395,40012,41141
32345,39973,41026
32342,39968,41012
32357,39967,40855
32384,40001,40693
32356,40020,40612
32352,40048,40658
32361,40050,40559
32357,40050,40348
32324,40016,40405
32356,39999,40280
32332,39934,40257
32352,39958,40063
32412,39967,40053
32420,39972,39908
32376,40002,39796
32356,40033,39773
32340,40044,39633
32304,40000,39569
32294,40005,39484
32336,39981,39274
32316,39943,39297
32309,39895,39167
32288,39943,39049
32276,39965,38884
32276,39994,38864
32272,39981,38785
32264,40020,38654
32216,40015,38484
32244,39980,38481
32260,39919,38348
32228,39937,38248
32220,39917,38060
32248,39909,37937
32269,39943,37959
32236,39964,37827
32296,39988,37757
32324,40005,37525
32316,39991,37513
32340,39964,37383
32324,39927,37296
32249,39910,37124
32228,39893,37005
32276,39911,36949
32296,39919,36863
32260,39943,36637
32212,39943,36626
32200,39992,36524
32205,39967,36322
32224,39941,36300
32281,39921,36158
32264,39905,36063
32193,39860,35925
32152,39893,35788
32108,39905,35727
32072,39925,35606
32036,39921,35513
32080,39973,35345
32128,39943,35297
32096,39911,35176
32128,39908,35066
32140,39864,34949
32165,39871,34877
32174,39877,34783
32161,39884,34695
32160,39908,34535
32164,39943,34440
32152,39937,34386
32160,39935,34287
32176,39895,34183
32184,39885,34104
32176,39855,33973
32156,39844,33877
32136,39845,33821
32160,39831,33739
32165,39890,33613
32174,39915,33526
32194,39916,33436
32164,39911,33366
32140,39895,33266
32144,39860,33151
32164,39833,33096
32176,39793,33007
32188,39833,32927
32178,39849,32829
32216,39868,32741
32208,39900,32663
32166,39879,32584
32132,39901,32495
32128,39878,32409
32148,39850,32340
32156,39815,32225
32192,39811,32159
32257,39815,32084
32304,39828,31996
32284,39855,31928
32252,39887,31810
32248,39884,31751
32232,39879,31677
32268,39861,31599
32264,39839,31549
32256,39808,31471
32204,39783,31367
32168,39791,31316
32160,39781,31239
32188,39844,31156
32196,39879,31078
32188,39876,31045
32184,39864,30991
32112,39844,30868
32156,39807,30822
32156,39760,30745
32186,39789,30725
32281,39783,30594
32388,39803,30556
32596,39807,30513
32860,39863,30480
33172,39871,30352
33513,39852,30294
33964,39824,30233
34512,39807,30173
35212,39773,30160
35896,39746,30109
36368,39764,29973
36756,39798,29957
37004,39807,29871
37084,39851,29855
36824,39849,29851
36025,39846,29740
34842,39827,29637
33664,39807,29612
32520,39783,29525
31456,39775,29548
30704,39781,29439
30032,39814,29380
29648,39837,29293
29696,39860,29352
30060,39853,29246
30552,39844,29108
31076,39781,29089
31425,39796,29002
31716,39758,29036
31853,39748,28935
31912,39759,28831
31932,39769,28819
31980,39785,28751
32045,39829,28713
32095,39815,28756
32092,39813,28679
32096,39806,28582
32105,39783,28567
32144,39744,28516
32164,39738,28591
32188,39712,28457
32168,39767,28417
32237,39791,28373
32228,39815,28490
32228,39837,28373
32216,39813,28445
32208,39791,28341
32184,39749,28324
32164,39746,28381
32140,39721,28234
32192,39730,28248
32257,39751,28252
32294,39751,28230
32292,39815,28284
32288,39808,28148
32308,39791,28148
32288,39773,28158
32332,39756,28128
32352,39716,28093
32376,39702,28045
32372,39721,28096
32356,39749,28149
32308,39765,28114
32253,39791,28013
32300,39796,27970
32332,39791,28068
32288,39765,28049
32364,39743,27984
32392,39697,28000
32440,39705,27945
32460,39697,27809
32430,39729,27790
32368,39749,27788
32416,39781,27748
32369,39784,27802
32365,39777,27800
32390,39753,27641
32445,39709,27664
32404,39698,27623
32384,39687,27572
32473,39687,27697
32496,39711,27655
32576,39735,27468
32644,39748,27505
32645,39773,27433
32706,39756,27438
32752,39735,27495
32784,39719,27499
32768,39681,27447
32732,39671,27251
32704,39644,27225
32684,39702,27234
32704,39729,27198
32697,39758,27181
32677,39770,27143
32680,39748,27125
32742,39721,27221
32780,39700,27009
32872,39636,27015
32928,39671,27004
32916,39677,26953
32988,39695,26975
32974,39716,26981
33004,39751,26837
33009,39748,26813
32982,39750,26853
33012,39700,26821
33062,39705,26763
33056,39679,26745
33042,39660,26752
33060,39671,26809
33104,39687,26756
33172,39719,26644
33256,39751,26695
33358,39756,26668
33360,39745,26759
33334,39716,26580
33300,39700,26583
33344,39676,26694
33300,39669,26684
33332,39637,26502
33349,39692,26548
33277,39717,26543
33314,39750,26487
33352,39757,26496
33384,39756,26600
33376,39725,26448
33424,39717,26366
33424,39684,26359
33433,39673,26388
33444,39678,26332
33460,39711,26313
33417,39725,26461
33380,39761,26232
33388,39769,26292
33377,39768,26274
33408,39740,26232
33449,39717,26223
33352,39687,26181
33344,39678,26167
33301,39687,26272
33292,39720,26225
33272,39737,26028
33276,39783,26077
33232,39788,26013
33208,39750,26006
33196,39765,26143
33168,39743,25959
33124,39685,25898
33136,39701,25942
33127,39702,25924
33121,39736,25868
33088,39761,25898
33047,39796,25991
33072,39798,25965
33068,39796,25819
33044,39759,25749
33036,39765,25785
33054,39737,25772
32997,39735,25727
32988,39733,25717
32964,39757,25717
32948,39784,25711
32994,39813,25792
33052,39821,25743
33064,39829,25602
33081,39808,25642
33088,39791,25669
33000,39766,25607
33032,39751,25597
33052,39753,25583
33032,39777,25588
32988,39812,25728
32936,39814,25497
32908,39859,25529
32886,39851,25519
32872,39837,25503
32844,39812,25607
32865,39789,25598
32928,39780,25659
32933,39749,25470
32896,39815,25415
32880,39836,25405
32900,39878,25393
32897,39884,25396
32892,39878,25452
32880,39861,25456
32868,39841,25419
32856,39812,25574
32796,39788,25348
32800,39820,25369
32790,39845,25425
32788,39855,25374
32760,39906,25396
32732,39900,25481
32672,39911,25512
32688,39901,25278
32716,39876,25348
32737,39847,25353
32788,39831,25333
32820,39849,25286
32804,39858,25305
32780,39906,25410
32804,39940,25371
32781,39943,25254
32781,39943,25215
32764,39927,25161
32820,39909,25212
32772,39876,25184
32696,39862,25236
32716,39889,25172
32768,39919,25103
32736,39943,25177
32745,39983,25119
32696,39972,25128
32716,39957,25159
32720,39965,25179
32704,39943,25216
32712,39925,25039
32704,39924,25015
32688,39941,25022
32704,39965,25038
32688,39999,25159
32680,40035,24909
32708,40036,24932
32704,40023,24932
32697,40023,24996
32676,40012,25025
32628,39983,24785
32596,39970,24812
32652,39991,24837
32665,39993,24820
32764,40041,24775
32766,40070,24661
32788,40095,24704
32776,40058,24672
32708,40082,24700
32696,40061,24790
32684,40037,24780
32637,40022,24596
32656,40045,24488
32732,40056,24517
32692,40071,24509
32661,40137,24464
32664,40159,24447
32631,40164,24583
32680,40140,24494
32648,40126,24389
32628,40103,24258
32648,40061,24237
32672,40111,24306
32648,40145,24265
32620,40175,24260
32612,40206,24223
32568,40225,24215
32569,40219,24174
32528,40213,24162
32576,40199,24093
32696,40169,24065
32640,40163,24071
32632,40188,24165
32592,40223,24176
32533,40244,23990
32468,40269,23879
32472,40303,23857
32452,40303,23846
32468,40273,23892
32476,40281,23902
32492,40248,23908
32512,40241,23852
32524,40262,23819
32652,40290,23896
32687,40319,23968
32688,40359,23742
32700,40383,23710
32664,40343,23785
32608,40375,23746
32538,40356,23744
32572,40326,23804
32532,40324,23765
32480,40346,23572
32516,40375,23636
32472,40404,23620
32436,40443,23608
32468,40455,23598
32512,40485,23604
32520,40452,23617
32596,40433,23669
32564,40420,23663
32518,40409,23681
32468,40434,23666
32470,40455,23653
32480,40495,23399
32495,40528,23470
32525,40556,23470
32496,40557,23549
32520,40559,23372
32520,40535,23434
32532,40516,23428
32480,40508,23503
32444,40521,23460
32441,40557,23306
32436,40551,23396
32416,40631,23376
32428,40647,23444
32484,40664,23437
32440,40636,23446
32465,40628,23507
32552,40615,23318
32575,40599,23269
32576,40622,23213
32600,40663,23256
32584,40688,23300
32572,40725,23304
32644,40740,23279
32600,40749,23254
32612,40743,23241
32602,40732,23232
32648,40711,23263
32684,40688,23222
32636,40725,23176
32632,40748,23168
32652,40791,23172
32668,40829,23265
32672,40828,23240
32681,40848,23075
32652,40839,23010
32630,40831,22997
32600,40809,23007
32628,40815,23085
32656,40835,23069
32660,40868,23057
32704,40900,23041
32740,40932,23015
32724,40961,23072
32700,40967,23098
32732,40951,23013
32752,40950,22880
32804,40921,22873
32820,40937,22848
32796,40935,22873
32792,40967,22964
32728,40988,22940
32714,41015,22905
32740,41040,22944
32736,41082,22908
32756,41071,22890
32737,41063,22872
32748,41047,22873
32741,41044,22912
32728,41061,22905
32748,41095,22844
32752,41124,22909
32784,41159,22970
32828,41187,22964
32876,41181,22993
32858,41177,23012
32908,41167,22994
32840,41159,22935
32768,41159,22727
32805,41177,22719
32833,41207,22746
32789,41245,22735
32769,41292,22732
32780,41311,22789
32756,41319,22774
32728,41319,22739
32676,41301,22802
32668,41277,22847
32676,41279,22865
32700,41303,22927
32720,41333,22990
32772,41373,22743
32738,41415,22842
32762,41431,22866
32740,41431,22854
32852,41413,22863
32832,41420,22869
32792,41391,22980
32756,41398,22981
32748,41409,22842
32760,41444,22785
32756,41479,22864
32740,41536,22917
32753,41551,22911
32800,41556,23063
32756,41551,22876
32660,41540,22851
32664,41511,22936
32684,41523,22910
32712,41540,22948
32704,41581,23002
32780,41607,23104
32784,41655,22947
32816,41670,22890
32820,41669,22909
32816,41674,22985
32868,41657,22973
32880,41641,22965
32882,41631,23006
32888,41668,23120
32932,41701,22878
32964,41727,22885
32964,41774,22894
32972,41766,22903
32972,41773,22906
32960,41782,22935
32948,41756,23036
32940,41731,23071
32972,41777,23073
32880,41793,23216
32901,41823,23228
32853,41863,23183
32804,41900,23241
32752,41933,23078
32776,41927,22989
32752,41927,22986
32752,41919,23047
32756,41885,23084
32760,41894,23020
32808,41919,23100
32773,41948,23128
32788,41981,23191
32798,41991,23309
32768,42063,23033
32720,42060,23167
32680,42055,23165
32752,42036,23295
32824,42031,23086
32840,42026,23082
32852,42039,23082
32840,42071,23175
32864,42111,23225
32832,42143,23246
32836,42177,23229
32816,42189,23241
32792,42173,23265
32804,42153,23295
32776,42151,23407
32800,42145,23128
32812,42164,23188
32796,42184,23277
32796,42234,23258
32804,42263,23321
32860,42284,23390
32908,42294,23434
32892,42302,23181
32921,42276,23215
32936,42268,23300
32953,42263,23353
32921,42279,23204
32900,42312,23231
32870,42358,23358
32868,42395,23336
32872,42397,23470
32848,42431,23245
32821,42421,23255
32836,42406,23399
32837,42389,23389
32824,42398,23382
32788,42415,23460
32824,42447,23359
32816,42476,23384
32764,42519,23415
32756,42541,23465
32757,42557,23465
32780,42548,23337
32808,42534,23350
32812,42503,23365
32768,42503,23507
32736,42533,23502
32788,42556,23527
32856,42596,23524
32967,42629,23519
33080,42660,23580
33220,42623,23637
33452,42660,23441
33658,42644,23436
33937,42620,23466
34380,42628,23556
34844,42647,23607
35392,42671,23588
36004,42692,23606
36500,42743,23775
36868,42752,23588
37076,42768,23753
37160,42759,23784
36973,42751,23764
36304,42740,23725
35188,42753,23696
34065,42759,23747
33026,42797,23732
32020,42828,23526
31248,42863,23524
30596,42901,23595
30136,42908,23665
30160,42885,23644
30484,42874,23734
30928,42852,23545
31422,42823,23540
31828,42823,23557
32088,42866,23546
32236,42908,23612
32328,42958,23616
32412,42985,23646
32432,42981,23725
32408,42980,23709
32440,42965,23716
32465,42946,23752
32492,42940,23905
32476,42965,23904
32464,42986,23680
32453,43015,23690
32466,43049,23722
32448,43078,23768
32452,43078,23767
32460,43072,23773
32429,43055,23780
32476,43047,23788
32521,43037,23871
32520,43044,23892
32498,43083,23863
32520,43066,23893
32528,43143,23951
32536,43172,23969
32560,43181,24060
32608,43159,24032
32648,43143,24021
32668,43138,24052
32672,43113,24137
32633,43143,24122
32620,43164,24205
32608,43195,24201
32598,43244,24212
32592,43255,24199
32632,43260,24236
32672,43243,24246
32760,43231,24262
32748,43215,24297
32696,43216,24401
32700,43219,24445
32724,43245,24516
32732,43276,24535
32716,43305,24543
32726,43338,24541
32708,43339,24616
32708,43333,24678
32688,43316,24735
32688,43292,24749
32697,43276,24737
32692,43300,24676
32684,43319,24580
32700,43358,24620
32738,43369,24756
32736,43387,24731
32724,43415,24761
32768,43399,24858
32792,43375,24948
32812,43358,24725
32856,43351,24696
32860,43366,24845
32864,43396,24900
32828,43420,24773
32832,43448,24747
32800,43477,24807
32793,43479,24921
32828,43456,24897
32866,43446,24910
32860,43429,24935
32862,43421,24943
32900,43431,25057
32989,43447,25140
33056,43479,25143
33072,43516,24975
33096,43502,24920
33124,43527,24997
33160,43517,25028
33206,43511,25093
33212,43477,25158
33210,43462,25152
33264,43472,25241
33296,43471,25316
33306,43527,25389
33288,43565,25196
33288,43589,25212
33302,43575,25223
33304,43569,25351
33316,43559,25385
33344,43487,25445
33356,43519,25469
33380,43527,25533
33408,43557,25576
33424,43575,25655
33444,43605,25784
33464,43628,25787
33448,43629,25580
33469,43615,25742
33512,43595,25767
33496,43572,25890
33476,43550,25997
33424,43565,25880
33344,43584,25811
33285,43623,25957
33272,43645,25994
33294,43668,26015
33376,43668,26089
33444,43648,26108
33437,43639,26128
33456,43610,26220
33485,43543,26273
33460,43601,26364
33464,43636,26392
33436,43652,26448
33376,43687,26468
33336,43705,26493
33320,43695,26533
33284,43672,26606
33272,43655,26614
33244,43639,26732
33244,43623,26662
33218,43625,26606
33216,43612,26718
33220,43687,26820
33212,43715,26956
33216,43727,26759
33176,43735,26905
33137,43701,26981
33140,43692,27047
33152,43655,27191
33136,43637,27250
33076,43647,27108
33069,43672,27269
33076,43655,27365
33070,43727,27519
33084,43745,27396
33112,43743,27388
33152,43721,27485
33192,43700,27628
33196,43681,27674
33196,43655,27892
33189,43671,27809
33183,43684,27807
33200,43717,27976
33216,43746,28028
33172,43772,28263
33151,43753,28109
33124,43743,28288
33129,43719,28327
33093,43681,28434
33096,43639,28598
33112,43661,28490
33080,43697,28661
33024,43731,28711
32992,43744,28958
32992,43775,28897
32976,43756,28935
33000,43711,29028
33008,43725,29173
33028,43693,29327
33060,43679,29224
33032,43685,29383
33028,43707,29461
32996,43740,29511
32988,43760,29598
32964,43772,29788
32940,43769,29890
32916,43748,29916
32936,43735,29863
32988,43696,29980
32964,43687,30078
32964,43700,30184
32992,43673,30230
33000,43719,30305
33000,43765,30412
33016,43779,30525
33016,43775,30657
33008,43764,30689
33024,43693,30740
33046,43709,30805
33014,43687,30924
33034,43695,30976
32992,43724,31046
32948,43733,31132
32924,43762,31207
32894,43783,31298
32868,43783,31374
32868,43767,31461
32849,43743,31544
32836,43709,31620
32813,43685,31740
32804,43701,31795
32800,43725,31876
32788,43748,31943
32800,43776,32007
32833,43783,32128
32864,43780,32274
32900,43767,32345
32896,43711,32388
32900,43671,32427
32900,43671,32448
32896,43701,32590
32896,43727,32678
32892,43745,32692
32884,43776,32763
32876,43797,32838
32868,43783,32949
32908,43765,33022
32908,43753,33089
32916,43693,33144
32910,43653,33253
32900,43702,33369
32864,43732,33424
32884,43751,33479
32860,43783,33553
32812,43805,33616
32784,43798,33727
32740,43778,33815
32783,43744,33863
32805,43719,33924
32820,43708,33949
32837,43701,34028
32844,43741,34127
32840,43733,34184
32856,43741,34254
32864,43767,34332
32864,43783,34404
32856,43735,34471
32844,43753,34564
32836,43724,34655
32800,43708,34745
32748,43720,34804
32716,43743,34873
32676,43757,34948
32650,43781,35004
32648,43797,35063
32636,43805,35143
32694,43775,35218
32780,43756,35302
32856,43726,35396
32889,43716,35469
32884,43731,35520
32900,43733,35591
32897,43749,35676
32853,43777,35759
32834,43804,35844
32788,43797,35916
32720,43745,35997
32712,43713,36069
32644,43740,36132
32584,43720,36212
32556,43727,36287
32576,43744,36359
32636,43767,36444
32664,43791,36516
32673,43807,36564
32708,43804,36642
32756,43783,36704
32748,43759,36781
32728,43733,36841
32720,43719,36908
32692,43713,37008
32665,43748,37077
32668,43759,37136
32696,43799,37208
32625,43769,37280
32608,43813,37321
32636,43777,37396
32621,43764,37441
32588,43735,37487
32556,43711,37605
32492,43708,37671
32464,43716,37749
32492,43767,37753
32516,43799,37806
32517,43815,37872
32580,43809,37990
32672,43797,38049
32800,43759,38111
32857,43732,38175
32884,43712,38236
32877,43716,38319
32876,43740,38372
32896,43761,38437
32880,43781,38505
32844,43783,38561
32814,43813,38645
32808,43783,38668
32792,43759,38740
32775,43737,38844
32736,43719,38898
32724,43731,38972
32740,43743,39056
32740,43764,39123
32728,43760,39111
32756,43805,39175
32780,43809,39300
32793,43783,39357
32776,43764,39420
32790,43728,39496
32738,43708,39569
32740,43714,39620
32764,43735,39717
32797,43752,39784
32772,43783,39814
32796,43805,39868
32806,43800,39937
32832,43783,40015
32868,43761,40087
32912,43725,40085
32944,43716,40100
32938,43669,40213
32925,43726,40238
32880,43758,40293
32842,43783,40420
32868,43757,40477
32900,43812,40508
32884,43725,40591
32896,43708,40630
32884,43684,40700
32897,43664,40759
32900,43655,40821
32895,43684,40936
32860,43740,40928
32832,43783,40967
32836,43801,41045
32893,43783,41103
32924,43743,41150
32928,43709,41208
32919,43729,41321
32898,43712,41470
32892,43704,41527
32884,43716,41564
32858,43737,41620
32836,43772,41675
32788,43791,41735
32784,43792,41816
32780,43777,41728
32788,43751,41810
32804,43673,41988
32824,43655,42024
32820,43703,42061
32844,43724,42161
32900,43741,42050
32921,43773,42260
32905,43799,42276
32884,43780,42388
32869,43772,42328
32872,43729,42309
32868,43701,42360
32840,43685,42556
32864,43655,42604
32892,43712,42661
32908,43740,42649
32940,43765,42599
32933,43780,42796
32925,43775,42817
32921,43755,42901
32872,43743,42895
32860,43668,42837
32840,43700,42892
32800,43695,43045
32762,43703,43127
32728,43730,43036
32720,43748,43196
32756,43749,43188
32832,43775,43157
32853,43748,43305
32900,43726,43332
32900,43709,43308
32900,43687,43435
32900,43673,43476
32920,43700,43413
32916,43689,43413
32900,43721,43592
32870,43776,43598
32884,43764,43655
32856,43759,43570
32860,43695,43714
32844,43700,43748
32858,43664,43680
32860,43687,43856
32876,43695,43855
32876,43686,43961
32897,43748,43925
32868,43762,44004
32788,43772,44012
32768,43748,44039
32732,43725,44068
32696,43700,44117
32700,43679,44153
32705,43671,44207
32756,43655,44181
32848,43709,44132
32860,43744,44311
32804,43759,44325
32788,43722,44383
32796,43740,44327
32816,43709,44317
32804,43695,44456
32820,43647,44487
32796,43676,44506
32752,43692,44582
32700,43709,44613
32710,43731,44588
32704,43741,44532
32720,43759,44567
32748,43743,44741
32792,43703,44745
32800,43692,44788
32828,43665,44828
32832,43655,44704
32836,43677,44877
32856,43708,44916
32848,43687,44935
32848,43747,44935
32848,43744,44956
32828,43727,44972
32860,43693,45013
32864,43655,45063
32848,43655,44997
32836,43612,44975
32809,43671,45000
32772,43688,45032
32764,43725,44998
32740,43733,45167
32753,43732,45164
32714,43713,45165
32692,43695,45175
32684,43655,45233
32724,43632,45270
32773,43646,45207
32788,43629,45135
32784,43663,45308
32808,43711,45300
32832,43719,45308
32888,43727,45333
32888,43655,45260
32892,43676,45388
32870,43655,45391
32932,43624,45388
32956,43623,45421
32948,43613,45465
32948,43679,45500
32925,43693,45504
32936,43710,45467
32964,43708,45400
32956,43676,45415
33021,43620,45572
33124,43638,45549
33242,43623,45613
33432,43601,45537
33653,43647,45508
33924,43655,45644
34312,43701,45637
34808,43665,45717
35392,43700,45668
36112,43687,45589
36776,43653,45741
37288,43623,45759
37688,43604,45753
37984,43610,45751
37992,43631,45812
37660,43655,45735
36808,43692,45824
35597,43709,45847
34469,43704,45831
33316,43687,45865
32289,43655,45820
31420,43639,45732
30684,43617,45888
30304,43616,45884
30385,43631,45879
30716,43645,45887
31188,43636,45940
31592,43685,45828
31908,43687,45788
32116,43655,45953
32296,43631,45926
32432,43561,45972
32549,43569,45985
32640,43576,45926
32660,43597,45828
32684,43631,45999
32688,43599,45988
32662,43661,46044
32600,43655,45898
32532,43599,46055
32538,43623,46100
32554,43591,45972
32516,43567,45980
32546,43564,46140
32600,43581,46142
32608,43613,46128
32616,43639,46189
32598,43639,46197
32558,43645,46200
32564,43600,46105
32570,43599,46236
32616,43577,46207
32692,43546,46241
32672,43495,46103
32684,43572,46248
32688,43588,46268
32696,43564,46120
32724,43633,46292
32732,43620,46265
32720,43604,46288
32720,43554,46181
32740,43552,46311
32752,43527,46277
32752,43527,46329
32760,43543,46310
32756,43561,46180
32729,43596,46341
32736,43600,46340
32768,43605,46304
32797,43580,46375
32796,43548,46315
32796,43526,46260
32768,43507,46173
32720,43472,46343
32708,43525,46300
32705,43551,46295
32728,43575,46342
32808,43581,46237
32880,43540,46313
32898,43556,46303
32896,43527,46236
32928,43505,46169
32876,43444,46289
32880,43484,46279
32876,43497,46174
32876,43527,46087
32849,43527,46241
32872,43548,46224
32910,43556,46212
32928,43527,46173
32928,43463,46212
32960,43476,46169
33008,43462,46212
33056,43460,46108
33036,43455,46049
33048,43495,46183
33112,43527,46185
33140,43527,46175
33176,43527,46150
33152,43519,46145
33212,43493,46196
33284,43431,46100
33322,43446,46034
33340,43444,46196
33390,43440,46164
33380,43438,46216
33396,43496,46143
33391,43508,46062
33380,43500,46189
33396,43491,46236
33444,43466,46169
33420,43443,46080
33401,43409,46252
33436,43413,46237
33468,43393,46284
33500,43442,46245
33496,43447,46288
33504,43454,46200
33528,43460,46132
33556,43460,46290
33572,43445,46278
33556,43412,46276
33560,43391,46303
33568,43383,46281
33512,43399,46269
33472,43423,46303
33488,43447,46200
33484,43465,46119
33476,43448,46284
33484,43429,46279
33472,43413,46239
33493,43384,46299
33448,43367,46232
33368,43343,46120
33349,43368,46256
33336,43389,46216
33296,43423,46201
33230,43435,46243
33184,43428,46072
33241,43367,46220
33284,43384,46236
33288,43352,46228
33311,43341,46072
33296,43333,46204
33269,43348,46210
33248,43364,46148
33288,43381,46052
33288,43407,46196
33252,43397,46183
33232,43344,46159
33220,43367,46140
33172,43335,46204
33128,43308,46156
33104,43305,46046
33128,43308,46031
33158,43338,46184
33150,43361,46141
33092,43387,46172
33045,43348,46164
33060,43360,46028
33070,43332,46164
33085,43303,46175
33092,43276,46180
33124,43239,46024
33148,43296,46197
33136,43308,46140
33116,43336,46199
33092,43353,46087
33064,43349,46058
33016,43335,46164
33030,43309,46132
33004,43232,46196
32964,43255,46191
32924,43252,46119
32896,43271,46040
32884,43292,46013
32912,43302,46161
32972,43328,46127
33004,43322,46151
33037,43304,46147
33000,43252,46049
33005,43253,45984
33001,43228,46132
32956,43222,46076
32956,43238,46119
32912,43222,45967
32869,43286,45933
32848,43303,46087
32832,43308,46024
32843,43285,46064
32913,43252,45944
32916,43228,45882
32936,43181,46007
32932,43191,45964
32952,43212,45919
32977,43188,45944
32933,43260,45774
32876,43271,45908
32836,43268,45828
32837,43252,45872
32812,43224,45679
32816,43175,45800
32840,43167,45788
32876,43164,45727
32864,43181,45575
32893,43200,45550
32901,43193,45669
32905,43247,45648
32928,43248,45563
32940,43231,45436
32917,43160,45568
32888,43164,45508
32868,43140,45495
32820,43143,45476
32744,43150,45336
32696,43175,45428
32678,43151,45348
32640,43217,45352
32623,43204,45351
32648,43197,45190
32696,43164,45103
32716,43143,45229
32736,43092,45165
32706,43113,45159
32737,43128,45140
32752,43143,45071
32736,43175,45041
32696,43183,44917
32722,43164,44804
32748,43175,44921
32760,43138,44828
32736,43111,44807
32754,43079,44807
32780,43084,44701
32788,43057,44537
32788,43111,44632
32768,43125,44623
32780,43139,44420
32764,43153,44505
32752,43132,44468
32744,43106,44389
32693,43087,44207
32698,43052,44317
32716,43045,44295
32696,43071,44069
32653,43055,44159
32636,43113,44132
32644,43136,44088
32668,43126,43980
32692,43108,43840
32656,43077,43953
32672,43057,43870
32624,42979,43893
32632,43014,43661
32636,43036,43775
32621,43049,43706
32612,43061,43655
32612,43071,43500
32612,43092,43596
32601,43084,43569
32604,42997,43399
32612,43015,43317
32580,42996,43449
32544,42991,43367
32540,43004,43342
32548,43009,43165
32522,43049,43244
32544,43077,43213
32492,43065,43015
32485,43045,43143
32476,42983,43076
32472,42988,43044
32472,42971,42957
32496,42941,42783
32504,42975,42908
32493,42989,42830
32494,43015,42777
32496,43029,42735
32532,42980,42721
32520,43013,42677
32508,42980,42446
32480,42948,42575
32420,42905,42497
32396,42933,42399
32365,42935,42292
32352,42959,42223
32352,42980,42287
32357,42998,42212
32404,42997,42223
32424,42973,42064
32420,42948,41936
32432,42914,42017
32512,42896,42008
32520,42899,41902
32472,42909,41720
32436,42921,41679
32428,42943,41752
32444,42977,41745
32456,42960,41509
32441,42892,41604
32423,42925,41513
32365,42887,41469
32352,42867,41381
32344,42838,41255
32308,42879,41321
32316,42887,41284
32297,42868,41082
32356,42927,41168
32388,42935,41123
32408,42911,41004
32428,42886,40909
32484,42865,40944
32526,42836,40909
32492,42790,40825
32448,42845,40677
32420,42855,40757
32445,42886,40676
32400,42909,40599
32374,42895,40532
32392,42884,40407
32401,42844,40481
32408,42828,40390
32420,42804,40388
32392,42804,40220
32320,42781,40128
32301,42839,40120
32336,42854,40159
32284,42865,40076
32262,42863,40071
32228,42853,39892
32272,42828,39950
32270,42796,39906
32276,42769,39730
32276,42772,39777
32328,42783,39733
32324,42799,39677
32360,42791,39513
32366,42824,39556
32352,42844,39516
32400,42780,39351
32400,42797,39422
32416,42759,39359
32416,42721,39293
32396,42733,39253
32384,42742,39124
32388,42725,39145
32408,42788,39092
32396,42810,38932
32392,42814,38973
32344,42780,38937
32335,42758,38776
32336,42724,38801
32340,42697,38752
32305,42708,38693
32325,42708,38558
32317,42729,38590
32268,42759,38535
32240,42775,38377
32268,42772,38400
32304,42712,38373
32325,42735,38237
32324,42677,38257
32325,42666,38210
32332,42666,38068
32372,42687,38093
32368,42697,38047
32381,42724,37903
32388,42733,37884
32356,42735,37860
32316,42716,37748
32348,42695,37764
32342,42653,37692
32348,42639,37652
32324,42631,37529
32304,42661,37533
32280,42669,37489
32284,42689,37431
32280,42692,37317
32308,42693,37269
32330,42689,37271
32400,42661,37206
32444,42631,37172
32468,42615,37059
32480,42599,37062
32496,42618,36999
32480,42639,36954
32464,42668,36853
32481,42676,36789
32468,42670,36764
32420,42655,36740
32420,42613,36678
32400,42612,36621
32384,42577,36564
32348,42575,36484
32294,42596,36436
32272,42596,36410
32295,42645,36353
32292,42648,36277
32324,42640,36255
32316,42604,36193
32328,42612,36141
32405,42571,36060
32472,42549,36032
32476,42503,35980
32478,42564,35924
32476,42565,35862
32452,42600,35799
32452,42591,35732
32424,42615,35702
32391,42594,35665
32384,42566,35614
32372,42543,35524
32348,42472,35498
32359,42517,35454
32366,42525,35396
32372,42549,35341
32360,42567,35239
32349,42586,35238
32408,42587,35193
32428,42567,35145
32464,42489,35071
32468,42503,35037
32476,42479,34983
32452,42487,34928
32444,42465,34885
32416,42513,34839
32396,42535,34766
32368,42549,34726
32316,42533,34679
32324,42492,34617
32380,42503,34573
32396,42471,34526
32424,42455,34476
32424,42455,34414
32446,42437,34365
32452,42489,34311
32452,42503,34271
32448,42520,34225
32420,42524,34181
32405,42503,34149
32388,42479,34075
32349,42454,34029
32348,42421,34023
32352,42421,33943
32365,42439,33897
32377,42431,33887
32344,42487,33799
32372,42497,33768
32414,42487,33732
32401,42476,33711
32420,42449,33620
32516,42415,33582
32588,42373,33543
32816,42389,33542
33052,42400,33481
33308,42425,33413
33656,42461,33372
34116,42469,33367
34684,42456,33243
35396,42444,33253
36148,42423,33228
36734,42391,33180
37228,42372,33124
37640,42352,33082
37784,42375,33079
37576,42405,32988
36896,42428,32959
35632,42453,32921
34360,42450,32844
33180,42428,32813
31986,42412,32806
31064,42399,32737
30264,42342,32689
29713,42322,32691
29704,42375,32604
30032,42375,32550
30472,42408,32495
31000,42397,32527
31384,42425,32396
31621,42396,32359
31777,42375,32388
31904,42340,32263
32000,42324,32244
32093,42297,32199
32146,42337,32201
32164,42359,32124
32204,42356,32108
32209,42396,32049
32220,42396,32037
32244,42372,32005
32208,42349,31974
32188,42323,32016
32160,42297,31892
32128,42292,31885
32092,42301,31836
32074,42324,31809
32072,42351,31801
32072,42363,31832
32076,42357,31693
32085,42343,31685
32097,42327,31622
32110,42292,31681
32120,42271,31581
32140,42223,31508
32148,42272,31464
32128,42301,31416
32142,42327,31399
32178,42332,31332
32191,42332,31324
32168,42311,31271
32156,42292,31228
32173,42265,31279
32196,42237,31211
32224,42196,31065
32260,42247,31056
32276,42265,30992
32284,42301,30999
32300,42285,31001
32284,42308,30872
32225,42293,30786
32225,42265,30757
32276,42239,30676
32300,42208,30621
32356,42212,30599
32340,42223,30512
32334,42241,30455
32332,42275,30505
32306,42247,30328
32268,42287,30319
32256,42271,30222
32232,42247,30244
32248,42216,30254
32256,42180,30188
32277,42182,29981
32324,42184,29964
32389,42189,29872
32440,42247,29889
32504,42263,29901
32521,42263,29703
32504,42207,29660
32536,42210,29624
32560,42191,29573
32572,42151,29483
32590,42153,29442
32581,42165,29474
32552,42156,29460
32576,42213,29290
32620,42231,29211
32633,42231,29138
32665,42217,29087
32668,42182,29020
32684,42154,29018
32680,42103,29072
32724,42124,28841
32748,42143,28864
32748,42159,28866
32808,42196,28849
32904,42202,28814
32928,42193,28738
32988,42197,28626
33052,42161,28511
33060,42141,28480
33068,42100,28420
33076,42095,28466
33064,42119,28428
33080,42141,28333
33080,42161,28374
33084,42187,28327
33098,42183,28162
33144,42161,28184
33184,42143,28151
33228,42100,28089
33253,42040,28079
33276,42091,28158
33284,42096,27973
33284,42119,27887
33276,42145,27911
33248,42169,27821
33252,42119,27943
33268,42145,27668
33260,42119,27695
33244,42087,27623
33264,42069,27714
33244,42016,27463
33228,42078,27495
33237,42084,27503
33188,42101,27418
33156,42144,27329
33124,42139,27271
33156,42118,27325
33152,42103,27184
33136,42071,27052
33136,42037,27057
33088,42045,27060
33064,42055,26964
33064,42075,26932
33020,42095,26941
32998,42111,26752
32980,42087,26772
33012,42101,26735
33056,42071,26779
33080,42049,26718
33013,42015,26502
32948,42018,26497
32890,42031,26516
32864,42053,26463
32876,42052,26471
32892,42098,26502
32894,42095,26244
32936,42085,26241
32932,42012,26258
32940,42016,26215
32976,41991,26286
32964,41991,26038
32972,41966,26101
32960,42037,26055
32928,42065,26127
32909,42078,25956
32928,42073,25904
32916,42059,25897
32892,42037,26043
32866,42007,25830
32836,41989,25829
32832,41969,25917
32784,41988,25657
32804,42012,25718
32844,42029,25745
32830,42063,25554
32868,42023,25598
32884,42047,25602
32848,42023,25573
32817,41989,25532
32816,41958,25539
32852,41957,25441
32852,41975,25473
32840,41991,25547
32812,42007,25297
32823,42042,25380
32844,42039,25337
32849,42031,25383
32821,42005,25342
32797,41965,25196
32756,41914,25132
32764,41941,25223
32772,41957,25171
32760,41977,25188
32756,41991,25182
32772,42005,24968
32764,42023,24995
32726,41991,24993
32684,41981,24980
32672,41972,25058
32669,41935,24857
32672,41924,24859
32712,41943,24967
32724,41912,24705
32702,41985,24773
32724,41991,24792
32706,41991,24727
32724,41983,24619
32728,41964,24669
32744,41934,24607
32732,41911,24710
32708,41895,24454
32696,41920,24531
32665,41933,24518
32668,41973,24508
32704,41991,24559
32700,41953,24343
32660,41983,24426
32628,41940,24412
32644,41922,24464
32656,41873,24294
32632,41895,24224
32628,41906,24308
32596,41935,24261
32560,41953,24409
32570,41975,24177
32568,41981,24188
32600,41959,24184
32632,41917,24176
32640,41915,24012
32589,41876,24116
32556,41885,24100
32596,41895,24126
32584,41924,24024
32524,41911,24168
32488,41963,23915
32481,41965,23852
32504,41943,23864
32508,41916,23943
32540,41876,23886
32542,41863,24020
32512,41863,23736
32470,41873,23780
32461,41855,23832
32472,41925,23782
32516,41936,23872
32536,41945,23890
32549,41932,23891
32596,41903,23613
32604,41893,23721
32604,41854,23745
32612,41807,23647
32620,41863,23591
32592,41877,23647
32548,41911,23801
32532,41927,23532
32516,41932,23545
32492,41915,23642
32493,41885,23660
32480,41860,23516
32514,41831,23542
32538,41829,23559
32549,41809,23639
32524,41861,23533
32516,41885,23449
32504,41917,23471
32516,41903,23444
32544,41887,23468
32536,41863,23492
32513,41840,23525
32484,41807,23542
32512,41812,23565
32528,41831,23376
32524,41845,23511
32500,41879,23496
32506,41895,23460
32501,41896,23620
32481,41876,23334
32484,41853,23369
32455,41822,23458
32464,41757,23429
32480,41790,23478
32465,41801,23401
32400,41829,23485
32352,41857,23495
32372,41881,23540
32420,41879,23254
32428,41860,23273
32448,41838,23348
32468,41772,23402
32480,41781,23374
32480,41780,23235
32460,41785,23289
32472,41799,23473
32480,41847,23180
32518,41849,23303
32532,41863,23268
32528,41801,23404
32492,41809,23153
32453,41794,23221
32456,41741,23385
32444,41767,23103
32417,41773,23148
32416,41802,23202
32424,41831,23099
32420,41839,23181
32416,41844,23168
32428,41780,23325
32408,41804,23047
32408,41772,23141
32452,41748,23181
32468,41728,23166
32452,41765,22998
32488,41793,23030
32472,41807,23117
32420,41831,23080
32416,41788,23022
32432,41820,23096
32472,41791,23143
32488,41759,23206
32480,41708,23017
32465,41726,22938
32472,41735,22935
32478,41753,22974
32448,41791,22939
32453,41812,22951
32488,41816,23018
32508,41776,23014
32516,41733,22981
32526,41749,22972
32528,41710,22996
32528,41719,22974
32541,41731,22967
32580,41733,23031
32590,41771,23032
32612,41793,23112
32640,41796,22836
32628,41774,22851
32620,41719,22943
32652,41729,22956
32652,41700,23002
32660,41694,23077
32660,41700,22919
32669,41708,22790
32680,41751,22873
32678,41777,22919
32645,41783,22896
32613,41767,23025
32621,41716,22855
32648,41713,22774
32648,41691,22780
32616,41687,22889
32612,41696,22893
32588,41680,22904
32588,41745,22775
32604,41771,22873
32669,41764,22863
32644,41735,22868
32636,41726,22979
32664,41698,23021
32668,41666,22741
32660,41665,22852
32648,41668,22895
32616,41709,22853
32623,41730,22833
32628,41749,22743
32632,41754,22872
32605,41729,22847
32600,41703,22960
32636,41677,22894
32696,41656,22777
32632,41605,22859
32632,41661,22836
32644,41684,22919
32704,41705,22976
32720,41733,22892
32701,41701,22726
32704,41716,22850
32713,41689,22824
32700,41663,22924
32684,41644,22732
32664,41636,22821
32713,41628,22763
32696,41663,22854
32664,41660,22852
32656,41716,22796
32652,41716,22829
32641,41709,22881
32672,41673,22755
32736,41649,22848
32752,41620,23001
32809,41612,22746
32845,41639,22822
32800,41607,22951
32804,41681,22751
32812,41701,22724
32824,41697,22865
32816,41681,22859
32844,41660,22961
32824,41623,22850
32780,41607,22738
32808,41604,22834
32820,41623,22884
32836,41628,22852
32816,41665,22877
32800,41671,23015
32836,41693,22853
32828,41676,22790
32845,41641,22873
32849,41620,23036
32796,41589,22789
32748,41597,22880
32724,41551,22904
32728,41629,22964
32742,41649,23085
32788,41661,22897
32829,41628,22866
32812,41659,22974
32808,41632,22935
32824,41600,23078
32812,41557,23076
32828,41573,22877
32768,41597,22878
32762,41607,22973
32712,41629,23036
32660,41653,23061
32712,41661,22952
32737,41644,23027
32770,41615,23086
32817,41583,23161
32864,41527,23186
32896,41565,22996
32873,41573,23110
32860,41580,23116
32812,41629,23252
32823,41639,23031
32792,41639,23150
32796,41598,23335
32808,41596,23062
32784,41581,23090
32768,41563,23189
32772,41548,23202
32776,41572,23220
32780,41570,23228
32740,41621,23253
32714,41621,23341
32704,41594,23423
32697,41620,23281
32706,41591,23167
32720,41583,23172
32784,41549,23183
32804,41540,23232
32832,41545,23324
32836,41564,23352
32836,41584,23349
32808,41589,23373
32812,41581,23382
32788,41607,23356
32774,41583,23377
32756,41567,23421
32756,41524,23445
32736,41519,23596
32778,41540,23329
32741,41557,23449
32724,41574,23456
32764,41601,23637
32800,41599,23401
32784,41588,23527
32709,41564,23503
32710,41517,23642
32672,41512,23492
32708,41505,23540
32828,41517,23665
32972,41534,23503
33228,41580,23557
33528,41590,23629
33808,41594,23618
34212,41581,23729
34711,41556,23537
35356,41520,23637
36054,41488,23693
36620,41492,23666
37016,41491,23825
37353,41524,23599
37576,41556,23733
37540,41575,23713
37144,41582,23884
36168,41567,23657
34920,41556,23695
33836,41529,23756
32732,41505,23785
31748,41500,23885
30968,41511,23795
30218,41537,23684
29904,41552,23824
30064,41572,23796
30485,41567,23908
30976,41557,23983
31461,41518,23889
31840,41454,23731
32048,41477,23825
32212,41471,23846
32356,41479,23967
32432,41479,23916
32424,41536,23777
32472,41559,23888
32460,41543,23897
32460,41538,23961
32473,41517,24021
32424,41494,23871
32428,41456,23973
32450,41453,24047
32477,41423,23911
32464,41479,23974
32448,41511,24054
32456,41542,24161
32472,41537,24052
32452,41533,23976
32500,41501,24103
32492,41475,24111
32444,41455,24189
32440,41441,24292
32448,41452,24183
32496,41474,24135
32568,41501,24227
32552,41525,24236
32536,41531,24228
32576,41508,24241
32548,41479,24365
32548,41419,24334
32572,41437,24204
32564,41435,24212
32580,41436,24332
32632,41467,24335
32648,41479,24366
32633,41479,24415
32664,41514,24511
32662,41496,24353
32676,41477,24317
32672,41449,24421
32700,41388,24421
32716,41407,24346
32744,41420,24308
32725,41415,24398
32768,41468,24454
32768,41508,24499
32776,41479,24298
32792,41479,24396
32784,41453,24388
32765,41423,24499
32728,41420,24279
32796,41397,24337
32780,41415,24351
32712,41440,24484
32716,41463,24240
32742,41440,24294
32718,41479,24300
32697,41471,24327
32713,41404,24234
32724,41409,24295
32728,41380,24231
32724,41388,24228
32724,41399,24223
32828,41431,24290
32836,41447,24136
32824,41450,24199
32829,41445,24134
32936,41447,24212
32960,41423,24181
33004,41396,24212
33069,41366,24123
33108,41363,24207
33112,41383,24044
33120,41389,24118
33082,41423,24220
33112,41444,24138
33140,41433,24159
33125,41435,24202
33213,41415,24039
33292,41383,24124
33320,41351,24255
33377,41341,24101
33416,41365,24157
33423,41383,24324
33416,41380,24068
33448,41436,24213
33439,41425,24231
33436,41400,24229
33441,41399,24189
33417,41368,24213
33408,41349,24266
33429,41317,24397
33372,41351,24132
33320,41364,24260
33356,41383,24233
33416,41431,24425
33416,41423,24160
33436,41406,24285
33532,41381,24340
33576,41351,24170
33632,41324,24284
33584,41327,24241
33508,41309,24285
33532,41361,24407
33524,41391,24241
33488,41405,24220
33504,41420,24252
33516,41395,24357
33548,41375,24322
33585,41351,24367
33558,41327,24354
33541,41310,24418
33520,41337,24348
33488,41327,24215
33472,41391,24180
33420,41407,24276
33420,41398,24280
33348,41383,24234
33336,41343,24319
33309,41338,24393
33284,41325,24164
33193,41311,24141
33180,41327,24189
33152,41333,24263
33104,41383,24272
33068,41401,24412
33048,41398,24151
33056,41377,24273
33056,41377,24271
33104,41343,24316
33100,41305,24163
33116,41292,24288
33104,41327,24322
33060,41346,24173
33052,41372,24263
32974,41399,24269
32912,41407,24271
32906,41385,24369
32941,41357,24274
32894,41340,24245
32836,41312,24340
32808,41303,24357
32868,41287,24337
32876,41343,24287
32840,41360,24369
32928,41397,24345
32896,41392,24479
32953,41389,24288
32977,41366,24402
32968,41337,24455
32948,41310,24578
32916,41300,24533
32944,41323,24348
32876,41350,24476
32844,41364,24444
32830,41377,24548
32825,41393,24496
32808,41381,24393
32840,41351,24460
32812,41334,24519
32780,41319,24516
32782,41299,24490
32737,41303,24524
32744,41345,24577
32732,41367,24458
32692,41415,24492
32744,41405,24555
32784,41349,24609
32780,41351,24532
32784,41313,24540
32796,41313,24565
32736,41300,24756
32765,41317,24499
32772,41296,24630
32706,41367,24577
32672,41391,24748
32692,41389,24540
32692,41374,24612
32725,41364,24599
32762,41337,24737
32780,41317,24570
32823,41309,24651
32796,41324,24797
32804,41338,24563
32832,41373,24664
32796,41389,24741
32768,41400,24581
32712,41380,24612
32805,41366,24673
32836,41335,24756
32772,41310,24720
32713,41310,24588
32725,41316,24682
32728,41344,24709
32680,41360,24648
32692,41361,24701
32692,41412,24748
32704,41399,24646
32688,41341,24725
32640,41343,24687
32628,41319,24865
32616,41279,24605
32604,41333,24726
32584,41351,24673
32592,41372,24826
32556,41403,24618
32540,41409,24725
32548,41391,24825
32626,41365,24614
32612,41344,24725
32617,41316,24766
32664,41311,24740
32721,41327,24655
32728,41360,24684
32701,41380,24831
32656,41393,24620
32652,41399,24652
32636,41367,24729
32613,41372,24721
32658,41351,24828
32652,41317,24895
32668,41319,24772
32714,41324,24649
32677,41319,24706
32644,41381,24738
32636,41404,24796
32636,41404,24740
32636,41375,24703
32652,41383,24781
32640,41345,24788
32612,41326,24927
32640,41300,24925
32669,41332,24768
32608,41317,24747
32532,41385,24864
32496,41398,24845
32500,41404,24857
32556,41393,24989
32584,41383,24825
32616,41350,24886
32622,41322,24998
32576,41292,24892
32576,41327,24877
32568,41342,24942
32588,41377,25045
32616,41406,25047
32649,41411,24946
32632,41396,25028
32648,41372,25045
32620,41315,25168
32604,41324,25061
32576,41317,25028
32545,41329,25108
32512,41335,25112
32544,41388,25076
32548,41396,25095
32556,41409,25124
32528,41361,25188
32488,41383,25266
32512,41351,25285
32524,41321,25084
32512,41319,25201
32516,41340,25184
32500,41338,25241
32468,41391,25180
32440,41415,25140
32453,41412,25233
32481,41364,25343
32500,41380,25182
32508,41354,25213
32504,41336,25397
32516,41322,25214
32522,41340,25320
32500,41360,25168
32485,41351,25238
32489,41412,25435
32472,41414,25183
32476,41397,25317
32464,41383,25350
32458,41350,25244
32468,41320,25241
32468,41309,25293
32440,41343,25478
32404,41368,25426
32404,41385,25245
32436,41408,25378
32408,41424,25391
32324,41414,25489
32364,41381,25297
32402,41340,25362
32472,41332,25497
32502,41325,25332
32540,41350,25389
32562,41351,25510
32560,41391,25342
32564,41408,25457
32552,41375,25446
32504,41405,25606
32524,41393,25417
32497,41362,25526
32480,41338,25473
32488,41332,25454
32516,41341,25511
32560,41321,25630
32572,41385,25468
32532,41415,25540
32536,41404,25679
32548,41412,25564
32580,41383,25538
32580,41357,25580
32573,41297,25781
32552,41330,25638
32560,41348,25594
32540,41373,25645
32557,41399,25673
32548,41423,25684
32601,41420,25810
32592,41407,25615
32600,41351,25696
32572,41367,25644
32544,41335,25713
32560,41330,25668
32573,41345,25738
32628,41343,25927
32620,41391,25700
32596,41419,25829
32604,41422,25803
32608,41365,25844
32628,41381,25808
32652,41364,25829
32649,41319,25978
32608,41327,25790
32655,41345,25913
32664,41341,25889
32661,41396,25991
32652,41427,26076
32624,41420,25931
32624,41404,25913
32636,41391,25988
32636,41364,25985
32668,41340,25999
32684,41331,26015
32672,41340,26067
32664,41369,26216
32656,41392,26005
32628,41410,26119
32600,41414,26085
32614,41405,26188
32661,41341,26159
32696,41361,26128
32736,41335,26181
32716,41333,26197
32728,41341,26368
32724,41351,26198
32676,41385,26226
32684,41415,26380
32668,41428,26311
32680,41411,26221
32677,41373,26338
32640,41364,26308
32656,41337,26397
32656,41325,26292
32645,41305,26402
32664,41356,26404
32646,41381,26471
32652,41397,26604
32688,41411,26399
32725,41400,26495
32745,41370,26509
32712,41351,26684
32704,41319,26554
32684,41287,26597
32676,41332,26682
32704,41350,26542
32688,41381,26652
32680,41378,26655
32704,41414,26745
32704,41390,26684
32730,41376,26683
32729,41351,26878
32744,41317,26693
32760,41319,26747
32765,41327,26862
32744,41351,26777
32740,41380,26782
32712,41415,26829
32740,41413,26991
32735,41381,26820
32709,41336,26938
32744,41343,26916
32728,41317,27021
32732,41316,27029
32741,41325,26973
32768,41351,27015
32748,41375,27209
32773,41401,27023
32788,41396,27139
32780,41396,27181
32796,41373,27100
32764,41348,27191
32732,41319,27256
32736,41284,27325
32728,41332,27240
32708,41336,27282
32668,41381,27466
32668,41401,27300
32660,41397,27407
32629,41361,27419
32660,41373,27472
32628,41333,27471
32644,41319,27534
32616,41308,27554
32632,41324,27727
32660,41348,27597
32628,41367,27655
32668,41399,27633
32680,41393,27711
32696,41377,27749
32692,41351,27837
32700,41343,27902
32728,41308,27828
32772,41286,27929
32792,41325,27991
32752,41345,28134
32724,41369,28001
32698,41351,28125
32684,41401,28167
32696,41377,28287
32680,41358,28188
32640,41319,28294
32628,41319,28293
32638,41289,28460
32652,41285,28406
32664,41335,28445
32677,41356,28641
32692,41383,28529
32702,41389,28605
32708,41349,28685
32704,41352,28823
32669,41319,28717
32664,41282,28837
32648,41293,28837
32645,41303,28998
32664,41338,28928
32660,41351,28997
32670,41383,29075
32684,41345,29123
32668,41375,29292
32664,41351,29265
32688,41319,29266
32692,41303,29365
32676,41300,29435
32652,41288,29462
32614,41324,29573
32548,41351,29711
32568,41376,29697
32608,41381,29701
32628,41365,29791
32661,41342,29876
32688,41313,29926
32752,41295,30007
32888,41292,30152
33072,41295,30185
33276,41287,30173
33516,41350,30284
33832,41375,30334
34272,41349,30504
34784,41361,30449
35436,41328,30564
36068,41305,30628
36624,41276,30759
37040,41287,30847
37356,41295,30838
37524,41314,30913
37420,41329,31036
36840,41375,31033
35752,41385,31148
34580,41375,31186
33542,41349,31343
32476,41324,31312
31568,41293,31416
30808,41301,31529
30248,41303,31521
30092,41332,31620
30359,41350,31670
30808,41368,31806
31303,41373,31825
31700,41335,31879
31960,41327,31960
32140,41303,32063
32356,41283,32103
32471,41241,32173
32484,41296,32228
32496,41309,32309
32552,41343,32415
32544,41343,32439
32588,41370,32536
32604,41351,32628
32616,41288,32713
32652,41311,32752
32632,41283,32846
32646,41279,32924
32652,41292,33021
32636,41317,33083
32637,41325,33159
32585,41357,33229
32549,41364,33340
32525,41345,33389
32502,41295,33479
32500,41308,33568
32532,41275,33637
32548,41269,33713
32600,41271,33799
32636,41269,33876
32685,41335,33942
32696,41351,34029
32685,41365,34118
32669,41351,34190
32696,41318,34265
32704,41307,34345
32652,41265,34428
32620,41255,34483
32660,41236,34567
32664,41307,34630
32688,41329,34686
32726,41335,34786
32766,41351,34864
32712,41337,34917
32704,41292,35015
32692,41307,35044
32712,41263,35161
32744,41265,35229
32772,41277,35257
32816,41301,35359
32894,41284,35444
32920,41351,35455
32924,41367,35568
32916,41336,35631
32868,41319,35684
32809,41300,35781
32790,41236,35841
32812,41248,35847
32808,41275,35957
32840,41297,35976
32858,41319,36036
32900,41340,36132
32968,41351,36141
33000,41335,36256
33004,41309,36303
33024,41263,36344
32997,41258,36359
32993,41253,36487
33000,41247,36545
33008,41299,36528
33024,41319,36657
33024,41348,36711
33084,41348,36711
33110,41341,36833
33173,41317,36909
33196,41303,36856
33248,41279,36997
33272,41247,37051
33248,41269,37119
33300,41292,37197
33353,41300,37205
33380,41340,37303
33416,41343,37399
33460,41335,37347
33508,41301,37522
33504,41283,37599
33532,41257,37564
33548,41255,37703
33516,41265,37693
33516,41240,37856
33494,41313,37912
33480,41351,37926
33528,41325,38038
33572,41333,38100
33588,41311,38055
33644,41279,38208
33600,41244,38276
33616,41223,38271
33632,41255,38388
33636,41281,38452
33660,41306,38535
33684,41339,38566
33610,41332,38596
33548,41311,38606
33537,41295,38721
33566,41273,38809
33632,41214,38737
33656,41239,38909
33664,41247,38943
33632,41273,38919
33656,41300,39060
33708,41327,39094
33704,41324,39105
33728,41319,39112
33696,41292,39236
33695,41265,39271
33677,41252,39361
33624,41233,39425
33570,41237,39333
33532,41274,39489
33520,41287,39537
33504,41317,39618
33444,41325,39657
33404,41312,39574
33380,41286,39737
33344,41268,39782
33356,41239,39745
33308,41223,39927
33260,41253,39982
33208,41266,39903
33190,41248,40053
33209,41316,40135
33220,41284,40196
33257,41311,40112
33342,41295,40260
33356,41264,40223
33340,41223,40373
33336,41223,40326
33316,41244,40470
33285,41260,40426
33248,41282,40597
33205,41317,40617
33172,41293,40716
33152,41310,40657
33136,41280,40893
33124,41260,40788
33172,41237,40942
33173,41223,40888
33210,41241,41053
33226,41263,41015
33277,41285,41196
33284,41309,41252
33280,41321,41309
33260,41305,41261
33228,41279,41389
33216,41255,41357
33164,41222,41524
33140,41223,41604
33076,41223,41652
33036,41245,41645
32972,41223,41757
32936,41307,41700
32952,41313,41863
32960,41295,41860
32976,41263,41953
33026,41249,42009
33080,41217,42057
33084,41178,42135
33048,41236,42164
33016,41250,42095
33044,41268,42247
33072,41267,42244
33076,41294,42340
33064,41281,42404
33100,41265,42423
33108,41231,42437
33096,41209,42495
33076,41199,42476
33052,41220,42591
33064,41237,42663
33008,41260,42669
32944,41278,42728
32940,41276,42548
32941,41277,42772
32968,41223,42631
32952,41221,42854
32944,41191,42835
32940,41195,42724
32968,41206,42905
32940,41223,42814
32884,41245,43014
32840,41277,42853
32832,41287,43015
32840,41276,42974
32872,41249,43138
32864,41221,43197
32887,41185,43213
32888,41191,43233
32876,41191,43256
32884,41222,43209
32870,41241,43293
32832,41276,43165
32860,41265,43316
32888,41254,43295
32908,41237,43415
32876,41205,43436
32924,41188,43469
32964,41181,43357
32952,41188,43505
32948,41208,43551
32872,41236,43550
32868,41271,43575
32868,41260,43420
32804,41219,43592
32812,41237,43576
32792,41197,43501
32784,41179,43641
32784,41170,43711
32796,41189,43717
32812,41207,43694
32800,41223,43637
32816,41252,43781
32857,41259,43757
32876,41247,43824
32897,41206,43685
32913,41191,43868
32912,41157,43893
32849,41117,43783
32830,41172,43948
32820,41196,43978
32816,41198,43832
32784,41241,44022
32776,41241,43847
32780,41233,44015
32816,41201,43993
32840,41181,44108
32865,41158,44144
32860,41163,44164
32884,41162,44173
32884,41191,44052
32864,41217,44256
32844,41223,44260
32820,41243,44240
32788,41223,44303
32780,41164,44327
32784,41181,44367
32780,41154,44375
32768,41152,44392
32797,41147,44365
32772,41181,44342
32769,41197,44469
32752,41232,44433
32736,41223,44388
32706,41223,44517
32728,41188,44549
32744,41159,44368
32752,41151,44548
32784,41140,44545
32802,41151,44576
32736,41180,44604
32704,41189,44630
32684,41175,44469
32602,41220,44639
32596,41213,44660
32628,41195,44516
32664,41173,44636
32681,41132,44551
32708,41135,44640
32756,41135,44685
32778,41164,44550
32768,41191,44716
32780,41208,44676
32752,41220,44740
32628,41207,44596
32600,41179,44701
32569,41148,44693
32596,41127,44765
32580,41127,44711
32544,41100,44701
32544,41157,44787
32544,41181,44788
32540,41217,44615
32544,41213,44769
32548,41199,44609
32592,41172,44783
32638,41152,44722
32633,41132,44807
32616,41124,44750
32645,41137,44773
32608,41145,44630
32576,41180,44800
32512,41212,44816
32544,41204,44637
32568,41189,44805
32592,41170,44833
32653,41140,44700
32664,41125,44807
32640,41069,44797
32620,41132,44816
32572,41151,44652
32596,41125,44807
32580,41191,44825
32532,41197,44716
32520,41146,44820
32520,41162,44789
32526,41135,44665
32580,41061,44793
32648,41109,44807
32685,41127,44660
32676,41092,44797
32654,41165,44748
32696,41193,44654
32728,41192,44777
32756,41182,44747
32760,41133,44773
32777,41124,44607
32801,41103,44736
32813,41095,44764
32812,41115,44565
32768,41141,44701
32741,41158,44696
32684,41184,44530
32672,41184,44637
32681,41164,44496
32663,41113,44662
32700,41109,44616
32668,41060,44636
32685,41091,44552
32704,41095,44498
32744,41129,44588
32736,41141,44604
32753,41183,44391
32768,41173,44524
32744,41157,44558
32737,41135,44344
32724,41113,44468
32692,41077,44335
32676,41060,44439
32672,41086,44396
32700,41100,44447
32700,41131,44309
32684,41163,44388
32680,41164,44236
32620,41141,44341
32602,41127,44201
32628,41095,44316
32700,41065,44205
32737,41056,44295
32729,41076,44243
32732,41093,44271
32732,41127,44158
32716,41145,44279
32720,41159,44271
32740,41143,44248
32780,41121,44183
32798,41089,44129
32801,41056,44204
32760,41060,44196
32724,41068,43995
32720,41090,44105
32665,41119,44024
32592,41142,44108
32548,41143,44101
32512,41104,43900
32572,41108,44012
32620,41087,44039
32644,41063,44025
32625,41028,43968
32588,41060,43887
32588,41039,43982
32632,41094,43994
32672,41133,43756
32673,41127,43882
32645,41095,43768
32644,41094,43879
32712,41071,43900
32744,41035,43694
32716,41031,43836
32685,41045,43652
32688,41069,43797
32669,41094,43749
32688,41113,43614
32705,41113,43735
32717,41095,43637
32732,41077,43755
32781,41049,43724
32784,41030,43725
32768,41020,43716
32748,41039,43695
32709,41055,43633
32697,41072,43557
32716,41103,43483
32676,41108,43565
32669,41090,43512
32684,41071,43596
32685,41045,43545
32690,41026,43476
32752,41007,43386
32752,41027,43524
32780,41041,43413
32772,41032,43495
32796,41093,43437
32724,41095,43292
32664,41076,43439
32688,41060,43462
32672,41031,43237
32708,41007,43368
32722,40998,43399
32740,41008,43362
32694,40998,43197
32637,41055,43349
32666,41073,43272
32714,41059,43300
32748,41073,43300
32706,41055,43239
32634,41013,43284
32600,40996,43071
32541,40988,43228
32536,40997,43194
32544,41023,43092
32548,41042,43193
32556,41071,43156
32596,41054,43064
32576,41068,43151
32616,41033,43071
32616,40997,43092
32584,40962,42916
32544,40967,43071
32509,40991,43097
32492,41012,42885
32476,41037,42993
32474,41044,43014
32496,41052,42854
32476,41053,42951
32481,41023,42836
32464,40980,42942
32492,40964,42913
32528,40965,42735
32524,40967,42868
32520,40999,42857
32524,41012,42884
32580,41041,42817
32644,41055,42815
32692,41025,42809
32668,40967,42828
32641,40995,42612
32592,40961,42727
32548,40930,42783
32504,40961,42549
32486,40989,42668
32484,41001,42721
32532,41029,42503
32576,41035,42621
32592,40981,42631
32612,40997,42445
32652,40967,42593
32660,40942,42593
32624,40928,42399
32632,40908,42537
32632,40967,42532
32656,40996,42343
32676,41024,42446
32782,41021,42381
32916,41028,42456
33116,40974,42443
33336,40953,42228
33636,40929,42348
34052,40888,42367
34516,40941,42157
35048,40952,42285
35700,40980,42280
36360,40994,42117
36957,41004,42213
37406,40991,42237
37764,40945,42020
37892,40955,42176
37592,40935,42119
36821,40919,42000
35620,40940,42101
34478,40967,42036
33304,40997,42062
32176,40976,41845
31341,41010,41943
30592,41015,41983
30132,40941,41752
30144,40961,41844
30400,40908,41751
30800,40909,41802
31232,40929,41818
31556,40951,41633
31752,40967,41701
31896,40985,41752
32044,40992,41541
32168,40943,41525
32261,40967,41640
32288,40935,41572
32288,40902,41647
32296,40897,41433
32260,40911,41551
32226,40937,41588
32248,40959,41388
32268,40981,41493
32276,40967,41505
32300,40967,41493
32312,40941,41492
32300,40924,41309
32288,40903,41453
32304,40890,41455
32316,40896,41419
32336,40922,41396
32293,40940,41277
32276,40965,41362
32305,40967,41179
32312,40954,41309
32300,40937,41269
32308,40903,41263
32269,40869,41044
32288,40880,41187
32270,40900,41160
32300,40911,40966
32332,40933,41060
32308,40967,41007
32344,40956,40901
32380,40959,40967
32412,40920,41014
32425,40903,40855
32456,40877,40937
32432,40864,40725
32421,40874,40820
32384,40903,40809
32349,40920,40631
32320,40951,40689
32284,40957,40539
32254,40932,40604
32300,40927,40596
32388,40887,40557
32448,40826,40533
32512,40863,40460
32580,40869,40383
32592,40894,40260
32552,40925,40297
32508,40909,40263
32468,40941,40071
32472,40935,40127
32508,40908,40086
32540,40881,40059
32545,40847,39967
32617,40839,39822
32654,40860,39893
32641,40877,39815
32636,40919,39684
32637,40934,39599
32632,40938,39649
32636,40905,39545
32656,40893,39586
32653,40863,39505
32657,40849,39509
32672,40834,39343
32732,40850,39405
32775,40868,39381
32769,40910,39206
32812,40927,39283
32832,40916,39216
32868,40912,39188
32888,40893,39068
32920,40844,39128
32940,40828,38956
32942,40831,39033
32968,40839,38983
33012,40848,38889
33040,40868,38839
33016,40907,38869
33024,40923,38833
33068,40900,38815
33120,40858,38653
33135,40853,38745
33133,40829,38679
33175,40823,38636
33188,40836,38621
33164,40836,38464
33196,40893,38445
33200,40919,38465
33232,40901,38429
33188,40853,38424
33184,40879,38383
33160,40838,38236
33122,40813,38181
33140,40800,38220
33148,40823,38134
33136,40836,38122
33128,40839,37996
33096,40895,37911
33072,40897,37884
33128,40881,37924
33152,40857,37855
33164,40823,37791
33202,40813,37747
33292,40807,37689
33260,40819,37670
33240,40839,37585
33192,40861,37532
33132,40876,37425
33136,40894,37348
33108,40871,37396
33088,40853,37318
33032,40821,37267
32988,40799,37143
32932,40791,37173
32900,40807,37134
32864,40813,37049
32832,40855,36959
32858,40884,36976
32860,40879,36927
32896,40862,36880
32884,40844,36823
32863,40808,36716
32854,40794,36657
32834,40788,36645
32792,40799,36653
32788,40823,36604
32798,40852,36561
32796,40863,36505
32792,40837,36459
32820,40828,36417
32872,40839,36372
32892,40815,36326
32864,40785,36300
32852,40775,36209
32880,40788,36183
32864,40789,36125
32836,40801,36151
32848,40865,36108
32818,40868,36062
32784,40863,36012
32789,40836,35987
32756,40793,35956
32769,40775,35924
32800,40774,35863
32750,40764,35783
32692,40813,35756
32641,40832,35751
32640,40852,35719
32588,40821,35694
32544,40844,35600
32532,40812,35556
32572,40797,35571
32669,40764,35525
32732,40767,35485
32748,40775,35463
32796,40788,35420
32784,40823,35361
32784,40839,35293
32816,40815,35246
32828,40797,35210
32832,40807,35175
32772,40797,35156
32741,40764,35124
32712,40757,35095
32692,40767,35015
32708,40791,34952
32700,40813,34950
32665,40835,34889
32652,40799,34855
32672,40831,34775
32694,40804,34756
32721,40781,34701
32688,40733,34644
32704,40758,34613
32712,40765,34526
32704,40775,34514
32689,40801,34468
32676,40797,34415
32696,40835,34348
32684,40816,34328
32648,40796,34269
32604,40767,34236
32550,40749,34168
32469,40747,34089
32453,40741,34085
32488,40768,34055
32500,40765,33991
32528,40833,33948
32569,40828,33895
32586,40807,33854
32552,40791,33788
32548,40759,33757
32548,40719,33716
32497,40735,33663
32464,40741,33616
32420,40761,33564
32420,40788,33519
32416,40804,33478
32444,40794,33380
32498,40765,33370
32502,40743,33329
32472,40743,33287
32476,40731,33245
32492,40711,33204
32480,40725,33180
32460,40749,33121
32472,40777,33067
32448,40796,33031
32452,40807,32991
32433,40788,32964
32452,40763,32895
32448,40704,32866
32439,40706,32860
32473,40698,32770
32488,40711,32758
32481,40693,32734
32464,40756,32686
32446,40787,32636
32448,40788,32593
32416,40775,32572
32452,40757,32550
32446,40696,32519
32408,40693,32513
32408,40689,32441
32394,40697,32429
32352,40725,32397
32359,40740,32395
32312,40773,32334
32276,40776,32285
32312,40775,32249
32407,40749,32273
32420,40719,32166
32421,40695,32164
32412,40676,32135
32388,40692,32119
32375,40720,32095
32352,40737,32066
32349,40763,32084
32316,40732,31988
32284,40761,31977
32272,40736,31953
32264,40694,31927
32280,40673,31911
32312,40635,31868
32285,40676,31829
32248,40686,31830
32253,40717,31815
32249,40757,31751
32260,40764,31711
32268,40708,31745
32264,40727,31636
32284,40687,31645
32273,40661,31614
32254,40660,31609
32232,40677,31561
32256,40696,31517
32228,40708,31487
32206,40707,31470
32148,40748,31477
32156,40735,31461
32132,40711,31381
32094,40677,31344
32088,40614,31306
32096,40653,31321
32086,40660,31313
32100,40685,31205
32122,40706,31189
32136,40735,31181
32125,40711,31152
32096,40729,31148
32114,40692,31165
32120,40668,31063
32156,40644,31042
32197,40636,31087
32220,40645,31023
32202,40650,30983
32200,40696,30949
32182,40733,30940
32196,40720,30992
32224,40709,30909
32184,40692,30873
32186,40652,30854
32196,40636,30871
32200,40631,30883
32193,40642,30736
32196,40645,30768
32156,40681,30720
32134,40711,30745
32161,40680,30783
32172,40685,30694
32212,40687,30664
32228,40657,30609
32263,40620,30693
32316,40596,30599
32336,40630,30551
32324,40649,30620
32269,40665,30502
32284,40711,30500
32288,40679,30543
32248,40693,30503
32240,40679,30428
32244,40647,30404
32254,40612,30485
32220,40572,30365
32217,40629,30369
32232,40644,30326
32244,40668,30340
32270,40685,30361
32284,40694,30264
32253,40679,30284
32252,40661,30300
32276,40647,30271
32277,40567,30195
32272,40604,30177
32292,40605,30225
32321,40612,30137
32308,40644,30149
32304,40685,30141
32312,40679,30095
32314,40676,30097
32340,40647,30115
32381,40583,30020
32428,40593,30028
32420,40594,30036
32388,40597,29996
32367,40605,29968
32321,40647,30033
32288,40671,30038
32300,40676,30024
32280,40652,29972
32256,40637,29893
32268,40604,29896
32332,40583,29854
32325,40576,29940
32344,40583,29870
32344,40607,29805
32376,40620,29799
32368,40631,29828
32396,40671,29777
32372,40655,29826
32352,40628,29877
32380,40613,29735
32360,40569,29772
32360,40567,29718
32360,40567,29792
32380,40607,29677
32417,40625,29673
32420,40651,29671
32420,40649,29681
32398,40619,29744
32413,40614,29628
32381,40583,29669
32352,40562,29635
32332,40537,29644
32320,40572,29717
32324,40589,29572
32336,40612,29572
32324,40637,29567
32360,40646,29565
32449,40629,29565
32520,40610,29537
32540,40569,29511
32598,40551,29501
32604,40546,29492
32616,40559,29462
32608,40576,29457
32612,40602,29463
32564,40637,29473
32588,40629,29524
32564,40604,29461
32556,40604,29399
32556,40565,29436
32548,40541,29396
32592,40540,29420
32606,40536,29466
32583,40533,29396
32552,40583,29371
32552,40612,29337
32552,40620,29388
32548,40573,29392
32544,40596,29308
32557,40560,29332
32572,40544,29292
32580,40520,29319
32548,40509,29385
32536,40556,29244
32584,40583,29248
32572,40613,29271
32598,40621,29250
32596,40611,29252
32596,40575,29300
32588,40556,29326
32552,40519,29184
32576,40511,29237
32572,40511,29180
32556,40559,29278
32552,40575,29308
32536,40607,29167
32536,40612,29164
32564,40608,29172
32608,40565,29204
32628,40551,29192
32628,40517,29161
32644,40505,29172
32617,40522,29205
32624,40516,29269
32644,40581,29140
32640,40596,29153
32666,40605,29170
32644,40583,29164
32668,40565,29149
32660,40527,29128
32648,40513,29154
32612,40502,29121
32572,40503,29158
32554,40535,29125
32564,40553,29148
32581,40588,29109
32560,40583,29106
32528,40581,29122
32560,40551,29207
32580,40527,29063
32560,40479,29085
32548,40485,29055
32572,40500,29129
32572,40519,29125
32540,40544,28999
32488,40565,29071
32494,40564,29077
32480,40545,29070
32464,40544,29028
32472,40517,29005
32500,40492,28997
32510,40479,29004
32536,40493,29012
32576,40516,29025
32632,40541,29012
32684,40559,29020
32740,40568,29021
32820,40554,28964
32972,40516,29060
33200,40471,29088
33472,40481,29071
33780,40479,28930
34176,40473,28942
34693,40485,28956
35356,40533,28965
36128,40548,28901
36804,40552,28917
37308,40548,28932
37736,40524,28884
37975,40493,28866
37940,40469,28853
37516,40469,28888
36580,40476,28877
35297,40516,28887
34112,40534,28874
32872,40564,28871
31780,40566,28865
30864,40528,28872
30064,40547,28837
29700,40519,28793
29876,40485,28803
30320,40477,28767
30848,40487,28601
31372,40492,28577
31749,40499,28596
31969,40551,28535
32092,40550,28591
32176,40541,28561
32244,40515,28485
32284,40455,28487
32288,40455,28478
32309,40446,28575
32287,40453,28521
32212,40478,28385
32222,40506,28412
32206,40508,28367
32208,40543,28417
32256,40535,28384
32264,40501,28373
32284,40479,28330
32281,40439,28406
32288,40399,28440
32304,40455,28264
32280,40471,28294
32284,40499,28257
32276,40489,28389
32284,40535,28215
32376,40526,28227
32420,40493,28222
32440,40453,28177
32432,40436,28267
32416,40435,28233
32420,40446,28268
32408,40455,28223
32388,40487,28059
32408,40519,28060
32405,40519,28049
32416,40503,27986
32436,40452,28107
32448,40455,27909
32489,40432,27887
32468,40427,27861
32478,40433,27872
32504,40448,27825
32520,40477,27777
32540,40509,27722
32570,40524,27834
32572,40461,27761
32604,40477,27588
32608,40455,27582
32612,40420,27593
32604,40391,27509
32556,40429,27577
32538,40443,27394
32520,40471,27440
32528,40506,27446
32544,40503,27343
32576,40495,27277
32604,40465,27271
32616,40446,27142
32644,40402,27108
32632,40365,27088
32684,40425,27068
32692,40441,26996
32692,40455,27033
32720,40497,27041
32748,40505,26818
32768,40493,26858
32772,40469,26821
32796,40442,26697
32832,40402,26687
32816,40391,26786
32840,40411,26552
32888,40421,26542
32920,40450,26521
32920,40493,26543
32928,40487,26382
32945,40479,26404
32936,40455,26337
32932,40444,26382
32944,40396,26440
32984,40391,26204
33064,40412,26201
33145,40431,26338
33212,40455,26116
33229,40484,26109
33272,40487,26188
33280,40473,26092
33300,40443,25980
33320,40399,26020
33344,40392,26021
33356,40376,26039
33404,40401,25875
33428,40377,25924
33420,40444,25988
33469,40467,25775
33500,40445,25857
33536,40468,25893
33568,40447,25692
33560,40425,25767
33556,40403,25694
33532,40380,25751
33536,40401,25585
33556,40415,25651
33572,40441,25596
33608,40455,25576
33636,40471,25692
33660,40455,25428
33652,40439,25478
33660,40412,25534
33648,40391,25335
33665,40372,25367
33668,40389,25496
33668,40408,25256
33640,40431,25257
33608,40470,25391
33608,40460,25133
33596,40454,25190
33572,40440,25153
33544,40409,25264
33496,40378,24998
33452,40378,25066
33424,40383,24998
33404,40406,25063
33356,40436,24877
33332,40455,24967
33304,40476,24932
33296,40455,25030
33312,40429,24765
33336,40411,24828
33292,40367,24781
33220,40367,24869
33212,40382,24806
33188,40391,24703
33172,40434,24749
33137,40452,24689
33172,40452,24846
33156,40407,24583
33141,40422,24609
33120,40400,24627
33148,40367,24636
33128,40357,24653
33132,40375,24516
33092,40400,24583
33140,40429,24588
33136,40447,24699
33100,40450,24533
33056,40444,24520
33024,40417,24542
33040,40359,24698
33060,40366,24445
33060,40351,24551
33060,40345,24512
33044,40389,24617
32996,40402,24413
32970,40451,24517
32948,40450,24473
32904,40433,24637
32900,40413,24397
32893,40364,24389
32911,40364,24443
32904,40356,24455
32872,40359,24477
32844,40341,24594
32856,40407,24366
32860,40443,24353
32860,40442,24436
32833,40405,24413
32876,40413,24479
32881,40384,24373
32916,40348,24305
32920,40357,24387
32895,40356,24356
32908,40383,24502
32864,40399,24269
32852,40434,24327
32825,40437,24298
32832,40433,24471
32844,40375,24224
32892,40381,24308
32877,40348,24187
32856,40349,24267
32824,40320,24255
32812,40364,24402
32800,40402,24189
32780,40396,24172
32768,40429,24196
32752,40431,24229
32748,40399,24087
32751,40373,24146
32761,40335,24164
32760,40294,24158
32720,40343,24126
32720,40364,24045
32696,40375,24148
32708,40420,24108
32714,40436,24265
32722,40421,24012
32748,40356,23991
32704,40374,23989
32677,40349,23983
32652,40327,24065
32660,40340,24033
32655,40373,24178
32628,40400,23942
32620,40415,23956
32580,40421,24020
32584,40409,24037
32604,40385,24130
32632,40327,23985
32644,40340,23924
32616,40321,23977
32636,40305,24017
32677,40352,24153
32644,40383,23957
32660,40380,23892
32633,40406,23965
32629,40396,23948
32636,40383,24020
32622,40361,24031
32608,40327,24095
32606,40313,24052
32600,40327,24025
32580,40323,23878
32576,40381,23800
32624,40399,23916
32612,40408,23884
32588,40401,23866
32572,40380,23857
32552,40368,23901
32540,40327,24025
32545,40312,23903
32508,40311,23829
32508,40343,23773
32508,40349,23791
32516,40408,23862
32556,40412,23844
32512,40396,23888
32528,40375,24005
32568,40357,23808
32580,40319,23797
32606,40304,23829
32624,40324,23985
32578,40332,23770
32560,40357,23828
32548,40359,23881
32524,40407,23920
32548,40388,23777
32556,40364,23876
32588,40351,23869
32594,40311,23991
32560,40303,23802
32544,40290,23925
32552,40340,23917
32576,40355,24069
32552,40391,23860
32472,40394,23828
32432,40391,23935
32406,40365,24027
32405,40341,23828
32388,40313,23940
32412,40290,23925
32424,40271,24061
32460,40327,23836
32468,40361,23967
32476,40380,23932
32440,40366,24093
32468,40383,23858
32460,40365,23938
32461,40332,23951
32453,40269,24095
32448,40298,23842
32476,40303,23954
32500,40325,24002
32544,40351,23838
32472,40381,23965
32448,40381,23923
32516,40369,23992
32508,40349,23852
32456,40327,23954
32468,40293,23934
32482,40295,24076
32456,40288,23853
32452,40312,23975
32476,40348,24022
32488,40373,23943
32440,40357,23977
32500,40370,24013
32468,40340,23863
32468,40301,23950
32452,40297,24122
32468,40292,23878
32452,40300,23953
32464,40308,24132
32480,40340,23877
32428,40335,23956
32432,40372,24154
32468,40362,24028
32480,40343,23895
32480,40324,24016
32444,40292,23974
32460,40279,24044
32516,40250,24006
32516,40305,23941
32520,40334,23988
32560,40361,24149
32584,40359,23923
32576,40363,24038
32616,40327,24025
32604,40306,24173
32596,40279,24013
32612,40233,23959
32636,40280,24039
32646,40307,24040
32588,40316,24132
32600,40357,23951
32608,40341,23997
32596,40353,24071
32582,40319,24016
32600,40295,24134
32604,40247,24105
32612,40253,23961
32612,40260,24074
32624,40244,24077
32640,40301,23951
32613,40335,24072
32584,40313,24111
32600,40337,24136
32636,40306,23959
32648,40284,24084
32632,40241,24090
32652,40233,24041
32640,40249,24069
32608,40252,24045
32609,40277,24223
32644,40278,23967
32616,40317,24084
32593,40308,24052
32640,40278,24044
32632,40252,24192
32652,40217,24031
32676,40199,23965
32688,40225,24072
32697,40236,24060
32652,40251,24144
32669,40288,23972
32636,40271,24068
32608,40285,24092
32652,40255,24080
32663,40223,24240
32696,40189,23979
32733,40180,24093
32672,40188,24052
32660,40212,24220
32640,40207,24128
32632,40257,24007
32604,40260,24064
32592,40244,24095
32624,40225,24151
32652,40185,24127
32640,40160,24140
32624,40149,24273
32616,40112,24194
32632,40135,24174
32632,40199,24068
32644,40229,24194
32636,40237,24177
32636,40221,24334
32628,40193,24156
32640,40137,24139
32672,40135,24189
32660,40117,24272
32636,40137,24382
32684,40150,24264
32692,40165,24149
32704,40164,24261
32688,40211,24265
32668,40197,24245
32664,40166,24284
32668,40145,24274
32653,40108,24409
32632,40101,24213
32652,40119,24295
32648,40132,24447
32677,40146,24240
32736,40180,24370
32776,40188,24348
32784,40172,24463
32768,40157,24439
32748,40134,24297
32736,40098,24409
32792,40084,24416
32816,40092,24389
32780,40096,24492
32760,40103,24532
32789,40153,24365
32812,40156,24484
32809,40161,24458
32844,40133,24518
32836,40115,24550
32824,40071,24667
32844,40071,24428
32836,40084,24549
32814,40100,24516
32800,40108,24620
32805,40148,24725
32770,40133,24489
32712,40144,24607
32708,40135,24581
32688,40098,24695
32682,40061,24673
32684,40063,24563
32725,40064,24658
32732,40103,24641
32736,40111,24665
32768,40139,24845
32748,40151,24621
32716,40137,24622
32696,40111,24727
32732,40084,24735
32704,40046,24779
32661,40056,24877
32680,40068,24929
32700,40078,24709
32676,40103,24780
32688,40135,24842
32692,40142,24807
32700,40109,24836
32704,40104,24937
32668,40087,24964
32638,40061,24872
32632,40049,24816
32632,40052,24885
32640,40081,24914
32646,40099,25100
32630,40132,24879
32704,40134,24995
32732,40119,24984
32688,40103,25048
32672,40079,25033
32701,40061,25060
32724,40044,25191
32736,40071,25036
32720,40079,25055
32732,40103,25196
32744,40131,25009
32732,40143,25119
32718,40135,25116
32704,40111,25213
32716,40087,25164
32724,40037,25117
32766,40052,25191
32772,40055,25132
32724,40081,25212
32700,40100,25371
32684,40103,25205
32660,40141,25272
32680,40133,25348
32685,40087,25218
32688,40100,25314
32692,40052,25336
32712,40047,25338
32752,40052,25353
32768,40041,25373
32808,40107,25397
32888,40135,25543
32948,40143,25479
33100,40137,25454
33264,40100,25481
33500,40101,25569
33812,40061,25446
34256,40049,25550
34816,40055,25543
35494,40080,25740
36160,40111,25532
36692,40127,25631
37068,40141,25636
37312,40138,25664
37376,40124,25739
37144,40100,25757
36442,40071,25671
35301,40079,25696
34160,40071,25902
33120,40103,25716
32068,40126,25756
31260,40114,25956
30472,40175,25769
30020,40164,25816
29988,40131,25960
30328,40111,25812
30808,40071,25842
31292,40065,26025
31640,40068,25824
31880,40095,25876
32072,40127,26076
32172,40147,25923
32292,40151,25980
32349,40133,26033
32384,40120,26029
32384,40102,26164
32420,40068,26052
32465,40058,26188
32420,40055,26014
32360,40095,26088
32352,40110,26069
32365,40157,26137
32352,40165,26333
32384,40126,26196
32388,40128,26212
32380,40103,26415
32416,40071,26228
32464,40031,26344
32474,40079,26316
32446,40094,26516
32492,40117,26335
32504,40132,26439
32489,40167,26568
32460,40135,26491
32452,40126,26460
32420,40093,26565
32432,40071,26719
32412,40061,26549
32432,40071,26604
32429,40106,26751
32424,40120,26818
32464,40148,26680
32508,40157,26721
32502,40123,26918
32520,40131,26781
32544,40101,26796
32536,40079,26843
32540,40069,26904
32544,40083,26993
32548,40071,26880
32576,40119,26944
32560,40140,27113
32552,40150,26937
32540,40143,26971
32536,40134,27047
32608,40111,27075
32640,40061,27125
32644,40066,27025
32648,40079,27121
32646,40089,27100
32625,40121,27245
32608,40140,27081
32605,40167,27130
32616,40151,27135
32616,40119,27309
32637,40103,27153
32648,40071,27202
32677,40037,27125
32750,40068,27196
32756,40092,27301
32748,40100,27191
32776,40148,27164
32796,40146,27172
32832,40143,27223
32840,40122,27228
32885,40100,27172
32889,40069,27293
32900,40036,27209
32956,40069,27195
32964,40085,27350
32980,40119,27167
33008,40149,27204
32994,40162,27295
32992,40149,27265
33028,40100,27261
33055,40096,27407
33052,40062,27253
33064,40055,27332
33088,40071,27335
33100,40081,27316
33148,40105,27438
33172,40151,27365
33191,40151,27340
33208,40140,27448
33208,40128,27409
33238,40095,27480
33260,40044,27375
33277,40063,27442
33308,40055,27586
33300,40087,27429
33324,40095,27507
33373,40108,27625
33424,40148,27471
33444,40133,27556
33452,40111,27572
33452,40101,27505
33472,40066,27587
33492,40049,27573
33504,40061,27533
33517,40060,27596
33524,40108,27722
33512,40138,27584
33504,40137,27617
33480,40129,27711
33492,40101,27615
33505,40063,27706
33496,40059,27592
33497,40045,27725
33520,40048,27569
33493,40071,27584
33476,40095,27736
33454,40111,27574
33432,40133,27596
33416,40119,27633
33400,40098,27610
33413,40056,27572
33356,40033,27663
33328,40034,27655
33312,40037,27580
33324,40061,27596
33304,40084,27623
33264,40085,27620
33212,40085,27599
33224,40071,27605
33172,40051,27631
33156,40070,27770
33120,40031,27753
33116,40031,27777
33092,40031,27628
33076,40045,27716
33076,40045,27705
33060,40071,27700
33080,40113,27784
33104,40100,27805
33052,40079,27740
33053,40053,27810
33056,40022,27835
33056,40012,27839
33044,40014,27869
33054,40041,27849
33076,40063,27905
33076,40101,28040
33028,40103,27901
33028,40095,27925
33036,40070,28000
33032,40052,28025
33034,39988,28053
33038,39972,28052
33036,40019,28106
33016,40036,28135
32996,40064,28133
32996,40085,28133
32966,40095,28304
32920,40078,28301
32912,40067,28202
32884,40037,28228
32856,39984,28295
32864,40000,28301
32902,40008,28378
32900,40023,28415
32888,40052,28446
32860,40084,28545
32848,40087,28464
32880,40071,28481
32888,40061,28573
32908,40039,28484
32896,39992,28589
32856,39995,28583
32845,39999,28646
32876,40010,28759
32852,40036,28806
32864,40071,28684
32869,40061,28752
32901,40033,28800
32936,40065,28807
32942,40031,28869
32960,39991,28928
32976,39989,28924
32952,39981,28980
32928,40005,28980
32924,40035,29106
32904,40071,29140
32908,40071,29128
32913,40031,29255
32900,40047,29169
32908,40031,29244
32893,39999,29303
32884,39965,29342
32908,39975,29359
32921,39997,29423
32892,40022,29425
32848,40058,29525
32860,40061,29628
32832,40053,29551
32791,40023,29618
32772,39983,29687
32776,39988,29777
32776,39973,29820
32782,39983,29823
32804,40000,29859
32804,40016,29893
32852,40048,30018
32852,40053,30068
32866,40048,30045
32852,40031,30131
32872,40009,30158
32880,39983,30301
32864,39966,30256
32860,39978,30333
32864,39988,30369
32855,40023,30452
32820,40054,30552
32816,40068,30599
32820,40053,30646
32828,40037,30662
32804,40005,30679
32832,39980,30764
32840,39974,30809
32864,39977,30879
32903,39998,30964
32880,40021,30997
32868,40037,30965
32848,40071,31062
32821,40068,31127
32816,40045,31161
32825,40007,31228
32820,39975,31273
32768,39991,31316
32776,39984,31375
32788,40013,31408
32772,40037,31490
32758,40068,31573
32765,40084,31622
32810,40071,31684
32832,40049,31705
32876,40031,31733
32860,39980,31783
32868,40007,31853
32850,40007,31907
32852,40025,31959
32832,40048,32017
32812,40071,32100
32812,40086,32139
32828,40084,32195
32850,40063,32239
32824,40047,32301
32832,40015,32354
32844,40006,32421
32882,40015,32487
32856,40028,32551
32820,40036,32602
32800,40052,32644
32808,40101,32700
32800,40095,32768
32828,40071,32834
32820,40055,32892
32796,40016,32956
32768,40018,33006
32760,40035,33060
32788,40032,33116
32740,40063,33159
32744,40093,33221
32744,40071,33285
32744,40103,33339
32764,40084,33407
32770,40060,33452
32756,40031,33492
32720,40017,33541
32728,40013,33627
32756,40036,33671
32728,40071,33728
32714,40101,33799
32710,40126,33855
32672,40105,33909
32661,40080,33957
32692,40020,33998
32685,40037,34080
32684,40035,34136
32708,40020,34213
32688,40053,34261
32685,40068,34329
32672,40089,34368
32684,40119,34405
32697,40102,34479
32676,40087,34543
32696,40071,34642
32736,40031,34700
32756,40021,34767
32741,40012,34823
32705,40052,34917
32720,40084,34911
32748,40111,34988
32720,40087,35092
32744,40119,35144
32777,40096,35231
32776,40062,35271
32772,40024,35291
32824,40033,35423
32840,40039,35469
32854,40047,35543
32844,40084,35535
32840,40117,35613
32852,40130,35713
32812,40116,35754
32760,40089,35777
32808,40071,35919
32814,40053,35949
32844,40035,36020
32832,40037,36039
32813,40060,36143
32856,40095,36205
32836,40119,36194
32828,40132,36257
32832,40117,36373
32880,40065,36456
32926,40079,36434
32956,40044,36500
32980,40039,36642
32992,40047,36669
32968,40060,36767
32948,40063,36708
32924,40133,36884
32862,40126,36918
32809,40128,36980
32800,40111,36956
32828,40045,37054
32856,40059,37168
32872,40037,37252
32904,40044,37287
32901,40071,37278
32952,40093,37415
32985,40124,37473
32950,40142,37476
32916,40116,37600
32921,40107,37652
32900,40095,37663
32805,40044,37797
32760,40013,37861
32712,40055,37909
32716,40079,37918
32709,40089,38079
32732,40130,38105
32742,40143,38215
32776,40136,38156
32856,40112,38327
32828,40095,38407
32782,40044,38407
32772,40041,38460
32749,40055,38597
32772,40082,38631
32808,40101,38726
32824,40132,38701
32812,40140,38856
32828,40131,38882
32892,40116,38950
32924,40092,39055
32984,40055,39082
32981,40045,39169
32988,40056,39132
32926,40044,39269
32916,40103,39349
32917,40112,39301
32918,40109,39500
32932,40133,39539
32928,40101,39565
32928,40055,39671
32904,40068,39727
32897,40036,39797
32916,40055,39765
32888,40071,39745
32892,40090,39774
32932,40125,39988
32928,40139,40029
32928,40127,40059
32912,40118,40117
32917,40092,40039
32932,40071,40103
32964,40039,40299
32972,40023,40292
32968,40071,40407
32969,40092,40303
32964,40116,40343
32924,40136,40408
32896,40125,40572
32881,40123,40620
32808,40096,40607
32720,40070,40597
32685,40037,40799
32692,40060,40807
32777,40071,40869
32800,40103,40953
32821,40141,40967
32860,40134,41046
32900,40135,40940
32980,40116,40988
33056,40071,41040
33084,40063,41256
33116,40053,41296
33140,40060,41317
33164,40081,41383
33156,40092,41479
33172,40100,41417
33200,40144,41388
33174,40136,41451
33092,40113,41639
33040,40093,41726
33000,40043,41745
33048,40015,41708
33024,40063,41684
32956,40061,41735
32936,40096,41772
32924,40132,42009
32952,40146,42012
33008,40136,42031
33021,40108,42129
33104,40076,42215
33144,40020,42138
33132,40051,42079
33072,40061,42196
33072,40068,42324
33060,40089,42332
33072,40132,42436
33076,40133,42477
33064,40130,42569
33030,40117,42383
33052,40092,42620
33061,40054,42655
33108,40048,42648
33108,40047,42776
33096,40071,42820
33105,40065,42768
33152,40124,42708
33132,40134,42911
33116,40127,43012
33084,40089,42952
33032,40095,42887
33012,40057,43124
33024,40036,43124
32984,40036,43188
32946,40068,43269
32904,40089,43173
32893,40105,43153
32924,40137,43359
32916,40122,43444
32900,40101,43392
32892,40077,43367
32953,40036,43557
32969,40007,43580
33012,40055,43592
33004,40063,43695
32988,40103,43608
32997,40118,43749
33012,40124,43783
33029,40089,43783
33026,40095,43892
33028,40084,43852
33048,40044,43860
33056,40025,43825
33020,40039,44038
32982,40032,44016
32940,40092,44112
32956,40127,43944
32980,40119,44183
32976,40124,44196
33008,40084,44148
33084,40071,44085
33232,40018,44324
33400,40028,44295
33620,40036,44396
33876,40059,44209
34216,40087,44397
34693,40116,44487
35274,40114,44452
35996,40105,44342
36696,40076,44541
37292,40060,44525
37756,40042,44604
38120,40017,44529
38232,40036,44631
37980,40055,44632
37236,40071,44679
36064,40113,44561
34874,40135,44711
33669,40124,44717
32540,40087,44730
31641,40097,44636
30888,40061,44580
30408,40037,44788
30400,40052,44800
30692,40055,44761
31089,40095,44785
31484,40123,44839
31809,40117,44804
32024,40093,44671
32188,40088,44880
32296,40071,44876
32388,40036,44860
32480,40024,44924
32529,40037,44908
32520,40046,44773
32474,40069,44807
32508,40102,44824
32536,40110,45022
32540,40115,45032
32536,40057,45025
32584,40071,45032
32584,40039,45120
32550,40031,45041
32528,40036,44957
32536,40052,45160
32500,40079,45161
32517,40109,45180
32496,40124,45191
32492,40113,45081
32493,40089,45063
32524,40078,45156
32496,40037,45257
32484,40021,45245
32492,39993,45247
32444,40047,45308
32404,40065,45247
32404,40105,45181
32412,40109,45159
32440,40071,45317
32472,40093,45308
32508,40063,45285
32517,40008,45165
32536,40021,45185
32564,40029,45368
32565,40040,45378
32557,40069,45349
32545,40088,45319
32520,40058,45389
32556,40116,45300
32552,40076,45370
32616,40061,45351
32617,40036,45316
32568,40002,45308
32557,40018,45296
32552,40039,45352
32558,40053,45261
32572,40082,45150
32576,40072,45309
32560,40097,45135
32608,40038,45292
32608,40057,45220
32623,40034,45269
32660,40004,45247
32680,40008,45068
32648,40032,45199
32642,40052,45125
32656,40084,45166
32652,40100,45028
32732,40095,44973
32748,40071,44973
32736,40047,45000
32788,40010,44935
32848,39992,44903
32908,40004,44875
32904,40029,44854
32900,40041,45032
32960,40045,45015
33046,40092,44995
33084,40087,45011
33068,40071,44965
33088,40047,44935
33064,40015,44988
33004,39967,44935
33013,40006,44876
33030,40014,44764
33028,40037,44949
33088,40060,44925
33124,40085,44932
33152,40079,44852
33180,40063,44733
33237,40017,44919
33280,40013,44881
33305,39992,44861
33328,39997,44889
33328,40015,44796
33308,40023,44705
33316,40063,44687
33352,40071,44701
33372,40071,44861
33319,40059,44852
33312,40036,44840
33292,39998,44790
33296,39972,44775
33314,39991,44829
33288,40007,44668
33288,40029,44612
33336,40052,44775
33360,40071,44591
33384,40071,44736
33388,40053,44663
33404,40021,44692
33416,39993,44484
33406,39980,44636
33376,39989,44653
33356,40002,44476
33321,40016,44603
33292,40056,44526
33288,40063,44557
33232,40038,44391
33174,40047,44517
33210,40023,44496
33188,39984,44471
33180,39981,44284
33152,39977,44278
33160,39999,44409
33156,40039,44384
33164,40024,44325
33181,40071,44364
33120,40071,44210
33112,40033,44316
33084,40021,44280
33016,39987,44228
32964,39967,44265
32893,39982,44165
32828,40007,44032
32809,40014,44202
32796,40060,44207
32836,40071,44160
32868,40061,44022
32876,40017,44008
32937,40021,44175
32960,39980,44111
32957,39969,44118
32984,39943,44167
32984,40006,44089
32913,40008,43964
32901,40058,43927
32888,40057,43953
32828,40060,44088
32784,40044,44100
32732,40024,43978
32688,39988,43932
32684,39973,44025
32700,39975,44062
32708,39989,43895
32724,40017,44061
32724,40049,43976
32720,40047,44039
32724,40061,43833
32769,40037,44033
32784,40004,43966
32801,39975,43976
32776,39969,43829
32736,39973,43977
32704,39996,43976
32696,40009,43748
32725,40044,43935
32768,40053,43919
32768,40036,43887
32720,40039,43783
32704,40015,43708
32672,39972,43860
32688,39975,43782
32728,39972,43653
32748,39986,43775
32681,40010,43740
32672,40020,43605
32672,40052,43512
32684,40045,43692
32684,40024,43602
32636,39972,43644
32560,39983,43577
32568,39957,43382
32564,39970,43544
32564,39991,43444
32600,40005,43466
32576,40042,43380
32576,40052,43215
32608,40004,43399
32592,40033,43296
32582,40005,43321
32564,39975,43134
32524,39943,43092
32545,39961,43206
32594,39968,43143
32556,40006,42999
32548,40033,43109
32540,40051,43061
32576,40047,43063
32572,40037,42887
32576,40004,42778
32584,39967,42900
32620,39952,42833
32592,39943,42780
32552,39975,42592
32516,40000,42728
32569,40017,42665
32604,40007,42668
32620,40040,42420
32600,40021,42565
32580,39985,42527
32540,39962,42436
32488,39956,42436
32489,39943,42287
32509,39965,42157
32498,40000,42278
32496,40036,42192
32504,40047,42172
32504,40024,42156
32520,40013,42024
32516,39997,41852
32528,39961,41986
32526,39909,41876
32516,39943,41879
32516,39957,41661
32476,39981,41780
32508,40021,41693
32519,40030,41719
32460,40031,41479
32444,39974,41591
32460,39990,41479
32460,39943,41529
32412,39935,41415
32416,39939,41292
32453,39943,41180
32452,39985,41284
32466,40012,41212
32420,40018,41248
32384,40008,41123
32404,40007,40967
32412,39973,41073
32408,39950,40964
32436,39929,41003
32448,39919,40836
32392,39967,40711
32344,39989,40814
32392,40007,40711
32353,40015,40668
32308,40014,40523
32284,39993,40548
32292,39983,40444
32288,39943,40493
32276,39929,40407
32232,39935,40357
32241,39943,40172
32237,39943,40228
32228,40004,40199
32244,40012,40006
32302,40011,40092
32341,39943,39985
32345,39975,39975
32317,39935,39780
32320,39887,39796
32324,39909,39719
32292,39940,39593
32256,39973,39670
32264,39995,39582
32232,39997,39567
32236,40013,39367
32280,39975,39415
32277,39956,39375
32288,39900,39180
32292,39916,39232
32308,39919,39166
32252,39940,39145
32214,39958,39052
32180,39981,39024
32204,40009,38849
32229,40000,38903
32220,39980,38805
32244,39953,38770
32256,39938,38609
32268,39910,38634
32273,39909,38596
32268,39931,38452
32316,39943,38453
32340,39986,38417
32320,40012,38279
32252,39999,38302
32216,39940,38268
32200,39954,38111
32200,39917,38017
32244,39900,38060
32301,39903,37996
32313,39912,37883
32312,39943,37881
32326,39982,37781
32324,39981,37809
32320,39980,37764
32332,39971,37580
32320,39896,37624
32332,39909,37585
32288,39886,37404
32252,39876,37461
32228,39927,37407
32224,39935,37292
32270,39964,37317
32293,39951,37226
32293,39984,37087
32276,39917,37132
32264,39931,37044
32268,39900,37027
32268,39884,36933
32252,39888,36910
32230,39909,36861
32248,39908,36704
32228,39959,36737
32236,39965,36703
32252,39943,36644
32272,39943,36590
32320,39914,36431
32332,39878,36452
32348,39883,36313
32360,39876,36349
32312,39897,36303
32297,39921,36175
32268,39965,36192
32231,39967,36111
32210,39974,36084
32200,39898,36020
32212,39925,35957
32190,39887,35812
32188,39873,35839
32189,39876,35764
32177,39893,35660
32160,39916,35569
32165,39943,35579
32180,39962,35472
32220,39943,35457
32229,39943,35399
32236,39909,35259
32228,39876,35263
32202,39855,35197
32196,39877,35075
32220,39890,35054
32213,39896,35012
32240,39935,34872
32244,39941,34862
32208,39943,34797
32196,39925,34692
32174,39900,34605
32169,39862,34567
32168,39815,34492
32188,39856,34415
32192,39876,34367
32202,39895,34301
32201,39937,34181
32284,39943,34149
32285,39936,34086
32324,39910,33975
32319,39887,33935
32309,39867,33869
32360,39844,33759
32364,39836,33716
32344,39865,33636
32352,39888,33575
32320,39922,33477
32293,39932,33420
32281,39919,33344
32312,39919,33268
32361,39880,33206
32348,39850,33132
32352,39813,33055
32348,39844,32980
32328,39855,32919
32312,39879,32841
32308,39900,32762
32344,39927,32698
32356,39921,32628
32384,39907,32537
32428,39841,32471
32448,39853,32399
32464,39833,32342
32416,39839,32244
32376,39815,32180
32344,39882,32129
32328,39914,32032
32318,39895,31972
32324,39919,31920
32344,39902,31815
32348,39868,31746
32356,39852,31684
32365,39821,31639
32361,39831,31520
32372,39815,31467
32328,39879,31401
32292,39898,31327
32252,39913,31278
32264,39917,31174
32244,39907,31095
32201,39871,31071
32200,39815,30932
32212,39837,30869
32221,39834,30801
32228,39847,30789
32224,39828,30652
32264,39899,30580
32256,39913,30557
32252,39903,30431
32252,39903,30380
32260,39870,30359
32216,39844,30207
32233,39807,30154
32197,39828,30156
32229,39844,29985
32252,39841,29924
32224,39907,29936
32246,39916,29772
32244,39911,29700
32236,39890,29723
32224,39873,29546
32232,39839,29506
32232,39815,29423
32192,39815,29423
32204,39844,29242
32208,39871,29220
32220,39884,29119
32212,39911,29140
32225,39906,28951
32256,39885,28918
32268,39857,28807
32244,39836,28801
32288,39812,28773
32260,39823,28583
32252,39839,28556
32220,39863,28469
32224,39854,28508
32192,39910,28328
32184,39901,28256
32178,39884,28240
32200,39820,28145
32210,39837,28036
32178,39809,28015
32180,39815,27895
32234,39828,27975
32336,39837,27782
32476,39887,27705
32680,39895,27782
32993,39891,27619
33364,39863,27503
33812,39833,27467
34364,39837,27433
35044,39813,27365
35740,39797,27432
36344,39815,27272
36808,39845,27136
37172,39895,27119
37372,39900,27050
37244,39895,27117
36724,39855,27080
35689,39868,26852
34468,39840,26797
33324,39824,26747
32136,39823,26687
31184,39846,26633
30372,39876,26585
29732,39905,26532
29564,39913,26479
29804,39911,26429
30244,39884,26370
30756,39857,26384
31200,39823,26328
31508,39804,26304
31672,39815,26358
31772,39831,26129
31847,39840,26067
31897,39881,26103
31908,39893,26028
31917,39896,26109
31937,39872,25957
31972,39845,25850
32004,39815,25892
32004,39804,25834
32008,39769,25945
31992,39818,25693
32028,39849,25672
32034,39887,25719
32060,39877,25675
32024,39894,25792
32021,39871,25704
32036,39815,25508
32064,39815,25572
32080,39805,25567
32084,39805,25599
32080,39820,25448
32076,39799,25378
32052,39879,25413
32080,39897,25375
32096,39884,25329
32100,39871,25288
32097,39832,25269
32172,39812,25191
32188,39796,25135
32208,39798,25135
32268,39812,25120
32269,39839,25061
32244,39864,25029
32293,39885,24984
32344,39875,24954
32341,39863,24940
32340,39839,24922
32304,39807,24945
32308,39799,24925
32320,39796,24897
32344,39809,24828
32340,39836,24748
32392,39868,24618
32412,39885,24614
32396,39885,24575
32380,39828,24518
32352,39830,24494
32404,39773,24467
32444,39757,24428
32500,39753,24414
32504,39808,24439
32532,39833,24420
32588,39862,24343
32532,39884,24327
32498,39839,24294
32492,39861,24322
32452,39831,24377
32440,39805,24113
32431,39783,24084
32472,39758,24110
32548,39799,24177
32624,39832,24211
32662,39860,24005
32724,39862,23909
32744,39868,23973
32788,39847,23942
32800,39828,23917
32845,39788,23892
32872,39776,23946
32920,39772,23768
32952,39797,23753
32980,39825,23788
32980,39845,23718
33004,39868,23748
33039,39860,23788
33064,39845,23776
33088,39815,23568
33113,39791,23561
33109,39757,23649
33120,39751,23585
33152,39780,23591
