ECG,EDA,RR
31356,14872,29943
31448,14889,30044
31472,14908,30000
31473,14858,30010
31532,14872,30070
31608,14914,29953
31674,14854,30156
31752,14868,30087
31796,14881,30148
31893,14832,30066
31934,14840,29988
32080,14850,30008
32086,14886,29955
32080,14860,30204
32124,14887,30088
32288,14917,30027
32310,14855,30025
32552,14863,29918
32590,14873,30087
32740,14841,30024
32744,14857,30189
32768,14871,29999
32826,14853,30292
32976,14858,30215
33088,14870,30140
33148,14877,30092
33108,14868,30008
33217,14897,30295
33408,14843,30252
33400,14853,30157
33378,14862,30382
33268,14899,30264
33240,14860,30056
33312,14873,30395
33292,14915,30305
33274,14862,30215
33220,14877,30414
33152,14880,30188
33184,14836,30340
33088,14866,30233
33016,14891,30436
32940,14853,30295
32840,14887,30341
32892,14912,30252
32804,14854,30365
32760,14869,30348
32668,14873,30241
32564,14900,30359
32472,14833,30359
32364,14832,30416
32288,14852,30214
32414,14877,30360
32409,14844,30249
32276,14849,30222
32152,14870,30373
32116,14904,30260
32220,14861,30400
32164,14863,30225
32181,14829,30351
32148,14828,30420
32132,14846,30340
32040,14870,30176
31964,14833,30432
32156,14865,30332
32208,14885,30250
32084,14841,30391
32064,14844,30245
32048,14845,30137
32105,14910,30452
32016,14831,30351
32092,14832,30286
32120,14877,30373
32136,14821,30415
32144,14849,30352
32076,14858,30329
32192,14888,30215
32088,14825,30556
32088,14833,30426
32112,14847,30312
32176,14858,30628
32132,14808,30528
32132,14836,30565
32204,14855,30581
32232,14825,30592
32256,14855,30645
32296,14857,30498
32332,14829,30777
32340,14822,30682
32324,14823,30614
32352,14851,30862
32470,14807,30777
32325,14831,30573
32276,14877,30896
32377,14821,30783
32272,14857,30628
32248,14852,30964
32320,14886,30772
32460,14826,30929
32472,14848,30942
32472,14799,30864
32508,14812,30884
32460,14831,30852
32484,14877,31111
32548,14821,31054
32508,14834,31124
32472,14857,30990
32540,14885,30951
32656,14809,31076
32608,14831,30880
32636,14839,31239
32676,14803,31191
32712,14807,31263
32688,14825,31201
32730,14868,31119
32740,14822,31367
32804,14849,31258
32833,14884,31204
32823,14812,31207
32828,14828,31332
32862,14831,31423
32752,14879,31377
32772,14805,31317
32865,14829,31381
32948,14887,31484
32832,14823,31598
32796,14823,31532
32841,14845,31607
32916,14867,31508
32944,14819,31584
32952,14838,31732
32944,14796,31647
32952,14809,31596
32984,14825,31656
33016,14867,31631
32964,14905,31716
32968,14820,31793
32960,14829,31717
33052,14863,31807
33037,14799,31831
33081,14814,31903
33012,14853,31717
32952,14800,32060
32944,14833,31874
32936,14843,31992
32882,14880,32083
32940,14907,32047
33028,14815,32101
33048,14814,32108
33104,14818,32201
33044,14847,32124
32992,14797,32111
33057,14795,32095
33108,14833,32293
33292,14877,32237
33064,14815,32221
33008,14845,32320
32968,14853,32495
33006,14894,32437
33088,14799,32391
33072,14814,32624
33016,14793,32414
32985,14818,32596
32956,14795,32388
32928,14825,32710
32960,14871,32716
33017,14812,32672
33000,14814,32647
32964,14829,32824
32964,14859,32740
32972,14789,32780
32962,14815,32925
32992,14853,32796
33052,14798,33078
32972,14833,32999
32928,14871,33028
32840,14810,32917
32808,14826,33143
32862,14860,32989
32860,14788,33153
32849,14789,33216
32968,14821,33157
32912,14816,33113
33188,14861,33388
32960,14819,33250
32920,14857,33296
32928,14815,33348
32892,14832,33301
32912,14829,33524
32916,14789,33292
32860,14782,33471
32832,14800,33404
32876,14832,33613
32876,14799,33532
32776,14831,33426
32840,14840,33700
32972,14807,33559
32976,14821,33578
32968,14850,33671
33056,14791,33397
33021,14797,33764
32956,14789,33715
32924,14799,33728
32957,14831,33761
32904,14806,33700
32828,14843,33785
32872,14828,33681
32933,14867,33856
32940,14797,33900
32916,14789,33815
32950,14796,33899
32940,14835,33892
32844,14787,34055
32852,14816,33957
32997,14841,33972
32856,14831,34109
32784,14807,34000
32870,14804,33951
32924,14821,33916
32928,14804,34055
32920,14801,34216
32940,14847,33973
32912,14888,33932
32900,14792,34117
32904,14825,34135
32921,14832,34150
32924,14858,34140
32946,14885,34099
32984,14791,34188
33120,14783,34292
33040,14802,34242
33005,14849,34254
32992,14783,34264
32904,14805,34269
32884,14861,34281
32860,14806,34228
32994,14800,34277
33001,14808,34329
32880,14820,34252
32876,14815,34477
32996,14845,34324
32980,14772,34100
32999,14804,34479
32944,14819,34300
32876,14877,34419
32770,14820,34219
32764,14865,34495
32896,14796,34311
33036,14795,34311
32920,14795,34596
32792,14813,34462
32772,14845,34376
32704,14805,34620
32796,14813,34404
32888,14877,34520
32856,14805,34616
32804,14820,34531
32802,14837,34604
32828,14785,34535
32813,14809,34733
32788,14825,34588
32876,14776,34668
32804,14797,34593
32832,14833,34796
32852,14797,34628
32808,14828,34725
32825,14798,34736
32812,14804,34766
32853,14804,34639
32865,14821,34813
32856,14833,34856
32832,14776,34701
32856,14797,34865
32876,14849,34793
32820,14795,35006
32768,14816,34800
32860,14855,34920
32825,14793,34958
32760,14813,34840
32804,14792,34769
32826,14836,35068
32864,14775,34969
32820,14811,35052
32784,14804,34897
32728,14837,35063
32685,14797,35220
32684,14825,35137
32752,14821,35077
32836,14853,35028
32812,14774,35168
32808,14784,35264
32796,14789,35160
32828,14807,35156
32805,14866,35288
32748,14793,35276
32672,14803,35380
32704,14819,35264
32720,14812,35223
32728,14836,35276
32692,14770,35288
32728,14785,35062
32784,14811,35448
32716,14777,35236
32768,14802,35073
32724,14805,35454
32728,14840,35445
32840,14791,35463
32816,14806,35332
32772,14820,35469
32736,14853,35580
32829,14768,35524
32764,14787,35368
32716,14806,35535
32720,14832,35529
32740,14844,35646
32776,14794,35429
32756,14802,35256
32748,14806,35672
32726,14821,35597
32752,14835,35532
32848,14775,35546
32808,14767,35566
32940,14777,35582
32660,14792,35447
32640,14819,35589
32764,14850,35673
32734,14843,35814
32692,14864,35687
32700,14786,35772
32744,14791,35675
32772,14776,35463
32692,14797,35728
32671,14775,35775
32696,14781,35804
32660,14816,35631
32692,14852,35806
32762,14790,35804
32748,14785,35780
32788,14775,35756
32784,14778,35677
32760,14784,35774
32804,14785,35695
32820,14792,35799
32756,14797,35822
32817,14819,35872
32812,14855,35842
32772,14855,35959
32800,14786,35941
32832,14778,36038
32808,14775,35937
32852,14783,35969
32940,14793,35889
32904,14796,35834
32876,14832,35771
32852,14786,35877
32812,14800,35646
32872,14807,36124
32925,14821,36020
32892,14828,36118
32832,14767,35988
32778,14775,35694
32816,14808,36125
32724,14859,35703
32752,14778,36117
32641,14796,36036
32646,14839,36061
32624,14790,35890
32588,14785,35757
32608,14801,36158
32636,14812,36036
32756,14757,36127
32668,14785,36037
32604,14790,36111
32574,14808,36045
32544,14821,36153
32540,14844,36048
32540,14788,36101
32540,14780,35964
32504,14795,36007
32552,14788,35968
32488,14788,35972
32460,14780,36020
32556,14781,36119
32504,14791,35711
32488,14800,35889
32484,14811,35904
32496,14823,35909
32517,14828,35911
32512,14852,35932
32508,14855,36028
32528,14762,35940
32484,14781,35918
32540,14794,35858
32544,14826,35817
32485,14784,35768
32508,14809,35860
32534,14833,35880
32600,14777,35812
32580,14778,35857
32512,14773,35797
32461,14785,35833
32588,14776,35765
32556,14793,35768
32476,14817,35717
32228,14853,35724
32400,14786,35684
32420,14786,35641
32036,14788,35516
31885,14786,35624
31796,14832,35649
32032,14771,35551
32213,14784,35509
32804,14767,35389
33576,14775,35292
34540,14795,35382
35652,14802,35414
37156,14843,35353
39132,14848,35140
41128,14770,35452
43192,14781,35396
45428,14797,35335
47464,14777,35335
48800,14796,35352
49888,14835,35308
50584,14865,35322
49908,14897,35269
47664,14778,35311
44892,14787,35210
42392,14819,35297
40188,14820,35060
38064,14766,34785
35920,14764,35144
34448,14793,34900
33740,14812,34781
33418,14828,34863
33076,14849,34740
32592,14780,34958
32161,14779,34857
31916,14793,34789
31732,14781,34780
31484,14794,34796
31212,14820,34868
31096,14813,34741
30964,14764,34823
30744,14774,34708
30613,14777,34661
30532,14783,34581
30512,14789,34292
30440,14803,34661
30152,14754,34501
29981,14774,34212
30028,14770,34556
29824,14800,34405
29816,14762,34285
29832,14775,34384
29768,14802,34364
29768,14805,34260
29808,14824,34262
29749,14767,34285
29756,14764,34276
29792,14777,34095
29856,14801,34236
29866,14756,34173
29918,14768,34037
29944,14796,34121
29985,14795,34220
30012,14807,34068
30008,14809,34040
30087,14772,33888
30164,14758,34010
30212,14759,34056
30268,14781,33956
30253,14786,33692
30232,14772,33949
30272,14784,33756
30296,14801,33884
30416,14825,33787
30456,14775,33895
30484,14798,33872
30581,14761,33746
30620,14786,33796
30640,14759,33645
30604,14788,33784
30566,14807,33572
30575,14780,33688
30588,14795,33597
30620,14822,33490
30646,14776,33604
30692,14783,33320
30752,14811,33543
30928,14755,33396
30940,14781,33449
30872,14799,33318
30900,14769,33433
30932,14807,33376
31012,14834,33265
30948,14784,33122
30964,14789,33157
31013,14822,33301
31032,14765,33105
31024,14783,33095
31064,14799,33101
31088,14762,32908
30992,14775,32751
30916,14797,33095
30900,14833,32981
31001,14855,32844
31040,14781,32904
30988,14787,32884
30912,14788,32796
30936,14809,32768
31005,14759,32828
31024,14783,32678
31009,14773,32815
31066,14808,32724
30985,14837,32740
31048,14786,32620
31016,14798,32683
30988,14795,32664
31020,14804,32399
30920,14761,32583
30900,14773,32652
31097,14787,32594
31034,14820,32453
30996,14787,32640
30892,14811,32438
30936,14807,32378
30896,14820,32480
30896,14780,32409
30988,14771,32357
30988,14765,32193
30892,14774,32044
31048,14796,32356
31040,14813,32212
31028,14849,32032
31040,14792,32169
30936,14805,32133
30908,14805,32000
31060,14834,32169
31128,14769,31985
31160,14784,31788
31088,14824,31951
31033,14788,31894
31082,14812,31885
31164,14791,31728
31204,14815,31889
31234,14832,31732
31322,14798,31751
31396,14795,31656
31480,14799,31534
31492,14804,31380
31532,14831,31700
31636,14783,31559
31677,14804,31304
31704,14825,31596
31776,14805,31368
31840,14801,31432
31880,14808,31549
31848,14807,31385
31973,14834,31260
32172,14828,31269
32244,14838,31225
32292,14785,31130
32392,14793,31031
32532,14822,31280
32580,14825,31188
32664,14843,31068
32804,14797,31046
32860,14799,31101
32940,14807,30969
33016,14777,31094
33129,14796,30994
33144,14805,30885
33148,14855,30820
33144,14799,30910
33089,14831,30861
33217,14828,30705
33156,14849,30596
33060,14790,30860
33108,14789,30716
33104,14796,30623
32904,14795,30549
32816,14836,30660
32788,14790,30717
32697,14818,30591
32568,14827,30472
32560,14831,30512
32496,14819,30529
32398,14814,30540
32312,14785,30382
32284,14796,30446
32282,14804,30312
32226,14828,30332
32152,14783,30179
32152,14802,30422
32058,14804,30325
32036,14836,30206
32044,14781,30375
32048,14776,30252
32040,14784,30129
31988,14788,30143
31920,14782,29969
31852,14801,30238
31744,14777,30081
31860,14781,29899
31824,14805,30224
31892,14839,30076
31884,14779,29856
31776,14788,30013
31840,14804,29987
31792,14812,29804
31746,14759,30074
31760,14765,30021
31772,14767,30053
31692,14799,29989
31820,14810,29956
31884,14852,29901
31876,14778,29734
31760,14765,30076
31736,14767,29966
31836,14762,29860
31788,14783,29844
31796,14804,29855
31828,14759,29942
31972,14789,29996
32136,14808,29887
31924,14773,30039
31972,14778,29999
31924,14777,29897
31940,14795,30016
31961,14748,30025
31992,14751,29905
32028,14771,29928
31984,14773,30016
32016,14820,30101
31952,14771,29871
32164,14773,29824
32160,14778,29965
32180,14760,29990
32216,14741,30023
32224,14761,29946
32280,14777,29943
32256,14745,29998
32276,14767,30017
32285,14800,29967
32228,14825,29855
32260,14772,29914
32416,14769,29952
32512,14772,30004
32508,14777,29892
32488,14789,29703
32452,14742,30037
32397,14748,29921
32480,14763,29966
32456,14780,29896
32396,14797,29780
32452,14821,29785
32632,14757,29737
32628,14756,29932
32608,14742,29868
32737,14743,29921
32777,14766,29846
32696,14779,29717
32596,14748,29760
32580,14769,29581
32656,14784,29898
32724,14812,29800
32712,14753,29695
32756,14772,29713
32960,14764,29540
32936,14789,29701
32764,14734,29504
32672,14748,29817
32672,14766,29699
32692,14772,29735
32756,14805,29614
32764,14858,29476
32740,14757,29721
32764,14767,29653
32664,14796,29624
32672,14733,29575
32660,14762,29496
32848,14772,29540
32788,14744,29573
32676,14783,29574
32756,14788,29511
32562,14830,29351
32648,14757,29589
32749,14760,29510
32808,14775,29484
32876,14791,29508
32832,14735,29405
32770,14765,29452
32744,14776,29348
32708,14842,29327
32772,14757,29259
32804,14788,29536
32738,14774,29436
32728,14742,29337
32648,14736,29384
32640,14745,29186
32716,14788,29412
32716,14732,29348
32768,14763,29179
32852,14780,29433
32740,14816,29345
32656,14756,29377
32688,14768,29245
32752,14779,29173
32833,14790,29136
32816,14729,29146
32840,14737,29189
32780,14741,29120
32764,14757,29302
32808,14786,29214
32769,14806,29245
32752,14758,29143
32812,14753,29031
32864,14741,29036
32870,14829,29084
32852,14730,29122
32808,14729,29135
32912,14748,29084
32780,14751,28980
32672,14767,29029
32704,14791,28900
32764,14824,28900
32685,14747,28981
32701,14750,28909
32820,14783,28869
32852,14728,28932
32728,14755,29023
32673,14760,28905
32668,14766,28918
32640,14779,28870
32720,14800,28891
32821,14793,28644
32852,14794,28908
32860,14791,28641
32864,14812,28652
32869,14720,28655
32768,14722,28623
32784,14749,28540
32800,14767,28584
32840,14756,28588
32844,14781,28661
32806,14791,28572
32784,14743,28532
32762,14741,28533
32852,14733,28533
32926,14751,28421
32868,14750,28646
32900,14802,28478
32936,14734,28375
32952,14759,28472
32836,14769,28348
32792,14829,28624
32760,14739,28533
32764,14756,28385
32826,14755,28374
32836,14722,28484
32844,14743,28541
32988,14771,28445
32904,14818,28330
32768,14748,28440
32748,14759,28233
32812,14771,28521
32824,14805,28429
32804,14734,28305
32792,14735,28391
32732,14749,28343
32680,14740,28366
32732,14773,28247
32904,14783,28343
32917,14798,28287
32896,14743,28324
32833,14745,28330
32852,14766,28309
32896,14757,28178
32872,14761,28194
32904,14765,28095
32700,14791,28362
32680,14725,28268
33044,14757,28132
32912,14757,28164
32824,14770,28137
32804,14780,28133
32878,14780,28230
33002,14788,28225
32968,14727,28150
32928,14719,28214
32884,14727,28174
32812,14749,28125
32836,14796,28038
32837,14737,28287
32868,14756,28222
32832,14791,28108
32853,14741,28079
32968,14726,28077
32944,14726,28205
33032,14745,28088
32992,14734,28164
32888,14769,27996
32808,14727,28252
32864,14755,28141
32996,14763,28008
32868,14801,28270
32917,14737,28211
32981,14734,28161
32964,14743,28182
32956,14728,28229
32920,14740,28210
32892,14767,28291
32896,14732,28213
32888,14735,28089
32877,14742,28090
32952,14759,28004
32968,14750,28268
32848,14749,28045
32840,14753,28293
32868,14760,28220
32868,14778,28100
32996,14721,28156
32944,14757,28220
32872,14752,28308
32840,14764,28225
32888,14788,28320
32836,14737,28232
32929,14726,28308
32940,14719,28032
32896,14713,28119
32904,14721,28180
32904,14741,28250
32880,14748,28191
32916,14785,28245
32756,14746,28138
32788,14746,28204
32748,14756,28156
32852,14754,28285
33056,14735,28327
33084,14746,28322
33077,14764,28270
32984,14799,28213
32960,14729,28316
32916,14732,28310
32996,14749,28373
32880,14756,28397
32921,14759,28198
33040,14771,28321
33040,14765,28345
33025,14768,28417
32965,14772,28399
32924,14817,28276
32860,14730,28375
32868,14737,28359
32908,14746,28483
33036,14761,28496
32996,14748,28293
32960,14751,28389
32789,14749,28449
32760,14759,28540
33028,14764,28575
33196,14721,28431
33074,14725,28557
32812,14733,28665
32782,14741,28435
32932,14767,28673
33020,14764,28430
32937,14748,28548
32902,14761,28484
32840,14789,28556
32832,14780,28584
32820,14719,28612
32916,14745,28601
33052,14755,28717
33109,14777,28727
33096,14773,28801
32992,14773,28688
33049,14773,28729
33160,14779,28865
33140,14795,28908
33058,14706,28913
33128,14727,28972
32984,14752,28969
32705,14759,28980
33012,14784,29001
33120,14796,28989
33016,14783,29074
32928,14790,29096
32980,14721,29124
33068,14710,29116
33152,14712,29179
33212,14719,29152
33172,14727,29133
33224,14746,29280
33236,14759,29439
33328,14789,29361
33470,14732,29220
33412,14732,29430
33392,14738,29552
33228,14766,29572
33120,14711,29415
33236,14726,29719
33160,14753,29557
33180,14745,29870
33253,14757,29845
33252,14754,29887
33136,14748,29814
33173,14741,29910
33168,14762,29986
33184,14768,30143
33404,14786,30142
33294,14716,30276
33285,14724,30277
33318,14734,30333
33360,14741,30448
33381,14751,30574
33340,14746,30583
33332,14750,30700
33288,14773,30758
33320,14713,30876
33325,14713,30929
33316,14721,31023
33244,14748,31104
33188,14757,31172
33188,14780,31184
33284,14801,31303
33420,14823,31264
33369,14726,31636
33237,14740,31636
33296,14743,31597
33444,14709,31874
33408,14716,31856
33328,14734,31820
33292,14745,31889
33200,14759,31831
33249,14795,32256
33352,14803,32228
33472,14727,32364
33548,14711,32359
33485,14713,32532
33476,14728,32516
33598,14797,32530
33668,14721,32609
33360,14750,32620
33068,14755,32676
32942,14754,32772
33116,14758,32844
33240,14786,33029
32957,14715,33023
32748,14724,33194
32989,14726,33284
33300,14774,33260
33902,14717,33543
34837,14762,33527
35768,14775,33516
36940,14738,33729
38564,14732,33768
40497,14727,33960
42304,14754,33904
44128,14731,33932
46252,14762,34124
48156,14800,34208
49400,14724,34397
50424,14732,34389
50968,14741,34540
50064,14773,34497
47596,14743,34630
44872,14729,34725
42492,14727,34881
40261,14727,34884
37996,14748,34904
35896,14754,34921
34568,14774,34952
34080,14734,35335
33916,14737,35272
33728,14735,35310
33312,14732,35352
32880,14737,35301
32612,14754,35641
32464,14780,35377
32320,14703,35840
32124,14705,35536
31936,14743,36048
31658,14748,35999
31460,14783,35828
31368,14727,36276
31324,14735,36207
31178,14754,36052
31056,14711,36509
30873,14714,36456
30640,14721,36556
30557,14725,36424
30436,14744,36640
30332,14796,36737
30300,14732,36652
30300,14735,36743
30380,14758,36892
30400,14750,36929
30340,14714,36940
30212,14733,37132
30180,14742,37055
30404,14715,36908
30461,14727,37311
30452,14757,37136
30501,14786,36912
30540,14738,37404
30600,14741,37304
30668,14749,37321
30710,14730,37346
30830,14749,37410
30868,14764,37375
30752,14721,37585
30688,14740,37557
30808,14784,37732
30828,14746,37668
30829,14772,37773
30888,14737,37871
30864,14737,37767
30908,14731,37849
30900,14733,37816
31188,14758,38019
31068,14716,38125
31173,14725,37980
31193,14757,38149
31173,14767,38296
31116,14803,38224
31164,14737,38244
31204,14728,38252
31152,14719,38260
31248,14721,38364
31264,14729,38464
31376,14747,38644
31452,14788,38544
31372,14732,38556
31496,14759,38583
31508,14763,38708
31469,14789,38692
31408,14727,38892
31352,14729,38828
31340,14729,38637
31320,14751,39039
31304,14774,38976
31416,14727,38991
31428,14758,39232
31392,14788,39100
31520,14738,39113
31648,14740,39411
31577,14751,39300
31512,14756,39367
31552,14784,39328
31536,14716,39385
31592,14745,39573
31648,14752,39237
31624,14820,39853
31561,14749,39731
31525,14765,39865
31588,14760,39873
31588,14788,39884
31622,14725,39995
31732,14743,40100
31648,14740,40197
31646,14777,40141
31528,14737,40288
31544,14753,40300
31512,14784,40372
31424,14796,40020
31352,14743,40673
31284,14738,40597
31245,14735,40791
31288,14749,40725
31212,14737,40915
31280,14760,40841
31400,14784,41044
31448,14793,40549
31396,14812,40900
31404,14749,40764
31412,14748,41220
31492,14747,40849
31596,14740,41245
31576,14758,41124
31572,14765,41477
31448,14784,41036
31589,14739,41758
31652,14751,41665
31516,14765,41896
31656,14767,41351
31892,14774,41829
31880,14772,41990
31852,14749,42065
31816,14759,42148
31924,14756,42265
32180,14766,42468
32108,14796,42456
32140,14754,42471
32208,14773,42500
32204,14787,42284
32268,14801,42841
32280,14753,42916
32492,14756,42953
32670,14757,43060
32688,14793,42965
32712,14743,43269
32793,14756,43452
32836,14774,43557
32896,14822,43620
33036,14767,43724
33176,14761,43789
33224,14775,43940
33238,14774,43949
33332,14833,44020
33508,14746,44265
33448,14761,44368
33412,14788,44550
33352,14806,44617
33385,14765,44764
33488,14764,44728
33461,14785,44940
33412,14778,45063
33436,14765,45209
33204,14772,45212
33268,14795,45319
33272,14737,45223
33260,14772,45654
33032,14776,45799
33032,14829,45831
32916,14756,45964
32824,14782,45988
32740,14777,46188
32712,14795,46208
32532,14732,46352
32384,14742,46183
32416,14766,46625
32444,14765,46508
32448,14807,46792
32448,14754,46908
32364,14775,47054
32308,14802,47154
32324,14839,47239
32230,14734,47320
32256,14753,47392
32188,14757,47492
32124,14783,47559
32248,14790,47285
32336,14828,47615
32260,14748,47489
32244,14751,47726
32132,14756,47495
32156,14796,47974
32124,14734,48040
32097,14730,48030
32008,14761,48135
31944,14718,48129
32148,14734,48224
32136,14764,48196
32126,14765,48384
32094,14796,48480
32180,14737,48576
32173,14749,48668
32184,14749,48672
32244,14789,48703
32268,14710,48631
32192,14720,48897
32284,14732,48871
32286,14757,49000
32364,14792,49095
32388,14737,49212
32388,14727,49252
32482,14745,49328
32448,14741,49268
32336,14727,49392
32296,14738,49149
32413,14769,49631
32232,14814,49183
32165,14730,49671
32228,14734,49624
32312,14732,49780
32420,14725,49832
32388,14721,49967
32428,14728,50031
32448,14723,50030
32412,14721,50076
32645,14723,50036
32676,14735,50132
32710,14759,50111
32636,14775,50172
32532,14732,50159
32448,14727,50269
32560,14725,49798
32736,14736,50183
32828,14727,50079
32864,14744,50183
32800,14757,50220
32792,14778,50277
32852,14768,50333
32864,14751,50205
32924,14757,50365
32988,14756,50360
32972,14748,50092
33028,14742,50344
33008,14725,50405
32972,14727,50028
33028,14733,50353
33046,14748,50383
33048,14777,50471
33064,14776,50487
33052,14783,50492
33020,14787,50470
33100,14772,50468
33053,14796,50604
33016,14703,50567
33013,14697,50532
33074,14783,50694
33092,14767,50725
33032,14721,50740
33016,14724,50789
33009,14744,50844
33036,14735,50860
33088,14736,50796
33012,14719,50900
33040,14715,50556
33037,14717,50951
32988,14725,51025
32952,14750,51078
33060,14785,51045
33000,14820,51020
33184,14784,51155
33116,14790,51168
32961,14719,51181
33036,14788,51228
33340,14752,51375
33292,14756,51404
33230,14756,51052
33125,14761,51365
32968,14775,51060
33041,14776,51477
33236,14727,51471
33188,14722,51591
33136,14711,51648
33088,14703,51668
33057,14693,51737
33052,14709,51772
33032,14706,51804
33068,14708,51776
33008,14715,51772
33040,14719,51572
32936,14730,51887
33016,14747,51867
33157,14727,51868
33152,14726,51860
33068,14733,51948
33024,14784,51752
33017,14706,52027
33000,14709,52007
32996,14725,52006
33056,14735,52036
33024,14741,52064
33022,14761,51655
32956,14764,52117
33004,14778,52132
33068,14695,52125
32960,14699,51871
32800,14712,52103
32862,14732,52060
32893,14758,52100
32728,14717,52154
32856,14719,52176
32869,14727,52166
32942,14736,52215
33013,14725,52193
32988,14726,52120
32860,14772,52044
32784,14701,51608
32832,14733,52100
33004,14727,52076
32824,14741,52040
32644,14735,51512
32916,14741,51922
33133,14720,51861
33216,14713,51847
33120,14705,51839
32976,14711,51760
33012,14709,51664
32966,14733,51612
32884,14740,51636
32948,14723,51657
32932,14724,51544
32984,14732,51564
33006,14727,51461
32961,14728,51367
32896,14703,51357
32932,14695,51389
32961,14701,51348
33004,14713,51245
32880,14717,51220
32752,14721,51068
32844,14733,51125
32708,14727,51079
32824,14705,51129
32769,14692,51049
32652,14772,50977
32784,14749,51032
32724,14767,50961
32880,14700,50980
32980,14703,50969
32872,14714,50924
32878,14726,50894
32752,14725,50893
33028,14724,50854
33068,14712,50439
32897,14711,50732
32762,14716,50748
32820,14713,50796
32856,14735,50814
33072,14767,50772
33068,14801,50823
32852,14804,50333
32840,14716,50764
32848,14781,50816
32884,14754,50940
32976,14719,50948
32969,14711,50823
32960,14715,50948
32868,14721,51073
32904,14725,51160
32976,14733,51158
33016,14735,51084
32988,14753,51248
32836,14740,51261
32720,14728,51357
32912,14736,51445
33008,14746,51588
33012,14749,51629
32970,14767,51719
32940,14768,51764
32992,14766,51733
32996,14756,51783
33020,14756,51652
33064,14749,51913
33032,14751,51929
33056,14761,52001
33004,14689,51909
32986,14692,52068
33016,14703,51975
33060,14710,52204
33009,14712,52160
33012,14738,52225
32972,14729,52295
32968,14739,52408
32972,14758,52434
32968,14692,52439
32918,14690,52372
32908,14697,52372
32928,14724,52440
32985,14720,52473
32876,14727,52613
32908,14734,52525
32992,14735,52644
32913,14737,52564
32877,14757,52700
32812,14692,52708
32768,14689,52753
32492,14703,52742
32876,14722,52800
32801,14719,52792
32864,14730,52825
32718,14744,52839
32750,14761,52725
32788,14700,52844
32860,14712,52871
32813,14708,52867
32728,14728,52804
32832,14690,52404
32694,14693,52880
32728,14706,52852
32772,14738,52871
32792,14724,52897
32848,14724,52881
32808,14725,52860
32792,14716,52869
32790,14737,52800
32732,14741,52799
32720,14688,52758
32788,14690,52696
32782,14709,52572
32680,14734,52761
32580,14735,52743
32592,14763,52776
32640,14697,52772
32812,14693,52770
32764,14698,52727
32728,14711,52569
32716,14719,52630
32656,14740,52359
32644,14743,52574
32654,14709,52644
32724,14723,52455
32704,14750,52663
32748,14701,52623
32720,14696,52580
32702,14684,52608
32788,14678,52604
32768,14688,52524
32696,14691,52535
32700,14695,52436
32592,14709,52478
32450,14710,52405
32804,14733,52460
32632,14715,52340
32596,14732,52440
32616,14741,52340
32674,14687,52376
32788,14684,52337
32680,14692,52340
32592,14704,52228
32488,14728,52317
32388,14757,52300
32492,14705,52255
32596,14695,52231
32564,14716,52133
32468,14713,52247
32588,14681,52231
32644,14692,52216
32660,14712,52220
32680,14773,52171
32676,14709,52168
32789,14726,52153
32688,14720,52218
32636,14727,52135
32528,14730,52151
32701,14732,52068
32697,14730,52092
32600,14741,51927
32604,14741,52124
32724,14753,52160
32864,14756,52176
32833,14748,52174
32812,14743,51656
33088,14744,52143
33056,14755,51608
32993,14681,52108
32752,14681,51975
32872,14693,52013
32944,14719,51820
32869,14722,52085
32960,14730,51996
32960,14747,52087
33021,14749,52060
33068,14733,52008
33044,14729,51757
32892,14735,51908
32836,14731,51876
32804,14732,51967
32768,14726,51935
32788,14725,51892
32760,14726,51887
32768,14737,51757
32822,14741,51773
32764,14724,51708
32744,14710,51753
32726,14692,51632
32784,14690,51421
32832,14697,51551
32720,14703,51496
32704,14708,51560
32688,14717,51463
32673,14729,51511
32728,14721,51456
32752,14718,51300
32808,14692,51253
32830,14680,51207
32801,14683,51165
32693,14674,51164
32704,14755,50772
32644,14750,51008
32640,14741,50957
32660,14735,50924
32654,14718,50795
32692,14715,50694
32776,14703,50743
32712,14700,50669
32636,14701,50567
32620,14695,50304
32622,14703,50428
32652,14735,50359
32652,14757,50384
32628,14792,50311
32688,14694,50181
32698,14693,50156
32688,14735,49944
32772,14727,49919
32728,14697,49891
32645,14703,49796
32556,14718,49706
32472,14717,49596
32328,14727,49149
32236,14716,49287
31996,14720,48903
31956,14735,49082
31805,14746,48825
31960,14676,48868
32384,14678,48364
33048,14702,48716
33904,14701,48596
34880,14737,48352
36188,14768,48248
38104,14702,48160
40376,14733,48032
42560,14708,47940
44948,14713,47748
47304,14733,47628
49196,14760,47383
50544,14666,47333
51716,14683,47180
52148,14734,47111
50880,14732,46945
48232,14756,46689
45368,14764,46623
43024,14758,46461
40740,14755,46357
38053,14749,46188
35720,14724,46142
34350,14724,45959
33716,14756,45865
33284,14693,45607
32864,14698,45516
32452,14725,45063
32080,14708,45231
31900,14708,45133
31640,14718,44900
31318,14722,44844
31036,14689,44551
30736,14674,44509
30644,14680,44324
30436,14681,44251
30164,14695,44096
30012,14701,43932
29936,14712,43486
29748,14699,43594
29664,14700,43480
29518,14694,43345
29469,14702,43180
29468,14720,43084
29385,14687,42817
29421,14692,42626
29368,14701,42532
29316,14702,42478
29304,14708,42196
29374,14706,42055
29433,14709,41935
29480,14711,41775
29624,14725,41508
29528,14732,41354
29565,14689,41289
29580,14699,40932
29673,14727,41264
29744,14717,40989
29725,14737,40937
29700,14744,40601
29772,14687,40362
29980,14706,40620
29861,14701,40332
29856,14740,39943
30022,14690,40240
30044,14714,39991
30092,14717,39828
30024,14729,39798
29990,14748,39687
30040,14696,39673
30100,14692,39427
30276,14702,39204
30332,14693,39300
30289,14716,39145
30292,14753,39088
30364,14769,38919
30414,14705,38791
30420,14715,38581
30428,14721,38626
30452,14738,38324
30544,14697,38350
30567,14703,38384
30600,14709,38212
30509,14730,38135
30496,14766,37993
30504,14707,38001
30564,14715,37801
30624,14709,37734
30436,14716,37565
30568,14710,37445
30602,14707,37382
30612,14704,37284
30636,14705,37077
30560,14724,36897
30504,14741,36967
30454,14704,36647
30412,14713,36944
30488,14717,36853
30420,14727,36804
30436,14728,36672
30460,14724,36564
30545,14701,36470
30464,14714,36391
30424,14705,36390
30438,14724,36382
30524,14730,36338
30420,14725,36330
30384,14727,36227
30352,14735,36264
30380,14754,36120
30404,14749,36158
30437,14758,36012
30384,14689,36037
30333,14713,35832
30310,14721,35728
30312,14757,35901
30332,14716,35581
30344,14730,35380
30320,14731,35684
30368,14753,35434
30472,14700,35471
30456,14697,35495
30458,14704,35361
30340,14717,35369
30320,14725,35172
30316,14743,35044
30360,14774,35182
30272,14790,34780
30210,14721,35053
30376,14719,34892
30536,14705,34879
30528,14703,34728
30448,14704,34663
30304,14723,34618
30368,14725,34485
30524,14732,34449
30596,14749,34455
30588,14753,34530
30636,14774,34368
30708,14775,34332
30789,14716,34166
30828,14711,34120
30876,14708,34147
30876,14713,34113
30938,14720,33962
30972,14748,33997
31064,14757,34071
31328,14754,33894
31212,14751,33775
31308,14756,33729
31376,14772,33623
31408,14714,33696
31381,14708,33785
31476,14717,33644
31538,14737,33695
31561,14738,33292
31592,14757,33512
31804,14764,33189
31909,14751,33305
32076,14735,33325
32108,14735,33335
32100,14724,33380
32208,14732,33260
32308,14732,33159
32284,14743,33188
32256,14759,33224
32280,14751,33090
32240,14756,33140
32236,14761,33016
32188,14774,32996
32188,14790,32924
32080,14719,32932
32040,14724,32773
32000,14729,32684
31800,14742,32727
31866,14741,32757
31732,14743,32659
31680,14754,32533
31709,14748,32506
31592,14735,32408
31484,14747,32303
31432,14732,32372
31360,14738,32367
31266,14737,32400
31172,14732,32302
31140,14751,32161
31165,14812,32176
31004,14729,32033
30956,14733,32213
30908,14732,31868
30948,14713,31958
30932,14705,31903
30848,14718,32049
30828,14726,31949
30800,14736,31996
30712,14735,31860
30708,14752,31870
30700,14770,31797
30692,14783,31844
30720,14717,31628
30648,14710,31578
30644,14711,31580
30746,14716,31504
30712,14723,31433
30685,14716,31288
30644,14727,31629
30652,14737,31498
30666,14736,31364
30684,14731,31284
30704,14737,31164
30661,14736,31495
30656,14738,31389
30724,14753,31257
30640,14753,31265
30756,14700,31348
30724,14714,31220
30701,14745,31224
30704,14742,31045
30712,14728,31332
30616,14727,31292
30648,14732,31229
30684,14743,31116
30600,14706,31005
30566,14702,31213
30624,14720,31177
30660,14722,31056
30820,14764,31190
30732,14772,31088
30692,14793,31187
30804,14709,31140
30804,14697,31165
30840,14693,30990
30712,14705,31105
30708,14730,30996
30772,14749,30943
30980,14710,31077
30984,14736,30960
30937,14751,31172
30920,14762,31065
30876,14711,31012
30888,14696,31051
30860,14708,30953
31084,14707,30928
30844,14710,30951
30753,14727,31047
30816,14750,31062
30928,14772,31117
30868,14776,31074
30932,14709,31092
30952,14720,30964
31008,14722,30988
31005,14710,31077
31053,14716,30899
31048,14735,31156
31072,14701,31064
31032,14719,30858
31020,14735,31228
31040,14730,31089
31140,14762,30876
31224,14762,31173
31264,14702,31135
31268,14688,31037
31293,14692,31040
31288,14701,31130
31228,14719,31140
31232,14724,31085
31256,14727,30909
31184,14730,31064
31140,14737,31011
31121,14716,31081
31193,14700,31207
31244,14743,30953
31236,14757,30942
31177,14688,30924
31100,14698,31068
31084,14708,30860
31120,14712,31172
31244,14718,31075
31304,14736,30897
31200,14726,31157
31152,14700,30983
31090,14695,30796
31020,14706,30961
31013,14727,30949
31116,14751,30986
31148,14703,31012
31164,14722,30945
31116,14737,30829
31100,14713,30820
31060,14712,30764
30954,14723,30637
30928,14711,30936
31144,14692,30697
31184,14716,30769
31161,14718,30610
31176,14750,30756
31228,14713,30671
31220,14742,30519
31128,14708,30692
31144,14727,30505
31272,14729,30507
31412,14692,30372
31184,14703,30488
31064,14749,30364
31156,14704,30231
31145,14724,30309
31034,14768,30148
31032,14712,30311
31156,14710,30181
31180,14727,30038
31120,14713,30045
31092,14710,30058
31149,14714,29967
31108,14720,29816
31125,14735,29912
31204,14756,29958
31104,14713,29812
31076,14722,29567
31048,14730,29720
31057,14727,29668
31140,14725,29629
31092,14743,29530
31119,14689,29367
31129,14693,29357
31137,14704,29250
31246,14724,29460
31177,14757,29328
31133,14716,29153
31200,14727,29218
31245,14720,28969
31152,14724,29239
31169,14744,29102
31121,14691,28935
31156,14706,28897
31228,14727,28852
31276,14727,28924
31192,14741,28793
31120,14765,28750
31160,14717,28622
31172,14722,28888
31076,14751,28780
31072,14694,28678
31072,14718,28716
31084,14716,28609
31116,14705,28609
31132,14732,28463
31096,14762,28693
31228,14719,28487
31188,14732,28596
31100,14795,28452
31108,14724,28597
31161,14735,28551
31232,14767,28549
31200,14695,28491
31245,14727,28405
31252,14743,28407
31280,14721,28271
31328,14730,28316
31260,14738,28348
31176,14756,28421
31332,14784,28309
31176,14700,28357
31224,14716,28242
31268,14712,28145
31064,14737,27953
31066,14754,27996
31156,14758,27998
31284,14772,28052
31324,14715,28007
31368,14715,27970
31304,14724,27993
31176,14719,27664
31284,14716,27692
31288,14729,27743
31164,14779,27720
31084,14710,27681
31032,14746,27593
31100,14754,27434
31212,14764,27413
31204,14748,27405
31168,14737,27385
31188,14740,27334
31320,14742,27084
31290,14775,27197
31252,14712,26948
31224,14717,27041
31200,14728,26845
31116,14726,26825
31085,14725,26724
31116,14722,26767
31156,14722,26592
31212,14730,26652
31220,14725,26477
31141,14727,26440
31212,14744,26327
31160,14774,26402
31073,14728,26215
31076,14753,26292
31236,14745,26080
31204,14769,26205
31152,14715,26119
31192,14757,26106
31232,14775,26009
31225,14714,26016
31232,14714,25893
31256,14724,25797
31248,14738,25636
31264,14741,25728
31298,14751,25548
31353,14743,25661
31342,14731,25639
31332,14732,25403
31360,14735,25495
31300,14748,25436
31364,14760,25413
31336,14785,25255
31292,14799,25165
31368,14791,25297
31232,14809,25273
31116,14796,25199
31232,14798,25096
31444,14709,24967
31608,14714,24972
31500,14732,24882
31288,14734,24970
31252,14755,24786
31440,14751,24956
31448,14756,24764
31461,14752,24792
31553,14757,24648
31553,14750,24768
31548,14749,24606
31524,14771,24753
31456,14717,24681
31572,14731,24492
31728,14751,24513
31660,14761,24465
31688,14758,24476
31664,14782,24576
31802,14790,24476
31749,14782,24527
31688,14719,24327
31832,14720,24470
31944,14724,24286
32041,14746,24378
31965,14743,24300
31784,14774,24460
31744,14793,24382
31860,14746,24316
31880,14743,24240
31840,14756,24226
31908,14761,24269
31844,14770,24309
31948,14789,24182
32010,14730,24213
31956,14759,24173
31964,14772,24228
32060,14798,24197
31813,14825,24404
31732,14750,24256
32240,14764,24255
32444,14787,24456
32216,14728,24441
32214,14748,24293
32164,14774,24374
32308,14773,24377
32428,14793,24548
32328,14799,24445
32204,14813,24592
32226,14742,24612
32380,14769,24684
32476,14759,24735
32484,14751,24756
32536,14767,25007
32600,14756,24954
32672,14777,25183
32664,14779,25127
32704,14773,25357
32748,14770,25428
32788,14780,25633
32856,14790,25757
32796,14736,25882
32805,14737,25885
32817,14769,26137
32786,14764,26199
32728,14799,26399
32901,14820,26424
32924,14762,26722
32932,14775,26857
33016,14775,27032
33132,14785,27052
33196,14798,27356
33236,14813,27460
33160,14751,27541
33168,14765,27676
33232,14775,27689
33276,14811,28123
33340,14771,28087
33384,14767,28148
33376,14762,28354
33300,14753,28407
33276,14766,28764
33376,14767,28748
33476,14778,28912
33316,14768,28980
33282,14809,29364
33316,14772,29373
33364,14773,29369
33368,14801,29670
33368,14792,29745
33404,14817,29747
33424,14765,30056
33408,14795,29948
33360,14756,30203
33372,14784,30215
33388,14796,30313
33441,14831,30285
33460,14783,30580
33472,14798,30743
33436,14803,30743
33648,14819,30949
33573,14761,31032
33668,14770,31204
33568,14777,31229
33552,14803,31220
33509,14777,31512
33628,14788,31505
33716,14797,31508
33704,14847,31697
33728,14784,31799
33836,14787,31985
33868,14820,31952
33844,14764,31964
33876,14802,32200
33944,14804,32247
33960,14843,32417
33934,14795,32413
33928,14828,32375
33988,14841,32612
34100,14789,32663
33924,14799,32644
33948,14834,32893
33924,14779,32903
33856,14799,32741
33824,14852,33103
33778,14796,32951
33700,14832,33175
33588,14802,33001
33616,14820,33258
33596,14838,33205
33924,14794,33425
34284,14811,33378
35068,14828,33490
35924,14791,33570
36920,14818,33564
38096,14862,33759
39838,14916,33727
41796,14810,33757
43692,14836,33674
45725,14849,33700
47792,14826,33740
49472,14860,33765
50484,14909,34038
51468,14799,34018
51616,14822,33956
49924,14864,33941
47200,14882,34100
44701,14959,34168
42396,14834,34048
40424,14861,33908
38096,14849,34254
36488,14851,34234
35860,14863,34205
35696,14811,34375
35568,14812,34089
35464,14822,34351
35112,14837,34452
34852,14846,34464
34596,14888,34639
34424,14817,34566
34372,14843,34360
34332,14821,34671
34208,14849,34404
34088,14815,34846
34036,14831,34740
33831,14870,34839
33786,14834,34805
33704,14855,34870
33604,14912,34980
33476,14843,34957
33340,14847,34913
33264,14825,35084
33248,14821,35227
33274,14841,35094
33252,14883,35215
33264,14847,35029
33365,14879,35335
33396,14915,35278
33472,14850,35188
33536,14856,35505
33612,14865,35425
33756,14885,35365
33808,14831,35605
33860,14845,35438
33909,14860,35279
33980,14916,35684
34040,14862,35596
34074,14869,35514
34144,14878,35719
34268,14905,35636
34340,14854,35463
34369,14879,35728
34448,14860,35473
34592,14869,35686
34532,14908,35684
34652,14868,35997
34688,14884,35889
34680,14900,35879
34804,14918,35872
34857,14871,35645
34940,14889,36017
34972,14892,35996
35020,14915,35968
35096,14945,35927
35196,14873,35847
35264,14900,35936
35246,14911,35669
35268,14946,36026
35308,14955,35945
35380,14890,35969
35408,14887,35789
35424,14905,35725
35424,14897,35620
35448,14920,35432
35524,14960,35755
35604,14895,35616
35596,14915,35648
35612,14927,35472
35652,14939,35489
35688,14931,35292
35660,14952,35108
35712,14894,35108
35756,14895,35040
35752,14924,35021
35740,14935,34891
35888,14990,34872
35896,14919,34716
35788,14922,34684
35840,14932,34512
35908,14935,34439
35847,14930,34337
35832,14935,34269
35956,14956,34133
36000,14914,34048
35884,14920,33908
35780,14932,33889
36044,14945,33725
35965,14975,33633
35936,14975,33376
35878,14989,33133
35948,14929,33396
36060,14941,33149
36136,14945,33092
36108,14993,32877
36080,15001,32783
36124,15053,32868
36152,14962,32687
36148,14964,32644
36100,14968,32439
36068,14984,32284
36208,14982,32262
36184,14978,32204
36216,14966,32080
36280,14967,31878
36276,15015,31966
36244,15034,31777
36288,14978,31588
36324,14973,31434
36316,14980,31230
36380,15060,31346
36404,14972,31204
36396,14989,31185
36428,14985,31108
36474,14976,31029
36520,14988,30804
36544,15020,30653
36664,15017,30848
36708,15060,30692
36672,15097,30509
36672,15005,30505
36756,15036,30357
36817,14991,30335
36888,15008,30169
37020,15024,30154
37076,15033,30132
37056,15030,30061
37133,15044,30039
37268,15065,29906
37408,15026,29919
37396,15024,29768
37464,15052,29729
37576,15040,29400
37705,15073,29524
37732,15018,29271
37752,15024,29499
38052,15046,29350
38056,15054,29244
38096,15063,29082
38288,15076,29029
38396,15072,28986
38428,15113,28909
38516,15030,28773
38512,15029,29026
38436,15074,28880
38464,15065,28756
38464,15114,28713
38457,15173,28588
38446,15196,28565
38408,15066,28503
38412,15058,28524
38356,15054,28384
38304,15058,28348
38236,15077,28217
38152,15105,28452
38112,15183,28341
38004,15065,28252
37912,15079,28265
37824,15077,28280
37744,15079,28156
37802,15080,28207
37608,15088,28084
37532,15092,28029
37536,15121,28009
37456,15158,27842
37304,15070,27809
37176,15081,27780
37116,15088,27873
37016,15090,27850
37064,15089,27663
37084,15084,27725
37054,15078,27780
36992,15073,27756
37084,15077,27796
37140,15099,27524
37160,15101,27678
36992,15119,27474
36956,15133,27572
36904,15132,27476
36828,15165,27669
36833,15140,27430
36956,15143,27456
36908,15145,27356
36920,15149,27408
36953,15188,27390
36972,15196,27461
36996,15110,27387
37120,15114,27499
37268,15120,27373
37446,15139,27428
37452,15133,27366
37408,15143,27573
37312,15171,27540
37088,15098,27619
37032,15108,27554
37072,15137,27629
37032,15146,27582
37024,15201,27672
37004,15137,27634
36984,15158,27635
37012,15154,27679
36960,15166,27696
36972,15179,27705
36926,15176,27673
36884,15184,27782
36844,15194,27861
36792,15221,27836
36772,15147,27725
36720,15163,27818
36760,15185,27900
36820,15167,28020
36876,15188,27969
36580,15177,27968
36576,15175,28020
36660,15213,27885
36680,15229,28133
36765,15212,28027
36596,15200,28108
36452,15196,28089
36480,15199,28252
36552,15199,28182
36636,15205,28244
36532,15215,28167
36384,15222,28388
36360,15265,28271
36568,15175,28469
36684,15200,28340
36592,15209,28505
36540,15212,28508
36576,15253,28733
36448,15189,28716
36360,15207,28648
36352,15201,28717
36309,15223,28749
36264,15253,28887
36244,15197,28848
36172,15205,28961
36120,15226,28948
36120,15249,29092
36104,15236,29111
36100,15253,29188
36076,15282,29164
36056,15200,29292
36016,15209,29254
36004,15216,29383
35928,15221,29364
35788,15230,29510
35820,15251,29636
35969,15259,29399
36044,15259,29648
35824,15251,29575
35788,15243,29711
35764,15244,29780
35708,15286,29841
35652,15228,29785
35688,15236,29831
35665,15260,29776
35592,15276,30158
35640,15290,30132
35668,15341,30189
35632,15255,30193
35588,15263,30168
35564,15265,30207
35581,15269,30275
35564,15265,30409
35492,15309,30260
35468,15279,30564
35580,15301,30584
35652,15349,30536
35500,15281,30761
35441,15295,30756
35372,15332,30594
35260,15268,30948
35325,15273,30919
35322,15303,30892
35272,15284,31004
35208,15304,31076
35160,15331,31057
35092,15303,31044
35024,15326,31228
34937,15317,31329
34894,15330,31329
34884,15321,31460
34860,15332,31444
34800,15357,31551
34768,15364,31269
34808,15389,31432
34776,15324,31380
34645,15326,31594
34596,15331,31636
34532,15324,31648
34464,15326,31727
34384,15329,31845
34376,15317,31910
34464,15317,31963
34678,15329,32077
34436,15338,31829
34332,15351,32207
34336,15363,32159
34396,15352,32182
34304,15342,32044
34180,15343,32135
34164,15367,32098
34180,15361,32422
34125,15392,32409
34064,15430,32537
34084,15360,32490
34044,15392,32632
34012,15402,32556
33992,15443,32517
33956,15367,32597
33944,15397,32703
33840,15374,32836
33785,15398,32784
33716,15373,32737
33696,15375,32821
33624,15391,32789
33625,15399,32892
33628,15411,32877
33653,15416,32891
33640,15418,32975
33592,15406,33117
33572,15423,33124
33585,15442,33125
33592,15430,33300
33468,15414,32988
33516,15428,33280
33469,15440,33220
33318,15443,33225
33240,15444,33328
33276,15441,33404
33416,15447,33467
33400,15423,33540
33308,15419,33430
33200,15420,33524
33136,15425,33629
33068,15431,33774
33104,15443,33423
33140,15505,33701
33134,15485,33604
33204,15461,33666
33166,15461,33724
33040,15477,33980
33144,15475,33926
33196,15479,33932
33020,15455,34077
33008,15458,34023
33032,15470,33988
33124,15472,34080
33133,15476,34066
33132,15491,34211
33192,15512,34206
33216,15458,34262
33156,15478,34210
33160,15507,34140
33212,15475,34430
33224,15483,34370
33148,15495,34303
33095,15496,34444
33096,15548,34504
33068,15551,34611
33100,15491,34589
33076,15490,34669
33068,15493,34645
32960,15516,34796
33036,15514,34437
32952,15532,34877
32844,15569,34805
32816,15524,34900
32852,15519,34872
32925,15518,34997
32856,15516,34964
32788,15510,35021
32764,15509,34732
32788,15525,35156
32789,15549,35080
32752,15547,35082
32748,15556,35125
32588,15582,35129
32545,15596,35153
32608,15591,35180
32596,15556,35154
32560,15532,35025
32578,15534,35220
32600,15538,35321
32616,15573,35520
32636,15573,35462
32501,15586,35614
32576,15602,35520
32616,15612,35635
32545,15654,35616
32476,15564,35727
32444,15556,35689
32448,15567,35703
32556,15573,35742
32356,15605,35724
32280,15613,35908
32272,15650,35845
32284,15650,35836
32264,15631,35942
32320,15616,35944
32344,15606,35932
32220,15604,36006
32144,15599,36040
32152,15611,36124
32156,15617,36215
32060,15634,36207
31956,15655,36296
32026,15652,36286
32012,15642,36307
31896,15641,36452
31884,15641,36344
31924,15664,36486
31877,15618,36517
31845,15623,36637
31852,15655,36590
31844,15666,36572
31800,15709,36785
31724,15654,36743
31720,15653,36904
31664,15659,36811
31632,15656,36917
31672,15657,36860
31620,15667,37012
31753,15692,36975
31608,15656,37129
31522,15668,37076
31606,15677,37189
31564,15692,37159
31538,15695,37284
31521,15693,37237
31480,15691,37332
31469,15684,37336
31420,15698,37458
31508,15715,37428
31496,15684,37503
31464,15693,37488
31340,15701,37561
31288,15716,37397
31268,15732,37220
31301,15743,37652
31308,15745,37340
31252,15740,37564
31196,15724,37669
31200,15737,37713
31328,15767,37734
31326,15721,37684
31304,15729,37632
31310,15751,37952
31316,15751,37620
31388,15733,37846
31456,15744,37942
31364,15732,37967
31324,15749,37855
31308,15785,38233
31238,15730,38162
31162,15767,38268
31272,15780,38180
31417,15796,38203
31385,15808,38139
31368,15757,38240
31440,15751,38348
31384,15761,38081
31280,15770,38324
31328,15773,38420
31312,15814,38604
31317,15770,38494
31322,15803,38516
31400,15795,38516
31392,15801,38519
31308,15800,38484
31280,15797,38279
31281,15788,38612
31212,15782,38407
31117,15789,38673
31080,15804,38760
31241,15807,38901
31176,15812,38436
31236,15824,38948
31232,15823,38863
31248,15823,39021
31216,15814,38900
31052,15837,39036
31140,15799,38936
31144,15817,38660
31124,15840,39108
31124,15821,38989
31169,15844,38648
31124,15860,39148
31110,15867,39095
31133,15876,39117
31152,15862,39135
31188,15865,39206
31208,15884,39135
31224,15822,39197
31232,15838,39186
31212,15846,39165
31148,15854,39023
31084,15887,39104
31036,15900,38831
31096,15857,39336
31166,15855,39252
31184,15858,39372
31172,15866,39255
31112,15890,39371
31080,15906,39280
31065,15945,39334
31080,15879,39280
31108,15884,39367
31205,15887,39303
31260,15892,39368
31256,15892,39287
31208,15887,39397
31192,15894,39288
31076,15893,39372
30929,15908,39292
30816,15917,39349
30764,15936,39273
30408,15930,39333
30232,15929,39231
30256,15947,39197
30576,15949,39243
31148,15898,39327
31932,15920,39221
32921,15956,39175
34036,15912,39148
35404,15924,39228
37368,15934,39146
39440,15953,39085
41404,15956,39084
43648,15978,39072
45708,16008,38974
47180,15917,39012
48240,15923,39140
49012,15948,38987
48456,15986,39012
46300,15982,38753
43568,16022,38572
41104,15973,38956
39062,15967,38821
36888,15988,38801
34600,15972,38716
32944,15971,38804
32173,15968,38279
31844,16005,38704
31546,15955,38549
31052,15983,38656
30608,16004,38500
30272,16036,38500
30100,15975,38263
30016,15975,38119
29776,15975,38285
29544,15966,37958
29392,15973,38150
29202,16007,38220
28990,15974,38279
28864,15985,38137
28728,16013,38100
28556,16010,37996
28454,16020,37978
28276,16036,37882
28229,15996,37776
28161,15999,37765
28009,16015,37452
27944,16027,37639
27910,16005,37501
27895,16008,37602
27940,16030,37551
27962,16037,37432
28036,16047,37383
28092,16054,37485
28120,16065,37423
28036,16012,37503
28160,16031,37341
28172,16030,37204
28256,16041,37200
28272,16055,37238
28308,16049,37072
28352,16055,36871
28460,16063,36904
28469,16058,36607
28449,16072,37005
28540,16033,36845
28573,16044,36710
28544,16052,36843
28648,16082,36565
28628,16055,36628
28618,16068,36700
28632,16079,36501
28653,16091,36396
28584,16075,36341
28581,16078,36236
28825,16074,36252
28832,16094,36149
28773,16061,36057
28824,16069,36007
28846,16079,35868
28944,16097,35625
29072,16109,35841
28912,16116,35473
28920,16117,35823
28964,16100,35582
29004,16098,35558
28940,16114,35434
28908,16125,35364
28960,16091,35359
28981,16095,35280
29004,16118,35182
28977,16127,35100
28896,16142,35027
28877,16096,34935
28944,16103,34868
28880,16118,34754
28888,16111,34693
28980,16128,34647
29137,16149,34577
29096,16117,34540
29052,16122,34581
29184,16125,34408
29212,16130,34425
29237,16138,33981
29268,16140,34279
29268,16158,34092
29264,16111,33981
29184,16127,33989
29189,16143,33932
29080,16175,33919
29128,16143,33799
29012,16160,33655
29040,16153,33513
29232,16164,33497
29148,16166,33384
28997,16165,33372
28996,16130,33273
28952,16156,33108
29076,16163,33168
29076,16167,33093
29064,16199,32975
29130,16165,32957
29134,16165,32968
28936,16173,32977
28988,16172,32844
29124,16163,32862
29120,16175,32437
29100,16178,32584
29096,16182,32558
29128,16191,32387
29160,16197,32400
29164,16210,32402
29226,16217,31973
29348,16223,32048
29388,16175,31949
29368,16175,31884
29280,16179,31809
29372,16199,31690
29532,16222,31535
29552,16194,31544
29556,16198,31536
29618,16226,31396
29616,16223,31237
29640,16239,31482
29670,16256,31329
29672,16238,31262
29632,16257,31025
29828,16196,31068
29988,16205,30906
30040,16229,30952
30120,16236,30853
30205,16261,30798
30269,16283,30641
30312,16226,30573
30404,16228,30492
30500,16226,30593
30556,16245,30501
30672,16279,30436
30872,16222,30364
31040,16245,30191
31061,16268,30231
31012,16271,30262
31128,16262,29937
31208,16262,29912
31436,16273,29798
31489,16284,29792
31468,16228,29762
31528,16230,29812
31652,16236,29734
31572,16263,29460
31604,16269,29511
31544,16279,29496
31508,16290,29509
31532,16301,29533
31432,16253,29367
31372,16242,29360
31340,16245,29060
31413,16270,29149
31324,16268,29025
31236,16294,28998
31112,16316,28900
31000,16269,28962
30870,16269,28799
30704,16274,28796
30805,16301,28823
30800,16253,28705
30696,16248,28703
30644,16268,28530
30732,16284,28511
30572,16315,28369
30572,16276,28541
30473,16281,28451
30540,16291,28460
30524,16288,28178
30438,16286,28336
30388,16262,28204
30376,16261,28047
30400,16269,28117
30528,16286,27978
30464,16296,28018
30348,16314,27983
30296,16323,27932
30320,16330,27917
30356,16325,27816
30320,16333,27837
30384,16280,27681
30265,16286,27504
30304,16321,27598
30304,16285,27565
30257,16295,27362
30488,16306,27452
30476,16293,27240
30609,16309,27429
30624,16324,27333
30520,16300,27127
30492,16308,27338
30612,16274,27236
30561,16300,27117
30574,16307,27156
30700,16337,26977
30880,16303,27050
30696,16311,26932
30680,16310,27080
30776,16330,27013
30800,16345,26817
30776,16289,26908
30800,16287,26754
30792,16294,26815
30892,16308,26713
30904,16334,26872
30892,16361,26780
30936,16313,26743
31040,16313,26534
31052,16313,26609
30989,16308,26484
31026,16324,26558
31040,16308,26587
31052,16330,26521
30988,16305,26413
31072,16326,26501
31188,16348,26351
31232,16376,26422
31300,16324,26271
31324,16337,26390
31300,16356,26375
31296,16356,26407
31428,16310,26335
31396,16317,26331
31404,16341,26268
31440,16365,26152
31340,16341,26204
31248,16346,26086
31432,16361,26056
31456,16342,26140
31332,16356,26091
31446,16343,26089
31624,16372,26054
31724,16328,26024
31668,16341,25829
31705,16363,25845
31628,16393,25779
31530,16359,25900
31640,16354,25764
31880,16348,25886
31764,16345,25654
31620,16356,25713
31626,16364,25631
31649,16403,25628
31696,16348,25528
31670,16356,25657
31712,16366,25685
31756,16368,25484
31856,16373,25463
31820,16367,25383
31852,16375,25508
31853,16370,25332
31876,16411,25391
31929,16360,25431
31936,16388,25293
31968,16436,25277
31972,16377,25177
32048,16381,25215
32160,16414,25130
32024,16405,25257
31985,16370,25222
32020,16373,25148
32032,16391,25140
31964,16389,24995
32044,16407,25086
32024,16455,24885
32084,16398,25029
32104,16402,24987
32122,16401,24965
32116,16395,24966
32028,16403,24908
31980,16401,24903
32070,16405,24685
32092,16409,24804
32026,16415,24688
32048,16442,24740
32104,16481,24630
32204,16418,24677
32208,16418,24531
32184,16436,24556
32372,16397,24610
32232,16404,24391
32120,16420,24518
32052,16445,24516
32036,16430,24317
32058,16426,24437
32040,16435,24241
31992,16441,24379
32092,16436,24221
31980,16443,24306
31952,16448,24132
32020,16443,24186
32096,16442,24076
32166,16483,24188
32288,16438,24117
32364,16452,24177
32304,16486,24028
32332,16460,24120
32380,16461,23940
32389,16469,23952
32396,16495,24049
32388,16447,23987
32384,16444,24008
32376,16455,23875
32288,16480,23972
32213,16469,23876
32309,16484,23893
32288,16512,23765
32268,16526,23867
32192,16519,23746
32434,16523,23798
32608,16512,23731
32336,16525,23804
32312,16549,23715
32308,16483,23791
32236,16485,23685
32020,16512,23789
32164,16510,23701
32360,16516,23643
32420,16531,23664
32356,16495,23708
32349,16484,23737
32408,16501,23589
32356,16518,23622
32304,16564,23596
32360,16500,23714
32534,16514,23591
32496,16541,23663
32508,16538,23670
32544,16564,23495
32588,16510,23564
32524,16502,23478
32512,16525,23506
32544,16519,23396
32644,16536,23565
32696,16545,23548
32708,16545,23412
32756,16570,23326
32668,16604,23360
32632,16535,23240
32770,16533,23364
32852,16541,23183
32832,16533,23296
32996,16567,23106
32916,16569,23118
33036,16580,22982
32836,16608,23097
32904,16628,22925
32956,16553,23037
32998,16549,23021
33337,16543,22868
33256,16540,22882
33096,16540,22759
33000,16543,22924
32828,16552,22854
32948,16581,22964
33366,16596,22932
33348,16589,22914
33268,16608,23087
33173,16626,23116
33152,16563,23168
33202,16572,23261
33240,16573,23280
33308,16605,23440
33308,16570,23495
33311,16585,23652
33292,16607,23741
33362,16630,23891
33398,16641,24025
33420,16643,23997
33452,16585,24158
33500,16603,24239
33500,16598,24541
33484,16636,24525
33524,16592,24841
33521,16598,24999
33376,16610,25034
33370,16615,25196
33412,16631,25297
33392,16626,25624
33352,16621,25661
33312,16621,25761
33360,16632,26105
33444,16602,26116
33512,16608,26408
33488,16645,26476
33604,16669,26828
33569,16632,26991
33552,16629,27244
33528,16641,27184
33488,16640,27573
33500,16631,27553
33524,16633,27812
33564,16642,27973
33572,16687,28178
33564,16632,28340
33534,16646,28541
33508,16657,28700
33508,16658,29008
33532,16668,29117
33484,16656,29340
33548,16657,29575
33534,16660,29439
33524,16685,29801
33484,16707,29730
33448,16655,30143
33396,16665,30228
33332,16687,30388
33324,16682,30485
33340,16715,30576
33352,16665,30711
33292,16675,30744
33284,16709,30839
33256,16666,30807
33161,16679,31173
33237,16720,31254
33316,16678,31408
33300,16686,31435
33220,16699,31554
33372,16697,31595
33384,16705,31644
33324,16705,31757
33224,16695,31912
33204,16720,31892
33252,16680,31864
33192,16681,31967
33081,16692,32033
33128,16701,32175
33136,16711,32293
33072,16773,32308
33188,16685,32409
33484,16680,32420
33444,16681,32559
33357,16696,32533
33332,16710,32636
33266,16709,32642
33352,16721,32760
33493,16722,32475
33396,16724,32749
33372,16717,32701
33424,16713,32720
33568,16698,32815
33432,16690,32846
33392,16698,32901
33385,16701,32924
33440,16716,32999
33349,16741,32988
33260,16733,33045
33352,16740,33233
33450,16758,33248
33548,16757,33372
33645,16761,33096
33605,16743,33226
33557,16753,33310
33616,16780,33415
33548,16717,33479
33420,16799,33557
33416,16781,33636
33572,16726,33613
33776,16723,33678
33684,16711,33685
33692,16706,33695
33688,16705,33738
33744,16713,33776
33732,16718,33812
33613,16720,33845
33644,16734,33957
33660,16737,34014
33588,16735,34081
33620,16728,34208
33652,16729,33877
33556,16775,34096
33494,16768,34202
33560,16717,34274
33612,16723,34373
33640,16725,34375
33652,16740,34360
33568,16756,34412
33624,16741,34534
33624,16740,34571
33632,16743,34652
33652,16741,34636
33644,16735,34618
33660,16755,34677
33588,16785,34566
33576,16735,34977
33572,16745,34916
33633,16749,35060
33672,16744,35023
33800,16747,35176
33692,16739,35129
33676,16750,35096
33640,16742,35335
33668,16751,35284
33668,16775,35388
33608,16793,35368
33588,16802,35474
33580,16823,35436
33568,16757,35505
33748,16829,35626
33772,16745,35676
33768,16743,35748
33700,16743,35837
33668,16740,35878
33672,16748,35983
33520,16754,36004
33497,16764,36164
33368,16764,36132
33164,16819,36288
33052,16764,36244
32972,16757,36284
32928,16750,36359
33032,16745,36368
33392,16751,36392
33984,16754,36448
34927,16766,36486
35932,16772,36316
37184,16780,36741
38664,16780,36409
40624,16787,36848
42704,16774,36565
44612,16768,36788
46792,16754,36940
48704,16756,37021
49964,16777,37152
51016,16799,37127
51528,16807,37201
50468,16813,37229
47960,16862,37296
45220,16780,37300
42808,16775,37417
40600,16765,37424
38280,16833,37487
36200,16807,37341
34916,16789,37511
34398,16786,37680
34132,16788,37255
33916,16801,37546
33504,16793,37456
33152,16787,37566
32940,16767,37698
32760,16759,37797
32533,16752,37942
32328,16834,37519
32112,16762,37759
31952,16772,37567
31760,16779,37895
31564,16783,38007
31416,16787,37968
31385,16778,38094
31204,16771,37653
30992,16762,37934
30853,16760,38061
30744,16836,38001
30660,16807,37997
30544,16807,38134
30508,16813,37932
30496,16815,37952
30526,16815,38076
30432,16800,37600
30416,16788,37798
30436,16786,37924
30540,16775,37920
30540,16772,37818
30552,16826,37821
30600,16839,37826
30672,16834,37833
30688,16834,37711
30706,16825,37753
30748,16817,37679
30761,16817,37565
30849,16805,37558
30880,16796,37693
30944,16795,37404
30908,16811,37340
30932,16836,37093
31032,16851,37247
31016,16808,37028
31028,16805,37313
31061,16805,37149
31013,16841,37156
31028,16831,37200
31092,16813,36705
31188,16810,36884
31248,16807,36800
31216,16817,36813
31148,16822,36743
31148,16831,36525
31192,16822,36487
31262,16822,36500
31325,16822,35998
31397,16812,36162
31376,16805,36167
31372,16817,35786
31464,16820,35798
31484,16824,35692
31504,16837,35269
31548,16845,35342
31592,16829,35239
31544,16823,35116
31484,16833,35089
31484,16816,34842
31488,16811,34727
31604,16833,34522
31628,16852,34396
31621,16858,34230
31632,16855,34137
31632,16848,33904
31648,16845,33609
31664,16849,33516
31672,16836,33308
31624,16837,33181
31700,16846,33020
31672,16857,32909
31580,16858,32859
31625,16852,32815
31665,16853,32324
31656,16873,32388
31676,16866,32160
31756,16867,32096
31753,16845,31972
31732,16833,31860
31738,16844,31729
31736,16831,31572
31706,16834,31337
31740,16836,31079
31760,16846,31064
31808,16849,30831
31829,16850,30786
31720,16846,30681
31721,16838,30633
31792,16897,30492
31677,16895,30375
31740,16835,30105
31736,16841,30155
31816,16870,30055
31816,16876,30019
31736,16895,29813
31736,16872,29767
31788,16879,29380
31893,16871,29349
31884,16857,29164
31876,16871,29143
31872,16864,28956
31900,16874,29013
31905,16876,28722
31956,16903,28860
32037,16924,28516
31988,16924,28647
31916,16873,28512
32016,16871,28388
32092,16861,28288
32156,16862,28071
32196,16857,28084
32260,16867,27922
32153,16876,27807
32212,16882,27713
32328,16895,27733
32445,16892,27559
32468,16884,27550
32576,16882,27438
32692,16877,27362
32780,16874,27137
32877,16878,27165
32952,16885,26973
33076,16890,27057
33068,16897,26904
33164,16903,26732
33228,16900,26822
33212,16894,26721
33308,16888,26689
33416,16876,26620
33640,16891,26556
33572,16907,26445
33624,16917,26301
33669,16970,26232
33648,16909,26332
33620,16920,26272
33576,16924,26044
33684,16903,26073
33600,16898,25949
33470,16903,26001
33404,16896,26021
33320,16911,25912
33232,16922,25802
33184,16935,25789
33176,16954,25719
33204,16958,25837
33000,16914,25671
33004,16905,25772
32908,16899,25583
32768,16898,25676
32712,16902,25565
32778,16926,25616
32704,16956,25685
32668,16900,25709
32608,16911,25673
32620,16910,25698
32584,16911,25651
32578,16904,25687
32600,16908,25647
32576,16903,25678
32552,16911,25516
32516,16911,25565
32468,16914,25497
32464,16915,25557
32436,16916,25480
32408,16921,25656
32504,16909,25717
32400,16903,25696
32408,16903,25756
32444,16911,25718
32404,16901,25561
32285,16924,25625
32260,16954,25668
32252,16903,25833
32264,16908,25809
32484,16909,25889
32516,16920,25866
32498,16908,25845
32396,16898,25780
32436,16890,25897
32481,16887,25854
32448,16892,26014
32448,16900,25938
32496,16906,26050
32524,16925,26031
32493,16932,26247
32588,16928,26299
32588,16917,26357
32468,16919,26410
32439,16919,26500
32440,16935,26505
32500,16947,26423
32625,16892,26537
32596,16911,26696
32532,16916,26598
32524,16927,26862
32560,16935,26868
32624,16933,26880
32644,16926,26811
32600,16922,26985
32612,16910,26921
32612,16921,27113
32600,16909,27015
32632,16930,27161
32724,16942,27272
32700,16937,27372
32704,16919,27183
32684,16921,27329
32756,16933,27287
32948,16923,27520
32964,16911,27545
32901,16920,27655
32926,16932,27640
32873,16945,27757
32920,16962,27744
32888,16971,27662
32996,16974,27819
32996,16969,27755
33033,16953,27924
33092,16949,27922
33080,16949,27981
33101,16949,28013
33180,16973,28000
33104,16973,28004
33100,16930,28182
33176,17002,28136
33220,16986,28271
33176,16984,28190
33136,16921,28271
33120,16911,28240
33156,16913,28524
33164,16933,28442
33108,16940,28420
33157,16951,28594
33144,16955,28636
33308,16963,28708
33172,16964,28789
33137,16943,28807
33118,16956,28812
33120,16946,28901
33089,16935,29012
33104,16935,29025
33117,16945,29016
33068,16959,29126
33076,16964,29199
33160,16980,29241
33164,16987,29300
33200,16983,29328
33076,16968,29369
33056,16964,29436
33036,16962,29556
33088,16959,29570
33132,16972,29654
33196,16984,29663
33192,16947,29660
33113,16952,29790
33160,16955,29888
33024,16953,29916
33092,16953,29988
33136,16943,30005
33161,16949,29981
33064,16953,30136
33048,16954,30263
33048,16970,30239
33112,16976,30276
33124,16969,30253
33056,16965,30421
33049,16966,30564
33046,16943,30343
33012,16938,30500
33000,16928,30541
33036,16935,30709
33212,16983,30839
33198,16982,30607
33020,16982,30772
33052,16987,30813
32981,16999,31000
33064,16999,30821
33120,16995,31036
33156,16965,31048
33088,16959,31230
33060,16963,31232
33080,16969,31316
33104,16973,31294
33104,16985,31342
33052,17015,31401
33008,16965,31456
33012,16957,31533
33080,16959,31611
33036,16947,31806
32952,17005,31812
33006,16991,31743
33100,16988,31836
33040,17004,31951
33038,17020,31945
32988,17014,32050
32952,16991,32263
32952,16980,31968
32936,16978,32242
32956,16961,32319
32956,16948,32124
32932,17028,32308
32996,16952,32364
32992,16959,32404
33001,16965,32489
33068,16972,32552
33176,16970,32586
33008,16975,32661
32917,16970,32668
32836,16970,32732
32944,16973,32671
33012,16973,32745
32952,16989,32759
32988,16992,32961
32992,16987,32997
32974,16996,33156
32916,17006,32935
32932,16997,33063
33052,17013,32881
33044,16958,33177
33020,16957,33108
33044,16973,33021
32932,16991,33234
33084,16983,33040
33044,16985,33172
33008,16984,33239
33022,16985,33356
33028,16980,33377
33044,16977,33422
33044,17012,33279
33024,17001,33343
33068,16999,33477
32974,16990,33524
32988,16987,33401
33056,16998,33481
32992,17017,33605
32944,16988,33281
33040,16984,33420
33076,17057,33527
33112,17017,33596
33002,16995,33524
32988,16974,33693
33020,17004,33601
33034,16984,33586
33016,16992,33663
33068,17060,33575
33016,17031,33679
33072,17015,33535
33116,17027,33604
33128,17048,33673
33252,17033,33733
33237,17039,33748
33192,16984,33792
33125,16985,33585
33172,17065,33713
33184,17039,33869
33060,17044,33636
33072,17040,33709
33156,17034,33798
33132,17023,33588
33100,17003,33674
33089,16989,33849
33032,17012,33849
33088,17015,33860
33104,17020,33697
33100,17031,33741
33180,17021,33829
33038,17012,33868
32976,17007,33982
33016,17005,33925
33020,17018,34013
33001,17030,33922
33060,17041,33999
32993,17069,33922
32993,17078,33927
33076,17081,33777
33104,17011,33868
33072,17007,33904
33164,17048,33980
33248,17038,33997
33108,17031,33998
33100,17030,34033
33056,17029,34031
33054,17023,34069
33032,17039,34047
33036,17043,34135
33064,17028,33836
33056,17007,33985
33064,17007,34089
33064,16996,34141
33052,17040,34252
33152,17031,34176
33140,17014,34143
33116,17034,34294
33046,17022,34081
32916,17023,34204
32812,17022,34192
32944,17019,34236
33144,17055,34279
33108,17078,34324
33140,17059,34387
32981,17039,34245
33044,17033,34336
32996,17039,34465
32928,17052,34404
32920,17055,34304
32972,17045,34298
33024,17033,34468
32972,17025,34567
33252,17013,34519
33093,17019,34580
32872,17007,34564
32862,17013,34633
32817,17021,34433
32784,17108,34588
32816,17082,34681
32849,17079,34689
32794,17069,34804
32800,17052,34445
32820,17029,34693
32852,17031,34848
32929,17023,34521
32944,17015,34783
32836,17099,34933
32784,17084,34852
32901,17076,34805
32956,17069,34808
32973,17054,34909
33048,17059,34958
32992,17051,34991
32984,17050,35100
32984,17073,35036
32944,17093,35121
32998,17096,35083
33032,17093,35078
32956,17041,34897
32984,17044,35108
33044,17036,35079
33048,17032,35116
33168,17020,35237
33184,17022,35271
33204,17028,35335
33140,17069,35231
33224,17067,35328
33156,17063,35484
33018,17068,35122
32984,17057,35297
33000,17069,35396
32984,17053,35380
32920,17044,35344
32864,17061,35697
32996,17069,35343
32844,17063,35604
32852,17066,35603
32864,17059,35668
32876,17069,35677
32856,17076,35732
32799,17093,35497
32828,17042,35941
32848,17034,35908
32868,17029,35993
32852,17036,35895
32832,17049,35756
32769,17063,36041
32814,17093,36053
32928,17120,36079
32876,17052,36064
32856,17053,36058
32796,17058,36024
32856,17070,35996
32872,17069,36164
32844,17099,36158
32828,17038,36237
32760,17045,36353
32741,17053,36348
32720,17057,36211
32812,17109,36305
32836,17103,36404
32924,17092,36381
32860,17087,36392
32820,17085,36452
32824,17081,36552
32972,17103,36571
32905,17093,36573
32940,17100,36551
32872,17096,36661
32788,17088,36631
32816,17086,36617
32862,17077,36748
32821,17078,36853
32712,17082,36813
32580,17087,36956
32464,17044,36857
32284,17066,36836
32172,17082,36768
31886,17084,36869
31800,17097,36933
32080,17106,37028
32436,17105,37053
32936,17049,37126
33724,17045,37086
34768,17045,37237
35960,17061,37127
37492,17089,37276
39476,17093,37193
41528,17121,37344
43544,17143,37238
45784,17129,37124
47728,17135,37231
49172,17146,37320
50316,17039,37439
51036,17037,37404
50068,17050,37492
47656,17054,37445
44968,17070,37444
42524,17079,37143
40404,17109,37568
38100,17087,37196
35848,17084,37673
34368,17073,37590
33637,17069,37533
33244,17070,37543
32868,17060,37511
32440,17071,37440
32336,17077,37572
32044,17072,37569
31808,17080,37613
31648,17095,37728
31404,17108,37702
31221,17041,37572
31040,17039,37900
30808,17067,37871
30660,17063,37932
30612,17092,37831
30536,17099,37882
30348,17089,37908
30105,17084,38033
30000,17094,37925
29864,17111,37929
29785,17055,37912
29756,17048,37952
29676,17059,37815
29552,17079,37828
29616,17071,37924
29688,17079,37935
29725,17093,37970
29657,17086,38058
29720,17082,37981
29760,17077,38100
29812,17076,37965
29876,17073,37975
29892,17093,37932
29866,17097,37966
29940,17065,37993
29964,17092,37956
30012,17110,37999
30040,17081,38033
30125,17086,37981
30212,17105,38148
30250,17060,38036
30308,17067,38007
30236,17095,38200
30288,17066,38096
30284,17076,37948
30272,17100,38102
30262,17109,38138
30272,17116,38257
30177,17108,38180
30244,17110,38237
30236,17099,38151
30364,17108,38181
30429,17106,38100
30424,17069,38020
30428,17079,38029
30404,17084,37888
30416,17092,38196
30512,17091,37832
30594,17087,38324
30621,17094,38220
30634,17090,38204
30656,17087,38073
30676,17082,37908
30600,17085,38183
30538,17103,38145
30520,17097,38080
30516,17112,37996
30606,17116,38130
30653,17125,37845
30620,17082,38353
30640,17075,38248
30652,17070,38238
30648,17072,38181
30716,17088,38188
30736,17105,38118
30736,17108,37904
30693,17112,38247
30668,17123,37928
30692,17122,38284
30725,17118,38309
30768,17115,38445
30724,17109,38373
30640,17124,38356
30544,17079,38241
30476,17089,38111
30529,17105,38438
30596,17121,38029
30580,17116,38518
30684,17120,38407
30600,17124,38477
30580,17084,38321
30625,17087,38009
30672,17100,38496
30628,17100,38348
30608,17128,38177
30532,17107,38336
30508,17111,38108
30508,17116,38191
30444,17148,38260
30616,17135,38199
30648,17092,38143
30592,17100,38087
30628,17109,37727
30544,17104,38151
30476,17126,38012
30521,17135,38080
30493,17132,37727
30464,17141,37732
30538,17145,37510
30476,17147,37876
30472,17134,37365
30572,17139,37775
30564,17100,37613
30708,17109,37565
30724,17113,37461
30748,17120,37540
30716,17151,37324
30757,17164,37302
30868,17123,37158
30932,17116,37071
31132,17119,37117
31244,17143,36967
31240,17108,37085
31332,17110,36885
31272,17132,36748
31384,17147,36597
31433,17176,36375
31528,17131,36694
31689,17136,36483
31820,17141,36321
31864,17132,36279
31852,17148,36239
31924,17116,36271
32104,17120,36054
32064,17132,35712
32112,17137,35860
32200,17140,35632
32272,17140,35708
32392,17156,35591
32448,17141,35516
32434,17140,35373
32500,17135,35292
32544,17167,35113
32464,17124,34973
32364,17129,34900
32416,17141,34796
32424,17143,34688
32388,17188,34668
32304,17177,34206
32228,17160,34347
32152,17137,34340
32124,17137,34151
31988,17133,34036
31844,17144,33880
31760,17166,33861
31668,17181,33653
31632,17174,33644
31636,17159,33172
31648,17161,33370
31648,17183,33205
31540,17118,33045
31452,17159,32991
31620,17150,32947
31242,17139,32717
31220,17133,32569
31228,17143,32355
31184,17156,32304
31128,17136,32359
31136,17129,31916
31189,17124,31915
31185,17118,31845
31380,17110,31810
31296,17109,31591
31176,17151,31508
31120,17161,31462
31068,17164,31420
31088,17161,31239
31188,17152,31148
31194,17148,30866
31152,17143,30777
31184,17127,30686
31194,17118,30714
31144,17127,30673
31044,17131,30500
31018,17125,30485
31096,17129,30103
31173,17149,30237
31198,17126,29999
31280,17117,30046
31344,17165,29853
31229,17105,29756
31212,17148,29791
31212,17139,29784
31396,17152,29627
31368,17117,29591
31364,17121,29466
31416,17125,29364
31465,17127,29315
31372,17122,29236
31424,17109,28947
31424,17101,28940
31382,17085,28895
31532,17150,28934
31452,17140,28777
31425,17132,28644
31672,17130,28693
31713,17136,28663
31656,17143,28542
31680,17143,28430
31780,17116,28284
31773,17106,28349
31780,17098,28241
31864,17103,28214
31752,17106,28207
31648,17118,28076
31548,17124,27998
31613,17139,27956
31824,17137,27909
31946,17164,27817
32116,17164,27654
32096,17105,27709
31968,17104,27575
32120,17103,27560
32028,17113,27365
32012,17120,27434
32052,17148,27446
32160,17150,27287
32128,17176,27338
32272,17156,27338
32288,17158,27244
32276,17138,27173
32376,17133,26982
32040,17138,27158
31984,17159,27044
32120,17127,26838
32020,17133,26839
32228,17135,26733
32464,17132,26818
32297,17133,26763
32264,17127,26754
32304,17121,26739
32676,17108,26628
32501,17119,26452
32364,17127,26360
32433,17126,26382
32496,17136,26260
32541,17137,26244
32344,17145,26148
32332,17135,26257
32676,17128,26252
32752,17135,26023
32604,17132,26129
32480,17126,26148
32480,17126,25918
32497,17134,26063
32558,17191,26073
32688,17196,26035
32614,17191,26081
32432,17188,26049
32677,17180,26089
32592,17170,25999
32768,17152,26085
32670,17164,26151
32620,17148,26093
32596,17160,26151
32640,17149,26319
32640,17151,26356
32644,17156,26317
32668,17148,26564
32692,17142,26576
32728,17146,26604
32756,17156,26569
32750,17145,26688
32752,17152,26737
32768,17143,26975
32720,17211,27008
32668,17204,26988
32613,17190,27220
32600,17181,27271
32656,17154,27356
32644,17138,27343
32756,17133,27560
32825,17204,27654
32760,17200,27815
32736,17196,27980
32748,17197,27855
32796,17178,28144
32792,17184,28201
32740,17184,28240
32724,17151,28508
32804,17146,28648
32816,17189,28551
32776,17183,28790
32733,17183,28876
32740,17177,29125
32664,17183,29310
32660,17199,29344
32808,17201,29348
32696,17193,29484
32688,17196,29745
32684,17149,29918
32756,17149,29981
32790,17178,29986
32780,17172,30103
32798,17184,30237
32748,17193,30325
32700,17199,30585
32712,17209,30499
32724,17199,30877
32732,17176,30752
32732,17165,30932
32728,17171,31073
32781,17188,31181
32732,17190,31359
32724,17179,31549
32732,17183,31662
32648,17195,31658
32784,17183,31893
32868,17176,32056
32800,17175,31988
32636,17161,32108
32692,17153,32244
32644,17169,32417
32614,17166,32610
32622,17169,32413
32668,17175,32695
32655,17188,32775
32640,17182,32903
32600,17174,32980
32580,17172,33167
32696,17167,33335
32584,17220,33346
32492,17223,33493
32568,17168,33255
32640,17227,33505
32560,17232,33608
32488,17228,33654
32473,17228,33722
32492,17252,33937
32406,17175,33780
32444,17168,34217
32392,17172,34192
32536,17174,34348
32544,17167,34357
32624,17174,34511
32472,17194,34512
32456,17193,34596
32472,17191,34468
32500,17185,34695
32528,17222,34887
32564,17215,34900
32420,17209,35049
32424,17198,35052
32448,17189,35232
32468,17191,35198
32428,17206,35341
32357,17218,35068
32436,17208,35292
32556,17198,35389
32612,17204,35525
32608,17197,35495
32328,17190,35639
32388,17175,35808
32472,17179,35884
32466,17187,35945
32524,17243,35928
32528,17233,36066
32500,17215,36068
32524,17214,36194
32509,17214,36236
32396,17227,36321
32408,17221,36417
32534,17217,36501
32496,17222,36312
32596,17228,36564
32520,17215,36674
32500,17220,36743
32480,17209,36729
32548,17201,36804
32592,17199,36937
32631,17218,36890
32576,17196,37104
32552,17195,36804
32557,17186,37072
32577,17253,37228
32696,17249,37344
32664,17257,37447
32584,17245,37462
32576,17246,37596
32676,17228,37503
32620,17213,37620
32605,17213,37818
32676,17201,37453
32696,17203,37652
32831,17217,37575
32676,17217,37762
32600,17224,37895
32652,17212,38036
32676,17208,38191
32701,17205,38151
32708,17200,38260
32636,17206,38247
32580,17202,38375
32576,17214,37984
32584,17206,38350
32588,17214,38372
32548,17216,38428
32592,17218,38493
32624,17216,38476
32608,17257,38563
32692,17203,38662
32712,17247,38678
32712,17245,38791
32700,17239,38821
32704,17225,38636
32696,17231,38815
32684,17242,38903
32680,17232,39005
32684,17221,39156
32792,17217,38820
32788,17214,39238
32676,17214,39156
32652,17214,39252
32596,17230,39223
32604,17237,39364
32616,17232,38894
32516,17229,39303
32508,17227,39303
32544,17223,39371
32448,17214,39333
32528,17212,39365
32576,17270,39471
32608,17206,39399
32708,17211,39521
32764,17271,39276
32724,17271,39508
32724,17252,39687
32749,17253,39205
32776,17245,39468
32776,17229,39644
32772,17227,39675
32764,17221,39792
32696,17237,39692
32816,17225,39685
32776,17223,39687
32756,17303,39717
32768,17238,39802
32820,17296,39716
32824,17287,39659
32864,17270,39655
32904,17257,39684
32912,17256,39749
32895,17264,39686
32848,17287,39565
32784,17278,39604
32756,17234,39478
32844,17249,39526
32968,17261,39500
32944,17265,39639
32751,17242,39530
32768,17240,39633
32804,17257,39474
32676,17264,39493
32586,17221,39412
32632,17272,39186
32612,17266,39303
32556,17267,39114
32525,17264,39175
32532,17258,39184
32557,17248,39175
32566,17234,39101
32561,17241,39175
32464,17238,38668
32396,17223,38945
32432,17274,38967
32592,17282,38748
32624,17272,38780
32485,17278,38782
32412,17271,38745
32450,17260,38825
32724,17286,38676
32680,17285,38663
32520,17222,38560
32476,17221,38484
32492,17232,38245
32548,17243,38551
32572,17253,38368
32562,17249,38173
32548,17244,38236
32484,17239,38236
32552,17224,38305
32632,17225,37808
32644,17221,38022
32604,17223,38111
32532,17236,37992
32576,17287,37868
32736,17285,37887
32640,17282,37866
32724,17261,37828
32712,17245,37681
32748,17237,37712
32701,17222,37559
32668,17256,37636
32532,17242,37213
32496,17257,37349
32464,17252,37473
32260,17248,37403
32016,17253,37268
31896,17297,37231
31909,17285,37149
32189,17260,37116
32632,17247,37130
33376,17252,37177
34284,17237,36860
35364,17239,37096
36660,17244,36937
38372,17248,37004
40632,17246,36848
42716,17251,36900
44620,17240,36740
46860,17323,36784
48696,17303,36623
49805,17286,36623
50808,17292,36193
51056,17311,36470
49612,17326,36103
46788,17318,36260
44024,17309,36260
41712,17291,36247
39648,17272,36337
37404,17256,36196
35484,17252,36269
34356,17255,36116
33824,17254,36055
33524,17263,36033
33024,17259,36111
32664,17249,35933
32392,17263,36025
32216,17258,35889
32032,17245,35920
31872,17253,35778
31720,17265,35591
31449,17218,35831
31328,17221,35708
31224,17231,35772
31064,17280,35365
30914,17250,35700
30784,17244,35565
30621,17242,35597
30488,17233,35487
30340,17228,35508
30340,17222,35404
30184,17232,35500
30172,17230,35343
30156,17242,35437
30210,17258,35305
30176,17251,35376
30200,17254,35093
30308,17244,35252
30352,17239,35189
30265,17231,35285
30344,17227,35172
30400,17226,35199
30452,17227,35079
30488,17236,35024
30476,17302,35028
30536,17295,34945
30612,17303,34941
30604,17247,34990
30680,17279,34908
30684,17263,34746
30728,17249,34814
30797,17269,34949
30844,17232,35068
30756,17245,34895
30788,17249,34864
30756,17248,34875
30812,17253,34865
30816,17251,34884
30909,17238,34725
31128,17232,35012
30944,17279,34785
30860,17268,34940
30753,17258,35014
30808,17259,34684
30836,17259,34855
30840,17249,35093
30860,17252,34983
30872,17250,34937
30961,17269,34956
31028,17247,35006
31084,17249,35116
31016,17250,35009
31060,17255,35060
31112,17248,34934
31118,17254,35006
31152,17263,35076
31160,17253,35025
31220,17251,35140
31252,17244,34876
31292,17236,35051
31189,17229,35124
31212,17232,34752
31284,17286,34981
31348,17306,35045
31348,17310,35079
31342,17257,35101
31432,17254,34797
31376,17305,35060
31317,17307,34958
31321,17278,35092
31478,17255,35244
31496,17244,35012
31356,17233,35122
31384,17247,35161
31444,17254,35182
31444,17316,35254
31452,17301,35256
31468,17287,35335
31516,17284,35316
31472,17265,35421
31500,17247,35044
31508,17247,35377
31436,17255,35093
31429,17262,35380
31496,17277,35317
31436,17279,35285
31464,17285,35329
31416,17263,35316
31552,17260,35223
31572,17255,35460
31556,17255,35199
31564,17252,35495
31662,17269,35308
31632,17265,35481
31524,17269,35528
31261,17289,35543
31356,17271,35472
31492,17262,35533
31540,17292,35451
31710,17279,35552
31748,17257,35454
31729,17257,35641
31757,17260,35535
31792,17257,35480
31884,17270,35632
32000,17276,35244
31990,17273,35477
32004,17266,35594
32020,17316,35433
32056,17294,35522
32262,17298,35586
32412,17291,35550
32484,17296,35559
32368,17311,35476
32374,17305,35591
32448,17293,35520
32544,17303,35575
32632,17311,35463
32692,17293,35446
32792,17287,35458
32992,17286,35455
33096,17293,35432
33112,17297,35388
33196,17301,35430
33229,17289,35463
33320,17296,35469
33560,17309,35537
33472,17292,35449
33516,17287,35524
33584,17285,35453
33640,17301,35416
33668,17288,35429
33656,17285,35512
33625,17292,35120
33720,17293,35364
33524,17292,35485
33444,17291,35421
33425,17287,35453
33396,17277,35325
33344,17267,35372
33348,17259,35382
33256,17311,35405
33120,17308,35503
32972,17291,35140
32940,17288,35351
32880,17282,35479
32812,17327,35208
32828,17297,35364
32716,17274,35364
32732,17263,35294
32679,17301,35372
32676,17285,35400
32344,17286,35172
32300,17281,35223
32417,17290,35284
32421,17287,35372
32340,17280,35212
32384,17303,35402
32373,17288,35357
32444,17257,35252
32396,17252,35308
32336,17316,35363
32352,17297,35365
32296,17288,35221
32188,17279,35284
32200,17286,35328
32248,17298,35316
32248,17281,35397
32244,17280,35333
32200,17257,35356
32140,17244,35204
32168,17247,35262
32172,17252,35292
32180,17305,35347
32252,17312,35348
32284,17289,35263
32320,17292,35313
32180,17276,35279
32200,17278,35377
32296,17252,35498
32293,17256,35413
32233,17251,35458
32202,17257,35129
32176,17263,35473
32253,17283,35172
32296,17265,35381
32236,17264,35480
32276,17313,35552
32300,17292,35665
32332,17265,35449
32370,17255,35553
32364,17250,35663
32344,17253,35660
32334,17255,35756
32360,17260,35704
32425,17329,35628
32368,17276,35428
32392,17332,35862
32388,17301,35774
32464,17284,35901
32480,17255,35526
32504,17247,35741
32520,17250,35887
32584,17302,35649
32504,17291,35865
32540,17284,36032
32552,17285,35942
32580,17279,36065
32716,17268,35999
32760,17265,36124
32784,17255,36037
32837,17259,36116
32824,17262,36076
32860,17260,36027
32752,17285,36125
32796,17277,36284
32792,17279,36109
32863,17281,36120
32880,17287,36100
32908,17276,36181
32964,17277,36076
32976,17289,36452
32960,17320,36399
32920,17252,36370
32956,17263,36355
33048,17271,36424
33084,17262,36543
32968,17263,36645
33032,17255,36288
33072,17247,36668
33016,17246,36359
33040,17292,36641
33136,17292,36753
33048,17287,36800
32976,17273,36709
32925,17289,36888
33084,17293,36912
33120,17273,37055
33117,17284,36982
33161,17271,36928
33140,17248,37014
33037,17237,37097
33100,17253,37029
33128,17325,37097
33152,17312,37237
33176,17299,37097
33132,17282,37220
33152,17280,37298
33073,17276,37453
33124,17260,37127
33101,17244,37406
33072,17317,37577
33076,17291,37468
33085,17292,37540
32869,17280,37554
32992,17288,37609
32992,17283,37668
33044,17263,37624
33072,17332,37824
33040,17297,37671
32964,17289,37783
33048,17264,37675
33052,17260,37932
32996,17263,37540
32996,17285,37904
33081,17281,38029
33048,17281,37861
32988,17289,37964
32912,17271,38047
32924,17263,38028
33116,17255,37978
33117,17254,38012
32948,17263,38093
32968,17275,38244
33040,17282,37795
33016,17279,38005
32942,17298,37911
32944,17332,38064
32972,17254,38074
32956,17253,38249
33000,17283,38268
32916,17261,38232
32912,17268,38271
32988,17290,38213
33117,17304,38260
33052,17284,38429
32992,17288,38416
33012,17268,38535
33060,17258,38214
33045,17295,38368
33000,17276,38535
33144,17253,38150
33044,17268,38582
32976,17263,38160
32996,17268,38372
33064,17270,38533
33072,17289,38496
33053,17285,38601
32976,17256,38596
33020,17265,38678
33048,17269,38607
32952,17255,38708
32924,17261,38641
32944,17269,38683
33000,17272,38629
32988,17288,38759
32900,17290,38684
32904,17273,38734
32933,17280,38700
32912,17276,38716
32860,17260,38631
32896,17269,38649
32958,17279,38705
32844,17288,38776
32908,17296,38783
32868,17313,38825
32884,17308,38791
32932,17305,38903
32904,17306,38808
33048,17300,38916
32964,17300,38833
32973,17300,38967
32845,17288,38829
32820,17292,38853
32756,17281,38791
32900,17287,38876
33052,17280,38958
33112,17293,38860
33006,17287,38874
33008,17263,38918
33032,17253,38988
32896,17257,38944
32800,17261,38982
32892,17274,38959
32980,17278,39060
32972,17290,38973
32960,17297,39028
32992,17276,38971
33016,17267,38937
33028,17248,38866
32976,17241,38945
32929,17287,39104
32864,17258,38629
32956,17252,38988
32972,17252,39013
32992,17265,39028
32960,17303,38631
32980,17276,38961
33012,17278,39124
32964,17273,38693
32936,17256,38956
32896,17247,39088
32946,17240,38997
32986,17249,38839
33072,17331,39068
32927,17316,38984
32844,17324,38918
32804,17297,39013
32960,17295,39010
33009,17277,39118
32996,17260,38637
33040,17251,38877
33014,17267,39016
32920,17257,39012
32976,17260,38919
33000,17261,39074
32956,17316,38612
32964,17310,38913
32993,17252,39012
33064,17246,39001
33080,17245,38850
33014,17244,38908
33054,17246,38820
33000,17254,38684
32965,17280,39038
32976,17281,38584
32992,17278,38847
32980,17277,38636
32952,17274,38845
32960,17263,38862
32982,17262,38887
32992,17249,38951
33044,17267,38894
33136,17265,38973
33172,17278,38621
32988,17273,38715
32948,17279,38796
32916,17276,38788
32888,17276,38855
32884,17258,38796
32989,17256,38838
32952,17247,38825
32936,17247,38727
32980,17287,38892
33008,17276,38397
32984,17280,38599
32956,17272,38812
32952,17276,38744
32952,17264,38743
32837,17271,38640
32924,17240,38708
32996,17236,38790
32960,17242,38684
32920,17251,38637
32908,17257,38541
32940,17262,38573
32992,17266,38644
33076,17256,38621
33030,17303,38449
33068,17292,38581
33076,17311,38572
33032,17289,38688
32968,17286,38272
32901,17284,38508
32820,17297,38545
32796,17302,38549
32813,17295,38620
32838,17276,38150
32796,17266,38439
32700,17245,38528
32805,17234,38444
32765,17284,38471
32833,17271,38430
32772,17276,38312
32764,17295,38359
32725,17305,38388
32688,17308,38322
32676,17293,38437
32605,17272,38092
32748,17263,38159
32780,17254,38249
32804,17255,38216
32712,17262,38279
32676,17269,38137
32748,17286,38137
32732,17266,38071
32756,17279,38052
32781,17277,37991
32800,17287,38037
32768,17288,37904
32772,17294,37981
32794,17283,37535
32727,17281,37619
32652,17262,37663
32708,17263,37660
32792,17261,37732
32724,17263,37228
32704,17301,37383
32686,17288,37461
32641,17260,37440
32676,17256,37232
32580,17242,37367
32564,17235,37280
32636,17243,37221
32748,17251,37093
32788,17257,37095
32724,17264,37155
32528,17255,37033
32512,17246,37064
32514,17287,36829
32449,17269,36864
32436,17246,36696
32480,17247,36837
32600,17234,36617
32540,17309,36652
32608,17300,36487
32492,17296,36445
32384,17271,36487
32376,17269,36509
32452,17251,36212
32464,17252,36238
32380,17231,36293
32416,17229,36196
32320,17244,36217
32344,17258,36087
32388,17263,36116
32384,17263,35916
32400,17252,35728
32388,17247,35714
32448,17235,35720
32452,17228,35682
32316,17227,35552
32288,17229,35535
32252,17241,35477
32236,17249,35413
32264,17253,35329
32360,17257,35289
32344,17248,35217
32412,17309,35153
32368,17276,34980
32332,17256,34951
32380,17251,34908
32452,17252,34863
32468,17259,34852
32464,17250,34709
32392,17252,34713
32292,17248,34260
32348,17250,34340
32376,17238,34132
32392,17239,34296
32200,17265,34002
32117,17265,34036
31945,17246,34156
31880,17250,34015
31850,17256,34021
31988,17261,33580
32428,17252,33726
33060,17289,33668
33913,17285,33590
34985,17268,33565
36224,17259,33457
37728,17249,33444
39508,17249,33080
41320,17247,33157
43212,17256,32854
45248,17269,32882
46960,17284,32665
48108,17313,32865
49064,17239,32756
49248,17224,32729
47760,17237,32543
45176,17264,32364
42628,17263,32334
40392,17270,32208
38480,17276,32162
36568,17266,32022
34764,17280,31960
33692,17266,31918
33244,17252,31773
33056,17259,31764
32852,17255,31580
32508,17239,31336
31844,17236,31278
31644,17231,31308
31612,17241,31188
31524,17256,31086
31352,17260,30905
31192,17252,30909
31024,17240,30924
30860,17237,30543
30856,17239,30664
30728,17231,30552
30557,17227,30464
30408,17220,30281
30268,17236,30181
30124,17252,30029
29940,17253,30093
29892,17255,30112
29944,17247,29957
29932,17236,29876
29948,17213,29656
29888,17215,29728
29924,17216,29632
29972,17220,29580
30052,17232,29562
30012,17283,29213
30120,17271,29255
30273,17259,29143
30288,17259,29148
30248,17255,29023
30244,17239,29021
30240,17233,28986
30256,17230,28661
30340,17235,28660
30496,17243,28599
30516,17246,28644
30544,17256,28612
30592,17252,28295
30656,17231,28309
30792,17216,28324
30644,17215,28285
30516,17215,28240
30752,17214,27968
30864,17222,27976
30832,17224,27912
30828,17239,27927
30988,17279,27753
30920,17260,27797
30916,17236,27551
30860,17232,27610
30997,17224,27647
31112,17210,27383
31174,17213,27509
31164,17260,27349
31073,17267,27247
31056,17260,27344
31040,17265,27356
31056,17263,27085
31088,17238,27181
31112,17223,27136
31236,17210,27178
31330,17252,26956
31332,17226,26946
31310,17237,27038
31328,17231,26996
31405,17229,26933
31456,17236,26980
31429,17229,26925
31400,17283,26773
31332,17252,26932
31304,17251,26928
31356,17247,26727
31396,17248,26869
31424,17249,26852
31436,17260,26853
31364,17262,26895
31336,17258,26680
31363,17236,26806
31364,17225,26859
31352,17218,26626
31380,17249,26772
31400,17248,26692
31388,17249,26578
31416,17241,26732
31452,17249,26688
31504,17243,26523
31592,17253,26650
31682,17241,26527
31592,17226,26416
31580,17212,26549
31536,17207,26548
31516,17269,26313
31480,17255,26432
31472,17239,26428
31496,17244,26183
31532,17250,26242
31488,17240,26208
31484,17229,26108
31488,17220,26068
31641,17216,25979
31744,17252,26108
31668,17239,25945
31804,17225,25957
31852,17246,25846
31732,17229,25917
31696,17272,25935
31572,17276,25684
31696,17255,25833
31973,17246,25676
32124,17236,25596
31980,17233,25583
31972,17212,25712
32078,17277,25676
32232,17265,25637
32240,17253,25575
32242,17250,25471
32312,17238,25613
32404,17236,25481
32476,17272,25612
32396,17237,25413
32412,17219,25572
32556,17212,25457
32672,17214,25429
32744,17221,25567
32740,17229,25565
32816,17308,25422
32921,17279,25577
33048,17271,25528
33234,17253,25607
33276,17244,25432
33324,17231,25508
33376,17234,25462
33404,17242,25652
33456,17225,25547
33552,17231,25516
33552,17241,25696
33648,17311,25683
33588,17273,25556
33588,17253,25732
33548,17230,25650
33480,17215,25593
33476,17212,25791
33508,17216,25688
33416,17253,25843
33294,17251,25671
33152,17239,25839
33004,17232,25880
32912,17287,25753
32928,17279,25781
32902,17232,25909
32864,17221,25940
32780,17220,25989
32652,17211,25799
32524,17220,25957
32368,17274,25885
32368,17269,26019
32296,17249,26006
32200,17225,25903
32236,17261,25913
32460,17228,26059
32349,17221,26105
32292,17207,25960
32452,17198,26021
32218,17244,26164
31952,17239,26128
31960,17234,26174
31956,17226,26079
32013,17216,26276
31980,17209,26356
31968,17223,26246
32010,17193,26197
32040,17185,26268
31812,17238,26449
31833,17211,26267
31916,17224,26451
32064,17220,26440
32125,17229,26324
32088,17223,26504
32148,17216,26473
32084,17189,26455
32185,17184,26386
32142,17180,26570
32164,17183,26585
32140,17189,26532
32244,17200,26681
32260,17215,26741
32220,17225,26608
32276,17239,26837
32268,17235,26872
32208,17202,26885
32220,17179,26917
32256,17169,27116
32245,17169,27149
32276,17201,27124
32276,17237,27365
32300,17222,27420
32380,17210,27423
32388,17197,27676
32416,17197,27693
32464,17175,27934
32496,17209,27941
32508,17199,27961
32533,17187,28272
32528,17193,28352
32480,17196,28421
32480,17188,28657
32496,17193,28852
32540,17185,28734
32572,17180,29020
32628,17214,29202
32689,17193,29106
32736,17172,29415
32752,17173,29603
32737,17185,29484
32752,17176,29838
32740,17232,29862
32728,17230,30032
32752,17227,30181
32820,17221,30188
32844,17208,30455
32872,17196,30548
32888,17204,30541
32896,17156,30677
32864,17165,30868
32845,17171,30999
32868,17175,31098
32904,17176,31084
32919,17255,31297
32940,17220,31423
32912,17212,31601
32848,17218,31604
32809,17220,31762
32812,17192,31685
32744,17178,31873
32745,17188,31933
32788,17179,31920
32828,17253,32104
32848,17204,32154
32804,17187,32263
32800,17169,32404
32836,17156,32301
32820,17195,32199
32879,17165,32486
32916,17161,32420
32820,17166,32613
32664,17173,32413
32826,17207,32736
32937,17188,32788
32848,17181,32733
32908,17166,32884
32856,17148,32840
32892,17147,32885
32940,17152,33036
32981,17158,33044
32906,17228,33180
32821,17218,32916
32780,17212,33201
32832,17213,33365
32860,17158,33319
32876,17156,33228
32764,17154,33448
32776,17151,33232
32868,17159,33443
32724,17158,33476
32604,17164,33613
32608,17171,33761
32705,17177,33473
32788,17164,33636
32892,17157,33713
32816,17149,33862
32808,17139,33961
32900,17137,33692
32741,17140,33962
32684,17193,34124
32792,17199,34110
32760,17189,34039
32757,17174,34181
32756,17161,34269
32804,17213,34293
32956,17185,34485
32788,17173,34151
32788,17168,34465
32676,17171,34661
32596,17180,34341
32484,17197,34548
32396,17202,34597
32292,17207,34717
32480,17198,34836
32516,17181,34941
32704,17161,35038
32808,17156,34777
32836,17133,35071
32744,17157,35115
32665,17143,35272
32640,17164,35436
32640,17164,35389
32576,17156,35572
32576,17163,35556
32635,17156,35720
32684,17146,35393
32756,17132,35744
32688,17125,35588
32656,17128,35825
32681,17133,35652
32752,17145,36116
32568,17151,36017
32532,17161,36079
32581,17154,36183
32560,17167,36328
32528,17138,36119
32608,17138,36333
32632,17133,36492
32496,17143,36609
32508,17156,36772
32584,17150,36793
32564,17161,36860
32608,17146,36916
32732,17196,37020
32724,17188,37152
32716,17159,37079
32624,17135,37220
32604,17149,37376
32553,17125,37048
32648,17127,37402
32536,17206,37600
32518,17184,37270
32544,17184,37559
32612,17173,37342
32744,17158,37620
32584,17137,37940
32560,17117,37684
32575,17117,37924
32584,17124,38111
32644,17163,37992
32724,17161,38094
32616,17156,38104
32516,17159,38244
32480,17137,38158
32600,17185,38301
32789,17168,38452
32748,17148,38174
32688,17137,38351
32644,17130,38447
32604,17147,38469
32582,17130,38535
32560,17135,38546
32596,17137,38593
32800,17132,38753
33020,17159,38351
32776,17135,38623
32696,17129,38895
32702,17113,38727
32692,17153,38904
32696,17137,39037
32702,17133,38917
32688,17156,39023
32688,17140,38888
32736,17126,39047
32732,17173,39145
32736,17142,39044
32809,17122,39270
32788,17135,39244
32736,17127,39121
32772,17113,39368
32692,17125,39380
32708,17186,39364
32724,17168,39384
32748,17142,39472
32736,17147,39413
32780,17116,39537
32784,17121,39680
32800,17144,39244
32864,17155,39527
32840,17185,39693
32808,17120,39709
32764,17113,39775
32718,17203,39759
32660,17188,39801
32616,17119,39874
32776,17128,39615
32688,17127,39846
32664,17117,40036
32504,17124,39669
32472,17135,39792
32812,17133,39953
32844,17154,39828
32660,17151,39940
32708,17141,40009
32816,17133,39943
32772,17104,40148
32756,17140,39973
32732,17122,40033
32724,17109,39973
32704,17106,40004
32737,17153,40083
32716,17135,39815
32716,17141,40052
32756,17133,40168
32770,17132,40061
32816,17156,40191
32744,17124,40002
32816,17141,39996
32896,17127,40176
32812,17117,40100
32764,17112,39753
32740,17161,40061
32829,17134,40058
32876,17143,40134
32868,17110,39983
32896,17096,40052
32869,17093,39951
32840,17141,40128
32860,17143,39807
32864,17125,39983
32884,17117,39943
32901,17112,40033
32904,17157,39943
32904,17132,39926
32929,17128,39741
33032,17120,39935
32972,17092,39737
32952,17141,39756
32956,17117,39707
32948,17116,39532
32920,17151,39570
32940,17121,39508
32928,17119,39386
32964,17160,39205
32960,17140,39353
32892,17141,38917
32860,17153,39032
32948,17087,39079
32924,17094,38905
32829,17133,38621
32868,17125,38757
32872,17129,38553
32877,17130,38341
32880,17129,38336
32932,17108,38208
32968,17099,38076
33012,17090,37861
33096,17089,37767
33108,17163,37777
33048,17140,37476
33030,17125,37402
33037,17141,37351
33120,17137,36827
33088,17125,36967
33164,17123,36984
33332,17109,36543
33289,17105,36572
33260,17084,36601
33276,17087,36257
33312,17092,36196
33276,17154,36176
33205,17143,35914
33292,17119,35525
33344,17117,35623
33492,17125,35644
33316,17117,35445
33292,17082,35220
33384,17146,35240
33399,17124,34801
33364,17110,34973
33364,17111,34820
33518,17114,34745
33644,17118,34347
33512,17111,34505
33396,17120,34453
33560,17104,34229
33428,17087,34184
33500,17077,34069
33460,17124,34066
33532,17127,33717
33346,17143,33636
33278,17135,33705
33352,17144,33420
33312,17121,33485
33192,17116,33268
33220,17097,33309
33200,17087,33188
33376,17079,33044
33300,17087,32996
33188,17081,32704
33237,17092,32853
33237,17101,32862
33261,17126,32701
33212,17115,32503
33224,17092,32495
33264,17085,32392
33304,17119,32276
33350,17093,32357
33324,17089,31972
33288,17100,32098
33448,17093,32161
33460,17172,31870
33368,17148,31916
33440,17133,31933
33472,17103,31687
33488,17078,31773
33516,17073,31568
33464,17122,31680
33452,17097,31461
33396,17095,31556
33476,17092,31476
33460,17095,31343
33367,17139,31488
33308,17104,31471
33216,17084,31317
33052,17123,31204
32808,17084,31168
32672,17094,31244
32676,17079,31248
32801,17080,31182
33188,17157,31205
33848,17161,31121
34656,17164,30956
35672,17135,31095
36956,17128,31033
38648,17126,31073
40736,17115,31148
42784,17100,31103
44984,17093,31004
47264,17100,31002
49112,17124,31088
50436,17117,30949
51516,17129,31041
51936,17128,31078
50768,17117,30967
48192,17124,30984
45320,17112,31102
42952,17100,30967
40748,17079,31178
38428,17080,30909
36180,17090,31018
34824,17097,31102
34092,17089,31140
33580,17089,31216
33381,17082,31157
33048,17069,31246
32805,17060,30952
32562,17060,31080
32288,17060,31265
32008,17132,31000
31804,17125,31238
31680,17110,31246
31484,17109,31192
31333,17097,31326
31288,17089,31278
31068,17092,31302
30880,17071,31383
30744,17067,31269
30508,17062,31518
30176,17103,31344
30136,17092,31473
30396,17108,31396
30380,17096,31525
30304,17087,31358
30336,17119,31594
30352,17103,31724
30372,17098,31716
30304,17094,31832
30316,17086,31581
30317,17089,31720
30344,17096,31972
30344,17097,31970
30324,17117,31780
30437,17101,32028
30664,17100,32080
30652,17090,31980
30604,17084,32072
30636,17077,32231
30712,17071,32064
30734,17076,32316
30704,17083,32237
30736,17140,32515
30776,17137,32390
30844,17124,32558
30956,17114,32687
31004,17097,32423
31044,17080,32601
31088,17086,32684
31036,17064,32860
31148,17076,32996
31184,17127,32708
31196,17127,32945
31296,17112,33127
31194,17103,32908
31192,17094,33211
31276,17092,32980
31328,17093,33277
31365,17078,33068
31328,17087,33254
31316,17079,33332
31348,17088,33428
31424,17093,33444
31460,17095,33588
31460,17088,33716
31544,17091,33550
31512,17124,33711
31592,17093,33637
31480,17079,33760
31584,17084,33848
31680,17076,33999
31532,17124,33768
31556,17119,33960
31541,17109,34103
31572,17100,34076
31648,17100,34181
31740,17076,34079
31732,17110,34216
31716,17087,34279
31788,17089,34045
31728,17093,34268
31764,17101,34412
31764,17100,34473
31672,17147,34516
31688,17113,34529
31720,17119,34431
31782,17099,34687
31792,17082,34844
31736,17090,34713
31768,17079,34857
31844,17077,34933
31800,17082,34805
31752,17143,35004
31816,17134,35141
31864,17129,34806
31834,17135,34985
31780,17109,35204
31724,17098,35244
31812,17093,35352
31720,17100,34996
31710,17117,35233
31808,17103,35485
31845,17111,35320
32004,17111,35412
31924,17111,35396
31918,17125,35337
31876,17123,35428
31868,17107,35525
31948,17113,35632
31956,17104,35444
31984,17093,35596
32016,17118,35540
32100,17108,35564
32288,17102,35356
32160,17098,35495
32260,17094,35606
32308,17148,35639
32384,17115,35652
32448,17105,35772
32516,17109,35393
32596,17116,35681
32656,17134,35396
32648,17149,35724
32716,17107,35709
32808,17108,35799
32900,17106,35727
32996,17098,35684
33040,17092,35645
33104,17086,35724
33136,17086,35823
33248,17089,35656
33380,17100,35758
33460,17153,35742
33568,17165,35431
33556,17157,35610
33700,17139,35736
33848,17126,35766
33884,17111,35872
33944,17116,35756
33980,17125,35781
33992,17108,35680
33997,17136,35661
34004,17153,35476
34005,17157,35804
34025,17168,35457
34012,17180,35797
33924,17156,35668
33964,17090,35702
33836,17144,35793
33784,17145,35740
33748,17123,35734
33605,17117,35724
33424,17122,35637
33392,17124,35573
33392,17111,35656
33308,17116,35692
33196,17113,35783
33105,17095,35672
33076,17101,35649
33072,17084,35520
32900,17086,35556
32864,17093,35588
32741,17094,35600
32652,17172,35449
32644,17097,35453
32636,17094,35377
32688,17087,35510
32669,17086,35605
32660,17082,35244
32616,17088,35300
32674,17100,35217
32732,17115,35289
32480,17132,35228
32440,17132,35250
32484,17125,35348
32440,17111,35319
32436,17096,35245
32480,17081,35135
32532,17074,35237
32544,17087,35185
32480,17081,35119
32534,17097,35173
32564,17108,35206
32536,17126,35130
32428,17127,35204
32460,17141,34780
32500,17125,34965
32488,17103,35045
32444,17100,34996
32381,17092,35064
32404,17082,34724
32382,17091,34957
32404,17086,35042
32426,17097,34912
32428,17082,34911
32500,17090,34849
32501,17062,34687
32440,17053,34785
32460,17049,34754
32464,17052,34760
32464,17075,34596
32428,17092,34440
32432,17141,34777
32500,17144,34457
32472,17067,34478
32500,17060,34475
32548,17052,34525
32556,17048,34575
32596,17088,34244
32616,17111,34311
32604,17093,34260
32618,17093,34236
32584,17079,34017
32584,17085,34060
32656,17087,34028
32705,17067,33796
32788,17052,33829
32764,17051,33793
32825,17044,33719
32825,17042,33348
32804,17047,33436
32900,17057,33380
32908,17062,33337
32834,17063,33222
32828,17065,33156
32820,17070,33036
32812,17063,33028
32796,17064,32941
32788,17066,32751
32820,17099,32696
32800,17047,32589
32832,17063,32591
32996,17080,32572
32957,17089,32584
32884,17077,32280
32956,17069,32213
32764,17060,32229
32916,17052,32228
33024,17057,32174
32856,17063,32028
32769,17046,32021
32792,17050,31980
32957,17056,31645
32980,17111,31720
32928,17113,31647
32881,17093,31708
32916,17085,31695
32926,17067,31626
32832,17079,31602
32748,17073,31420
32848,17078,31348
32912,17084,31332
32932,17092,31324
32892,17082,31367
32896,17076,31310
32972,17068,31276
33124,17057,31055
33012,17048,31133
32968,17049,31097
32904,17076,31103
32792,17076,31077
32792,17066,30908
32736,17063,30977
32656,17065,30892
32820,17066,30856
32868,17039,30622
32868,17113,30820
32860,17071,30868
32840,17053,30521
32848,17045,30574
32781,17060,30588
32736,17039,30613
32768,17092,30568
32865,17073,30473
32908,17059,30431
32864,17047,30324
32856,17037,30428
32822,17039,30393
32808,17056,30354
32772,17057,30374
32756,17060,30270
32708,17066,30140
32652,17076,30073
32656,17060,30152
32688,17053,30070
32864,17041,30031
32844,17033,30029
32760,17073,29893
32792,17060,30009
32857,17036,29766
32928,17047,29784
32864,17061,29725
32700,17065,29797
32656,17068,29794
32688,17084,29725
32714,17039,29628
32700,17035,29521
32716,17029,29484
32704,17036,29573
32800,17038,29621
32932,17041,29508
32816,17061,29343
32620,17071,29333
32596,17072,29415
32612,17077,29380
32632,17070,29218
32600,17066,29319
32676,17058,29333
32784,17081,29044
32656,17073,29196
32568,17067,29254
32536,17071,28996
32536,17080,29173
32504,17073,28919
32576,17064,29043
32652,17062,29042
32660,17036,28775
32616,17032,28837
32802,17023,28833
32744,17029,28828
32564,17040,28689
32508,17042,28730
32590,17055,28629
32762,17053,28717
32860,17054,28621
32720,17044,28672
32529,17062,28696
32588,17081,28586
32621,17011,28570
32714,17014,28349
32732,17019,28514
32710,17069,28252
32720,17030,28480
32772,17092,28217
32800,17031,28415
32868,17028,28309
32904,17039,28329
32852,17025,28239
32800,17030,28230
32776,17031,28164
32740,17030,28012
32764,17041,27937
32788,17053,27935
32760,17053,27860
32780,17041,27879
32796,17052,27732
32808,17065,27839
32608,17005,27741
32544,17004,27732
32664,17008,27596
32676,17015,27652
32688,17021,27629
32652,17025,27460
32637,17033,27472
32636,17052,27358
32672,17049,27485
32752,17057,27268
32696,17007,27447
32664,17011,27225
32748,17009,27228
32800,17009,27316
32772,17017,27060
32821,17026,27099
32805,17028,27204
32698,17024,26960
32768,17083,27070
32812,17015,27076
32869,17006,26843
32896,17004,26829
32896,17012,26746
32856,17027,26868
32844,17035,26861
32780,17044,26661
32712,17041,26638
32656,17039,26669
32752,17045,26684
32808,17057,26670
32881,17041,26457
32716,17020,26586
32728,17029,26526
32696,17005,26404
32700,17089,26439
32744,17070,26278
32784,17074,26404
32768,17076,26418
32708,17063,26188
32644,17070,26325
32616,17001,26341
32564,17000,26108
32656,17004,26172
32840,17003,26256
32852,17063,26045
32748,17048,26022
32840,17047,26150
32832,17057,26174
32852,17046,25966
32852,17042,26110
32908,17024,25973
32888,17036,25897
32880,17039,26064
32900,17033,25934
32896,17038,25951
32864,17037,26020
32864,17049,25903
32908,17060,25841
32904,17060,25983
32924,17053,25992
32876,17046,25974
32968,17044,25878
32836,17042,25798
32737,17045,25944
32805,17052,25942
32860,17074,25926
32856,17065,25829
32800,17068,25812
32905,17067,25905
32945,17084,25930
32948,17055,25731
32864,17044,25888
32856,17039,25764
32884,17026,25924
33012,17042,25716
32952,17047,25871
32793,17055,25796
32800,17055,25872
32594,17050,25837
32788,17031,25911
33228,17031,25720
33082,17020,25729
32772,17025,25673
32796,17036,25718
32976,17076,25729
33064,17028,25751
33004,17031,25790
32892,17044,25638
32960,17033,25752
33072,17016,25773
33196,17005,25721
33140,17012,25797
33132,17023,25793
32994,17023,25830
32948,17031,25805
32962,17047,25848
33084,17039,25684
33040,17031,25726
32968,17027,25692
32976,17015,25885
33004,17084,25933
32988,17057,25929
33008,17087,25967
32994,17014,25984
32996,17027,26010
33076,17057,26038
33100,17061,26036
33136,17040,25945
33168,17038,26160
33182,17023,26114
33208,17011,26114
33230,17005,26288
33204,17015,26260
33210,17034,26378
33176,17041,26260
33144,17083,26399
33140,17039,26386
33236,17031,26593
33264,17028,26520
33296,17025,26742
33364,17012,26604
33364,17009,26817
33392,17015,26937
33368,17017,26828
33336,17028,26898
33324,17101,27105
33344,17082,26957
33324,17061,27183
33304,17049,27268
33260,17065,27149
33257,17061,27381
33300,17052,27524
33140,17037,27389
33053,17058,27613
33112,17053,27615
33151,17065,27615
33116,17071,27844
33116,17058,27898
33076,17049,27908
33108,17031,27904
33196,17020,28152
33128,17017,28098
33008,17020,28208
33008,17028,28388
33012,17031,28373
33028,17039,28604
32992,17124,28577
33016,17121,28708
32994,17053,28673
32974,17087,28847
32968,17061,28772
32864,17047,29023
32952,17047,29172
32972,17068,29006
32961,17072,29132
32952,17084,29197
32920,17046,29375
32856,17047,29476
32984,17041,29512
32792,17035,29661
32854,17025,29536
32964,17022,29599
32868,17029,29660
32864,17039,29852
33068,17050,29996
32924,17066,29969
32876,17093,29953
32928,17124,30097
32822,17111,30214
32756,17088,30087
32681,17022,30249
32736,17076,30335
32916,17025,30149
32929,17037,30448
32772,17064,30277
32656,17073,30425
32608,17065,30493
32412,17063,30638
32200,17068,30752
32194,17076,30799
32224,17076,30925
32473,17065,30676
32894,17066,30945
33476,17085,31001
34477,17124,31068
35508,17048,31092
36788,17065,31216
38584,17068,31385
40548,17078,31125
42448,17082,31428
44356,17099,31325
46504,17109,31417
48312,17030,31527
49308,17035,31677
50296,17085,31558
50588,17092,31751
49028,17132,31725
46352,17130,31948
43612,17152,32086
41220,17127,32153
39152,17030,32246
36908,17032,32188
35044,17033,32384
33972,17089,32368
33588,17068,32619
33428,17068,32441
33196,17068,32585
32784,17070,32766
32520,17063,32845
32408,17048,32924
32188,17044,32733
32056,17044,32972
31888,17039,33102
31729,17046,33253
31548,17053,33390
31456,17067,33408
31296,17070,33509
31232,17084,33345
31028,17076,33506
30880,17056,33697
30746,17039,33821
30644,17041,33988
30537,17037,33876
30462,17053,34026
30492,17073,34040
30361,17039,34124
30324,17047,34287
30348,17067,34429
30361,17055,34447
30368,17049,34540
30352,17059,34552
30357,17061,34583
30380,17084,34596
30365,17025,34716
30320,17047,34770
30324,17053,34892
30408,17062,34934
30448,17078,35025
30460,17098,35148
30496,17039,35046
30564,17025,35303
30584,17031,35088
30516,17045,35575
30468,17057,35548
30584,17078,35545
30608,17040,35548
30608,17048,35492
30681,17071,35858
30728,17059,35862
30697,17056,36005
30730,17049,35983
30816,17057,36116
30873,17060,35762
30920,17030,36098
31048,17036,36155
31066,17062,36270
31056,17063,36239
31084,17069,36308
31201,17082,36245
31038,17043,36237
31024,17023,36316
31172,17027,36404
31200,17034,36357
31204,17050,36420
31168,17052,36404
31288,17063,36503
31281,17071,36452
31288,17076,36570
31320,17087,36465
31420,17035,36565
31377,17025,36476
31332,17019,36561
31304,17029,36140
31308,17050,36424
31304,17048,36276
31297,17055,36293
31288,17069,36404
31304,17068,36436
31364,17060,36444
31424,17054,36061
31400,17036,36261
31492,17045,36261
31588,17031,36263
31605,17040,36220
31544,17048,36204
31508,17070,36293
31572,17065,35868
31564,17053,36091
31636,17042,36215
31636,17034,35791
31600,17031,35916
31642,17025,35880
31588,17028,35864
31552,17025,35830
31576,17034,35741
31572,17045,35552
31593,17048,35518
31600,17044,35474
31624,17049,35352
31689,17089,35172
31680,17069,35158
31682,17045,34999
31664,17039,34855
31568,17054,34804
31549,17057,34692
31585,17051,34462
31692,17061,34417
31833,17060,34362
31828,17072,34149
31724,17077,34095
31732,17087,33889
31704,17031,33724
31832,17078,33584
31920,17060,33397
31884,17063,33270
31824,17066,33188
31812,17068,33154
31852,17069,32905
31894,17081,32765
31944,17084,32608
32024,17078,32388
32292,17076,32277
32172,17077,32175
32224,17054,32149
32224,17062,32111
32320,17092,31885
32328,17100,31656
32437,17062,31554
32604,17052,31314
32706,17051,31494
32756,17046,31304
32804,17047,31149
32802,17066,30983
32840,17078,30855
33028,17092,30740
33108,17102,30596
33140,17114,30536
33348,17062,30445
33568,17055,30419
33522,17047,30161
33548,17053,30340
33640,17055,30201
33636,17059,30161
33652,17088,30047
33636,17049,29847
33600,17060,29813
33549,17073,29684
33505,17077,29735
33456,17076,29636
33356,17085,29452
33316,17085,29421
33293,17034,29216
33336,17036,29294
33142,17042,29068
33068,17044,29284
33008,17062,29141
32932,17066,29143
32828,17076,29012
32817,17050,28829
32830,17041,28801
32824,17031,28822
32800,17030,28788
32740,17031,28679
32650,17033,28508
32597,17043,28553
32601,17046,28499
32564,17052,28434
32564,17065,28384
32494,17049,28372
32428,17033,28089
32508,17026,28108
32440,17021,28145
32384,17031,28084
32340,17071,27911
32306,17059,27875
32288,17061,27913
32430,17060,27749
32456,17054,27749
32460,17045,27764
32344,17047,27627
32408,17036,27531
32380,17015,27617
32332,17021,27518
32272,17022,27349
32352,17021,27463
32465,17042,27431
32356,17057,27372
32356,17047,27236
32274,17023,27226
32244,17015,27256
32324,17007,27154
32324,17060,27204
32389,17005,27152
32332,17023,27172
32336,17037,27023
32385,17039,27061
32413,17041,26892
32373,17032,27036
32444,17045,26972
32413,17055,26981
32404,17041,26875
32488,17045,26776
32480,17001,26911
32513,17006,26748
32624,17010,26884
32516,17016,26916
32480,17023,26700
32540,17022,26825
32604,17016,26791
32580,17005,26626
32738,16996,26760
32696,16997,26658
32588,16997,26673
32636,17040,26542
32576,17047,26572
32608,17049,26501
32724,17060,26644
32760,17076,26625
32720,17013,26596
32748,17005,26484
32916,16997,26413
32824,17006,26496
32768,17013,26429
32764,17007,26524
32804,17019,26536
32876,17039,26511
32916,17044,26535
32925,17052,26327
32936,17055,26354
32940,17060,26324
32916,17037,26486
32932,17033,26533
33005,17024,26343
33044,17012,26503
33020,17014,26380
32968,17029,26373
33104,17036,26526
33140,17012,26457
33100,17004,26565
33076,16997,26404
33100,17068,26573
33194,17023,26452
33062,16996,26648
33100,17001,26527
32908,16997,26452
32932,17051,26646
32873,17037,26565
32820,17016,26614
32868,17013,26687
32960,16994,26641
32900,17030,26767
32944,17004,26584
32984,17013,26759
32996,17013,26824
32861,17011,26631
32920,17026,26825
33068,17023,26889
33188,17020,26868
33164,17021,26773
33140,17015,26751
33172,16999,26884
33208,16980,26945
33156,17041,26805
33088,17013,26990
33060,17006,26952
32972,17009,26881
32960,17007,27055
32916,17001,27090
32888,16999,27001
32876,17019,26960
32969,16999,27136
32896,16992,27073
32888,16991,27228
32772,16982,27061
32736,16989,27218
32952,17024,27259
33032,17000,27276
32840,16996,27314
32820,16990,27160
32864,16988,27329
32924,17025,27339
32916,17005,27423
32864,16996,27329
32884,16991,27480
32929,16995,27360
32941,17001,27547
32941,17016,27620
32932,17014,27464
32996,17004,27684
33008,17005,27769
32996,16994,27626
32904,16994,27828
32869,16991,27927
33001,16980,27750
33116,16983,27968
32973,16986,28044
32900,16994,27904
32980,16991,28007
33040,16984,28117
32945,16980,28239
32872,17044,28308
32885,17002,28216
32970,16976,28423
32964,16997,28440
32876,16972,28401
32936,16984,28600
32990,17044,28627
32948,17031,28584
32976,17005,28594
32988,16984,28850
32986,16967,28996
33044,16961,28806
32981,16965,28977
32980,16963,29022
32928,17050,29190
32936,17033,29292
32916,16986,29124
32884,16987,29322
32900,17026,29413
32952,16998,29312
33008,16985,29588
32964,16966,29668
32940,16973,29637
32968,16968,29805
32928,16977,29808
32928,16991,29805
32928,16983,29994
32904,16976,30116
32940,17054,30160
33020,17017,30232
32940,17004,30113
32896,16997,30343
32848,16981,30466
32848,16989,30532
32892,17002,30623
32976,17012,30668
33016,17007,30756
32980,16993,30696
32980,16983,30864
32992,16978,30863
33060,16964,31033
33012,16951,31028
33069,16955,31060
33039,16954,31201
32908,16966,31347
32892,17028,31192
32924,17027,31436
32948,16973,31327
32985,16971,31460
33065,16958,31567
32984,16950,31631
32932,16948,31704
32972,16947,31879
32936,17017,32037
32800,17000,31901
32860,17021,32037
32920,17023,32151
33164,17026,32255
33104,17039,32417
33020,16956,32357
33036,16950,32321
32976,16942,32413
32900,16945,32596
32836,16949,32748
32912,17023,32732
32888,17039,32898
32912,17030,32631
32968,17021,32812
33000,16965,32799
32970,17018,33031
33064,17005,33065
33000,16941,33092
32964,16940,33183
32960,16950,33229
33064,16953,33333
33056,16962,33369
32992,16964,33292
33016,16967,33538
32997,16960,33684
33181,16964,33832
33048,16958,33826
33048,16955,33901
33064,16941,33965
33048,16951,34080
32960,16972,34073
32964,16973,34164
32988,16978,34183
33048,16977,34316
33052,16974,33996
33008,16965,34183
32957,16966,34294
32980,16955,34393
32988,16956,34463
33149,16968,34516
33112,16964,34536
33096,16967,34447
33324,16965,34509
33168,16962,34695
33124,17006,34732
33324,16988,34765
33368,16952,34702
33064,16947,34759
33040,16963,34836
33117,16947,34897
33100,16946,34804
33068,16998,35063
33045,16983,34901
32962,16981,35032
33080,16956,34999
33137,16946,35175
32976,16940,34804
32900,16934,35077
32984,16939,35119
32960,16951,35180
32984,16957,35272
32900,16956,35207
32784,16954,35079
32759,16959,35174
32784,16951,35285
32790,16946,35388
32712,16936,35012
32696,16934,35220
32708,16935,35236
32724,16936,35320
32692,16950,35397
32676,16971,35380
32642,16980,35358
32612,16974,35349
32716,16983,35365
32804,16972,35410
32776,16979,35406
32792,17002,35422
32780,16996,35412
32724,16985,35353
32712,16986,35431
32748,16984,35476
32772,16978,35331
32772,16967,35413
32772,16965,35526
32784,16953,35164
32816,16936,35391
32784,16950,35429
32740,16937,35447
32657,16943,35497
32632,16943,35220
32909,16995,35397
32788,16993,35519
32660,16987,35104
32664,16979,35270
32634,16961,35248
32624,16949,35349
32728,16933,35488
32792,16938,35200
32780,16947,35384
32732,16940,35301
32700,16942,35273
32684,16948,35329
32664,16986,35216
32672,16976,35431
32721,16965,35335
32876,16945,35266
32770,16935,35412
32817,16932,35037
32737,16944,35261
32676,16929,35421
32708,16938,35021
32700,16946,35191
32648,16943,35276
32732,16940,35303
32820,16935,35276
32832,16927,35188
32864,16972,35229
32892,16954,35373
32888,16957,34944
32936,16956,35103
32893,16965,35316
32872,16945,35144
32892,16955,35232
32844,16945,35313
32816,16935,34916
32800,16919,35182
32892,16921,35315
32910,16961,35170
32920,16957,35206
32848,16945,35301
32848,16953,34892
32914,16957,35207
33076,16964,34893
32940,16950,35112
32932,16940,35084
33016,16933,35121
33000,16937,35141
32988,16930,35193
32960,16936,35285
32932,16949,34880
32916,16967,35077
33016,16943,35222
33121,16940,35193
33024,16933,35220
32844,16925,34880
32844,16919,35295
32820,16917,35192
32804,16914,35037
32792,16924,35142
32868,16926,35204
32829,16936,35333
32790,16937,35198
32801,16940,35233
32816,16935,34933
32800,16927,35289
32820,16918,35181
32864,16962,35276
32860,16949,35375
32929,16949,35000
32876,16949,35158
32876,16949,35381
32860,16955,35027
32880,16948,35249
32968,16943,35460
32908,16933,35143
32948,16949,35268
32896,16957,35320
32796,16976,35332
32796,16925,35463
32792,16927,35452
32768,16932,35418
32824,16933,35388
32892,16933,35492
32868,16981,35591
32853,16993,35503
32797,16914,35642
32768,16916,35568
32708,16919,35681
32649,16932,35328
32725,16928,35473
32744,16943,35700
32668,16937,35357
32636,16934,35556
32528,16931,35780
32377,16923,35381
32494,16929,35668
32584,16958,35836
32148,16955,35525
31941,16950,35748
31704,16958,35889
31660,16962,35543
31848,16963,35670
32224,16951,35769
32764,16946,35772
33664,16942,35768
34612,16933,35812
35813,16934,35904
37252,16945,35895
39180,16979,35925
41260,16996,35932
43428,17045,36044
45688,16932,35718
47656,16920,35842
49064,16926,35975
50224,16941,35668
50840,16930,35910
50004,16907,36081
47680,16910,35805
45000,16912,35872
42536,16921,35941
40503,16930,36035
38200,16942,36092
35832,16948,36068
34356,16942,36068
33616,16920,36005
33272,16909,36094
32981,16900,36212
32569,16901,35857
32160,16903,35961
31948,16909,36152
31864,16918,36138
31636,16927,36081
31384,16931,36170
31172,16917,36193
30989,16916,36239
30844,16959,36193
30792,16926,36000
30693,16937,36166
30457,16932,36148
30272,16940,36248
30108,16940,36223
29988,16930,36233
29816,16925,36270
29764,16929,36327
29716,16919,36275
29717,16906,36213
29680,16903,36221
29680,16902,36303
29736,16904,36412
29700,16922,36020
29780,16930,36156
29790,16934,36191
29832,16965,36121
29849,16959,36260
29896,16944,36342
29904,16943,36296
29928,16929,36184
30008,16951,36223
30037,16953,36238
30032,16955,36313
30056,16969,36284
30084,16959,36388
30144,16952,35951
30244,16941,36120
30352,16935,36212
30396,16940,36223
30404,16937,36180
30388,16950,36178
30284,16942,36260
30268,16952,36196
30276,16945,36092
30304,16945,36191
30289,16938,35781
30329,16932,35988
30548,16920,36040
30624,16921,36004
30360,16927,36057
30436,16931,35964
30510,16925,36030
30496,16927,35892
30533,16951,35863
30668,16953,35500
30689,16937,35652
30632,16930,35518
30648,16928,35528
30656,16921,35557
30788,16925,35591
30729,16912,35658
30666,16909,35316
30764,16919,35316
30720,16927,35444
30680,16932,35381
30740,16935,35220
30680,16975,35289
30644,16965,35255
30712,16957,35289
30713,16946,34981
30648,16933,35108
30644,16925,35007
30684,16919,35119
30606,16980,34975
30624,16965,34652
30781,16965,34852
30796,16953,34960
30804,16953,34656
30808,16927,34790
30800,16926,34584
30804,16927,34773
30808,16937,34368
30800,16942,34537
30676,16938,34524
30796,16948,34496
30880,16955,34367
30868,16931,34508
30820,16921,34277
30780,16965,34328
30780,16974,34311
30746,16909,34107
30780,16917,34135
30784,16917,34181
30672,16935,33770
30666,16990,33908
30632,16974,33969
30718,16988,33546
30836,16966,33663
30912,16949,33636
30944,16927,33631
30900,16927,33492
30832,16944,33436
30818,16936,33389
30892,16942,33202
30780,16957,33166
30824,16946,33188
30952,16935,32990
31048,16986,32956
31076,16967,32950
31140,16951,32964
31157,16932,32575
31280,16948,32689
31264,16942,32660
31226,16940,32528
31400,16945,32457
31412,16990,32388
31468,16959,32094
31600,17000,32200
31777,16965,32135
31905,16938,32025
31872,16935,31982
31892,16933,31803
31872,16993,31836
31948,16992,31751
32070,16976,31556
32180,16976,31585
32312,16967,31556
32420,16970,31317
32476,16941,31356
32544,16935,31165
32640,16986,31221
32764,16965,30988
32808,16967,31044
32993,16969,31042
32910,16980,30785
33056,16965,30805
33132,16960,30617
33100,16953,30632
33144,16943,30604
33084,16944,30583
33034,16940,30445
33160,16948,30298
33188,17025,30365
33065,16995,30231
32940,16993,29948
32816,16964,30103
32776,17010,29919
32708,16977,30020
32589,16963,29884
32569,16956,29700
32596,16949,29796
32376,16996,29612
32356,16988,29428
32318,16983,29564
32181,16974,29375
32160,16980,29423
32176,16960,29155
32168,16945,29304
32088,16982,29137
32068,16949,29240
32144,16957,28966
31956,16932,28857
31944,16942,28881
31912,16953,28967
31970,17001,28696
31936,17004,28794
31796,16999,28594
31748,16986,28718
31797,16967,28404
31952,16975,28424
31830,16964,28393
31780,16983,28432
31804,16982,28376
31804,16984,28209
31752,16994,28288
31844,16978,28113
31832,16970,28196
31829,16945,27980
31772,16948,28075
31700,16935,28082
31740,16924,27932
31736,16927,27765
31784,16993,27904
31884,16987,27932
31808,16973,27705
31772,16959,27821
31708,16961,27809
31557,16942,27592
31686,16943,27650
31944,16940,27625
31938,16922,27709
31868,16921,27647
31860,16932,27544
31828,16946,27684
31856,16940,27573
31808,16945,27626
31713,16978,27456
31860,16963,27609
31932,16935,27687
31904,16939,27429
31956,16928,27599
32028,16934,27424
32302,16943,27485
32100,16954,27429
32080,16962,27570
31936,16961,27596
32136,16967,27427
32152,16964,27456
32180,16960,27480
32252,16940,27394
32237,16930,27589
32260,16933,27648
32262,16942,27464
32168,16956,27611
32308,16964,27693
32340,16956,27489
32346,16943,27655
32381,16941,27628
32632,16922,27738
32736,16911,27557
32669,16981,27714
32672,16951,27675
32736,16950,27746
32789,16956,27640
32784,16940,27554
32764,16938,27666
32716,16933,27766
32692,16928,27541
32764,16923,27716
33068,16964,27652
32992,16959,27572
32796,16967,27721
32921,16960,27588
32892,16961,27668
32856,16938,27717
33016,17009,27584
33084,16936,27746
32988,16985,27692
32989,16964,27819
33037,16945,27676
33036,16953,27863
33156,16992,27812
33124,16934,27982
32992,16972,27918
33056,16956,28140
33180,16963,28032
33136,16954,28265
33136,16933,28212
33109,16925,28454
33116,16915,28352
33097,16923,28606
33080,16957,28663
33068,16962,28692
33085,16946,28928
32992,16943,28983
32996,16990,28885
32957,16974,29173
33044,16965,29362
33024,16943,29279
33004,16943,29520
33024,16925,29503
33028,16933,29619
33056,16938,29831
33045,16950,29918
33008,16948,30103
32980,16948,30171
32972,16989,30415
32924,16987,30319
32988,16986,30528
33020,16965,30714
32992,16967,30616
32984,16956,30889
32940,16959,31044
32888,16967,31150
