ECG,EDA,RR
31328,9865,32041
31456,9858,32231
31416,9845,32207
31389,9842,32100
31389,9843,32124
31428,9849,32209
31429,9905,32229
31452,9897,32103
31464,9937,32147
31461,9858,32104
31468,9860,32156
31476,9859,32247
31476,9849,32138
31392,9871,32337
31412,9865,32287
31548,9899,32228
31488,9919,32252
31480,9939,32327
31464,9871,32338
31456,9861,32095
31465,9886,32284
31496,9865,32152
31470,9869,32325
31425,9909,32300
31385,9847,32349
31384,9892,32391
31456,9917,32363
31516,9930,32507
31564,9934,32135
31449,9935,32357
31390,9909,32532
31396,9892,32357
31460,9904,32448
31440,9905,32496
31344,9924,32357
31451,9928,32386
31460,9949,32431
31352,9950,32461
31490,9950,32485
31517,9942,32359
31596,9994,32444
31620,9847,32434
31724,9848,32439
31688,9849,32461
31640,9862,32340
31652,9884,32428
31920,9902,32335
31980,9892,32325
31968,9883,32401
31928,9881,32452
32132,9887,32431
32324,9879,32519
32372,9873,32454
32436,9914,32549
32004,9899,32349
32245,9923,32413
32552,9957,32428
32544,9940,32472
32613,9905,32423
32672,9893,32488
32900,9881,32501
33025,9865,32406
33144,9924,32500
33244,9852,32622
33292,9956,32435
33384,10001,32541
33368,9948,32489
33396,9950,32500
33472,9949,32580
33568,9937,32714
33648,9929,32378
33688,9922,32503
33668,9922,32613
33656,9921,32673
33636,9930,32768
33704,9900,32409
33612,9896,32705
33452,9893,32733
33476,9901,32720
33529,9927,32673
33465,9866,32749
33432,9856,32846
33364,9871,32816
33276,9862,32837
33204,9873,32889
33052,9855,32893
33032,9867,32916
32932,9874,32806
32856,9903,32925
32817,9887,33074
32752,9920,32694
32732,9897,32977
32676,9913,33097
32608,9911,32727
32628,9917,33004
32580,9917,33156
32488,9943,32860
32396,9973,33025
32368,9936,33159
32376,9949,32968
32384,9850,32980
32381,9843,32991
32408,9860,32925
32420,9862,33163
32372,9855,32780
32360,9862,32931
32352,9889,33121
32304,9871,32796
32269,9858,33096
32284,9893,33132
32261,9861,33015
32280,9863,33194
32264,9863,33143
32324,9864,33127
32320,9869,33300
32296,9876,32917
32264,9871,33197
32244,9885,33188
32240,9879,33287
32268,9879,33413
32320,9859,33023
32372,9852,33286
32432,9841,33287
32508,9842,33348
32336,9863,33480
32297,9858,33108
32236,9858,33407
32245,9855,33585
32372,9861,33473
32388,9850,33404
32421,9836,33620
32480,9829,33381
32501,9846,33480
32496,9841,33595
32464,9853,33477
32484,9868,33519
32503,9881,33604
32454,9868,33708
32460,9871,33636
32504,9868,33622
32556,9857,33560
32576,9852,33618
32576,9855,33764
32616,9851,33476
32549,9864,33557
32620,9861,33765
32596,9875,33332
32524,9885,33512
32552,9920,33359
32592,9923,33655
32588,9964,33535
32598,9826,33631
32516,9828,33756
32640,9841,33656
32716,9858,33558
32680,9861,33799
32688,9902,33668
32644,9909,33529
32592,9916,33782
32673,9930,33685
32752,9837,33692
32748,9825,33717
32789,9836,33797
32960,9844,33640
32836,9868,33677
32772,9888,33799
32684,9866,33404
32669,9869,33665
32720,9842,33822
32692,9931,33396
32724,9902,33657
32796,9891,33756
32780,9854,33385
32796,9837,33584
32740,9846,33756
32724,9848,33708
32620,9874,33828
32612,9880,33678
32735,9868,33554
32952,9851,33641
33064,9830,33527
32956,9901,33543
32976,9887,33668
32992,9885,33701
32941,9847,33516
32905,9854,33796
32932,9850,33599
32944,9845,33349
32932,9845,33516
32900,9852,33671
32884,9854,33665
32970,9820,33668
32964,9808,33797
32988,9813,33342
33056,9822,33562
32952,9830,33583
32860,9873,33574
32696,9870,33324
32660,9877,33561
32780,9907,33368
32836,9831,33572
32744,9832,33317
32476,9814,33604
32366,9814,33695
32304,9823,33578
32668,9828,33435
33024,9842,33528
32911,9946,33596
32929,9927,33613
32940,9909,33316
32949,9876,33407
32904,9839,33664
33014,9845,33573
32924,9830,33415
32772,9847,33490
32700,9849,33432
32796,9871,33492
32952,9885,33554
32944,9888,33623
32940,9856,33316
32852,9849,33605
33016,9831,33524
33092,9811,33581
32968,9895,33652
32892,9908,33673
32940,9964,33369
32960,9924,33636
32960,9912,33777
32960,9914,33799
32956,9833,33529
32941,9826,33815
32960,9886,33783
33056,9844,33813
33168,9828,33905
33020,9853,34055
32892,9835,33654
32920,9829,33882
32928,9986,34111
32936,9914,33840
32997,9871,33940
33004,9849,34238
32980,9839,34132
32952,9832,34084
32957,9853,34161
32928,9924,34196
33016,9819,34292
33008,9830,34239
32992,9831,34115
32996,9837,34250
32920,9836,34293
33008,9823,34235
33032,9811,34356
32916,9839,34304
32844,9834,34351
32885,9862,34349
32864,9889,34468
32836,9902,34281
33108,9903,34374
33008,9956,34431
32952,9828,34364
32844,9824,34541
32937,9836,34421
33012,9826,34536
33077,9827,34112
32868,9841,34439
32884,9838,34431
32992,9869,34441
32864,9897,34588
32836,9836,34465
32956,9831,34597
32868,9854,34183
32936,9826,34428
32928,9839,34537
32800,9858,34504
32776,9873,34596
32796,9872,34430
32892,9886,34525
33004,9889,34398
33024,9871,34573
32956,9856,34292
32980,9853,34492
33068,9836,34611
32900,9811,34545
32792,9807,34452
32768,9809,34606
32920,9814,34619
32929,9828,34736
32800,9835,34644
32840,9841,34782
32884,9830,34500
32877,9818,34636
32916,9804,34812
32900,9929,34565
32929,9804,34721
32884,9952,34883
32805,9820,34532
32780,9847,34820
32804,9887,34820
32896,9899,34929
32984,9897,34760
32884,9813,34776
32892,9820,34924
32896,9831,34887
32908,9836,35009
32876,9945,34917
32832,9810,35030
32860,9828,34853
32768,9952,34980
32784,9919,35104
32816,9900,34932
32800,9893,34994
32792,9872,35139
32832,9861,34712
32780,9861,34926
32824,9860,35181
32754,9856,35111
32796,9839,35031
32736,9847,35092
32728,9862,35201
32764,9844,35217
32796,9847,35169
32852,9820,35278
32784,9823,35396
32826,9815,35103
32834,9828,35188
32864,9845,35391
32872,9855,35362
32744,9847,35393
32732,9853,35335
32718,9866,35319
32813,9887,35390
32932,9865,35455
32925,9863,35335
32860,9884,35438
32888,9894,35508
32908,9932,35623
32782,9959,35335
32688,9971,35487
32796,9944,35655
32796,9822,35572
32760,9814,35543
32776,9806,35505
32820,9801,35556
32828,9805,35645
32762,9798,35433
32752,9812,35620
32840,9903,35468
32609,9891,35699
32736,9887,35586
32852,9863,35264
32924,9845,35602
32993,9799,35596
32860,9796,35615
32876,9799,35617
32912,9804,35599
32798,9807,35549
32760,9825,35524
32736,9906,35719
32804,9908,35497
32774,9884,35188
32672,9871,35541
32624,9879,35664
32764,9905,35530
32762,9795,35620
32932,9828,35424
32952,9840,35487
32760,9854,35310
32686,9841,35376
32760,9845,35428
32604,9829,35311
32725,9812,35300
32956,9804,35354
32985,9794,35365
32768,9801,35256
32640,9815,35311
32876,9840,35401
32844,9847,35022
32712,9831,35205
32868,9829,35332
32900,9948,34997
32884,9910,35121
32590,9861,35233
32612,9796,35076
32832,9794,35200
32721,9802,34989
32756,9809,35017
32792,9831,35079
32669,9839,34973
32628,9837,35069
32764,9847,34868
32952,9829,34904
32949,9833,35020
32961,9820,34823
32988,9834,34924
32948,9919,34800
32944,9807,34838
33020,9834,34735
32904,9842,34789
32936,9844,34311
32925,9843,34484
32908,9841,34612
32960,9828,34311
33056,9826,34512
33104,9807,34597
33088,9803,34516
33060,9880,34432
33020,9891,34276
33057,9825,34372
33092,9821,34353
33064,9815,34461
33056,9817,34300
33132,9823,34184
33144,9822,34207
33085,9813,34244
33064,9828,34344
32992,9845,33946
32929,9879,34121
32832,9903,34276
32760,9901,34033
32832,9955,34124
32860,9915,33992
32832,9881,34123
32820,9871,33728
32872,9795,33958
32848,9798,34104
32792,9826,34037
32720,9855,34164
32745,9823,33684
32708,9821,33864
32700,9818,34137
32756,9808,33935
32765,9920,33700
32704,9930,33957
32684,9801,34031
32700,9887,33926
32644,9893,33983
32632,9807,33977
32576,9820,33660
32560,9821,33927
32597,9886,34110
32660,9867,33927
32628,9854,34025
32681,9834,33839
32692,9817,34048
32672,9813,33679
32616,9918,33927
32620,9815,34004
32630,9815,33961
32600,9822,33925
32616,9812,33663
32596,9804,33994
32744,9795,33924
32744,9790,33980
32740,9873,33912
32661,9801,34004
32520,9801,33996
32472,9820,33914
32436,9824,33990
32596,9851,33833
32584,9842,33921
32388,9843,33964
32208,9816,33958
31938,9828,34107
31697,9828,33914
31680,9845,34013
31937,9887,34113
32028,9815,33995
32273,9823,33964
33096,9828,34041
34104,9842,33732
35056,9839,33980
36268,9820,34157
37908,9848,33730
39848,9947,34036
41704,9796,34161
43712,9796,33913
45661,9812,34116
47145,9910,34061
48248,9903,34246
49400,9885,34126
49480,9879,33906
48040,9856,34177
45864,9868,34067
43208,9865,34300
41084,9864,33994
39028,9867,34214
36786,9893,34304
34965,9816,34124
33928,9820,34256
33248,9880,34143
32944,9828,34326
32592,9805,34200
32216,9810,34318
32064,9791,34161
31904,9794,34383
31696,9825,34368
31449,9821,34303
31208,9830,34428
31008,9808,34119
30912,9806,34424
30804,9796,34584
30752,9790,34404
30710,9781,34364
30476,9787,34455
30256,9802,34565
30078,9805,34444
29953,9805,34609
29848,9818,34626
29756,9818,34740
29800,9818,34564
29818,9824,34636
29792,9820,34796
29812,9814,34687
30036,9849,34669
29936,9876,34713
30096,9803,34615
29885,9811,34855
29844,9820,34495
29928,9822,34788
29992,9813,34989
30008,9805,34544
30064,9795,34801
30164,9793,35033
30216,9789,34958
30240,9809,34956
30116,9824,34968
30220,9820,34685
30104,9820,35060
30080,9816,35119
30148,9813,35027
30284,9812,35124
30332,9824,35268
30312,9812,34992
30496,9814,35169
30488,9826,35228
30420,9820,35216
30524,9828,34922
30524,9837,35310
30524,9834,35260
30628,9841,35296
30688,9836,35375
30704,9809,35463
30756,9810,35119
30776,9805,35429
30768,9818,35564
30708,9847,35323
30680,9871,35485
30700,9875,35576
30776,9818,35484
30884,9810,35373
30848,9806,35564
30828,9804,35591
30893,9813,35703
30957,9807,35528
31004,9811,35624
30980,9831,35696
30968,9842,35556
30972,9852,35623
30944,9846,35700
30956,9830,35596
31096,9822,35668
31093,9823,35628
31020,9805,35692
31066,9811,35300
31012,9795,35672
31048,9804,35708
31056,9812,35633
31048,9818,35716
31084,9814,35764
31090,9817,35709
31020,9806,35751
31008,9818,35600
31116,9814,35900
31137,9818,35741
31164,9805,35770
31072,9809,35765
31164,9847,35924
31016,9836,35605
30972,9835,35847
31024,9846,35750
31085,9829,35984
31268,9798,35797
31184,9806,35871
31232,9807,35777
31160,9821,35934
31068,9837,35735
31049,9871,35769
31064,9865,35908
31044,9861,35902
31036,9844,35860
30960,9853,35978
31028,9836,35660
30928,9831,35924
30952,9851,35998
31172,9866,35925
31172,9879,35892
31120,9878,35927
30944,9879,35575
30856,9825,35776
31036,9816,35957
31304,9812,35894
31317,9816,36002
31333,9847,35520
31380,9799,35788
31261,9803,35823
31328,9811,35828
31528,9830,35969
31636,9849,35879
31580,9858,35708
31596,9839,35904
31592,9838,35893
31704,9832,35983
31852,9852,35620
31948,9801,35744
31929,9806,35949
32036,9829,35896
32092,9825,35846
32101,9831,36026
32284,9828,35904
32412,9827,35732
32496,9898,35949
32516,9871,35916
32652,9853,35786
32680,9828,36012
32762,9933,35781
32933,9957,35973
33038,9964,35925
32988,9838,36073
33024,9855,35940
33144,9844,35856
33113,9857,35876
33120,9884,35804
33216,9800,35948
33188,9801,36040
33176,9809,35882
33112,9827,35911
33040,9832,36058
32984,9827,35875
32988,9829,35920
32944,9822,35900
32908,9964,36065
32884,9874,35874
32760,9825,35964
32654,9831,35808
32520,9825,36092
32434,9837,35908
32476,9830,35959
32654,9822,35871
32372,9818,36062
32298,9817,35906
32245,9892,36018
32248,9854,35929
32280,9829,36073
32204,9816,35662
32128,9841,36167
32076,9849,35833
32036,9866,35910
31976,9871,36064
31981,9849,36108
32038,9839,36224
31969,9833,35754
32040,9828,36095
32000,9808,36023
31950,9814,36084
31956,9809,36174
31937,9813,36020
31888,9842,36284
31880,9844,35847
31580,9828,36070
31783,9838,36244
31840,9829,36150
31836,9786,36256
31880,9779,35908
31854,9780,36184
31736,9794,36372
31648,9813,36255
31756,9828,36141
31792,9831,36352
31804,9824,36296
31836,9832,36265
31962,9814,36460
31940,9805,36304
31904,9798,36316
31990,9801,36317
32033,9811,36492
32072,9809,36308
32069,9825,36244
31992,9817,36381
32080,9818,36213
32152,9808,36501
32204,9802,36309
32176,9791,36333
32104,9794,36357
32124,9809,36220
32152,9817,36377
32188,9795,36350
32196,9796,36487
32224,9838,35972
32220,9829,36240
32236,9849,36268
32224,9852,36327
32224,9851,36201
32232,9783,36293
32286,9773,36309
32358,9780,36212
32269,9896,36356
32248,9804,36228
32256,9799,36266
32360,9826,36276
32344,9816,36238
32392,9815,36359
32392,9829,36196
32468,9837,36052
32528,9851,36197
32384,9782,36188
32412,9829,36121
32404,9796,36274
32465,9801,36152
32496,9857,35925
32452,9919,36213
32540,9878,36053
32564,9845,36092
32572,9854,36085
32556,9844,36094
32560,9851,36168
32540,9851,35796
32532,9879,36006
32532,9801,35960
32521,9814,35908
32568,9828,35911
32596,9855,35929
32628,9777,35955
32688,9856,35598
32628,9773,35815
32600,9773,35865
32672,9814,35838
32604,9822,36020
32648,9825,35880
32608,9829,35733
32581,9839,35892
32600,9826,35836
32612,9817,35769
32700,9814,35872
32796,9815,35794
32772,9817,35645
32749,9830,35817
32664,9838,35764
32572,9871,35872
32553,9914,35740
32786,9884,35710
32788,9777,35494
32805,9783,35808
32777,9796,35553
32752,9790,35495
32752,9797,35684
32788,9811,35617
32796,9870,35613
32724,9916,35514
32692,9795,35540
32716,9790,35656
32736,9786,35500
32776,9796,35381
32804,9773,35449
32824,9778,35468
32712,9791,35509
32656,9810,35415
32576,9813,35512
32448,9814,35329
32492,9833,35373
32754,9850,35416
33001,9842,35304
33000,9829,35203
32820,9829,35206
32560,9814,35258
32596,9825,35350
32820,9815,35118
32920,9831,35170
32940,9836,35236
32968,9837,35113
32992,9858,35200
33256,9885,34684
33104,9865,34902
32898,9766,34903
32840,9849,34974
32909,9834,34847
32893,9842,34912
32732,9827,34518
32612,9829,34785
32624,9816,34820
32832,9798,34808
32892,9798,34858
32864,9807,34756
32888,9804,34836
32885,9812,34695
32888,9871,34788
33049,9778,34648
32946,9789,34530
32832,9815,34612
32832,9818,34640
32840,9804,34728
32900,9813,34596
33028,9788,34661
33028,9778,34335
32928,9774,34485
32992,9799,34536
32964,9809,34520
32952,9815,34608
32932,9825,34300
32868,9816,34455
32780,9788,34319
32712,9775,34356
32880,9764,34413
32904,9765,34405
32768,9913,34292
32780,9768,34352
32896,9775,34385
32992,9782,34180
32980,9794,34277
32832,9789,34325
32808,9788,34169
33068,9777,34223
33085,9766,34261
32952,9759,33956
33096,9764,33996
33172,9765,34117
33116,9784,34080
32989,9816,34055
32964,9809,34036
33088,9785,34002
33008,9783,34133
33028,9779,34014
32992,9871,33895
33069,9816,34132
33140,9826,34029
33112,9815,33969
32928,9800,34018
32984,9797,33700
33200,9821,33969
33021,9821,34004
32968,9816,34073
33045,9806,34097
33060,9798,33821
33056,9791,33944
33028,9780,34060
33062,9791,34127
33072,9781,34277
33004,9790,33935
32996,9797,34133
33040,9808,34173
33056,9814,34165
33092,9796,34148
33020,9788,34330
33068,9779,34428
33132,9808,34429
33112,9869,34437
33045,9772,34431
33028,9781,34333
32984,9789,34709
33029,9816,34592
33060,9800,34612
33053,9800,34607
33116,9797,34695
33136,9813,34756
33060,9836,34823
33080,9836,34897
33048,9777,35042
33040,9837,34628
33040,9870,34956
33060,9783,35060
33072,9782,35070
33100,9798,35103
33117,9795,35174
32928,9762,35124
33016,9789,34877
32961,9788,35109
32888,9785,35233
32956,9812,35344
32912,9788,35224
32880,9786,35345
32864,9781,35441
32821,9776,35556
32908,9761,35419
32920,9756,35487
32840,9767,35613
32836,9779,35564
32944,9787,35420
32957,9787,35591
32908,9792,35657
32876,9778,35519
32976,9797,35597
32959,9792,35702
32958,9779,35676
33000,9777,35783
32928,9785,35732
32772,9788,35750
32800,9770,35847
32780,9778,35885
32820,9790,35808
32896,9800,35890
32996,9789,36049
32960,9786,35940
32996,9767,35814
32980,9759,36071
32996,9753,36012
32945,9764,35897
32828,9776,35983
32820,9808,36004
32744,9812,35888
32676,9827,35980
32441,9854,36080
32632,9772,36188
32892,9822,36052
32960,9797,36261
32996,9787,36274
33085,9785,36276
33088,9793,36231
32960,9814,36305
32817,9845,36424
32820,9828,36225
32840,9812,36417
32952,9805,36422
32904,9793,36391
32910,9807,36460
32852,9827,36564
32884,9832,36516
32868,9905,36375
32792,9775,36628
32852,9781,36588
32764,9782,36440
32856,9859,36689
32920,9772,36677
32784,9762,36820
32808,9751,36340
32832,9751,36630
32912,9763,36700
32836,9783,36727
32800,9796,36745
32928,9805,36844
32952,9870,36884
32932,9845,36901
32896,9769,36922
33020,9756,36625
33060,9749,36802
33068,9771,36967
32937,9776,36996
32996,9791,37145
32928,9795,37061
32902,9804,37220
32916,9796,36736
33048,9807,37261
33152,9815,37164
33146,9820,37320
33184,9816,36813
33328,9822,37263
33224,9821,37045
33112,9834,37227
32937,9830,37415
33016,9821,36941
33152,9830,37324
33156,9836,37156
33184,9823,37383
33176,9794,37520
33176,9780,37345
33101,9762,37479
32916,9778,37319
32980,9773,37583
32952,9778,37175
32824,9771,37517
32817,9828,37598
32816,9814,37604
32858,9829,37399
32856,9756,37525
32833,9748,37740
32932,9739,37751
32952,9753,37703
32928,9757,37740
32879,9871,37820
32824,9827,37690
32909,9817,37828
32912,9804,37853
32868,9784,38049
32812,9776,37964
32844,9769,37878
32852,9767,37971
32964,9767,38065
32924,9777,38183
32832,9791,38049
32752,9806,38119
32748,9820,38316
32708,9821,38180
32720,9818,38108
32828,9787,38345
32828,9777,38253
32921,9778,38173
32900,9772,38423
32844,9771,38112
32840,9790,38317
32852,9815,38495
32724,9788,38396
32728,9767,38151
32780,9775,38412
32960,9755,38588
32950,9739,38631
32870,9751,38588
32728,9829,38695
32820,9816,38733
32572,9797,38669
32478,9777,38741
32296,9775,38972
32094,9908,38820
31984,9761,38828
31958,9757,38996
32096,9749,38977
32492,9776,39056
33116,9771,38759
33632,9823,39204
34432,9836,39124
35484,9825,38980
36902,9820,39201
38712,9796,39212
40484,9793,39220
42584,9776,39332
44632,9775,39292
46176,9779,39374
47240,9789,39524
48328,9796,39248
48912,9773,39445
48176,9764,39644
46024,9759,39289
43456,9769,39560
41260,9856,39766
39456,9757,39645
37468,9745,39674
35512,9844,39399
34196,9861,39575
33708,9833,39764
33412,9826,39796
32832,9830,39934
32600,9830,39652
32448,9786,39869
32149,9769,39991
32004,9773,39860
31788,9738,39951
31589,9735,39844
31384,9837,39977
31172,9875,39988
31048,9757,40037
30920,9767,40000
30816,9766,40145
30740,9761,40128
30536,9755,40191
30392,9745,39864
30232,9739,40151
30164,9741,40288
29992,9742,40239
29912,9830,40124
29901,9820,40237
30072,9818,40276
30048,9799,40448
30060,9782,40165
30128,9772,40327
30064,9771,40526
29984,9767,40380
30136,9761,40262
30224,9751,40583
30180,9761,40497
30169,9764,40601
30040,9775,40064
30128,9773,40404
30284,9767,40703
30400,9826,40357
30388,9863,40580
30352,9745,40711
30560,9740,40692
30336,9748,40751
30308,9755,40752
30316,9765,40774
30402,9773,40901
30381,9781,40614
30404,9798,40732
30529,9792,40941
30700,9767,40916
30692,9780,40992
30740,9747,40936
30700,9749,40928
30685,9755,40993
30577,9776,40904
30664,9805,41117
30864,9789,41116
30776,9794,41268
30744,9824,41151
30824,9836,41343
30804,9823,40848
30788,9809,41220
30826,9805,41407
30797,9825,41237
30840,9858,41367
30828,9773,41314
30936,9781,41497
30960,9770,41309
30968,9760,41309
31004,9756,41383
31084,9745,41553
31132,9744,40948
31044,9859,41238
31040,9887,41044
31100,9856,41311
30992,9775,41396
30920,9775,41344
31009,9767,40967
30960,9763,41529
31022,9759,41479
31128,9810,41369
30968,9783,41521
31040,9766,41572
31042,9773,41676
31073,9798,41242
31064,9806,41469
31044,9804,41542
31092,9796,41541
31040,9789,41572
31060,9785,41670
30996,9780,41708
31048,9760,41708
31085,9770,41759
31064,9784,41973
31015,9796,41792
30948,9811,41940
30884,9814,41839
30888,9825,42031
31036,9863,41776
30992,9756,41573
30932,9753,42021
30896,9748,41975
30945,9755,42084
30936,9760,42005
30916,9770,42177
30897,9777,42045
30856,9779,42143
30836,9776,42063
31004,9770,42160
31016,9791,41941
31012,9797,41760
30964,9814,41956
30900,9816,42080
30958,9837,42086
30948,9773,42205
31004,9780,42044
30968,9783,42212
30984,9774,42009
31056,9777,42007
31142,9793,41736
31154,9788,41896
31176,9779,42120
31220,9771,42008
31284,9784,42140
31228,9824,41969
31268,9849,41983
31429,9783,41897
31608,9809,41524
31605,9800,42007
31776,9828,41382
31920,9755,42018
31857,9753,41816
31888,9758,41910
31930,9786,41793
31988,9810,41856
32136,9803,41759
32192,9814,41874
32256,9800,41673
32365,9799,41664
32638,9796,41197
32616,9793,41486
32586,9797,41583
32612,9824,41713
32596,9829,41039
32592,9779,41572
32592,9785,41005
32612,9805,41393
32612,9797,41076
32577,9828,41401
32504,9817,40967
32520,9818,41207
32504,9758,40960
32456,9755,41117
32352,9794,41023
32256,9805,41086
32268,9813,40952
32236,9797,41030
32072,9804,40517
32028,9828,40984
31953,9818,40583
31864,9786,40823
31900,9782,40788
31862,9798,40663
31768,9808,40623
31680,9811,40541
31532,9807,40564
31412,9804,40455
31380,9799,40507
31460,9797,40292
31460,9788,40339
31393,9796,40124
31380,9774,39943
31392,9780,39801
31424,9789,39815
31412,9804,39737
31256,9822,39652
31261,9837,39633
31264,9832,39500
31113,9818,39524
31224,9809,39309
31428,9828,39278
31204,9876,39105
31040,9809,39078
31068,9802,38863
31104,9802,38800
31188,9799,38772
31104,9788,38575
31040,9791,38368
31068,9785,38295
31104,9784,38263
31204,9792,38206
31200,9804,38145
31192,9743,38165
31180,9815,37592
31144,9799,37855
31064,9793,37904
31028,9799,37701
31156,9785,37511
31344,9776,37607
31325,9763,37460
31132,9769,37329
31200,9767,37391
31260,9745,36801
31308,9745,36980
31316,9839,37145
31320,9830,36884
31356,9817,36840
31356,9831,36692
31414,9873,36580
31264,9749,36517
31364,9828,36456
31424,9822,36391
31288,9738,36404
31292,9749,35817
31461,9757,35912
31432,9767,36027
31280,9863,35532
31328,9886,35728
31344,9758,35820
31444,9748,35591
31440,9837,35364
31444,9814,35477
31484,9735,35351
31504,9740,35268
31522,9757,35125
31452,9761,35172
31468,9766,34973
31470,9769,34908
31438,9770,34575
31448,9775,34589
31516,9755,34740
31472,9749,34190
31468,9750,34356
31504,9766,34246
31588,9793,34103
31504,9797,34186
31484,9790,34108
31564,9779,33940
31544,9779,33925
31609,9754,33830
31660,9734,33838
31560,9730,33592
31576,9733,33433
31557,9741,33207
31512,9769,33308
31477,9786,33345
31520,9790,33204
31544,9789,33119
31636,9786,33135
31676,9767,33191
31648,9767,32980
31612,9801,32944
31605,9735,32573
31540,9749,32851
31533,9766,32705
31520,9823,32627
31512,9865,32548
31588,9760,32568
31612,9751,32413
31584,9738,32269
31618,9740,32093
31676,9760,31944
31640,9768,32135
31624,9774,32071
31576,9805,32135
31536,9896,31964
31521,9761,31822
31504,9784,31745
31516,9799,31577
31521,9822,31628
31527,9734,31581
31521,9734,31599
31516,9765,31596
31446,9775,31528
31384,9775,31573
31400,9823,31412
31384,9881,31436
31380,9757,31309
31352,9758,31362
31404,9745,31061
31500,9737,31117
31520,9745,31168
31456,9766,31077
31424,9765,31118
31488,9803,30972
31476,9821,30959
31401,9821,30756
31264,9820,30751
31328,9800,30808
31496,9795,30760
31500,9799,30813
31472,9798,30704
31424,9855,30645
31332,9740,30344
31588,9753,30440
31484,9776,30464
31448,9776,30432
31448,9814,30412
31440,9831,30438
31600,9829,30528
31589,9868,30465
31424,9730,30550
31408,9732,30316
31468,9743,30409
31468,9816,30236
31404,9805,30389
31492,9796,30372
31488,9798,30436
31548,9798,30087
31552,9812,30343
31536,9733,30306
31600,9731,30308
31605,9731,30130
31628,9740,30260
31604,9751,30383
31552,9756,30077
31528,9765,30364
31536,9755,30045
31504,9769,30117
31544,9759,30173
31568,9757,30278
31584,9765,30336
31612,9779,30286
31660,9765,30300
31664,9764,30190
31628,9790,30300
31592,9775,30404
31620,9812,30309
31664,9751,30364
31652,9772,30272
31585,9747,30241
31584,9759,30185
31764,9780,30050
31668,9832,30416
31576,9885,30329
31496,9756,30372
31524,9757,30377
31680,9758,30372
31780,9783,30309
31760,9756,30280
31788,9754,30229
31776,9739,30305
31742,9761,30392
31724,9766,30444
31724,9763,30438
31706,9782,30424
31708,9791,30416
31728,9792,30369
31744,9797,30394
31800,9811,30455
31800,9829,30501
31796,9862,30455
31776,9851,30410
31758,9739,30436
31808,9853,30400
31888,9759,30343
31796,9840,30264
31812,9753,30638
31808,9745,30508
31756,9748,30540
31776,9763,30254
31808,9762,30578
31812,9797,30533
31774,9802,30612
31742,9831,30560
31788,9759,30540
31776,9759,30560
31800,9803,30673
31872,9751,30543
31992,9736,30656
31864,9809,30463
31808,9770,30561
31804,9781,30565
31818,9799,30396
31728,9823,30396
31824,9756,30287
31928,9759,30386
31752,9758,30493
31764,9748,30532
31884,9745,30633
31786,9730,30532
31948,9729,30643
31936,9743,30511
32048,9753,30596
32101,9755,30261
32048,9780,30565
31952,9785,30464
31976,9780,30556
32184,9780,30207
32100,9801,30340
32064,9775,30410
32104,9792,30420
32204,9807,30359
32164,9786,30399
32136,9740,30304
32132,9756,30319
32132,9758,30289
32118,9788,30272
32036,9767,30260
32032,9784,30313
32116,9797,30349
32212,9790,30340
32148,9733,30239
32161,9738,30309
32148,9745,30343
32216,9755,30287
32144,9761,30109
32100,9759,30361
32076,9753,30032
32214,9740,30241
32324,9867,30220
32252,9804,30172
32188,9795,30183
32128,9812,30008
32221,9796,30108
32269,9792,30137
32240,9789,30078
32200,9781,29981
32204,9767,30070
32188,9769,30089
32184,9768,29988
32240,9749,29865
32248,9755,29768
32260,9791,29945
32180,9780,29793
32172,9774,29881
32288,9765,29833
32352,9756,29758
32412,9831,29674
32440,9779,29526
32464,9768,29608
32452,9756,29760
32373,9765,29513
32305,9748,29636
32328,9743,29468
32208,9759,29513
32320,9853,29532
32342,9803,29396
32288,9774,29567
32384,9764,29404
32428,9765,29233
32464,9743,29414
32548,9731,29180
32570,9738,29293
32544,9808,29356
32485,9813,28997
32788,9827,29078
32500,9825,29156
32488,9756,29159
32592,9829,29000
32620,9732,28977
32644,9730,29008
32702,9727,28961
32612,9734,29007
32572,9786,28956
32714,9757,28689
32628,9758,28760
32753,9758,28836
32792,9747,28878
32888,9736,28688
32945,9813,28884
32845,9776,28700
32804,9760,28789
32799,9770,28733
32793,9775,28652
33044,9768,28500
32985,9790,28672
32976,9770,28698
32960,9778,28677
32852,9771,28704
32823,9763,28543
32924,9731,28656
32864,9733,28503
32820,9749,28566
32834,9751,28630
32836,9764,28468
32832,9761,28594
32867,9773,28597
32869,9766,28485
32848,9787,28438
32924,9800,28503
32945,9797,28481
32940,9775,28578
33004,9776,28591
33042,9765,28679
32964,9804,28604
32934,9816,28704
33056,9797,28376
33072,9775,28566
33028,9757,28654
33020,9767,28628
33064,9747,28661
33128,9734,28436
33136,9742,28488
33040,9751,28560
33076,9758,28668
33140,9767,28682
32996,9761,28428
32933,9754,28644
32936,9743,28568
32985,9733,28695
33206,9737,28701
33220,9762,28741
33232,9761,28756
33193,9778,28789
33168,9785,28757
33160,9796,28621
33092,9788,28815
33140,9780,28887
33184,9753,28885
33364,9745,28853
33420,9745,28817
33169,9738,28932
33021,9765,28975
33004,9763,29001
32872,9775,29130
32844,9793,29023
32748,9780,29062
33044,9797,28879
33412,9833,28941
34048,9827,29046
34885,9804,29156
35996,9782,29259
37028,9774,28994
38416,9772,29137
40028,9769,29343
41636,9768,29264
43264,9767,29384
45000,9789,29304
46448,9775,29407
47489,9776,29104
48256,9766,29305
48200,9768,29349
46644,9775,29420
44184,9781,29529
41873,9810,29458
39856,9813,29597
38092,9801,29252
36384,9784,29357
34952,9770,29464
34268,9765,29583
34088,9761,29676
33992,9757,29644
33765,9768,29761
33452,9775,29685
33164,9780,29805
33048,9782,29758
32904,9777,29839
32804,9797,29801
32684,9782,29892
32728,9756,29775
32596,9756,29895
32476,9736,29775
32388,9744,29856
32220,9751,30008
32312,9837,29868
32028,9868,30032
31872,9898,30102
31744,9763,30156
31596,9753,29988
31373,9749,30095
31528,9739,30197
31720,9740,30236
31668,9764,30316
31684,9777,30284
31644,9785,30288
31684,9802,30069
31836,9800,30244
31912,9790,30291
31844,9774,30409
31868,9759,30556
31924,9767,30480
31902,9780,30608
31896,9823,30540
31845,9893,30665
31824,9768,30580
31920,9773,30669
32008,9772,30657
32024,9770,30631
32120,9762,30496
32104,9852,30591
32084,9805,30761
32140,9806,30820
32225,9756,30769
32268,9764,30764
32226,9768,30739
32216,9779,31057
32256,9788,30740
32376,9772,30912
32344,9763,31017
32385,9750,31143
32352,9752,31234
32416,9750,31236
32416,9751,31341
32557,9762,31301
32533,9769,31239
32452,9776,31294
32556,9778,31380
32608,9770,31540
32493,9789,31239
32568,9762,31521
32660,9778,31628
32600,9762,31657
32484,9784,31703
32544,9789,31453
32584,9818,31887
32584,9844,31796
32584,9921,31960
32552,9774,31879
32540,9804,31894
32564,9823,31929
32417,9755,31879
32548,9772,31992
32796,9757,31985
32720,9780,32070
32724,9784,32103
32672,9782,32007
32680,9777,32287
32752,9781,31952
32816,9804,32126
32776,9791,32190
32716,9781,32337
32668,9779,32304
32716,9779,32094
32744,9788,32292
32776,9831,32276
32704,9852,32434
32804,9860,32495
32652,9780,32583
32494,9778,32736
32708,9779,32652
32852,9774,32606
32788,9788,32631
32752,9829,32637
32704,9776,32487
32676,9785,32830
32668,9788,32769
32708,9795,32898
32692,9782,33031
32740,9777,32679
32821,9766,32852
32804,9763,32991
32880,9760,33064
32832,9767,33184
32840,9807,33132
32809,9829,33169
32801,9855,33200
32812,9903,33280
32836,9789,33263
32836,9783,33397
32820,9804,33284
32895,9797,33445
32992,9823,33365
33020,9845,33504
32968,9849,33085
33096,9879,33401
33056,9801,33468
33136,9813,33517
33164,9824,33516
33164,9822,33632
33272,9829,33564
33356,9774,33688
33336,9774,33278
33324,9800,33693
33356,9828,33612
33494,9860,33543
33505,9804,33693
33516,9808,33693
33600,9818,33764
33720,9804,33732
33732,9793,33748
33730,9793,33415
34104,9799,33611
33952,9834,33456
34108,9851,33684
34132,9876,33753
34116,9809,33796
34192,9805,33812
34212,9802,33814
34264,9818,33814
34224,9812,33756
34165,9818,33760
34172,9835,33793
34380,9849,33829
34364,9857,33895
34216,9878,34012
34168,9924,33601
34128,9948,33791
34060,9879,33908
34044,9887,33940
34016,9781,33912
33790,9786,33920
33604,9791,33921
33536,9814,33937
33716,9812,34023
33600,9829,33976
33464,9825,33964
33496,9825,33812
33452,9821,33981
33392,9809,34100
33376,9814,33765
33320,9775,34024
33264,9820,33932
33156,9849,33977
33084,9867,34035
33060,9890,34023
33040,9878,34176
33004,9872,34082
33012,9883,34193
32980,9872,33863
32936,9872,33940
33028,9775,34167
33104,9776,33799
33184,9795,34050
32856,9824,33993
32880,9829,34132
32972,9836,34264
32894,9833,33892
32880,9820,34144
32848,9820,34205
32828,9796,34205
33060,9807,34284
33016,9833,34257
32704,9780,34345
32596,9797,34256
32796,9821,34173
33025,9855,34159
32960,9797,34268
33008,9803,34342
33108,9813,34439
33020,9801,34420
33032,9814,34561
33004,9844,34437
32994,9775,34588
33028,9787,34496
33076,9800,34614
33092,9829,34543
33029,9817,34400
33084,9817,34522
33116,9821,34597
33144,9794,34732
33192,9793,34311
33260,9814,34679
33220,9862,34496
33160,9790,34736
33220,9798,34348
33236,9799,34591
33320,9797,34724
33324,9794,34745
33310,9789,34886
33338,9774,34478
33440,9772,34765
33372,9772,34745
33348,9795,34786
33316,9805,34773
33396,9822,34871
33292,9868,34989
33240,9890,34889
33344,9794,34925
33412,9793,34636
33468,9795,34885
33437,9804,34834
33460,9793,34836
33468,9822,34932
33380,9855,34921
33380,9895,35030
33536,9807,35068
33456,9807,35191
33398,9802,35073
33504,9784,35053
33472,9783,35061
33560,9775,35127
33532,9773,35212
33496,9781,35205
33420,9804,35293
33472,9822,35248
33480,9838,35335
33444,9821,34988
33432,9817,35244
33516,9828,35399
33546,9841,35343
33596,9870,35429
33560,9773,35029
33517,9806,35234
33452,9830,35252
33424,9869,35426
33536,9809,35445
33504,9837,35436
33420,9805,35474
33628,9791,35558
33596,9799,35495
33644,9794,35569
33612,9812,35567
33556,9857,35605
33477,9885,35676
33472,9807,35798
33624,9811,35712
33612,9839,35854
33600,9847,35793
33592,9943,35948
33628,9786,35836
33684,9799,35988
33640,9809,35562
33576,9803,35780
33609,9814,35926
33624,9858,35960
33644,9812,36127
33576,9804,36084
33576,9801,36108
33642,9794,35933
33637,9783,36082
33677,9776,36240
33592,9794,36169
33596,9818,36231
33513,9827,36244
33436,9821,36330
33468,9829,36280
33472,9851,36313
33412,9890,36196
33420,9798,35972
33560,9790,36381
33540,9793,36333
33416,9788,36238
33260,9789,36330
33448,9866,36129
33463,9901,36272
33312,9956,36092
33468,9909,36359
33460,9889,36548
33520,9804,36471
33516,9794,36460
33516,9902,36406
33608,9892,36479
33552,9795,36548
33453,9796,36537
33576,9805,36637
33508,9837,36511
33477,9836,36688
33482,9834,36555
33513,9871,36560
33520,9786,36196
33566,9809,36684
33532,9815,36615
33484,9822,36652
33452,9821,36262
33465,9835,36617
33352,9848,36636
33184,9845,36711
33280,9850,36725
33432,9844,36704
33504,9848,36756
33401,9843,36788
33333,9819,36900
33486,9811,36533
33420,9828,36716
33348,9850,36740
33332,9884,36806
33302,9900,36871
33292,9882,36836
33326,9894,36868
33340,9878,36666
33385,9792,36756
33352,9893,36966
33436,9789,36916
33336,9798,37036
33256,9811,36863
33292,9822,36921
33272,9819,36999
33284,9811,36585
33373,9800,36846
33380,9796,37007
33384,9791,36641
33316,9796,36939
33300,9798,36949
33256,9804,37040
33292,9810,36966
33400,9813,37047
33336,9824,37095
33280,9846,37121
33308,9827,37076
33376,9806,37123
33312,9806,37245
33204,9795,36988
33188,9798,37095
33324,9800,37263
33328,9813,36908
33336,9823,37108
33405,9817,37268
33380,9822,36780
33376,9812,37145
33473,9893,37127
33352,9860,37191
33288,9822,37159
33288,9819,37157
33272,9818,37228
33441,9845,37157
33372,9835,37161
33292,9819,37221
33240,9820,37108
33284,9823,37143
33416,9835,37100
33432,9827,37142
33412,9832,37231
33342,9828,37396
33104,9893,37293
33124,9906,37419
33317,9821,37300
33428,9829,37407
33376,9851,37312
33248,9832,37421
33188,9845,37324
33300,9896,37375
33465,9794,37334
33332,9796,37456
33320,9804,37205
33308,9819,37249
33312,9821,37396
33348,9829,37352
33300,9818,37458
33317,9815,37353
33309,9809,37398
33212,9797,37293
33212,9791,37378
33436,9797,37376
33340,9828,36956
33276,9830,37221
33252,9850,37321
33256,9831,37376
33344,9844,37344
33342,9828,37312
33300,9836,37380
33293,9845,37481
33336,9843,36967
33264,9850,37288
33220,9852,37365
33210,9852,37355
33208,9890,37447
33125,9897,37292
33208,9825,37223
33270,9818,37296
33328,9807,37327
33316,9798,37471
33252,9805,36917
33112,9823,37133
33204,9815,37316
33296,9821,37288
33168,9833,37264
33140,9830,37181
33136,9827,37208
33184,9819,37383
33176,9814,37165
33177,9802,37108
33188,9821,37165
33164,9830,37190
33096,9854,37316
32878,9935,37191
32948,9829,37228
33252,9855,37167
33277,9853,37255
33184,9871,37112
33221,9926,37243
33280,9804,37072
33268,9804,36908
33196,9808,37037
33180,9839,36888
33216,9895,36967
33120,9833,36913
33088,9829,36936
33096,9823,36942
33116,9836,37007
33140,9847,36975
33200,9829,37063
33256,9868,36956
33304,9812,37047
33256,9816,36916
33224,9825,36870
33352,9838,36673
33092,9855,36707
33024,9857,36781
33308,9829,36800
33269,9820,36949
33284,9831,36804
33229,9823,36892
33228,9839,36551
33228,9856,36724
33280,9869,36785
33310,9879,36756
33412,9893,36672
33444,9901,36700
33552,9893,36700
33528,9884,36533
33464,9806,36620
33448,9803,36661
33482,9816,36736
33436,9831,36652
33408,9857,36672
33336,9854,36570
33300,9862,36647
33372,9863,36701
33316,9856,36273
33320,9844,36453
33288,9834,36542
33210,9824,36601
33216,9831,36693
33212,9855,36618
33198,9860,36599
33181,9913,36239
33120,9843,36565
33076,9831,36267
33117,9853,36665
33272,9824,36527
33225,9843,36441
33240,9822,36488
33292,9836,36428
33157,9878,36233
33142,9903,36719
33148,9838,36615
33048,9839,36698
33052,9838,36260
33116,9824,36637
33108,9826,36240
33068,9828,36511
33028,9836,36561
33000,9837,36615
33044,9846,36637
33068,9862,36663
32966,9861,36780
32968,9864,36639
32956,9854,36518
33476,9854,36597
33148,9851,36538
33012,9863,36613
33000,9873,36636
33072,9855,36781
33100,9879,36716
33112,9880,36796
33120,9884,36729
33088,9878,36857
33117,9868,36391
33073,9863,36569
33068,9847,36767
33089,9841,36767
32940,9811,36672
32788,9816,36611
32578,9821,36684
32484,9830,36789
32460,9842,36776
32576,9851,36886
32968,9836,36792
33500,9863,36430
34232,9842,36892
35160,9857,36868
36252,9867,36990
37720,9865,36668
39552,9901,36999
41372,9892,36911
43208,9885,37029
45280,9908,36916
46904,9922,36952
48052,9927,36933
49080,9893,36844
49424,9892,36775
48260,9862,36893
45912,9850,37040
43344,9852,36948
41224,9861,36812
39356,9849,36925
37312,9849,36981
35644,9918,36868
34584,9934,36967
34012,9898,37015
33708,9874,36930
33352,9855,36981
33057,9880,37004
32796,9938,37123
32660,9896,36831
32481,9916,36863
32264,9927,37007
31996,9909,37053
31904,9890,37125
31804,9857,37117
31700,9829,36748
31618,9828,37033
31468,9861,37133
31268,9844,36685
31132,9865,36980
31040,9845,37207
30968,9844,37031
30788,9850,37101
30636,9911,37221
30652,9890,36743
30852,9956,37215
30724,9822,37071
30644,9828,36983
30688,9835,36766
30728,9843,37057
30764,9848,37200
30625,9849,37100
30672,9849,37181
30732,9841,36701
30791,9833,37029
30829,9826,37012
30744,9825,37039
30848,9826,37082
30932,9832,37093
30944,9845,37185
30912,9872,37065
30948,9885,37193
30984,9869,36684
31072,9855,36952
31141,9851,37140
31144,9854,37016
31140,9864,36981
31160,9895,36689
31196,9903,36849
31272,9924,36951
31377,9925,36977
31356,9930,37025
31312,9946,36983
31328,9919,37093
31364,9966,36994
31444,9828,37060
31452,9828,36967
31492,9834,37072
31524,9862,36928
31537,9867,36985
31552,9899,36901
31568,9924,36973
31616,9904,36860
31680,9886,36916
31692,9857,36852
31712,9863,36804
31794,9844,36871
31748,9844,36834
31764,9846,36885
31788,9867,36831
31737,9892,36911
31752,9890,36776
31796,9900,36853
31918,9908,36356
31900,9924,36583
31837,9838,36637
31868,9833,36631
31836,9838,36611
31770,9844,36373
31868,9862,36519
31952,9881,36487
31848,9885,36485
31972,9893,36469
31948,9924,36407
31924,9939,36332
31936,9939,36253
31892,9834,36317
31985,9844,36236
31844,9843,36288
31801,9859,36297
31824,9864,36284
31912,9860,36230
31944,9860,36302
32017,9972,35836
31996,9923,36072
32006,9909,35981
32020,9959,35975
31996,9925,36143
32160,9848,36023
32005,9857,36016
31784,9881,35935
31860,9890,35910
32025,9913,35936
31912,9887,36030
31912,9869,35568
32088,9862,35846
32092,9863,35796
32061,9864,35790
32009,9876,35728
32056,9909,35829
32104,9892,35335
32196,9909,35612
32224,9920,35226
32221,9932,35591
32296,9998,35503
32365,9957,35552
32484,9848,35452
32517,9853,35521
32508,9861,34993
32474,9867,35192
32484,9879,35184
32573,9881,35168
32708,9872,35093
32752,9881,35050
32744,9863,34974
32836,9850,34989
32908,9853,34989
32972,9868,34888
33037,9885,34936
33092,9902,34837
33136,9901,34866
33184,9924,34728
33380,9944,34719
33527,9939,34551
33502,9973,34581
33592,9929,34373
33788,9956,34479
33844,9855,34421
33948,9860,34389
34000,9874,33969
34069,9910,34149
34116,9915,33986
34132,9959,33976
34188,10001,33998
34280,9860,34008
34288,9859,34038
34228,9854,33838
34220,9855,33868
34156,9863,33927
34108,9873,33565
34001,9881,33645
33925,9887,33660
33804,9908,33596
33840,9889,33632
33824,9884,33196
33733,9884,33356
33616,9867,33499
33536,9870,33068
33512,9907,33444
33420,9947,32964
33296,9880,33108
33260,9891,33096
33116,9898,33031
33096,9904,33026
33093,9912,32925
33080,9935,32812
33036,9852,33031
32961,9854,32970
32876,9894,32968
32804,9895,32889
32816,9891,32805
32824,9904,32774
32764,9905,32784
32777,9898,32853
32728,9856,32716
32772,9847,32785
32768,9842,32642
32700,9860,32700
32628,9863,32407
32680,9865,32516
32688,9897,32477
32597,9898,32488
32564,9887,32476
32577,9893,32135
32672,9912,32367
32641,9937,32171
32592,9934,32300
32628,9847,31997
32496,9950,32240
32352,9917,32373
32424,9870,32214
32624,9870,32164
32564,9869,32001
32476,9862,32112
32516,9859,32085
32564,9873,31988
32572,9862,31875
32516,9877,32116
32484,9874,32205
32548,9882,32129
32544,9948,32030
32556,9877,31956
32552,9883,31776
32576,9906,32183
32592,9854,32071
32616,9859,32063
32648,9866,31983
32656,9895,31901
32628,9916,31862
32553,9862,31700
32524,9862,32007
32580,9881,31936
32613,9881,32028
32680,9898,31926
32776,9918,31842
32773,9842,31785
32664,9839,31784
32544,9860,31772
32504,9866,31764
32545,9896,31662
32692,9937,31521
32844,9868,31731
32833,9861,31484
32816,9855,31606
32816,9847,31662
32844,9837,31605
32873,9835,31444
32854,9855,31824
32840,9882,31711
32789,9908,31761
32760,9928,31687
32760,9926,31769
32792,9959,31640
32853,10013,31708
32912,9924,31614
32952,9844,31671
32941,9836,31591
32912,9855,31608
32912,9856,31544
32912,9868,31588
32924,9893,31517
32956,9892,31604
32996,9893,31468
33072,9895,31501
33010,9892,31431
33005,9893,31490
33064,9905,31112
33034,9910,31224
33012,9988,31189
32960,9860,31185
32960,9973,31222
33008,9965,31271
32928,9858,31205
32872,9877,31199
32980,9877,31140
33076,9864,31164
33094,9873,30964
32976,9899,31111
32984,9966,31111
33004,9863,31105
32984,9880,31041
32972,9889,31036
32960,9924,30918
32932,9935,30940
32933,9918,30980
33008,9902,31028
33060,9929,30962
33048,9887,31058
33024,9879,30936
32980,9859,30971
32948,9893,31026
32904,9896,31034
32976,9896,30896
33008,9879,31004
32968,9865,31012
32929,9841,30885
32912,9835,30983
33005,9836,30958
32932,9848,30988
32860,9932,30863
32884,9963,30957
32848,9982,30898
32929,9864,30837
32944,9861,30877
32984,9845,30822
32966,9854,30803
32980,9866,30692
32988,9854,30869
32970,9844,30949
32925,9857,30625
32932,9862,30744
32988,9863,30781
33056,9861,30830
33050,9862,30976
33036,9849,30574
33092,9836,30710
33040,9835,30741
32977,9832,30821
32976,9855,30900
32932,9868,30809
32964,9872,30645
33040,9878,30664
33056,9885,30727
33101,9874,30768
33092,9868,30756
33060,9855,30823
33132,9853,30746
33064,9862,30662
33048,9871,30689
33036,9892,30624
33090,9906,30669
33156,9892,30636
33168,9893,30616
33184,9904,30452
33206,9901,30684
33236,9898,30460
33168,9903,30676
33068,9926,30624
32992,9937,30717
32936,9951,30556
32968,9931,30488
32996,9881,30565
32864,9893,30256
32796,9882,30455
32908,9859,30393
32970,9860,30308
33076,9846,30365
33100,9853,30274
33004,9856,30367
32984,9879,30374
32948,9908,30356
32968,9930,30353
33022,9900,30420
33132,9895,30336
33096,9879,30437
33201,9862,30306
33044,9848,30400
33032,9863,30279
32972,9874,30277
32932,9881,30148
32893,9875,30132
32893,9891,30105
32932,9907,30109
33040,9872,30083
33070,9887,30060
33128,9878,29995
33141,9865,30022
33100,9881,30030
33064,9908,30063
33073,9850,29991
33032,9854,30053
33008,9859,30161
33040,9858,29935
33096,9853,30039
33053,9839,30124
33028,9831,29738
33113,9837,29869
33110,9835,29976
32984,9836,29989
32868,9844,30065
33020,9857,29815
33092,9942,29953
33152,9904,29785
33100,9871,29933
33096,9873,29955
33196,9858,29948
33312,9849,29832
33184,9861,29884
33132,9853,29967
33100,9876,29928
33093,9878,29754
33136,9862,29865
33068,9869,29925
33072,9854,29876
33030,9867,29760
33016,9853,29749
33008,9847,29860
33016,9857,29909
33024,9844,29876
33048,9842,29799
33120,9856,29911
33132,10008,29780
33080,9909,30007
33036,9893,29785
33025,9903,29816
33164,9887,29893
33360,9887,29872
33218,9869,29887
33072,9864,29596
33025,9898,29924
33004,9924,29845
33012,9989,29900
33016,9851,29788
33072,9846,29831
33142,9845,29800
33180,9833,29660
33164,9825,29662
33166,9833,29772
33192,9842,29702
33164,9844,29652
33072,9937,29757
32997,9945,29793
33140,9962,29612
33152,9917,29724
33136,9895,29754
33108,9871,29591
33236,9874,29663
33120,9871,29776
33144,9871,29549
33142,9871,29660
33068,9877,29762
32976,9876,29529
32908,9884,29660
33088,9866,29560
33272,9873,29633
33200,9848,29625
33188,9850,29608
33200,9844,29625
33196,9864,29383
33120,9857,29617
33144,9854,29664
33061,9858,29599
33117,9925,29617
33104,9875,29595
33160,9861,29743
33116,9865,29511
33056,9843,29621
33100,9828,29720
33104,9956,29540
33137,9842,29625
33128,9856,29750
33076,9858,29655
33106,9859,29762
33076,9855,29428
33064,9841,29601
33188,9834,29564
33108,9833,29684
33244,9830,29799
33306,9946,29664
33204,9847,29776
33152,9927,29440
33161,9901,29540
33028,9942,29452
33096,9973,29700
33108,9841,29708
33104,9848,29847
33013,9844,29472
33024,9844,29590
33044,9868,29831
33116,9848,29633
33188,9853,29774
33140,9854,29892
33216,9855,29812
33256,9850,29813
33324,9844,29740
33348,9831,29828
33352,9829,29968
33317,9828,29668
33324,9953,29858
33270,9942,30014
33208,9917,29821
33316,9908,29921
33393,9881,29912
33428,9864,30045
33444,9858,29981
33436,9861,29985
33436,9849,29932
33288,9849,30063
33428,9853,30076
33612,9842,29860
33632,9940,30132
33516,9890,30269
33424,9879,30061
33456,9863,30234
33469,9844,30087
33436,9832,30292
33376,9976,30177
33364,9906,30188
33336,9877,30393
33304,9870,30184
33232,9874,30423
33437,9879,30532
33360,9864,30253
33364,9863,30542
33362,9862,30700
33429,9848,30415
33455,9842,30538
33413,9848,30656
33337,9863,30752
33304,9850,30910
33168,9847,30754
33209,9856,30900
33240,9911,30868
33188,9891,31105
33284,9868,30810
33448,9847,31068
33360,9847,30978
33292,9824,31303
33488,9829,31158
33458,9906,31308
33380,9916,31478
33352,9893,31238
33404,9867,31458
33468,9863,31582
33541,9850,31492
33404,9821,31644
33380,9826,31733
33424,9913,31781
33372,9887,31730
33328,9865,31776
33384,9872,31921
33404,9856,32069
33428,9848,31821
33420,9847,32028
33504,9838,32077
33600,9827,32196
33472,9820,32236
33376,9823,32276
33276,9829,32334
33176,9839,32423
33168,9846,32495
32996,9851,32576
32848,9940,32588
32772,9884,32640
32716,9860,32741
32856,9839,32621
33276,9824,32786
33728,9822,32925
34296,9831,32988
35097,9960,32941
36056,9917,33089
37388,9878,33028
39108,9868,33240
40964,9852,33220
42608,9832,33152
44524,9825,33400
46356,9853,33385
47600,9854,33404
48528,9847,33374
49236,9845,33481
48856,9846,33636
46680,9847,33612
44156,9859,33743
41960,9858,33388
39996,9841,33663
38124,9912,33836
36260,9871,33458
34920,9844,33774
34264,9860,33951
33940,9848,33684
33660,9839,33932
33296,9868,33944
32924,9862,33933
32824,9868,33934
32736,9872,33913
32556,9871,34025
32476,9866,34101
32464,9891,34227
32252,9818,34235
32092,9830,34345
31912,9837,34207
31736,9869,34223
31692,9864,34295
31584,9906,34397
31424,9924,34268
31244,9924,34423
31136,9818,34525
31005,9828,34536
30932,9842,34526
30904,9847,34613
30924,9861,34759
30880,9879,34661
30928,9882,34780
30900,9901,34711
30932,9884,34596
30972,9855,34708
31005,9842,34817
31008,9837,34759
31064,9858,34844
31048,9834,34886
31056,9873,35031
31136,9872,34717
31016,9868,34823
31056,9880,34759
31148,9839,34960
31213,9832,34663
31240,9853,35159
31293,9850,35046
31300,9861,34940
31300,9845,35038
31524,9859,35017
31408,9873,35086
31336,9879,35144
31412,9869,35215
31580,9859,35148
31588,9854,35172
31488,9846,35268
31552,9848,35413
31660,9854,34952
31604,9854,35165
31624,9864,35273
31704,9869,35369
31712,9877,35492
31678,9868,35423
31788,9869,35308
31844,9856,35400
31837,9846,35492
31972,9852,35588
31936,9848,35340
31864,9858,35516
31873,9873,35661
31812,9899,35560
31905,9913,35697
31992,9933,35575
32040,9842,35718
32204,9830,35628
32064,9910,35629
32110,9828,35279
31950,9828,35766
31968,9845,35663
32180,9861,35804
32144,9867,35325
32025,9860,35628
31952,9859,35751
31984,9874,35732
32044,9854,35847
32180,9855,35428
32250,9855,35750
32204,9856,35717
32180,9852,35794
32100,9855,35886
32049,9866,35874
32044,9850,35929
32064,9852,35544
32164,9839,35868
32270,9835,35876
32312,9826,35905
32292,9825,35999
32224,9836,36012
32204,9842,35986
32188,9955,35968
32172,9929,36042
32177,9905,36183
32212,9889,36078
32240,9886,36213
32234,9888,36099
32324,9902,36176
32332,9902,35879
32272,9900,36045
32216,9896,36168
32192,9965,36116
32164,9997,36112
32132,9960,36165
32080,9935,36294
32120,9944,36201
32309,9932,36295
32321,9833,36220
32304,9828,36333
32270,9860,36213
32296,9873,36321
32413,9886,36210
32468,9876,36324
32648,9876,35947
32628,9879,36148
32576,9884,36097
32620,9859,36165
32648,9865,36240
32728,9848,36252
32832,9844,36231
32860,9842,36176
32900,9853,36234
32980,9858,36371
32924,9895,36287
32924,9889,36392
33096,9868,36302
33416,9903,36415
33321,9834,36292
33360,9846,36271
33448,9868,36182
33548,9893,36041
33608,9910,36228
33582,9929,36002
33536,9956,36428
33616,9863,36399
33712,9850,36509
33708,9847,36065
33720,9848,36295
33740,9852,36324
33766,9858,36487
33773,9871,36252
33792,9884,36340
33776,9887,36532
33640,9891,36534
33532,9900,36566
33429,9900,36375
33400,9899,36404
33392,9903,36487
33384,9944,36473
33228,9943,36554
33152,9928,36564
33120,10002,36652
33040,10004,36587
33120,9858,36708
32928,9854,36559
32736,9848,36528
32685,9861,36517
32772,9850,36410
32724,9869,36231
32644,9887,36495
32444,9952,36548
32420,9854,36596
32388,9867,36564
32364,9882,36596
32236,9921,36559
32257,9840,36507
32276,9829,36439
32256,9827,36543
32318,9843,36444
32284,9864,36251
32264,9893,36705
32236,9895,36308
32156,9921,36736
32196,9857,36637
32160,9846,36743
32210,9856,36604
32228,9882,36565
32236,9903,36585
32241,9822,36373
32108,9824,36637
32024,9829,36412
32032,9843,36496
32184,9852,36261
32092,9844,36525
32068,9840,36596
32108,9846,36692
32140,9842,36687
32109,9853,36780
32056,9931,36583
32044,9823,36344
32165,9828,36737
32160,9841,36698
32084,9844,36636
32068,9843,36568
32125,9844,36764
32278,9860,36524
32304,9855,36684
32272,9828,36792
32296,9830,36788
32229,9854,36817
32356,9846,36852
32356,9862,36969
32364,9863,36935
32364,9848,37063
32388,9839,36941
32361,9842,37064
32364,9820,36560
32428,9812,36804
32420,9815,36871
32436,9855,36951
32320,9846,36959
32300,9843,36887
32308,9839,36901
32376,9837,37016
32548,9831,36948
32625,9934,36972
32564,9865,36592
32668,9924,36761
32724,9811,36808
32722,9810,36908
32741,9835,36928
32688,9835,37076
32564,9842,36908
32781,9837,36886
32802,9833,36708
32836,9830,36791
32756,9815,36871
32712,9804,36932
32837,9806,37081
32876,9957,36580
32770,9932,36820
32832,9831,36909
32720,9910,36967
32680,9840,37021
32712,9833,36996
32780,9825,37061
32805,9810,36982
32848,9803,37116
32812,9809,36973
32900,9903,36836
32892,9873,37086
32801,9854,36988
32748,9851,36918
32772,9870,36975
32784,9857,36945
32840,9901,36927
32892,9813,36865
32900,9801,36868
32940,9804,36906
32948,9813,36830
32904,9812,36956
32900,9828,37057
32869,9832,37028
32816,9836,37084
32812,9827,36997
32800,9831,36996
32832,9836,36985
32876,9804,37140
32856,9803,36999
32844,9901,36856
32860,9867,36964
32904,9873,37020
32828,9870,37148
32824,9862,36646
32840,9851,36912
32804,9861,36957
32856,9882,36940
32869,9926,36975
32824,9796,36871
32796,9833,36869
32860,9844,36845
32820,9832,37029
32800,9833,37028
32748,9863,37095
32808,9837,37004
32858,9822,36999
32828,9810,36957
32866,9798,36953
32884,9798,36964
32864,9899,37012
32836,9814,37103
32776,9820,37023
32832,9827,37141
32856,9831,37015
32876,9820,37154
32784,9828,37016
32808,9836,36949
32824,9831,36903
32756,9832,36863
32714,9830,36951
32696,9862,36953
32752,9887,36959
32788,9862,37017
32728,9845,37120
32796,9847,37028
32916,9851,37158
32780,9839,37039
32768,9838,36940
32808,9828,36972
32708,9820,37017
32760,9828,37162
32744,9820,37020
32764,9828,36871
32788,9831,36975
32742,9969,37014
32785,9817,37156
32836,9949,36824
32692,9846,36676
32704,9831,36996
32780,9899,36999
32736,9811,37039
32716,9828,37153
32712,9855,37045
32776,9854,37148
32764,9889,36665
32728,9817,37112
32736,9809,37065
32732,9798,37172
32732,9827,36668
32733,9829,37036
32732,9862,37008
32776,9881,37040
32788,9884,36732
32668,9927,37116
32612,9825,36724
32764,9891,36959
32768,9893,37111
32724,9886,36665
32760,9903,36857
32728,9859,37092
32708,9846,36996
32572,9845,36991
32576,9828,36908
32656,9904,37138
32708,9887,36825
32740,9877,36972
32728,9865,37113
32895,9867,37012
32828,9877,37040
32765,9871,36862
32685,9871,36951
32724,9891,37032
32720,9881,37015
32700,9827,37111
32736,9815,36996
32704,9814,36927
32766,9822,36637
32709,9826,36854
32716,9813,37061
32748,9813,37029
32880,9839,36937
32840,9832,36959
32708,9848,37012
32744,9857,37044
32744,9847,36772
32820,9829,36856
32812,9818,37036
32757,9799,36985
32736,9796,36980
32721,9796,36885
32701,9810,36933
32676,9818,37009
32673,9841,36991
32772,9829,37053
32737,9828,36569
32680,9825,36792
32656,9820,36916
32720,9827,36925
32880,9841,37025
32578,9871,36935
32604,9844,36767
32772,9858,36850
32696,9889,36852
32688,9892,36931
32636,9897,36894
32664,9880,36719
32704,9868,36828
32732,9879,36821
32741,9869,36921
32785,9856,36454
32760,9863,36700
32668,9869,36781
32636,9891,36780
32662,9897,36799
32696,9892,36808
32686,9919,36839
32688,9798,36772
32652,9792,36837
32648,9790,36798
32720,9795,36932
32688,9808,36724
32648,9952,36773
32696,9888,36858
32676,9884,36393
32712,9871,36664
32688,9835,36868
32776,9819,36460
32676,9812,36577
32612,9821,36629
32616,9821,36663
32628,9846,36618
32660,9910,36743
32664,9820,36664
32688,9821,36708
32685,9818,36612
32668,9808,36437
32661,9829,36532
32764,9807,36548
32717,9821,36503
32684,9844,36472
32632,9851,36510
32668,9876,36476
32588,9823,36471
32736,9881,36509
32668,9879,36604
32677,9805,36453
32834,9797,36468
32812,9813,36444
32743,9814,36517
32736,9818,36416
32700,9824,36412
32673,9837,36055
32676,9859,36246
32722,9853,36327
32704,9838,36359
32704,9840,36415
32753,9810,36140
32764,9825,36260
32757,9832,36406
32756,9852,36293
32712,9884,36328
32696,9948,36077
32672,9814,36149
32692,9816,36197
32673,9847,36159
32680,9838,36240
32676,9858,36207
32696,9865,36175
32724,9789,36060
32684,9791,36006
32664,9803,36176
32728,9810,36247
32676,9819,36188
32624,9818,36248
32604,9828,36113
32630,9828,36203
32624,9831,36140
32604,9807,36164
32556,9819,36129
32524,9860,36068
32520,9871,36063
32617,9886,36094
32657,9898,36076
32488,9893,36103
32361,9880,35917
32404,9885,35957
32420,9872,36063
32656,9884,35985
32608,9786,36092
32548,9796,35560
32472,9797,35920
32496,9834,35532
32544,9854,36004
32580,9857,35632
32592,9831,35772
32596,9831,35844
32641,9825,35812
32704,9815,35756
32736,9845,35682
32748,9863,35705
32864,9887,35716
32836,9874,35792
32772,9932,35669
32772,9817,35735
32800,9818,35561
32896,9829,35514
32868,9824,35411
32816,9809,35559
32916,9810,35528
32941,9818,35561
32844,9827,35501
32796,9837,35520
32728,9839,35460
32652,9829,35548
32632,9844,35423
32708,9877,35424
32738,9847,35368
32726,9835,35431
32704,9850,35304
32632,9885,35384
32596,9794,34932
32784,9806,35150
32684,9814,35152
32548,9810,35100
32644,9807,34983
32756,9812,35228
32644,9817,34801
32625,9805,35236
32729,9836,35073
32640,9846,35047
32584,9846,35057
32528,9822,35191
32520,9845,34695
32544,9844,34980
32569,9826,34836
32588,9818,34841
32644,9812,34769
32601,9814,34951
32574,9806,34685
32556,9829,35048
32501,9829,34565
32532,9829,34739
32716,9841,34805
32598,9844,34880
32512,9839,34984
32524,9835,34840
32520,9810,34716
32576,9798,34453
32620,9816,34757
32568,9815,34716
32556,9820,34660
32544,9814,34708
32536,9829,34718
32560,9837,34724
32624,9855,34670
32640,9852,34709
32492,9818,34708
32344,9805,34773
32393,9799,34388
32416,9804,34544
32014,9813,34577
31788,9822,34655
31808,9836,34638
31877,9826,34645
32216,9827,34692
32792,9838,34567
33381,9862,34501
34276,9878,34424
35392,9915,34488
36740,9876,34532
38516,9866,34636
40365,9873,34526
42192,9880,34638
44228,9864,34196
46068,9871,34439
47400,9876,34136
48552,9884,34537
49368,9910,34428
48736,9792,34465
46676,9786,34422
44029,9814,34396
41668,9841,34042
39720,9836,34438
37772,9847,34364
35918,9828,34407
34492,9823,34328
33644,9811,34311
33236,9796,34261
32912,9813,34230
32524,9806,34141
32276,9808,33911
32084,9822,34116
31925,9827,33951
31712,9824,34040
31456,9818,34126
31296,9823,34154
31224,9812,34183
31108,9833,34087
30988,9774,33999
30854,9800,33940
30684,9849,34039
30548,9793,34068
30376,9833,33993
30226,9843,34017
30124,9889,33937
30125,9813,34044
30096,9813,33631
29989,9799,33849
30000,9845,33895
30080,9788,34017
30113,9791,33892
30137,9801,33964
30096,9806,33518
30140,9838,33941
30164,9853,33799
30144,9887,33922
30236,9796,33780
30325,9787,33861
30388,9777,33743
30372,9803,33807
30341,9820,33701
30367,9819,33764
30389,9832,33647
30480,9831,33612
30544,9829,33279
30584,9831,33534
30632,9807,33435
30706,9809,33464
30748,9798,33367
30728,9804,33397
30724,9804,33449
30736,9823,33357
30764,9853,33415
30700,9863,33287
30681,9830,33153
30724,9838,33189
30848,9831,33183
30896,9813,33261
30856,9810,32854
30860,9833,32903
30864,9856,32924
30848,9826,32988
30896,9839,33060
30908,9821,32637
30972,9812,32738
31080,9803,32788
31041,9794,32775
31020,9789,32797
31180,9780,32543
31216,9788,32615
31080,9868,32534
31132,9797,32246
31084,9812,32392
31100,9813,32500
31221,9812,32367
31196,9798,32348
31180,9793,31958
31361,9785,32122
31356,9802,32158
31249,9813,32212
31228,9825,31967
31302,9829,32018
31288,9836,31834
31244,9820,31871
31388,9831,31846
31481,9831,31841
31426,9824,31791
31316,9795,31623
31288,9814,31620
31396,9820,31637
31448,9826,31696
31348,9822,31301
31324,9832,31428
31452,9850,31436
31389,9831,31333
31428,9833,31422
31396,9820,31389
31392,9821,31321
31333,9837,31348
31404,9869,31349
31408,9795,31223
31410,9804,31207
31416,9825,31039
31434,9845,31239
31332,9830,31180
31392,9860,31239
31412,9873,31088
31452,9789,30999
31472,9787,30902
31428,9799,30918
31360,9813,30940
31416,9829,30848
31476,9865,30740
31629,9892,30593
31592,9947,30697
31538,9811,30626
31572,9804,30636
31614,9793,30764
31632,9796,30703
31684,9802,30758
31790,9824,30632
31878,9838,30697
31844,9896,30571
31896,9823,30450
31958,9828,30495
32021,9842,30387
32064,9838,30421
32148,9850,30476
32172,9796,30381
32208,9812,30263
32192,9821,30172
32276,9868,30044
32372,9820,30232
32584,9816,30151
32656,9822,30196
32724,9828,30140
32812,9827,30108
32948,9854,29973
32968,9889,29980
33037,9797,30029
33128,9802,29963
33252,9837,29974
33230,9851,30009
33289,9893,29935
33440,9820,29858
33389,9823,29965
33356,9837,30060
33360,9820,29690
33428,9825,29773
33414,9938,29788
33344,9803,29741
33300,9838,29796
33252,9833,29807
33176,9855,29752
33141,9854,29845
33065,9866,29937
32924,9895,29828
32868,9791,29860
32829,9788,29814
32732,9816,29725
32756,9829,29770
32701,9828,29670
32608,9879,29625
32452,9893,29676
32401,9821,29607
32328,9810,29679
32332,9801,29770
32292,9793,29822
32185,9788,29788
32125,9787,29884
32120,9791,29746
32104,9805,29812
32040,9829,29772
31996,9863,29860
31980,9914,29784
31984,9803,29887
31986,9810,29784
32064,9798,29874
32161,9796,29637
32048,9812,29657
31980,9843,29679
32000,9892,29869
31940,9804,29836
31841,9807,29884
31864,9803,29612
32112,9795,29830
31917,9822,29906
31840,9795,30055
32000,9793,29945
31964,9827,30080
31996,9847,29735
31926,9852,29866
31964,9806,29935
31932,9804,30020
32000,9796,30014
32076,9790,30135
32080,9783,30260
32222,9769,29948
32224,9805,30329
32064,9810,30249
31996,9783,30190
32032,9819,30148
32028,9814,30065
32096,9857,30468
32136,9938,30249
32074,9791,30480
32108,9789,30453
32165,9789,30516
32149,9790,30496
32180,9814,30418
32132,9848,30506
32136,9787,30463
32204,9805,30502
32192,9817,30421
32212,9844,30580
32224,9830,30477
32236,9800,30626
32293,9798,30749
32208,9821,30645
32184,9807,30493
32128,9814,30548
32261,9855,30551
32294,9879,30375
32484,9794,30769
32472,9810,30674
32492,9803,30743
32510,9811,30652
32424,9787,30590
32464,9797,30404
32508,9789,30620
32524,9794,30652
32452,9823,30654
32372,9831,30721
32432,9851,30668
32500,9916,30598
32556,9893,30660
32644,9772,30580
32564,9769,30567
32588,9781,30564
32732,9791,30640
32772,9816,30487
32712,9881,30789
32702,9796,30618
32716,9822,30556
32788,9827,30504
32742,9800,30489
32674,9820,30604
32624,9828,30352
32668,9765,30724
32676,9790,30569
32796,9790,30428
32768,9851,30671
32737,9788,30620
32772,9810,30510
32660,9820,30498
32704,9859,30605
32676,9777,30557
32760,9775,30533
32700,9777,30309
32744,9793,30708
32720,9823,30596
32704,9852,30662
32681,9788,30582
32652,9797,30580
32673,9821,30512
32652,9796,30308
32692,9794,30543
32796,9780,30318
32700,9778,30428
32832,9777,30388
32785,9801,30567
32933,9916,30518
32714,9784,30565
32574,9796,30503
32732,9792,30530
32780,9790,30492
32780,9805,30500
32720,9796,30509
32704,9796,30508
32681,9778,30497
32644,9787,30468
32701,9808,30455
32673,9844,30367
32648,9879,30336
32664,9890,30365
32705,9888,30367
32773,9863,30352
32702,9841,30468
32685,9764,30565
32642,9761,30428
32588,9765,30556
32600,9772,30455
32556,9811,30492
32532,9795,30424
32482,9789,30444
32505,9806,30231
32712,9788,30401
32789,9759,30531
32680,9752,30199
32564,9762,30431
32576,9797,30423
32616,9806,30359
32680,9831,30405
32700,9910,30364
32692,9782,30400
32724,9790,30404
32796,9801,30436
32748,9782,30553
32696,9808,30437
32628,9824,30524
32697,9762,30358
32684,9792,30292
32660,9822,30523
32664,9852,30420
32741,9786,30348
32748,9776,30395
32800,9774,30432
32712,9764,30460
32737,9753,30537
32864,9759,30452
32752,9783,30526
32600,9799,30439
32596,9795,30543
32660,9812,30192
32644,9819,30471
32680,9801,30351
32764,9835,30373
32704,9829,30359
32684,9832,30380
32712,9886,30365
32756,9829,30470
32722,9840,30540
32708,9775,30199
32761,9813,30534
32740,9800,30450
32752,9805,30551
32808,9789,30329
32822,9776,30364
32760,9776,30470
32810,9819,30438
32724,9762,30428
32832,9768,30429
32920,9778,30517
32952,9796,30432
32956,9809,30501
32944,9786,30232
32892,9789,30273
32916,9785,30304
32928,9768,30381
32924,9786,30309
32880,9809,30271
32864,9790,30295
32900,9796,30384
32805,9815,30516
32821,9797,30215
32908,9803,30279
32885,9797,30396
32892,9785,30417
32904,9770,30513
32936,9771,30165
32932,9811,30357
32977,9819,30359
32960,9861,30319
32924,9919,30324
32989,9895,30423
33028,9773,30446
32932,9760,30451
32908,9765,30454
32924,9769,30468
32984,9768,30559
32985,9782,30471
32964,9801,30593
32900,9837,30498
32964,9848,30536
32996,9906,30468
32916,9766,30422
32892,9781,30356
32952,9785,30381
33012,9781,30503
32924,9785,30592
33004,9770,30573
33076,9801,30619
32976,9825,30583
33056,9842,30693
33124,9817,30334
33344,9823,30631
33072,9826,30599
33012,9754,30756
33072,9750,30653
33072,9770,30572
33076,9777,30525
33088,9814,30508
33049,9841,30641
33032,9850,30624
32988,9781,30688
32996,9770,30652
33052,9766,30672
33072,9778,30607
33208,9775,30648
33156,9767,30791
33148,9775,30785
33122,9804,30861
33052,9798,30492
33029,9809,30761
33056,9830,30736
33092,9834,30823
33124,9764,30737
33202,9755,30845
33264,9775,30712
33228,9773,30790
33236,9756,30576
33261,9761,30574
33228,9772,30668
33189,9774,30746
33288,9773,30404
33304,9767,30468
33248,9790,30498
33236,9782,30576
33208,9760,30662
33248,9774,30502
33344,9788,30343
33396,9818,30487
33344,9799,30222
33348,9793,30256
33380,9790,30296
33428,9798,30345
33420,9812,30292
33400,9746,30311
33436,9761,30357
33461,9762,30269
33528,9796,30176
33548,9879,30148
33528,9773,30087
33500,9775,30071
33432,9801,29885
33473,9783,29968
33624,9783,30000
33616,9797,29967
33573,9821,30030
33492,9742,30055
33456,9746,30008
33697,9758,30020
33716,9767,30116
33684,9778,29983
33712,9798,30087
33728,9786,29952
33744,9785,29937
33780,9806,29721
33704,9746,30033
33697,9745,29923
33734,9752,29923
33792,9768,29902
33624,9782,29955
33496,9796,29887
33510,9794,29956
33932,9799,29881
33724,9797,29989
33536,9765,29692
33540,9759,29840
33612,9791,29844
33728,9792,29865
33724,9831,29819
33624,9871,29840
33628,9775,29933
33630,9877,29846
33608,9761,29912
33572,9752,29632
33592,9745,29716
33556,9744,29633
33604,9757,29854
33644,9750,29615
33564,9757,29749
33536,9764,29807
33596,9769,29847
33668,9770,29879
33696,9764,29812
33728,9756,29729
33772,9745,29864
33765,9734,29831
33768,9740,29845
33760,9746,29694
33756,9753,29793
33792,9765,29684
33844,9763,29720
33864,9796,29628
33904,9787,29524
33949,9789,29716
33932,9769,29876
33920,9757,29551
33868,9765,29665
33849,9760,29746
33900,9773,29752
34008,9765,29622
33956,9784,29484
33904,9815,29844
33928,9827,29489
33924,9833,29772
33784,9813,29466
33738,9848,29722
33944,9736,29504
33828,9744,29737
33636,9755,29485
33692,9795,29816
33616,9797,29727
33692,9792,29621
33773,9781,29644
33612,9779,29754
33600,9775,29772
33636,9762,29754
33624,9764,29796
33580,9762,29683
33576,9765,29815
33544,9796,29786
33460,9799,29703
33420,9791,29721
33400,9804,29766
33424,9768,29885
33428,9773,30004
33460,9761,29647
33564,9757,29904
33432,9765,29697
33413,9781,29862
33348,9832,29889
33248,9840,29984
33236,9851,30109
33288,9765,30064
33289,9858,30017
33420,9737,29884
33294,9731,30079
33204,9747,30100
33248,9776,30185
33188,9782,30333
33150,9794,30082
33112,9784,30257
33116,9790,30400
33172,9781,30330
33116,9778,30460
33160,9786,30381
33040,9783,30409
33020,9782,30316
33006,9776,30455
33132,9770,30588
32932,9781,30245
32705,9785,30388
32388,9790,30479
32292,9781,30611
32444,9781,30661
32512,9743,30556
32800,9732,30696
33325,9740,30680
34160,9743,30646
35184,9751,30693
36144,9760,30713
37737,9763,30810
39644,9759,30942
41528,9776,30877
43512,9742,30749
45564,9730,31005
47204,9729,30921
48396,9731,30944
49452,9726,30909
49860,9736,31039
48688,9748,31168
46216,9763,30798
43628,9834,31088
41442,9790,31252
39548,9781,30912
37396,9761,31314
35600,9761,31220
34440,9764,31373
33764,9761,31284
33328,9771,31281
32960,9779,31105
32676,9813,31352
32468,9832,31139
32456,9754,31494
32318,9744,31503
32106,9730,31604
31904,9727,31548
31694,9735,31621
31404,9741,31410
31184,9759,31614
31040,9754,31636
30894,9895,31751
30820,9823,31921
30692,9817,31540
30548,9812,31788
30332,9811,31736
30188,9792,31820
30192,9792,31911
30164,9798,32016
30076,9794,32124
30032,9808,31768
30076,9785,32004
30164,9788,31934
30236,9801,32141
30292,9812,32191
30240,9743,32343
30280,9735,32248
30308,9812,32149
30300,9744,32193
30276,9748,32282
30324,9765,32354
30340,9763,32391
30384,9771,32341
30410,9783,32305
30534,9767,32366
30414,9758,32336
30448,9755,32340
30648,9765,32361
30596,9809,32236
30508,9842,32513
30536,9760,32504
30566,9765,32468
30592,9797,32304
30580,9780,32625
30632,9780,32565
30640,9808,32505
30704,9828,32583
30608,9802,32681
30744,9817,32820
30776,9824,32440
30780,9868,32556
30808,9766,32621
30820,9765,32652
30796,9755,32676
30688,9754,32701
30844,9757,32598
30810,9760,32647
30820,9793,32500
30884,9808,32647
30920,9845,32588
30920,9761,32889
30916,9766,32781
30920,9764,32849
30964,9766,32797
30976,9780,32852
30942,9762,32801
30992,9789,32802
31008,9807,32676
30949,9854,32732
30888,9752,32800
30952,9763,32805
31088,9770,32799
31061,9766,32932
30948,9778,32812
30896,9812,32700
31016,9742,32840
31060,9735,32799
31008,9739,32837
30932,9818,33017
30984,9885,32938
30944,9833,32796
30928,9860,32716
30936,9767,33124
31053,9765,33031
30993,9760,33095
31016,9745,33073
30982,9760,33132
31092,9762,33096
31112,9761,33216
31120,9764,33124
31084,9787,32988
30924,9790,33084
31020,9788,33188
31060,9789,33301
31174,9782,33190
31156,9770,33095
31084,9761,32902
31264,9761,33084
31120,9775,33117
31048,9793,33165
31056,9784,33189
31052,9797,33182
31168,9792,33280
31196,9798,33200
31344,9801,33132
31172,9816,33142
31128,9804,33124
31212,9819,33045
31330,9749,32884
31380,9761,33017
31448,9773,32903
31388,9804,33072
31478,9791,33104
31637,9784,33165
31648,9775,33223
31694,9765,33138
31796,9778,33257
31712,9794,33142
31828,9792,33009
31920,9796,33100
32080,9839,33101
32088,9847,33240
32118,9862,32793
32120,9879,33071
32276,9815,33108
32352,9778,33104
32432,9769,33084
32512,9793,32788
32592,9831,33064
32700,9825,33222
32744,9831,32791
32768,9815,32948
32836,9836,32997
32960,9864,32957
33064,9835,33136
33152,9796,32814
33228,9764,33101
33216,9780,33240
33144,9777,32845
33008,9782,33057
33068,9807,32891
33120,9809,32975
33069,9796,33063
33048,9794,33105
33024,9784,33244
32976,9768,33143
32992,9781,33227
32904,9790,33159
32832,9809,33223
32756,9797,33168
32612,9792,33189
32500,9802,33120
32420,9821,33071
32400,9820,33008
32413,9825,32830
32360,9823,33024
32260,9844,33070
32252,9874,33052
32225,9895,33117
32054,9757,33101
32024,9766,33084
31972,9786,33019
31940,9796,33069
32004,9797,33101
31992,9790,33084
31816,9764,33080
31836,9764,33073
32020,9766,33108
31908,9786,33093
31764,9783,33143
31853,9812,33223
31756,9795,32800
31544,9788,33020
31548,9776,32828
31656,9767,33036
31973,9765,33168
31924,9759,33108
31776,9767,33124
31896,9759,32773
31704,9777,33029
31668,9786,32945
31606,9779,32920
31641,9785,32989
31708,9775,33077
31773,9782,33149
31764,9778,33085
31780,9781,33185
31778,9772,33065
31780,9775,32908
31681,9761,33104
31584,9771,33076
31728,9775,33130
31844,9784,32821
31933,9768,33052
31956,9785,33073
31936,9786,33232
31988,9780,33117
31832,9785,33076
31864,9809,32852
31901,9853,33204
31884,9757,32840
31844,9760,32998
31880,9835,33138
31948,9832,33129
31972,9849,33184
32008,9797,33133
32020,9796,33253
32088,9810,33133
32092,9851,33239
32118,9855,33100
32296,9827,32940
32144,9835,33077
32116,9830,33110
32085,9744,33143
32188,9741,33092
32292,9729,33124
32308,9752,33077
32324,9753,33133
32332,9772,33095
32341,9807,33160
32334,9745,33093
32272,9753,33059
32304,9774,32939
32276,9779,32941
32340,9769,32941
32320,9761,33127
32404,9747,33132
32440,9723,33128
32405,9726,33029
32488,9740,33135
32524,9749,33196
32424,9757,33135
32424,9773,33242
32540,9773,33045
32676,9766,33124
32660,9764,33129
32613,9752,33054
32564,9751,33097
32532,9744,33165
32597,9764,33151
32592,9758,33188
32612,9769,32918
32552,9784,33124
32480,9755,33229
32536,9749,33121
32836,9744,33218
32796,9734,32948
32692,9742,33121
32672,9722,33245
32638,9736,32866
32652,9743,33031
32712,9755,33083
32812,9747,33148
32792,9744,33236
32696,9734,33145
32744,9729,33101
32749,9722,33232
32648,9797,32936
32625,9870,33090
32736,9816,33112
32656,9839,33140
32680,9820,33287
32680,9803,32900
32644,9805,33060
32672,9766,33332
32736,9754,33148
32764,9722,33256
32708,9714,33209
32804,9721,33220
32684,9821,33272
32416,9821,33284
32534,9836,33095
32620,9834,33207
32696,9764,33353
32694,9759,33000
32741,9757,33233
32816,9785,33260
32668,9778,33348
32724,9759,33202
32694,9765,33285
32696,9762,33388
32693,9761,33228
32662,9774,33470
32624,9759,33415
32636,9761,33300
32610,9750,33403
32636,9724,33159
32664,9721,33332
32772,9718,33519
32760,9728,33487
32668,9741,33337
32612,9749,33575
32636,9829,33385
32637,9784,33553
32668,9771,33393
32688,9767,33602
32721,9743,33415
32648,9767,33541
32680,9775,33661
32724,9797,33632
32676,9836,33752
32640,9804,33493
32584,9770,33645
32580,9757,33615
32580,9747,33580
32609,9735,33685
32684,9737,33799
32748,9742,33589
32705,9750,33700
32512,9727,33799
32480,9735,33617
32576,9863,33716
32632,9745,33697
32689,9814,33632
32676,9798,33709
32592,9757,33841
32536,9756,33743
32580,9783,33758
32636,9786,33737
32628,9797,33759
32636,9817,33764
32644,9740,33669
32764,9762,33593
32712,9764,33692
32698,9736,33783
32680,9716,33785
32752,9715,33660
32704,9708,33659
32672,9717,33732
32669,9809,33796
32636,9809,33913
32564,9741,33786
32584,9742,33711
32548,9744,33756
32646,9756,33852
32556,9737,33769
32596,9729,33737
32760,9730,33757
32716,9741,33760
32606,9745,33780
32580,9771,33719
32576,9786,33733
32564,9772,33708
32705,9762,33748
32680,9769,33719
32696,9780,33709
32648,9783,33663
32613,9712,33831
32560,9713,33776
32592,9747,33919
32608,9755,33788
32568,9771,33852
32716,9782,33783
32948,9808,33767
32644,9804,33743
32556,9812,33860
32692,9712,33764
32652,9759,33628
32576,9710,33449
32616,9724,33600
32616,9729,33681
32653,9734,33708
32688,9745,33790
32604,9732,33735
32612,9866,33582
32585,9719,33586
32568,9789,33701
32624,9774,33836
32678,9765,33716
32748,9759,33672
32658,9798,33719
32692,9862,33828
32672,9740,33688
32712,9728,33749
32712,9733,33719
32772,9742,33637
32708,9730,33600
32668,9757,33492
32704,9796,33773
32716,9788,33494
32696,9807,33773
32625,9789,33636
32692,9795,33725
32760,9797,33607
32641,9783,33593
32644,9761,33582
32821,9759,33551
32942,9776,33502
32793,9760,33548
32716,9774,33519
32780,9806,33415
32772,9834,33471
32820,9832,33149
32792,9824,33342
32772,9725,33432
32788,9722,33382
32756,9716,33324
32784,9735,33188
32789,9729,33412
32756,9739,33288
32712,9748,33261
32736,9758,32932
32692,9769,33102
32756,9750,33218
32720,9758,33144
32704,9777,33175
33064,9824,33156
32829,9704,33071
32668,9707,33041
32673,9714,32984
32653,9728,32924
32706,9732,32801
32780,9737,33065
32772,9730,32964
32684,9727,33080
32737,9747,32936
32788,9727,32925
32812,9728,32853
32889,9750,32788
32780,9776,32715
32692,9773,32780
32609,9764,32816
32732,9768,32784
32776,9780,32625
32742,9793,32748
32704,9718,32804
32744,9721,32579
32772,9725,32584
32884,9751,32709
32912,9792,32656
32848,9724,32683
32820,9732,32626
32784,9769,32412
32784,9769,32671
32848,9796,32533
32844,9716,32437
32760,9704,32374
32856,9732,32516
32860,9743,32572
32893,9783,32445
32937,9721,32327
32812,9727,32268
32640,9852,32484
32705,9728,32404
32852,9734,32308
32977,9745,32391
32864,9721,32040
32896,9723,32444
32924,9769,32328
32898,9722,32121
32846,9727,32292
32816,9733,31980
32836,9732,32287
32878,9751,32258
32880,9744,32301
32888,9777,32196
33016,9775,32121
32900,9709,32101
32854,9707,32188
32932,9744,32151
32824,9746,32100
32736,9781,32129
32784,9803,32177
32806,9819,32096
32852,9724,31913
32844,9708,32007
32844,9711,32047
32864,9721,32182
32920,9739,32036
32824,9738,32056
32716,9777,31935
32680,9870,31765
32833,9736,31938
32765,9760,32115
32720,9802,31937
32772,9715,31773
32826,9706,32004
32736,9701,31960
32740,9709,32064
32780,9717,31692
32788,9727,31849
32824,9751,31639
32884,9760,32029
32889,9763,31919
32898,9761,32031
32992,9757,31624
32924,9780,31879
32842,9700,31893
32892,9738,31901
32844,9738,31885
33028,9746,31973
33000,9791,31884
33053,9737,31943
33000,9728,31870
32965,9721,31822
33204,9719,31556
33276,9722,31962
33272,9733,31857
33072,9763,31965
33025,9711,31855
33047,9736,31788
33141,9752,31725
33109,9756,31746
33009,9766,31816
33000,9801,31815
32996,9790,31869
33140,9707,31945
32968,9703,31849
32905,9703,31957
32948,9734,31868
32960,9753,31989
32841,9762,31579
32936,9753,31770
32940,9740,31831
32924,9754,31882
32832,9732,31989
32836,9715,31867
32800,9759,31961
32816,9769,31909
32840,9794,31936
32909,9861,31884
32900,9725,32039
32920,9767,31888
32888,9771,31788
32904,9720,32041
32889,9709,31940
32906,9732,32005
32904,9730,31921
32864,9781,31862
32856,9706,31890
32804,9716,31905
32756,9732,31937
32752,9763,31929
32760,9760,31932
32936,9762,31905
32944,9773,31946
32816,9775,31976
32888,9825,32020
32804,9704,32053
32833,9709,32053
32844,9724,32156
32788,9743,31764
32812,9756,32039
32854,9745,31980
32813,9740,31968
32837,9733,32025
32852,9728,32061
32980,9771,31900
32876,9836,32079
32728,9710,31849
32570,9736,32225
32454,9750,32188
32336,9773,32170
32164,9792,31997
32084,9856,32077
32032,9706,32085
32188,9701,32109
32648,9704,32229
33132,9708,32303
33824,9722,32392
34728,9754,32323
35988,9746,32416
37480,9772,32345
39252,9791,32423
41088,9808,32357
42892,9828,32473
44832,9684,32357
46332,9703,32349
47404,9742,32350
48432,9745,32305
48684,9803,32492
47444,9900,32420
45100,9724,32432
42749,9757,32372
40728,9738,32344
38848,9752,32421
36840,9777,32450
35124,9771,32582
34060,9726,32471
33560,9705,32568
33180,9726,32503
32888,9751,32537
32640,9748,32508
32354,9743,32518
32176,9741,32511
32044,9726,32544
31840,9734,32423
31672,9763,32277
31434,9701,32697
31224,9703,32577
31084,9711,32533
31048,9725,32519
30888,9729,32412
30736,9749,32772
30560,9735,32645
30476,9765,32484
30364,9826,32600
30292,9706,32681
30208,9715,32533
30188,9751,32804
30160,9782,32678
30100,9728,32384
30132,9731,32653
30280,9736,32709
30128,9737,32658
30052,9768,32588
30148,9694,32421
30236,9702,32738
30221,9719,32567
30236,9759,32725
30300,9772,32829
30350,9806,32673
30324,9832,32641
30376,9724,32724
30400,9714,32708
30501,9712,32825
30576,9700,32716
30580,9700,32816
30592,9719,32672
30624,9742,32495
30576,9823,32797
30552,9731,32623
30616,9760,32413
30716,9764,32770
30760,9817,32670
30748,9713,32764
30817,9705,32677
30813,9804,32629
30752,9778,32527
30828,9831,32594
30936,9716,32612
31024,9735,32685
30992,9763,32604
30976,9754,32537
30960,9794,32452
31024,9712,32252
31081,9701,32567
31168,9701,32268
31140,9711,32641
31104,9724,32513
31072,9719,32376
31004,9845,32441
31060,9728,32351
31184,9730,32177
31234,9728,32548
31188,9728,32420
31192,9732,32511
31292,9718,32374
31309,9722,32444
31312,9740,32045
31204,9737,32193
31168,9745,32116
31284,9761,32242
31304,9744,32263
31288,9757,32292
31300,9756,32208
31312,9771,32125
31372,9701,32104
31396,9705,31889
31360,9718,32268
31192,9729,31876
31249,9728,32111
31293,9733,32244
31308,9848,32131
31308,9724,32122
31304,9709,31824
31414,9706,32101
31392,9703,32005
31358,9707,32063
31361,9714,32147
31362,9741,32103
31350,9765,32090
31452,9749,31949
31485,9763,31957
31460,9810,32027
31424,9716,32004
31424,9705,31760
31360,9703,31971
31290,9724,32044
31212,9715,31973
31296,9737,32063
31414,9766,31659
31368,9764,31781
31385,9757,31828
31524,9791,31831
31500,9828,31818
31468,9823,31865
31522,9796,31913
31534,9711,31807
31552,9718,31637
31556,9728,31824
31500,9738,31509
31480,9831,31715
31556,9807,31820
31720,9732,31540
31868,9716,31550
31956,9711,31597
32036,9710,31663
32020,9795,31751
32008,9813,31616
32068,9868,31562
32016,9743,31489
32032,9740,31511
32132,9762,31492
32264,9761,31548
32388,9749,31463
32416,9740,31445
32492,9744,31475
32614,9767,31568
32756,9840,31448
32733,9804,31325
32794,9824,31324
32805,9743,31256
32897,9748,31256
33092,9759,31232
33228,9755,31204
33236,9731,31156
33205,9729,31163
33260,9737,31239
33276,9718,31084
33216,9730,31205
33204,9817,31140
33201,9807,31036
33252,9782,31202
33312,9789,31086
33296,9797,31137
33280,9850,30832
33220,9711,30961
33096,9713,31060
33036,9718,30964
32986,9725,30889
32928,9743,30823
32884,9746,30905
32680,9732,30853
32652,9728,30788
32548,9718,30849
32456,9701,30937
32396,9710,30803
32375,9733,30820
32280,9742,30612
32176,9742,30724
32064,9752,30790
32041,9736,30452
32140,9728,30670
32156,9724,30610
32100,9712,30692
31952,9707,30652
32000,9703,30514
31969,9705,30617
31888,9721,30340
31844,9726,30532
31888,9752,30408
31828,9749,30535
31904,9745,30596
31860,9745,30565
31816,9725,30621
31852,9716,30416
31872,9721,30473
31885,9751,30405
31924,9740,30484
31841,9769,30504
31804,9784,30464
31816,9833,30538
31816,9720,30449
31762,9715,30504
31812,9716,30151
31846,9715,30327
31872,9727,30313
31921,9713,30367
31808,9723,30453
31744,9740,30372
31802,9771,30471
31872,9788,30212
31944,9786,30328
31996,9845,30382
32056,9704,30320
32116,9708,30417
32140,9717,30292
32052,9730,30212
31948,9780,30195
31936,9708,30214
32000,9718,30332
32048,9724,30276
32116,9719,30261
32125,9709,30061
32217,9700,30060
32152,9692,29998
32112,9720,30135
32125,9724,30055
32128,9730,30127
32088,9738,30176
31974,9744,29887
32052,9732,30070
32008,9746,29904
32128,9737,29913
32452,9731,30068
32526,9711,29765
32276,9701,29972
32297,9715,29943
32088,9727,29944
32156,9751,29831
32344,9746,29935
32396,9751,29997
32324,9757,29899
32365,9763,29983
32346,9748,29703
32413,9705,29796
32484,9699,29792
32425,9704,29801
32424,9722,29797
32452,9746,29789
32448,9748,29860
32468,9743,29508
32480,9755,29653
32495,9732,29817
32472,9712,29588
32456,9721,29687
32532,9714,29529
32604,9709,29766
32594,9760,29473
32684,9753,29576
32592,9733,29380
32512,9741,29556
32536,9745,29645
32605,9724,29543
32656,9721,29453
32660,9705,29591
32557,9700,29260
32640,9701,29472
32644,9724,29528
32588,9743,29336
32548,9730,29447
32636,9732,29574
32712,9725,29342
32728,9731,29447
32616,9707,29280
32584,9709,29315
32592,9687,29385
32598,9683,29490
32593,9693,29135
32604,9727,29488
32596,9723,29371
32600,9732,29416
32604,9743,29327
32588,9739,29158
32760,9724,29308
32676,9702,29290
32620,9696,29254
32654,9705,29149
32769,9718,29222
32762,9773,29159
32548,9703,29220
32532,9708,29358
32636,9705,29024
32684,9701,29222
32608,9714,29220
32556,9712,29316
32504,9735,28961
32505,9677,29116
32572,9703,28928
32512,9737,29317
32474,9706,29085
32436,9727,29175
32492,9763,29287
32526,9842,29184
32544,9689,29279
32597,9677,28908
32564,9676,29013
32544,9701,29007
32492,9711,29108
32457,9725,29138
32432,9725,29145
32392,9740,29230
32480,9750,28887
32532,9775,29133
32574,9686,29111
32528,9679,29157
32588,9678,28949
32705,9712,29017
32661,9718,29004
32624,9725,28965
32588,9732,28937
32504,9739,29071
32532,9718,28933
32516,9710,29023
32573,9714,29092
32632,9752,29093
32476,9771,29174
32460,9752,28991
32422,9752,29103
32492,9754,29213
32513,9742,28971
32464,9720,29084
32381,9719,29211
32436,9728,28836
32436,9702,28948
32432,9699,29040
32416,9698,28863
32452,9673,29095
32516,9800,29125
32532,9756,28996
32604,9722,28871
32620,9731,29093
32634,9731,29066
32676,9704,29191
32544,9729,28961
32524,9719,29200
32464,9703,29159
32495,9710,29014
32468,9749,29109
32452,9774,29015
32464,9757,29180
32508,9756,28992
32532,9759,29095
32504,9738,29088
32468,9724,29106
32540,9721,28999
32456,9720,29060
32444,9745,28949
32536,9794,29200
32416,9695,28957
32392,9698,29054
32392,9700,29000
32521,9806,28985
32504,9693,29010
32456,9681,28806
32564,9674,29029
32620,9764,28982
32648,9743,28872
32544,9737,29102
32524,9772,28873
32572,9796,28749
32560,9702,28965
32492,9698,29074
32476,9691,28850
32512,9693,28926
32576,9679,28945
32616,9758,28794
32604,9673,29026
32548,9684,28822
32480,9782,28649
32433,9751,28892
32408,9741,28799
32440,9721,28888
32528,9711,28637
32548,9702,28813
32537,9692,28900
32556,9699,28724
32496,9689,28831
32364,9700,28706
32373,9751,28714
32240,9769,28783
32256,9699,28898
32597,9697,28660
32613,9690,28756
32584,9685,28622
32640,9788,28755
32608,9743,28708
32593,9752,28532
32526,9760,28739
32472,9718,28461
32532,9722,28660
32528,9722,28745
32509,9718,28448
32568,9717,28575
32580,9701,28649
32608,9682,28452
32552,9679,28553
32528,9682,28481
32624,9681,28533
32576,9716,28388
32488,9703,28493
32460,9694,28302
32560,9693,28558
32840,9689,28310
32540,9679,28348
32496,9668,28396
32550,9670,28378
32564,9668,28313
32542,9675,28392
32548,9686,28249
32524,9827,28075
32544,9771,28292
32748,9790,28300
32596,9687,28289
32596,9675,28361
32576,9670,28238
32529,9662,28118
32548,9665,28279
32548,9681,27988
32644,9751,28208
32580,9727,28197
32504,9734,28069
32500,9730,28188
32550,9707,28112
32584,9697,28043
32576,9700,28150
32544,9671,28124
32577,9667,28076
32630,9676,27880
32614,9812,28100
32566,9748,27940
32517,9746,28094
32556,9734,27981
32588,9718,27992
32520,9711,28037
32652,9693,28041
32696,9685,27938
32636,9682,27922
32792,9692,28025
32588,9706,28005
32549,9727,27880
32548,9749,28000
32452,9823,28085
32464,9765,27852
32696,9745,27964
32668,9749,28040
32613,9791,27789
32669,9734,27918
32612,9742,27751
32676,9726,27992
32692,9726,27892
32620,9727,27848
32560,9704,27764
32624,9690,27702
32664,9708,27717
32709,9697,27696
32784,9686,27543
32788,9681,27711
32768,9688,27676
32654,9697,27549
32604,9713,27655
32604,9697,27470
32592,9690,27650
32644,9822,27372
32648,9677,27519
32740,9667,27500
32728,9666,27513
32681,9748,27444
32668,9794,27332
32728,9678,27375
32768,9684,27445
32768,9690,27412
32764,9715,27356
32832,9698,27253
32760,9708,27364
32714,9695,27298
32732,9700,27204
32992,9705,27297
32816,9701,27109
32709,9724,27142
32632,9742,27231
32546,9758,27077
32624,9693,27081
32660,9681,27143
32724,9674,27270
32748,9667,27039
32741,9796,27140
32768,9746,27059
32788,9779,27045
32842,9682,27087
32856,9693,27160
32919,9723,27028
32900,9716,27128
32944,9724,26783
32900,9743,26829
32940,9666,26837
33020,9658,26916
33108,9674,26836
32992,9701,26885
32901,9707,26968
32764,9701,26632
32844,9724,26768
32940,9719,26860
33040,9716,26605
33084,9692,26730
33080,9700,26706
33121,9723,26685
33116,9805,26629
33072,9671,26554
33096,9680,26404
33060,9693,26556
33032,9811,26657
32977,9771,26393
32928,9775,26492
32924,9797,26517
32924,9769,26468
32948,9661,26444
32944,9658,26330
32896,9668,26433
32848,9673,26493
32848,9689,26184
32868,9845,26330
32872,9684,26264
32944,9679,26326
33020,9676,26400
32956,9697,26320
33036,9675,26407
33052,9711,26276
33064,9703,26169
32976,9740,26157
32956,9740,26212
32944,9781,26108
32908,9690,26136
32936,9679,26110
32956,9669,26212
33004,9655,26301
33061,9659,26001
33060,9759,26058
33057,9739,26212
33076,9758,25985
33068,9748,26192
33008,9758,26212
33008,9768,25956
33093,9772,26144
33092,9669,25917
33104,9657,25985
33168,9666,25929
33180,9658,26063
33140,9660,26180
33117,9677,25870
33072,9778,26040
33088,9690,26026
33108,9680,26047
33144,9689,26014
33196,9686,25775
33142,9687,25872
33064,9685,25947
33041,9681,25944
32944,9692,25946
32760,9690,25790
32592,9719,25865
32524,9724,25884
32540,9735,25880
32740,9705,25705
33224,9700,25939
33941,9674,25666
34820,9686,25664
35776,9676,25657
36994,9698,25764
38510,9705,25696
40028,9681,25576
41556,9673,25704
43244,9673,25522
45062,9800,25612
46532,9655,25628
47500,9649,25676
48336,9644,25384
48284,9646,25526
46720,9655,25412
44248,9671,25454
41896,9706,25350
39888,9709,25420
38128,9715,25446
36280,9695,25425
34728,9677,25260
34008,9656,25358
33796,9650,25359
33917,9671,25453
33516,9695,25153
33004,9687,25261
32636,9694,25286
32500,9698,25198
32444,9705,25162
32360,9692,25277
32194,9682,25364
32073,9687,25120
32064,9663,25242
32020,9663,25304
31908,9663,25088
31828,9670,25178
31688,9687,25228
31492,9695,24962
31337,9697,24999
31186,9688,24982
31146,9690,25069
31144,9675,25053
31024,9684,25039
30896,9673,24915
30884,9665,24991
30880,9812,24861
30892,9680,24797
30904,9695,24838
30888,9699,24993
31024,9697,24886
31096,9696,24804
31120,9715,24705
31184,9741,24798
31196,9658,24772
31220,9764,24765
31204,9730,24652
31240,9717,24836
31257,9714,24583
31282,9715,24628
31368,9717,24679
31400,9692,24658
31456,9679,24511
31560,9689,24624
31556,9672,24421
31548,9669,24583
31612,9675,24674
31633,9686,24423
31620,9693,24548
31620,9704,24652
31636,9710,24410
31648,9704,24532
31656,9691,24574
31681,9672,24376
31780,9657,24492
31742,9669,24344
31804,9679,24551
31812,9753,24319
31788,9719,24262
31856,9703,24444
31932,9709,24406
31964,9671,24274
31984,9665,24394
32012,9754,24359
32032,9720,24480
32080,9700,24228
32096,9706,24359
32192,9685,24276
32232,9691,24418
32153,9749,24296
32164,9698,24113
32100,9701,24245
32085,9663,24358
32100,9654,24132
32101,9761,24263
32136,9734,24225
32125,9739,24097
32128,9759,24229
32101,9725,24231
32252,9709,24088
32108,9705,24231
32196,9672,24105
32284,9760,24252
32168,9714,24014
32192,9743,24155
32180,9673,24039
32208,9680,24168
32154,9820,24271
32140,9693,24173
32176,9691,24278
32196,9691,24178
32229,9706,24277
32244,9699,23994
32300,9692,24125
32300,9695,24216
32336,9697,24023
32336,9698,24053
32244,9707,24028
32212,9711,24156
32224,9719,24172
32164,9705,24148
32160,9712,23974
32260,9717,24022
32308,9737,23993
32340,9759,24126
32320,9748,24123
32272,9749,23980
32285,9750,23983
32285,9736,24060
32316,9715,23945
32384,9719,24120
32356,9702,23892
32405,9672,23836
32412,9668,24004
32448,9822,24033
32500,9828,23828
32576,9773,23969
32556,9769,23815
32564,9764,23785
32640,9761,23914
32764,9759,23849
32885,9746,23884
32776,9735,23896
32812,9801,23701
32825,9677,23781
32873,9679,23764
32960,9686,23797
33046,9700,23662
33124,9705,23780
33188,9714,23756
33218,9730,23687
33316,9711,23598
33452,9739,23681
33520,9759,23689
33584,9674,23716
33616,9800,23605
33728,9761,23626
33708,9757,23508
33744,9796,23666
33876,9812,23732
33909,9693,23491
33981,9688,23506
34108,9674,23733
34152,9673,23636
34188,9691,23572
34124,9712,23484
34072,9710,23454
34048,9721,23588
33972,9723,23685
33956,9709,23476
33940,9689,23621
33893,9682,23493
33812,9677,23466
33736,9670,23618
33636,9674,23652
33584,9701,23421
33484,9704,23609
33428,9706,23596
33324,9752,23607
33196,9772,23559
33167,9694,23496
33120,9685,23465
33084,9695,23519
33022,9710,23584
32964,9665,23656
33125,9684,23757
32988,9711,23530
32841,9713,23685
32752,9729,23620
32736,9760,23530
32712,9692,23706
32688,9689,23759
32728,9694,23548
32729,9677,23589
32670,9685,23751
32584,9670,23690
32544,9676,23848
32528,9766,23674
32536,9693,23789
32600,9690,23799
32552,9685,23664
32720,9766,23833
32671,9733,23693
32580,9719,23831
32512,9737,23868
32508,9725,23844
32448,9710,23989
32480,9739,23733
32404,9728,23928
32388,9711,23991
32408,9711,23958
32420,9681,23820
32496,9683,23950
32577,9663,24144
32594,9664,23952
32556,9664,24105
32572,9673,24009
32600,9684,24203
32624,9683,24019
32605,9700,24219
32618,9703,24103
32608,9697,24201
32824,9666,24264
32864,9660,24191
32660,9661,24317
32680,9808,24206
32704,9721,24181
32692,9729,24242
32660,9746,24353
32716,9727,24285
32772,9746,24497
32876,9671,24230
32856,9655,24332
32844,9647,24420
32848,9660,24436
32844,9672,24532
32880,9683,24324
32956,9700,24468
32992,9701,24551
32980,9700,24351
33008,9706,24474
33052,9684,24357
33020,9668,24541
32997,9697,24485
33000,9709,24368
32992,9732,24365
32972,9752,24520
33020,9674,24389
32992,9675,24455
32976,9673,24523
32936,9672,24429
32997,9666,24414
33056,9656,24566
33053,9650,24528
33056,9685,24648
33057,9687,24471
33128,9682,24604
33076,9685,24559
33077,9692,24675
32985,9676,24501
33017,9671,24621
33004,9664,24623
32996,9653,24682
33058,9748,24524
32970,9737,24693
32965,9713,24636
32972,9686,24793
32952,9686,24618
32972,9696,24564
33033,9700,24708
33216,9702,24765
33104,9701,24568
33064,9679,24802
32964,9663,24720
32960,9663,24908
32932,9678,24701
32872,9696,24848
32984,9676,24757
32968,9675,24844
32996,9709,24869
33044,9684,24904
33076,9673,24876
33144,9678,25024
33064,9667,24732
32992,9718,24909
33008,9657,24764
33052,9687,24951
33061,9689,25092
33053,9724,24801
33088,9674,24972
32960,9668,25005
32908,9692,24938
32952,9664,25037
32984,9677,24920
33024,9647,24942
33008,9652,25084
32980,9716,25104
33024,9725,25025
32964,9721,25047
32953,9707,24926
32952,9692,25106
32965,9699,25108
32946,9706,25157
32924,9739,25204
32925,9733,25032
32924,9648,25188
32860,9672,25273
32968,9699,25207
32912,9699,25287
32884,9712,25104
32952,9716,25237
32948,9696,25272
32940,9671,25170
32956,9668,25259
32956,9685,25312
32909,9732,25073
32916,9654,25245
32920,9663,25151
32952,9674,25289
32852,9685,25279
32800,9689,25356
32900,9674,25464
32892,9675,25196
32876,9676,25244
32940,9687,25278
32921,9655,25391
32884,9655,25330
32842,9670,25440
32844,9672,25557
32848,9671,25311
32896,9675,25389
32896,9686,25391
32889,9679,25489
32892,9695,25567
32900,9713,25556
32880,9793,25670
32780,9656,25575
32888,9664,25483
32876,9671,25444
32868,9670,25610
32853,9660,25550
32852,9687,25490
32866,9676,25625
32852,9705,25678
32865,9645,25614
32869,9647,25571
32889,9673,25636
32920,9695,25522
32804,9703,25658
32872,9703,25753
32868,9703,25649
32833,9763,25757
32844,9650,25671
32821,9660,25678
32740,9656,25677
32856,9661,25772
32836,9668,25512
32712,9691,25630
32743,9689,25636
32781,9721,25690
32844,9663,25567
32824,9656,25545
32892,9660,25556
32916,9654,25782
32896,9695,25498
32736,9642,25794
32724,9669,25714
32756,9682,25725
32873,9686,25727
32884,9697,25737
32820,9704,25721
32840,9734,25812
32888,9648,25750
32788,9640,25851
32833,9642,25544
32887,9791,25616
32748,9652,25572
32692,9669,25784
32548,9687,25793
32856,9709,25892
32992,9733,25824
32956,9651,25756
32916,9640,25844
32974,9652,25772
33116,9660,25871
32836,9664,25775
32896,9685,25690
32868,9695,25906
32916,9706,26002
32992,9703,25753
33052,9714,25863
33028,9721,25885
32980,9696,26000
32872,9698,26029
32876,9759,25798
32672,9645,25908
32798,9655,25999
32832,9661,26075
32898,9665,26199
32858,9668,25905
32880,9661,25996
32928,9654,26083
32892,9643,26171
32888,9641,26263
32876,9639,26191
32848,9641,26307
32884,9647,26013
32892,9665,26144
32862,9667,26247
32840,9664,26308
32804,9660,26429
32769,9651,26151
32772,9646,26388
32804,9639,26556
32809,9642,26273
32781,9642,26414
32788,9649,26476
32758,9680,26566
32756,9699,26583
32752,9681,26743
32740,9683,26804
32768,9676,26893
32780,9665,26809
32692,9657,27073
32681,9701,27098
32668,9720,27268
32676,9646,27188
32608,9684,27277
32592,9714,27317
32588,9742,27357
32580,9660,27360
32580,9652,27516
32533,9645,27604
32576,9667,27658
32584,9684,27697
32536,9700,27756
32524,9646,27897
32520,9653,27749
32488,9665,27876
32460,9672,28028
32448,9676,27992
32461,9672,28073
32469,9671,27860
32456,9686,28034
32452,9669,28096
32436,9673,28064
32425,9666,28203
32404,9690,28232
32388,9698,28148
32390,9693,28284
32356,9688,28341
32373,9666,28215
32392,9678,28348
32432,9705,28439
32413,9639,28360
32376,9640,28416
32336,9674,28140
32332,9676,28257
32300,9692,28316
32348,9718,28437
32324,9723,28493
32292,9648,28313
32344,9646,28452
32364,9663,28308
32396,9681,28436
32400,9644,28492
32364,9646,28399
32300,9672,28538
32258,9696,28604
32236,9730,28393
32260,9775,28546
32368,9647,28632
32344,9635,28592
32352,9665,28704
32360,9669,28615
32334,9682,28572
32308,9698,28535
32316,9725,28599
32276,9746,28589
32296,9660,28655
32312,9656,28701
32276,9673,28678
32242,9671,28581
32188,9696,28626
32182,9715,28624
32184,9642,28668
32202,9648,28603
32400,9687,28655
32360,9676,28609
32300,9715,28548
32420,9652,28503
32492,9681,28788
32464,9662,28709
32469,9720,28711
32528,9626,28613
32576,9654,28673
32517,9700,28696
32552,9652,28516
32460,9689,28630
32556,9678,28655
32528,9678,28518
32500,9709,28567
32568,9727,28567
32608,9634,28588
32600,9636,28690
32572,9631,28311
32640,9652,28578
32664,9672,28280
32668,9700,28524
32660,9664,28255
32632,9668,28334
32712,9679,28343
32756,9654,28395
32828,9647,28383
32836,9655,28444
32780,9683,28476
32736,9739,28404
32692,9657,28415
32628,9660,28390
32656,9690,28292
32640,9674,28351
32646,9735,28145
32580,9639,28499
32532,9645,28400
32448,9649,28380
32556,9651,28399
32569,9678,28494
32500,9716,28390
32536,9663,28533
32568,9656,28429
32600,9653,28517
32548,9645,28185
32576,9636,28272
32724,9631,28332
32720,9636,28453
32668,9668,28428
32644,9662,28481
32654,9711,28380
32685,9730,28459
32639,9661,28397
32645,9654,28362
32672,9651,28356
32708,9648,28474
32696,9660,28445
32684,9647,28524
32728,9685,28472
32750,9697,28508
32616,9743,28449
32684,9748,28575
32620,9661,28511
32647,9654,28612
32716,9644,28650
32740,9633,28647
32764,9625,28730
32856,9627,28438
32796,9629,28513
32676,9639,28564
32636,9649,28660
32578,9660,28745
32568,9691,28690
32494,9732,28773
32556,9758,28453
32404,9692,28701
32252,9668,28613
32102,9680,28603
32080,9702,28728
32084,9714,28841
32356,9658,28708
32877,9663,28580
33600,9680,28637
34510,9689,28754
35588,9728,28804
36940,9639,28764
38732,9757,28700
40548,9623,28593
42316,9646,28620
44368,9680,28676
46248,9677,28793
47498,9731,28816
48500,9662,28777
49376,9663,28689
49160,9677,28700
47200,9701,28621
44640,9764,28814
42296,9628,28557
40272,9651,28941
38200,9676,28829
35973,9682,28953
34384,9751,28847
33652,9657,28972
33332,9653,28849
33238,9680,28943
32800,9701,28632
32392,9628,28990
32128,9659,28660
31993,9643,28758
31804,9674,28728
31564,9716,28865
31344,9655,28655
31156,9660,28993
31136,9681,28927
31084,9666,28991
30956,9720,28950
30840,9627,29022
30704,9630,28952
30444,9630,28846
30308,9660,28836
30280,9666,28903
30010,9671,28941
29996,9679,28952
30032,9685,29029
29993,9671,28836
30028,9673,28887
30120,9660,29028
30088,9644,28850
30164,9662,28966
30073,9673,28975
30092,9668,28789
30208,9679,28957
30249,9679,29065
30284,9682,28861
30344,9681,28967
30360,9655,29078
30404,9656,28709
30408,9657,28936
30476,9682,28993
30508,9701,28766
30493,9723,28917
30484,9744,28845
30512,9669,28965
30573,9661,29073
30668,9654,28999
30700,9639,29118
30748,9645,29012
30736,9663,29092
30668,9667,28999
30680,9676,29029
30868,9687,28789
30680,9679,28878
30692,9691,28916
30680,9704,29009
30744,9693,29108
30802,9694,29021
30848,9725,29029
30854,9639,29021
30908,9639,29112
30884,9653,29023
30906,9684,29083
30900,9694,29014
30956,9708,29084
30980,9730,28780
30996,9656,29028
31092,9647,28731
31164,9637,29101
31248,9651,28997
31224,9657,29082
31176,9665,28991
31164,9679,29028
31136,9701,28720
31148,9694,28921
31156,9681,29070
31164,9681,28852
31182,9662,28972
31204,9657,28998
31178,9678,28749
31096,9694,28935
31164,9705,28965
31173,9662,28780
31142,9667,28916
31116,9673,28984
31156,9661,28896
31304,9654,28962
31294,9648,28815
31280,9658,28893
31228,9663,28961
31257,9676,29023
31196,9688,28935
31080,9718,28793
31174,9672,28948
31228,9668,28963
31213,9666,28809
31248,9684,28872
31276,9679,28942
31296,9678,28832
31308,9655,28960
31272,9667,28980
31200,9672,28862
31200,9695,29032
31228,9670,28847
31196,9674,28918
31180,9665,28990
31188,9663,28840
31216,9649,28951
31340,9645,28871
31164,9647,28934
31137,9650,28898
31188,9654,28996
31196,9673,28868
31141,9695,28903
31173,9695,28714
31264,9687,28791
31376,9683,28952
31444,9687,28720
31544,9680,28833
31528,9662,28852
31516,9674,28572
31540,9674,28768
31585,9687,28685
31660,9698,28764
31668,9693,28734
31752,9677,28708
31792,9669,28726
31884,9659,28593
31956,9716,28444
31996,9675,28652
32044,9666,28668
32116,9657,28487
32173,9671,28613
32312,9799,28368
32384,9681,28564
32472,9672,28706
32628,9669,28564
32720,9745,28335
32844,9767,28533
33012,9653,28626
33041,9716,28548
33124,9694,28401
33184,9692,28487
33216,9698,28438
33256,9711,28451
33336,9687,28441
33392,9669,28285
33382,9662,28437
33360,9660,28535
33340,9649,28321
33316,9655,28423
33224,9663,28232
33220,9677,28502
33068,9762,28212
33053,9719,28384
33008,9715,28201
32948,9699,28364
32888,9678,28337
32848,9687,28194
32775,9688,28409
32669,9666,28226
32556,9666,28324
32448,9666,28308
32372,9679,28372
32297,9679,28119
32292,9671,28295
32304,9765,28327
32344,9652,28217
32306,9649,28313
32276,9649,28309
32080,9671,28070
31940,9658,28197
31930,9664,28311
31880,9674,28351
31864,9674,28156
31852,9664,28318
31848,9664,28297
31845,9649,28188
31816,9637,28301
31832,9639,28316
31940,9645,28224
31926,9648,28306
31893,9655,28156
31824,9667,28200
31812,9674,28278
31816,9669,28396
31724,9682,28285
31808,9677,28214
31817,9664,28193
31780,9699,28285
31684,9729,28295
31708,9652,28339
31720,9659,28452
31804,9669,28333
31856,9662,28276
31872,9656,28260
31912,9666,28213
31912,9672,28287
31820,9657,28366
31728,9652,28497
31757,9680,28414
31748,9689,28390
31744,9698,28336
31772,9710,28470
31816,9703,28300
31844,9696,28480
31901,9703,28485
31908,9698,28340
31936,9679,28521
31936,9673,28489
32001,9697,28319
32056,9702,28452
32068,9658,28445
32000,9662,28526
31996,9688,28481
32032,9691,28349
32080,9666,28551
32020,9669,28255
31944,9761,28364
31965,9631,28309
31968,9645,28382
32017,9661,28399
32016,9767,28333
32052,9667,28252
32165,9699,28206
32237,9673,28218
32232,9685,28280
32113,9704,28199
32176,9698,28261
32228,9707,28384
32216,9702,28054
32188,9638,28080
32285,9660,28102
32328,9693,28148
32288,9682,28196
32192,9675,27953
32220,9674,28017
32364,9674,28114
32436,9661,27896
32380,9684,27980
32316,9673,28214
32212,9675,27856
32245,9679,28088
32301,9689,27979
32324,9686,27996
32332,9678,27841
32324,9670,27981
32468,9676,27884
32620,9662,28004
32516,9667,28004
32396,9696,27860
32530,9711,27945
32266,9650,28001
32184,9654,27940
32296,9655,27876
32380,9655,27801
32404,9657,27881
32440,9647,27996
32484,9631,27762
32484,9628,27844
32472,9629,27722
32448,9639,27693
32412,9645,27807
32400,9658,27792
32324,9655,27521
32292,9652,27596
32369,9652,27653
32493,9640,27694
32672,9628,27625
32640,9623,27443
32500,9631,27593
32428,9636,27626
32412,9653,27409
32168,9653,27343
32160,9656,27335
32160,9654,27408
32152,9647,27497
32164,9634,27337
32136,9627,27228
32032,9621,27087
32056,9639,27044
32140,9666,27016
32192,9677,27077
32248,9685,27123
32224,9682,26728
32144,9671,26891
32032,9646,26935
32060,9644,26748
32101,9658,26789
32140,9647,26631
32180,9668,26640
32228,9691,26486
32212,9700,26348
32036,9781,26149
32208,9653,26114
32064,9650,26031
32052,9670,25978
32100,9650,25926
32144,9657,25991
32216,9652,26016
32192,9700,25667
32224,9637,25895
32064,9640,25540
31984,9677,25716
32117,9676,25460
32102,9732,25686
32182,9661,25505
32264,9673,25349
32260,9620,25327
32240,9639,25155
32264,9646,25301
32096,9698,25243
31812,9645,25216
31757,9671,25140
31836,9682,25127
31792,9726,25034
31756,9649,25028
31788,9630,24893
31764,9646,24954
31712,9724,24775
31705,9628,24739
31744,9669,24649
31806,9702,24489
31824,9652,24496
31867,9686,24380
31736,9718,24310
31712,9640,24156
31760,9656,24084
31732,9693,23991
31700,9632,24140
31712,9665,23917
31708,9633,23744
31744,9673,23956
31632,9706,23804
31564,9660,23548
31520,9674,23736
31536,9786,23586
31526,9645,23357
31504,9697,23407
31385,9620,23204
31340,9660,23344
31460,9669,23085
31352,9648,23268
31380,9656,22980
31594,9665,23128
31480,9731,23068
31368,9657,22908
31528,9668,22868
31444,9700,22783
31348,9624,22876
31420,9638,22829
31420,9667,22824
31360,9660,22828
31376,9701,22610
31384,9754,22698
31485,9651,22636
31268,9659,22758
31213,9656,22561
31180,9680,22727
31264,9758,22509
31420,9629,22664
31560,9661,22586
31588,9662,22685
31408,9707,22580
31332,9655,22640
31380,9654,22538
31408,9671,22465
31470,9644,22355
31657,9678,22444
31496,9625,22435
31381,9657,22448
31400,9657,22407
31604,9700,22338
31648,9649,22346
31557,9660,22249
31620,9675,22237
31670,9681,22300
31692,9689,22134
31816,9698,22244
31712,9727,22173
31708,9625,22048
31672,9645,22149
31828,9674,22025
31845,9671,22164
31768,9685,22209
31685,9731,22005
31780,9642,22019
32144,9631,21975
32128,9647,22120
32028,9638,22178
32116,9655,21938
32064,9681,22094
32065,9726,22056
32133,9741,21947
32064,9725,21929
32073,9728,22104
32056,9639,22133
32140,9637,21973
32169,9626,22136
32128,9623,22132
32140,9636,22016
32193,9650,22065
32268,9666,22210
32265,9696,22258
32281,9710,22243
32328,9643,22272
32359,9639,22278
32448,9641,22276
32384,9642,22356
32356,9668,22380
32400,9714,22534
32512,9637,22510
32384,9673,22644
32336,9662,22758
32380,9680,22882
32374,9717,22848
32420,9637,23026
32404,9631,23164
32358,9626,23196
32476,9653,23125
32616,9719,23234
32496,9631,23280
32476,9661,23416
32513,9676,23450
32652,9718,23634
32680,9644,23620
32680,9657,23920
32560,9666,23886
32492,9627,23901
32628,9635,24207
32700,9659,24270
32560,9655,24421
32608,9718,24458
32616,9649,24416
32596,9667,24604
32633,9695,24572
32728,9714,24914
32716,9628,24932
32720,9626,25092
32872,9648,25108
32848,9641,25151
32710,9685,25281
32604,9695,25427
32600,9652,25269
32696,9685,25580
32872,9697,25460
32784,9699,25669
32696,9687,25901
32716,9698,25953
32777,9620,26143
32872,9643,26148
32832,9648,26357
32704,9660,26217
32688,9677,26420
32790,9759,26476
32916,9645,26665
32780,9671,26823
32793,9669,26876
32768,9688,27063
32816,9624,26908
32884,9625,27164
32764,9639,27337
32712,9661,27444
32736,9719,27601
32860,9652,27695
32892,9652,27829
32884,9659,27896
32996,9672,28098
33004,9761,28185
33068,9623,28433
33000,9633,28212
33005,9662,28412
33128,9659,28613
33092,9680,28825
33105,9716,28961
33092,9649,29124
33084,9639,29308
33088,9665,29415
33108,9644,29575
33108,9684,29407
33216,9625,29694
33304,9640,29703
33309,9664,30073
33304,9707,29953
33280,9773,30288
33188,9642,30390
33268,9648,30599
33324,9649,30727
33263,9684,30890
33284,9771,31111
33420,9624,31135
33440,9658,31324
33416,9671,31247
33292,9728,31474
33276,9741,31551
33181,9644,31782
33149,9647,31975
33210,9641,31844
33140,9654,32001
33088,9643,32164
33216,9690,32340
33236,9634,32433
33300,9664,32511
33216,9668,32659
33214,9705,32869
33176,9646,32974
33240,9657,33168
33308,9646,33223
33424,9654,33452
33344,9690,33420
33336,9629,33448
33372,9636,33506
33348,9659,33609
33312,9708,33749
33329,9648,33868
33373,9668,34141
33382,9720,34262
33412,9631,34309
33320,9638,34386
33308,9673,34521
33336,9620,34620
33396,9634,34632
33376,9682,34902
33360,9773,35156
33361,9661,35121
33304,9678,35262
33322,9698,35240
33372,9633,35397
33365,9616,35559
33364,9626,35807
33344,9658,35815
33328,9637,36036
33340,9669,36000
33374,9676,36158
33420,9681,36189
33356,9688,36366
33316,9705,36532
33244,9627,36160
33160,9629,36577
33160,9667,36587
33124,9625,36732
32880,9632,36912
32784,9666,36900
32756,9721,36847
32848,9648,37376
33296,9680,37353
33940,9659,37583
34792,9707,37548
35893,9622,37732
37156,9652,37588
38756,9735,37553
40660,9637,37784
42476,9665,37940
44336,9673,37996
46480,9731,38096
48212,9647,38090
49412,9670,37960
50496,9667,38297
50996,9695,38500
50004,9719,38585
47460,9754,38804
44724,9743,38380
42344,9645,38937
40160,9689,38689
37728,9719,39020
35752,9655,38639
34740,9641,39038
34196,9630,39269
34020,9622,39358
33940,9649,39519
33368,9650,39517
33004,9693,39732
32900,9640,39669
32820,9646,39748
32644,9666,39394
32336,9682,39761
32068,9700,40036
32080,9777,40084
32052,9735,40157
31852,9617,39848
31676,9649,40422
31500,9661,40389
31380,9686,40392
31188,9711,40437
31048,9729,40521
30973,9647,40679
30821,9636,40694
30768,9629,40848
30734,9621,40832
30752,9628,40967
30816,9654,40428
30948,9649,40950
30912,9675,40846
30848,9656,41064
30876,9652,41018
31016,9652,41172
31100,9649,41423
31109,9640,41204
31096,9636,41200
31104,9662,41344
31148,9748,41316
31272,9632,41479
31208,9656,41531
31226,9670,41683
31184,9719,41652
31252,9719,41711
31324,9641,41588
31340,9640,41717
31408,9656,41812
31448,9639,41727
31448,9666,41479
31502,9654,41884
31532,9678,42012
31576,9717,42044
31604,9735,42172
31584,9649,42211
31600,9644,42095
31524,9626,42340
31741,9625,42289
31781,9627,42293
31776,9633,42421
31672,9648,42516
31600,9653,42420
31685,9674,42583
31704,9687,42653
31746,9687,42788
31788,9716,42784
31824,9635,42872
31924,9653,42836
31872,9660,42976
32036,9680,42985
32036,9701,43101
32036,9645,42998
32048,9653,42932
32032,9653,43181
32032,9660,42733
32012,9705,43215
32036,9696,43116
32096,9697,43365
32117,9753,43399
32178,9632,43372
32144,9639,43120
32104,9657,43340
32048,9677,43553
31948,9681,43585
32028,9728,43637
32028,9645,43713
31984,9639,43720
32028,9633,43471
32096,9625,43791
32216,9635,43844
32148,9642,43809
32096,9658,43724
32132,9681,43502
32232,9679,43828
32096,9676,43966
32140,9688,43984
32132,9721,44016
32176,9636,43965
32160,9631,43880
32176,9629,43997
32140,9650,44024
32132,9668,44039
32088,9667,44128
32037,9680,44124
31980,9690,44158
31964,9678,44136
31988,9688,44167
32048,9754,44061
32060,9637,44030
32172,9662,44094
32004,9711,44101
31872,9656,44188
32020,9661,44145
32160,9697,44023
31869,9693,43764
31933,9728,44235
32044,9649,44260
32120,9640,44249
32241,9639,44292
32064,9671,44292
32132,9691,44253
32325,9732,44225
32264,9664,44212
32180,9671,44196
32260,9679,44229
32293,9690,44063
32348,9704,44414
32424,9740,44458
32453,9651,44468
32612,9677,44495
32688,9723,44536
32748,9663,44604
32780,9806,44601
32832,9668,44652
32920,9668,44630
33109,9662,44295
33273,9676,44692
33416,9676,44769
33464,9686,44740
33488,9726,44776
33502,9651,44853
33576,9680,44888
33668,9728,44783
33712,9677,44903
33812,9676,45024
33901,9699,45016
34040,9680,45063
34024,9716,45061
34032,9646,45127
34024,9670,45056
34148,9681,45183
33920,9680,45133
33940,9706,45159
33968,9738,45124
33966,9772,45103
33684,9663,45152
33704,9661,45151
33852,9670,45188
33628,9666,45215
33537,9689,45332
33405,9732,45333
33280,9796,45407
33168,9670,45391
33144,9706,45393
33090,9681,45300
33144,9707,45045
33188,9717,45414
33012,9712,45420
32932,9634,45372
32864,9653,45164
32781,9666,45538
32724,9704,45597
32684,9727,45504
32748,9672,45605
32780,9666,45544
32696,9687,45629
32604,9666,45572
32596,9664,45628
32660,9675,45541
32640,9702,45631
32632,9644,45597
32612,9668,45581
32560,9699,45679
32432,9665,45509
32440,9688,45637
32558,9681,45719
32550,9708,45676
32516,9632,45732
32536,9625,45694
32481,9647,45724
32396,9676,45639
32424,9650,45604
32548,9680,45729
32524,9711,45732
32432,9660,45783
32589,9665,45702
32552,9662,45790
32540,9654,45735
32628,9652,45462
32584,9669,45644
32508,9693,45677
32516,9713,45792
32516,9659,45742
32510,9655,45732
32596,9677,45628
32633,9670,45484
32624,9688,45628
32704,9716,45608
32712,9628,45744
32692,9628,45688
32744,9644,45725
32796,9670,45638
32703,9711,45305
32720,9726,45640
32698,9652,45574
32820,9647,45657
32968,9658,45600
32882,9638,45581
32852,9671,45534
32916,9728,45145
33004,9633,45461
33016,9660,45302
32952,9679,45398
32816,9765,45097
32844,9656,45447
32920,9657,45184
33000,9654,45348
33028,9655,45401
32974,9739,45462
32900,9624,45316
32936,9666,45277
33028,9705,45076
33196,9653,45287
33125,9674,45253
33117,9670,45420
33060,9690,45353
33080,9772,45376
33020,9624,45336
33068,9652,45364
33036,9648,45325
33236,9673,45063
33408,9687,45281
33152,9724,45252
33188,9648,45356
33341,9647,45260
33208,9672,44892
33124,9663,45143
33252,9677,45180
33228,9697,45302
33260,9621,45261
33284,9629,45319
33261,9636,45189
33077,9662,45157
32992,9669,45188
33140,9704,44917
33260,9641,45317
33360,9636,45010
33424,9636,45345
33336,9641,45333
33232,9666,45360
33212,9626,45438
33210,9668,45385
33324,9704,45383
33360,9724,45359
33204,9650,45368
33284,9668,45367
33290,9668,45421
33285,9693,45436
33260,9616,45520
33276,9645,45377
33202,9667,45476
33048,9697,45180
32976,9651,45589
33088,9654,45589
33104,9672,45520
33184,9664,45605
33252,9652,45737
33210,9669,45652
33172,9689,45748
33189,9729,45744
33228,9637,45812
33176,9658,45797
33144,9697,45812
33136,9655,45772
33120,9668,45809
33164,9689,45790
33232,9695,45924
33160,9715,45901
33148,9612,45975
33116,9618,45949
33048,9659,46000
33078,9660,45988
33016,9708,46033
32980,9778,45968
32992,9644,46052
33136,9655,46024
33200,9678,45625
33117,9685,45932
33104,9617,45903
33041,9620,46052
33044,9650,46018
33005,9655,46133
33110,9669,46060
33132,9704,46037
33124,9767,45997
33128,9636,45703
33166,9636,46059
33196,9652,45953
33120,9665,46039
33076,9687,46000
33152,9628,46044
33117,9629,45964
33046,9670,45991
33030,9684,45900
33054,9766,46084
33176,9637,45692
33056,9642,46096
32968,9653,46148
33016,9751,46004
33028,9631,46104
33040,9650,46024
33088,9702,46037
33020,9774,45938
32964,9648,46061
32740,9677,45678
32873,9676,46119
32964,9692,46148
33184,9620,46054
33232,9628,46079
33116,9647,46056
32976,9643,46035
33064,9647,45972
32985,9664,45959
33009,9670,45805
33045,9684,45956
32992,9720,45685
32896,9632,45892
32823,9650,45559
32957,9666,45928
33032,9617,45983
32894,9659,45889
32868,9680,45948
32941,9723,45872
32972,9647,45881
32928,9643,45812
32940,9667,45860
32904,9691,45789
32900,9617,45742
33084,9647,45317
32936,9617,45679
33068,9655,45677
32952,9706,45453
32992,9644,45589
32916,9662,45199
32860,9687,45492
32880,9781,45303
32894,9630,45500
32952,9637,45545
33034,9682,45351
32928,9616,45352
32926,9649,45008
32892,9697,45396
32812,9639,45255
32813,9675,45060
32852,9691,45329
32856,9637,45328
32908,9643,44864
33012,9726,45275
33068,9636,45112
32956,9678,45206
32924,9619,45055
32941,9664,45165
32921,9647,45148
32888,9681,44741
32928,9708,45101
32900,9636,45079
32887,9647,44884
32944,9638,45012
33048,9684,45028
32974,9618,44999
32892,9635,45005
32869,9648,44973
32848,9718,44826
32872,9647,44935
32920,9657,44908
32944,9698,44756
32948,9623,44473
32984,9644,44849
32996,9660,44807
32992,9669,44807
32965,9770,44719
32944,9628,44752
32888,9667,44735
32892,9681,44764
32984,9639,44592
33040,9661,44612
32884,9673,44679
32988,9758,44588
33064,9616,44551
32900,9648,44423
32852,9626,44509
32860,9637,44564
33016,9677,44452
32920,9675,44420
32782,9726,44007
32820,9633,44415
32740,9645,44406
32812,9636,44332
33040,9646,44356
33040,9683,44228
32896,9629,44096
32789,9639,44212
32852,9676,44205
32877,9670,44199
32792,9700,44056
32764,9634,43920
32820,9627,43620
32848,9632,44030
32929,9673,44024
32964,9612,43868
32916,9641,43917
32992,9721,43884
32949,9640,43772
32864,9677,43692
32812,9659,43717
32960,9639,43554
33015,9635,43384
32956,9654,43501
33041,9610,43501
32916,9621,43540
32824,9649,43471
32838,9665,43358
32860,9707,43351
32921,9645,43293
32961,9637,42883
33008,9650,43324
33004,9638,42804
33016,9645,43204
33054,9637,42861
33028,9673,43079
32992,9615,43101
32904,9645,43136
32848,9708,42940
32852,9640,42915
32868,9671,42783
32888,9669,42676
32898,9731,42724
33002,9607,42751
32980,9606,42791
32928,9646,42746
32877,9653,42718
32868,9708,42783
32884,9641,42654
32832,9667,42631
32858,9736,42540
32888,9630,42488
32820,9641,42471
32837,9636,42437
32850,9681,42308
33000,9616,41956
32889,9652,42332
32888,9662,41836
32908,9636,42461
32844,9669,42316
32834,9701,42319
32872,9632,42272
33064,9649,42025
33080,9663,42161
33002,9614,42096
32984,9639,42020
33038,9646,42094
33012,9696,42132
33076,9640,42092
33140,9653,42190
33124,9692,42048
33069,9630,42056
33113,9653,42076
33117,9629,42021
33096,9665,42007
33220,9612,41926
33200,9629,41725
33140,9647,41853
33068,9711,41844
33308,9641,41789
33201,9634,41848
33111,9652,41784
33148,9641,41841
33068,9657,41746
33012,9716,41654
32997,9621,41780
32945,9636,41143
32908,9654,41756
32860,9695,41572
32904,9725,41606
32908,9635,40976
32884,9637,41432
32944,9652,41120
33020,9628,41248
32960,9645,41343
32925,9683,41279
32900,9680,41447
32872,9736,41261
32821,9782,41250
32737,9640,40917
32753,9639,41134
32908,9634,40988
32856,9623,41159
32944,9723,40820
33120,9608,41077
33040,9612,40716
32848,9643,40801
32944,9668,40533
32716,9701,40749
32704,9636,40852
32858,9649,40696
32864,9774,40461
32841,9621,40697
32928,9619,40884
33036,9637,40703
32960,9639,40623
32860,9641,40728
32842,9695,40652
32772,9636,40742
32902,9653,40588
32884,9671,40436
32900,9655,40578
33024,9652,40537
33084,9683,40445
33032,9614,40617
32965,9607,40196
32716,9628,40392
32574,9639,40441
32572,9700,40380
32448,9762,40512
32312,9636,40108
32216,9632,40253
32240,9622,40357
32508,9625,40269
32961,9632,40244
33544,9695,40096
34420,9623,39842
35468,9644,40317
36721,9676,40156
38572,9662,39984
40660,9700,39636
42732,9630,39964
44888,9615,39623
46924,9612,40020
48520,9602,40094
49712,9636,40017
50760,9657,40071
50832,9700,39980
49200,9745,39924
46532,9640,39873
43880,9683,39967
41881,9671,39852
39796,9722,39972
37376,9609,39796
35404,9630,39829
34236,9674,39687
33632,9615,39686
33312,9652,39654
32992,9664,39757
32636,9659,39615
32412,9684,39716
32232,9741,39552
32048,9615,39599
31796,9612,39438
31485,9621,39312
31342,9623,39401
31156,9645,39454
30976,9657,39367
30837,9660,39318
30808,9701,39375
30544,9638,39292
30220,9639,39293
30124,9647,39257
30216,9636,39196
30096,9664,39165
30120,9612,39119
30040,9620,38972
29964,9653,39079
29908,9676,39157
29922,9767,38636
30048,9657,39175
30068,9681,39012
30072,9619,38960
30228,9613,38945
30232,9628,38908
30249,9655,38812
30208,9669,38873
30268,9670,38840
30260,9657,38535
30316,9668,38713
30368,9656,38830
30400,9660,38800
30496,9693,38828
30396,9618,38680
30359,9639,38629
30304,9639,38607
30204,9665,38700
30180,9629,38593
30212,9655,38524
30340,9663,38629
30372,9672,38375
30384,9689,38644
30556,9703,38399
30600,9661,38524
30532,9612,38524
30574,9641,38648
30652,9646,38228
30564,9674,38700
30560,9753,38632
30586,9645,38689
30616,9646,38583
30628,9656,38675
30676,9673,38565
30780,9686,38617
30812,9608,38494
30840,9641,38127
30868,9661,38636
30750,9734,38508
30688,9641,38572
30794,9653,38445
30864,9673,38447
30732,9659,38373
30862,9685,38388
31056,9668,38407
31160,9616,38477
31048,9615,38381
30984,9640,38440
30912,9648,38393
30796,9689,38508
30872,9734,38376
31096,9729,38532
31324,9638,38324
31228,9657,38368
31228,9639,38382
31300,9646,38544
31200,9682,38429
31236,9623,38457
31100,9659,38361
31134,9665,38032
31112,9695,38597
31172,9721,38487
31300,9638,38620
31452,9633,38044
31472,9642,38628
31652,9667,38495
31684,9617,38455
31720,9635,38453
31621,9650,38521
31636,9669,38591
31820,9716,38567
31768,9647,38663
31689,9670,38521
31624,9679,38437
31648,9625,38527
31552,9615,38380
31564,9627,38445
31588,9649,38524
31608,9661,38439
31584,9689,38313
31548,9723,38676
31444,9650,38580
31520,9658,38676
31460,9660,38572
31400,9660,38524
31520,9656,38559
31621,9687,38524
31716,9630,38421
31504,9638,38252
31517,9666,38599
31591,9685,38148
31612,9683,38589
31730,9706,38144
31832,9716,38489
31784,9701,38497
31808,9711,38516
31844,9625,38292
31880,9642,38637
31928,9659,38182
31945,9685,38724
31948,9735,38580
32036,9652,38631
32208,9642,38522
32289,9645,38686
32180,9660,38870
32312,9703,38772
32520,9627,38841
32660,9641,38788
32758,9661,38804
32688,9714,38847
32717,9654,38956
32925,9668,38919
33064,9667,39066
33180,9658,38981
33264,9659,39180
33450,9648,39044
33512,9645,39044
33540,9656,38952
33568,9669,39032
33576,9695,39111
33552,9681,39143
33576,9669,39276
33668,9673,39303
33772,9701,39254
33684,9693,39319
33668,9746,39037
33600,9631,39669
33540,9633,39569
33464,9640,39661
33377,9673,39660
33288,9670,39880
33252,9670,39793
33212,9681,39940
33156,9692,39879
33112,9691,40007
33053,9673,39963
32976,9697,40047
32868,9628,39913
32856,9633,40066
32760,9646,40137
32732,9647,40168
32656,9645,39876
32604,9643,40129
32592,9634,40315
32532,9623,40260
32472,9633,40420
32484,9636,40374
32460,9660,40500
32540,9673,40417
32232,9668,40578
32156,9698,40449
32332,9650,40616
32272,9639,40511
32244,9657,40573
32312,9644,40487
32164,9681,40327
32124,9610,40711
32180,9623,40543
32232,9623,40682
32196,9636,40100
32080,9637,40736
32148,9670,40644
32300,9666,40628
32304,9682,40523
32264,9696,40199
32188,9612,40817
32213,9611,40664
32088,9645,40625
32002,9641,40668
32004,9665,40318
32080,9709,40901
32124,9634,40748
32108,9650,40607
32140,9654,40921
32244,9614,40609
32164,9617,40772
32029,9637,40634
32040,9712,40888
32100,9630,40775
32095,9652,40741
31994,9703,40327
32128,9635,40775
31928,9648,40646
31744,9620,40647
31876,9628,40624
31960,9649,40479
32048,9751,40244
32036,9612,40700
31929,9642,40566
31900,9710,40480
31856,9633,40620
31848,9652,40455
31988,9661,40482
31968,9671,40365
31856,9744,40301
31974,9627,40297
32024,9639,40300
32064,9700,40157
32064,9625,40392
32008,9651,40185
31980,9696,40029
31912,9639,40132
31872,9633,40039
32024,9634,39540
32052,9708,39972
32022,9605,39905
32029,9626,39878
32024,9654,39864
32020,9678,39750
32004,9693,39799
32012,9635,39518
32036,9667,39623
31920,9670,39588
31847,9619,39371
31913,9604,39289
32144,9612,39293
32076,9651,39352
31968,9609,39237
31988,9621,39107
31932,9647,38724
31884,9677,39260
31816,9631,38913
31916,9656,38972
32000,9650,39068
31909,9667,38873
31934,9743,38772
31940,9604,38602
31876,9609,38642
31852,9634,38761
31916,9649,38292
31956,9690,38504
31848,9636,38468
31866,9621,38600
31944,9626,38417
31908,9630,38324
31942,9646,38357
32008,9605,38252
31924,9614,38023
31873,9632,38064
31972,9643,38105
31820,9647,38262
31804,9695,38101
31774,9626,38023
31725,9615,37908
31852,9620,38015
31824,9652,37836
31744,9604,38000
31752,9613,37913
31846,9638,37849
31653,9654,37773
31709,9644,37751
31832,9677,37815
31808,9662,37678
31820,9681,37653
31822,9609,37389
31848,9599,37872
31716,9604,37721
31684,9612,37804
31689,9618,37673
31628,9660,37791
31562,9654,37649
31516,9668,37733
31568,9668,37602
31624,9753,37564
31592,9605,37452
31588,9614,37237
31608,9631,37524
31488,9677,37489
31464,9743,37342
31572,9623,37255
31448,9627,37341
31412,9629,37407
31432,9626,37282
31384,9649,37020
31368,9631,37558
31348,9644,37414
31389,9664,37532
31383,9730,37374
31312,9626,37372
31257,9662,37329
31232,9650,37420
31292,9647,37348
31340,9676,37319
31320,9615,37285
31389,9607,37308
31352,9611,37300
31344,9646,37132
31312,9700,36988
31340,9615,37364
31373,9654,37196
31260,9673,36857
31212,9724,37317
31246,9624,37208
31148,9612,37207
31062,9612,36999
31108,9617,37134
31156,9664,37191
31044,9606,37052
31108,9649,37023
31228,9673,36952
31212,9766,37020
31232,9650,37007
31188,9654,36991
31228,9638,37025
31100,9667,36871
31100,9668,36845
31264,9684,36863
31160,9615,36903
31192,9651,36776
31064,9650,36732
30881,9675,36600
30820,9696,36351
30845,9624,36844
30868,9622,36704
30940,9625,36670
30852,9655,36492
30744,9670,36516
30734,9615,36709
30816,9618,36564
30804,9647,36604
30710,9657,36492
30700,9671,36432
30776,9628,36300
30836,9614,36296
30872,9607,36374
30860,9597,36476
30716,9604,36381
30721,9636,36319
30784,9655,36200
30796,9634,36135
30784,9662,36343
30764,9675,36158
30768,9695,35892
30825,9615,36286
30812,9607,36079
30724,9605,36076
30728,9622,36100
30820,9632,36080
30838,9636,36020
30836,9705,36247
30832,9638,36108
30880,9657,36160
30892,9670,35998
30928,9672,36117
30900,9683,36064
30916,9601,36161
30936,9627,36001
30832,9630,36125
30784,9688,36004
30846,9740,36045
30852,9636,35982
30848,9653,35897
30937,9661,35884
30972,9663,35948
30960,9680,35880
30924,9678,35836
30816,9701,35764
30876,9614,35670
30742,9618,35821
30880,9631,35858
30868,9649,35959
31029,9653,35812
30960,9676,35748
30920,9688,35733
31012,9610,35810
31051,9606,35940
31116,9610,35812
30912,9638,35880
30872,9642,35756
30997,9662,35826
30892,9691,35734
30856,9707,35681
30936,9711,35692
31092,9625,35572
31076,9637,35840
31140,9639,35709
31156,9629,35801
31236,9637,35325
31173,9663,35756
31072,9678,35654
31064,9751,35765
30952,9640,35661
30932,9647,35630
31073,9656,35569
31184,9635,35556
31252,9634,35591
31172,9642,35605
31110,9678,35581
31044,9692,35566
31092,9638,35553
31268,9765,35612
31196,9643,35607
31244,9637,35632
31316,9637,35636
31396,9631,35675
31488,9627,35624
31612,9644,35672
31552,9637,35632
31532,9658,35621
31588,9685,35552
31508,9648,35388
31516,9643,35615
31576,9659,35601
31872,9655,35739
31808,9640,35637
31696,9648,35740
31690,9647,35607
31660,9681,35729
31672,9701,35292
31608,9639,35596
31632,9641,35317
31688,9655,35532
31680,9660,35445
31728,9650,35621
31820,9639,35301
31788,9647,35566
31756,9685,35406
31680,9700,35493
31620,9636,35464
31565,9650,35479
31520,9668,35344
31552,9691,35469
31537,9770,35577
31637,9636,35724
31662,9626,35471
