ECG,EDA,RR
31392,22822,30654
31480,22820,30543
31548,22822,30528
31592,22810,30296
31684,22824,30357
31728,22840,30233
31796,22863,30264
31828,22852,30180
31900,22863,30013
32009,22862,30064
32089,22846,29824
32172,22844,29783
32220,22835,29773
32312,22846,29752
32392,22857,29713
32440,22848,29545
32464,22871,29585
32452,22878,29417
32474,22887,29289
32440,22884,29406
32424,22860,29197
32412,22853,29243
32404,22859,29024
32390,22853,29009
32386,22865,29014
32240,22877,28780
32100,22887,28869
32004,22902,28677
31974,22882,28708
31929,22881,28446
31833,22880,28541
31744,22873,28457
31512,22874,28207
31408,22871,28327
31400,22880,28117
31524,22885,28120
31664,22890,27909
31496,22901,27933
31476,22904,27857
31580,22901,27779
31636,22897,27732
31672,22879,27476
31820,22869,27580
31812,22864,27401
31624,22887,27429
31481,22895,27188
31494,22883,27287
31532,22906,27252
31606,22911,27111
31664,22909,27152
31628,22901,26988
31544,22894,26923
31492,22876,26949
31440,22884,27005
31394,22897,26844
31384,22910,26971
31377,22908,26900
31312,22915,26849
31356,22923,26729
31296,22919,26900
31313,22910,26893
31513,22908,26703
31644,22885,26887
31816,22889,26874
31993,22893,26852
31948,22901,26872
31854,22914,26711
31738,22927,26903
31764,22935,26885
31888,22924,26726
32013,22919,26828
32072,22902,26821
32160,22903,26939
32161,22911,26938
32240,22916,26834
32332,22928,27028
32420,22928,27000
32404,22949,27054
32268,22935,26928
32152,22941,27073
32144,22932,27064
32192,22926,27178
32292,22915,27084
32381,22919,27165
32360,22927,27263
32340,22937,27348
32364,22940,27288
32452,22944,27300
32533,22956,27440
32580,22951,27525
32572,22952,27428
32620,22949,27604
32660,22924,27581
32736,22924,27728
32720,22940,27599
32692,22959,27836
32669,22957,27788
32648,22961,27916
32800,22975,27888
32828,22927,27908
32848,22949,27916
32812,22948,28175
32764,22951,28117
32836,22953,28288
32820,22972,28196
32824,22964,28252
32816,22980,28494
32844,22986,28511
32852,22981,28594
32869,22980,28645
32834,22963,28722
32872,22962,28800
32852,22972,28740
32928,22949,28759
32924,22959,28996
32871,22975,29020
32869,22993,29120
32924,22983,29039
32964,22983,29183
32984,22976,29200
33012,22977,29363
33040,22973,29436
32976,22955,29324
32956,22969,29393
32948,22977,29508
32852,22989,29557
32705,22985,29721
32685,22993,29620
32708,22994,29796
32728,22999,29831
32836,23002,29964
32941,22989,29852
33037,22969,30108
33028,22989,30053
32928,22985,30173
32908,23012,30087
32972,23004,30288
33040,23013,30377
33048,23002,30392
33050,23010,30444
32984,22999,30359
32992,23004,30428
33077,22980,30580
32940,22989,30577
32908,23004,30725
32801,22991,30604
32780,23017,30664
32808,23004,30869
32768,23012,30848
32740,23015,30909
32800,23019,31013
32844,23011,30861
32928,22989,30932
32925,23004,30983
32961,22999,31100
32968,23012,31236
32912,23028,31201
32872,23016,31276
32824,23020,31153
32748,23018,31221
32733,23018,31452
32584,23004,31333
32716,23005,31477
32696,23008,31540
32700,23013,31438
32696,23033,31580
32744,23023,31432
32764,23031,31612
32804,23043,31584
32876,23020,31717
32844,23028,31580
32816,23020,31821
32860,23003,31812
32844,23013,31815
32816,23023,31873
32800,23009,31783
32797,23025,31996
32816,23045,31855
32784,23033,31991
32760,23040,32027
32648,23020,32038
32596,23021,31908
32568,23013,32130
32496,23021,32042
32580,23013,32119
32700,23031,32029
32644,23052,32009
32464,23042,32195
32492,23042,32134
32516,23047,32181
32452,23025,32028
32572,23021,32200
32704,23012,32109
32768,23029,32153
32832,23014,32197
32812,23036,32024
32748,23040,32037
32600,23047,32048
32500,23049,32148
32464,23055,32032
32516,23047,32135
32421,23020,31964
32328,23025,31948
32388,23030,32048
32528,23037,32065
32409,23028,32071
32336,23047,32037
32316,23063,31965
32360,23047,31959
32428,23060,31914
32264,23034,31768
32228,23039,31776
32240,23015,31767
32260,23028,31545
32256,23035,31534
32164,23053,31646
32208,23063,31469
32268,23068,31536
32373,23047,31300
32505,23052,31284
32596,23050,31377
32596,23009,31364
32597,23023,31221
32576,23032,31223
32564,23039,30983
32552,23052,30964
32512,23047,31036
32500,23055,30915
32460,23057,30948
32564,23066,30721
32522,23038,30681
32412,23036,30654
32444,23032,30676
32468,23042,30670
32484,23047,30590
32564,23039,30561
32548,23057,30352
32576,23063,30343
32600,23058,30344
32456,23069,30334
32464,23053,30356
32484,23047,30276
32564,23041,30246
32692,23031,30033
32716,23045,29998
32648,23055,30120
32596,23065,30008
32480,23079,30014
32384,23049,29817
32376,23062,29765
32380,23064,29776
32408,23036,29862
32512,23036,29676
32620,23037,29673
32667,23050,29690
32696,23047,29668
32688,23070,29620
32636,23062,29584
32528,23066,29425
32472,23070,29368
32450,23047,29317
32396,23058,29285
32344,23031,29223
32328,23039,29181
32368,23047,29256
32548,23063,29274
32692,23075,29191
32793,23087,29191
32944,23060,28997
32888,23066,29020
32772,23064,29101
32784,23037,28960
32784,23043,29028
32824,23041,28847
32821,23054,28807
32740,23068,28925
32724,23076,28807
32740,23061,28856
32813,23060,28713
32824,23073,28713
32828,23056,28828
32784,23055,28694
32784,23037,28770
32716,23041,28653
32729,23058,28581
32780,23047,28581
32744,23070,28708
32676,23078,28591
32600,23063,28669
32505,23072,28652
32413,23047,28645
32449,23055,28464
32500,23042,28626
32568,23047,28544
32654,23054,28465
32596,23076,28525
32521,23057,28505
32485,23063,28417
32516,23071,28411
32365,23069,28423
32320,23065,28373
32448,23062,28343
32572,23055,28353
32640,23062,28324
32644,23071,28438
32572,23071,28404
32448,23063,28241
32436,23071,28197
32540,23077,28348
32549,23073,28295
32452,23072,28123
32376,23047,28253
32416,23038,28237
32448,23043,28068
32417,23052,28186
32376,23063,28141
32356,23082,27965
32384,23075,28020
32360,23074,27944
32444,23076,27845
32516,23073,27980
32332,23063,27860
32228,23044,27924
32188,23057,27753
32197,23067,27799
32188,23076,27805
32201,23076,27787
32300,23080,27644
32376,23082,27594
32364,23083,27661
32384,23087,27673
32292,23062,27517
32245,23053,27535
32080,23058,27598
31898,23066,27452
31724,23084,27464
31597,23092,27520
31544,23085,27404
31636,23084,27406
32108,23087,27457
32844,23085,27287
33760,23092,27375
34817,23061,27342
36264,23080,27301
38000,23092,27367
39876,23072,27204
41740,23082,27285
43904,23088,27233
46104,23121,27270
47648,23118,27137
48708,23096,27215
49436,23110,27130
49056,23067,27075
47032,23071,27132
44476,23108,27124
42064,23129,27149
39960,23103,27061
37776,23105,26991
35584,23112,27159
34082,23108,27058
33384,23087,27095
33061,23074,27125
32808,23076,26970
32404,23076,26950
32020,23073,27060
31777,23076,27053
31584,23087,27060
31328,23094,27080
31092,23092,27124
30876,23087,27136
30616,23087,27141
30454,23077,27058
30304,23068,27056
30141,23068,26972
29981,23073,27119
29774,23081,27056
29596,23095,27057
29444,23097,27111
29304,23102,27117
29182,23100,26938
29146,23087,27039
29148,23081,27008
29128,23077,27069
29148,23073,26988
29189,23081,26932
29231,23089,26968
29281,23100,27063
29364,23116,27051
29361,23111,27012
29302,23099,26981
29284,23102,27113
29324,23093,27100
29376,23074,27031
29352,23084,27078
29436,23093,27104
29344,23095,27112
29377,23107,27007
29384,23113,26973
29460,23087,27107
29576,23106,27126
29684,23106,27169
29780,23101,27040
29828,23089,27202
29892,23086,27141
29973,23095,27246
29949,23103,27101
29960,23109,27299
30124,23116,27293
30200,23120,27184
30132,23119,27164
30216,23113,27362
30364,23103,27360
30194,23090,27228
30200,23090,27396
30376,23096,27372
30584,23114,27415
30484,23127,27236
30452,23118,27409
30428,23126,27376
30424,23121,27249
30401,23117,27412
30453,23108,27361
30508,23111,27204
30476,23098,27271
30464,23105,27340
30440,23116,27148
30316,23127,27306
30257,23132,27252
30380,23135,27169
30388,23124,27079
30344,23125,27236
30292,23114,27157
30216,23110,27045
30262,23103,26981
30397,23111,27135
30414,23116,27076
30488,23133,27082
30512,23134,26988
30468,23137,26868
30432,23130,27004
30420,23135,26978
30424,23117,26956
30396,23109,26861
30356,23116,26763
30366,23118,26863
30365,23121,26861
30344,23135,26860
30350,23148,26677
30318,23151,26786
30274,23135,26700
30328,23132,26719
30384,23119,26620
30448,23119,26508
30478,23118,26544
30456,23119,26532
30542,23132,26496
30496,23143,26365
30416,23151,26369
30460,23145,26380
30484,23141,26295
30444,23141,26252
30357,23137,26202
30336,23121,26015
30288,23130,25922
30240,23137,25877
30216,23132,25965
30312,23144,25821
30208,23155,25822
30180,23162,25668
30216,23143,25516
30192,23142,25589
30181,23140,25509
30272,23120,25392
30412,23130,25310
30432,23131,25272
30456,23143,25153
30508,23156,24966
30544,23152,25047
30632,23148,24921
30740,23149,24869
30692,23146,24639
30736,23143,24680
30836,23140,24564
30959,23142,24404
30969,23132,24300
30948,23141,24256
30888,23157,24122
30864,23175,24008
30984,23167,23948
31040,23171,23810
31004,23154,23765
31264,23156,23636
31524,23143,23414
31576,23141,23393
31628,23155,23279
31777,23159,23112
31812,23162,22980
31862,23167,22934
31888,23169,22783
31949,23175,22673
32040,23152,22482
32160,23151,22370
32289,23140,22268
32216,23148,22135
32333,23140,22005
32261,23146,21790
32116,23162,21737
32216,23174,21574
32169,23165,21445
32024,23170,21236
32136,23168,21076
32072,23151,20972
32008,23131,20808
31902,23140,20658
31820,23136,20476
31833,23154,20308
31860,23167,20161
31828,23164,19984
31772,23159,19812
31664,23157,19631
31600,23158,19464
31549,23129,19276
31473,23124,19093
31434,23129,18919
31440,23135,18741
31392,23141,18536
31352,23150,18332
31340,23151,18122
31340,23157,17938
31272,23156,17729
31216,23140,17532
31204,23132,17324
31264,23143,17180
31288,23116,16987
31312,23132,16735
31304,23143,16476
31220,23137,16289
31200,23156,16088
31272,23150,15881
31260,23145,15692
31212,23143,15499
31156,23124,15291
31194,23118,15098
31132,23115,14973
31060,23127,14789
31008,23132,14510
30940,23140,14343
30944,23148,14044
30960,23141,13878
31080,23148,13693
31112,23134,13510
31076,23114,13374
31204,23106,13151
31436,23109,13065
31492,23125,12954
31520,23117,12795
31584,23137,12608
31712,23144,12334
31692,23145,12204
31717,23135,11998
31680,23124,11836
31592,23109,11815
31542,23110,11508
31494,23114,11432
31616,23109,11180
31712,23118,11175
31688,23135,10992
31621,23132,10903
31624,23140,10756
31792,23150,10607
31929,23131,10429
31964,23120,10233
31881,23103,10116
31901,23101,9915
31924,23113,9907
31964,23110,9813
31924,23132,9697
31960,23144,9566
32020,23127,9312
32021,23130,9264
32004,23133,9110
31996,23109,8900
31920,23104,8898
32008,23113,8861
32108,23103,8700
32156,23125,8527
32224,23133,8371
32258,23128,8356
32281,23129,8115
32268,23140,8055
32269,23114,8079
32276,23113,8023
32308,23110,7874
32350,23094,7677
32352,23102,7686
32384,23117,7509
32332,23141,7362
32328,23140,7325
32300,23140,7296
32320,23123,7285
32444,23122,7277
32460,23105,7124
32449,23092,7019
32444,23096,6972
32496,23109,6805
32608,23115,6756
32608,23136,6850
32569,23125,6850
32508,23133,6633
32452,23134,6672
32396,23116,6480
32365,23106,6587
32312,23100,6554
32432,23103,6377
32412,23108,6377
32500,23125,6336
32452,23114,6309
32441,23122,6252
32500,23125,6130
32600,23127,6249
32556,23120,6069
32560,23116,5946
32620,23092,6122
32584,23096,6020
32552,23118,5901
32532,23104,5871
32496,23117,5789
32520,23132,5810
32476,23110,5902
32396,23119,5822
32348,23106,5729
32343,23103,5731
32400,23099,5616
32472,23086,5570
32580,23102,5599
32676,23126,5623
32692,23121,5623
32704,23124,5678
32728,23135,5578
32744,23118,5564
32864,23119,5548
32696,23113,5604
32604,23090,5473
32524,23094,5558
32501,23111,5682
32485,23101,5551
32516,23116,5631
32464,23128,5507
32485,23128,5686
32480,23112,5563
32480,23110,5668
32508,23108,5509
32536,23110,5575
32564,23090,5762
32588,23101,5722
32540,23111,5665
32648,23110,5673
32760,23121,5751
32722,23129,5632
32692,23122,5853
32696,23124,5827
32740,23102,5785
32696,23095,5786
32672,23110,5771
32708,23097,5822
32768,23110,5836
32764,23124,5831
32728,23121,5958
32760,23131,5924
32820,23124,5888
32888,23131,5851
32920,23100,5910
32916,23106,5848
32908,23098,6020
32868,23114,5894
32832,23120,5844
32865,23117,6066
32840,23135,6000
32844,23137,6034
32889,23115,5940
32884,23111,6045
32888,23104,6073
32986,23110,5925
33052,23102,6071
33017,23096,6185
33032,23115,6094
33136,23136,6098
33102,23124,6100
33104,23133,6167
33032,23129,6176
32972,23140,6109
32908,23107,6260
32944,23100,6369
32924,23121,6389
32820,23103,6328
32832,23116,6324
32799,23120,6340
32776,23125,6444
32788,23132,6332
32765,23140,6441
32736,23141,6582
32720,23120,6541
32724,23113,6614
32744,23115,6500
32788,23116,6725
32877,23111,6649
32832,23134,6756
32804,23149,6703
32776,23151,6884
32780,23124,6794
32804,23132,6823
32772,23119,6926
32752,23127,6850
32672,23112,6963
32696,23125,7019
33028,23114,6895
32836,23121,7089
32804,23141,7129
33004,23137,7056
33000,23134,7124
32948,23116,7178
32972,23101,7048
32980,23098,7239
33036,23101,7314
33040,23109,7211
33004,23126,7219
32896,23147,7210
32852,23130,7257
32920,23136,7362
32760,23132,7308
32860,23126,7286
32900,23124,7484
32840,23107,7375
32856,23110,7326
32932,23119,7556
32956,23130,7467
32920,23121,7422
33064,23122,7513
33140,23121,7593
33056,23129,7532
32896,23125,7575
32868,23108,7521
32804,23113,7737
32630,23101,7629
32656,23098,7600
33013,23113,7820
33036,23123,7736
32964,23132,7706
32912,23139,7807
32960,23127,7882
33028,23113,7936
33016,23103,7846
32964,23093,7829
32924,23096,8067
32968,23103,8018
32924,23114,7965
32830,23125,8161
32832,23138,8061
32892,23138,8105
32940,23118,8114
33024,23116,8308
32972,23111,8183
32881,23108,8182
32792,23104,8362
32704,23114,8304
32766,23122,8340
32764,23109,8403
33056,23127,8585
33032,23129,8516
33064,23132,8573
33064,23108,8535
33184,23100,8779
33240,23089,8679
33164,23094,8719
33096,23103,8888
33076,23117,8985
33180,23120,8969
33236,23110,8972
33234,23118,9220
33201,23120,9246
33145,23105,9254
33148,23108,9332
33100,23106,9439
33022,23084,9525
33049,23092,9599
33036,23100,9827
32992,23101,9949
32912,23114,9887
32864,23114,10069
32856,23125,10109
32904,23100,10333
32960,23089,10322
32896,23089,10329
32852,23087,10622
32916,23098,10521
32894,23101,10598
32864,23100,10880
32989,23120,10799
33020,23115,10950
33004,23110,10945
33137,23108,11074
33127,23109,11210
32996,23103,11278
32996,23077,11280
32968,23085,11490
32968,23103,11415
32988,23108,11463
32920,23124,11711
32932,23124,11622
32972,23124,11684
33016,23094,11910
33077,23087,11844
33092,23087,11967
33104,23084,11986
33080,23093,12153
33044,23101,12148
32996,23113,12128
32964,23118,12354
33004,23127,12241
33008,23106,12392
33012,23101,12412
33020,23099,12590
33049,23096,12534
32965,23100,12578
32900,23103,12790
32776,23103,12733
32609,23097,12750
32488,23105,12964
32408,23118,12876
32465,23114,12934
32752,23119,13121
33204,23106,13032
33936,23077,13110
34932,23081,13284
36052,23101,13194
37412,23105,13327
39058,23133,13381
40776,23152,13399
42404,23150,13437
44276,23101,13622
46160,23098,13501
47364,23126,13599
48188,23108,13774
48700,23124,13666
47984,23092,13737
45748,23096,13908
43104,23122,13863
40782,23140,13924
38628,23148,13935
36712,23140,13987
35116,23136,14036
34120,23092,14122
33882,23100,14116
33877,23095,14234
33812,23093,14138
33460,23093,14212
32945,23108,14345
32576,23091,14304
32536,23095,14380
32485,23088,14412
32152,23089,14531
31816,23082,14447
31604,23070,14524
31540,23072,14565
31416,23068,14716
31284,23078,14593
31144,23094,14726
30932,23084,14699
30722,23103,14810
30604,23100,14880
30537,23085,14759
30512,23079,14825
30414,23070,14941
30365,23076,14903
30392,23068,14853
30425,23081,14906
30420,23088,15046
30456,23087,15047
30508,23101,14964
30457,23097,15025
30432,23092,15140
30516,23081,15079
30576,23076,15165
30646,23069,15184
30815,23069,15281
30752,23085,15217
30860,23089,15268
30837,23102,15284
30772,23098,15388
30752,23090,15341
30752,23084,15445
30734,23070,15387
30804,23071,15485
30821,23063,15401
30828,23079,15438
30828,23079,15567
30968,23092,15449
30908,23104,15540
30856,23095,15511
30908,23096,15543
30856,23089,15602
30938,23081,15603
31020,23077,15584
31064,23073,15684
31133,23072,15612
31172,23082,15628
31188,23094,15599
31174,23100,15623
31200,23101,15706
31224,23102,15617
31217,23097,15641
31252,23077,15625
31248,23084,15601
31296,23071,15700
31372,23066,15576
31448,23077,15597
31460,23093,15609
31412,23106,15686
31312,23097,15652
31244,23088,15645
31252,23087,15625
31276,23077,15666
31340,23074,15670
31320,23076,15659
31316,23087,15749
31340,23080,15622
31372,23096,15715
31408,23104,15689
31396,23103,15717
31308,23098,15811
31278,23105,15822
31348,23076,15750
31418,23084,15796
31524,23078,15781
31472,23092,15897
31396,23080,15796
31364,23093,15866
31350,23111,15856
31352,23113,15961
31288,23103,15871
31285,23100,15925
31349,23094,15925
31416,23079,15986
31401,23087,15973
31364,23089,16031
31440,23089,15972
31492,23097,16013
31396,23110,16014
31389,23108,16049
31324,23113,16057
31408,23105,16052
31468,23103,16089
31412,23085,16085
31318,23076,16083
31320,23084,16091
31400,23097,16091
31456,23105,16152
31578,23113,16132
31636,23118,16132
31632,23119,16204
31588,23105,16130
31580,23097,16144
31620,23093,16230
31726,23087,16174
31644,23092,16229
31648,23096,16189
31632,23119,16272
31748,23110,16222
31784,23118,16274
31744,23121,16252
31756,23120,16350
31772,23114,16257
31808,23085,16291
31912,23090,16396
31990,23089,16357
32028,23103,16367
32109,23110,16346
32177,23131,16373
32256,23127,16456
32293,23116,16386
32336,23112,16431
32340,23103,16530
32436,23099,16450
32526,23103,16519
32616,23119,16512
32644,23100,16603
32692,23107,16575
32718,23120,16620
32804,23129,16588
32900,23137,16639
33004,23108,16632
33109,23114,16734
33148,23103,16669
33185,23103,16712
33200,23109,16819
33152,23116,16794
33136,23138,16812
33156,23117,16841
33152,23118,16877
33104,23129,16943
33096,23120,16900
33078,23084,16957
33010,23095,17015
32974,23097,16996
32948,23107,17060
32868,23118,17055
32816,23100,17104
32841,23111,17141
32880,23107,17227
32797,23109,17191
32696,23119,17263
32636,23086,17244
32544,23079,17342
32556,23071,17319
32524,23076,17387
32450,23101,17370
32441,23107,17448
32412,23101,17437
32508,23101,17488
32508,23097,17452
32392,23092,17487
32312,23095,17532
32381,23074,17557
32304,23078,17617
32350,23082,17583
32468,23073,17607
32428,23080,17644
32412,23094,17709
32380,23100,17692
32412,23096,17728
32317,23096,17781
32208,23081,17764
32208,23072,17799
32252,23069,17856
32288,23063,17865
32352,23085,17910
32336,23068,17903
32372,23077,17949
32444,23093,18018
32504,23074,17988
32460,23083,18029
32440,23076,18073
32428,23071,18080
32436,23041,18120
32452,23057,18145
32497,23061,18160
32526,23071,18174
32540,23092,18211
32600,23069,18273
32584,23065,18274
32540,23063,18290
32549,23056,18351
32548,23043,18350
32548,23036,18378
32585,23057,18405
32588,23053,18410
32604,23063,18464
32632,23068,18450
32668,23085,18480
32780,23056,18503
32828,23047,18541
32861,23044,18547
32888,23037,18574
32944,23034,18590
32956,23032,18593
32936,23046,18631
32984,23057,18620
33040,23068,18643
33093,23068,18694
33112,23061,18676
33080,23053,18708
33016,23056,18720
32968,23045,18724
32976,23034,18746
32960,23043,18750
33000,23053,18753
33056,23058,18761
33072,23069,18772
33076,23045,18788
33184,23047,18788
33208,23057,18781
33224,23044,18799
33164,23036,18796
33169,23033,18799
33266,23035,18801
33389,23028,18808
33404,23034,18802
33367,23041,18815
33268,23045,18813
33200,23047,18826
33196,23053,18820
33212,23047,18831
33276,23015,18830
33325,23008,18825
33296,23015,18840
33320,23017,18826
33396,23028,18842
33390,23041,18851
33372,23040,18850
33308,23061,18869
33240,23053,18856
33156,23038,18880
33112,23009,18872
33137,23007,18874
33188,23002,18885
33164,23015,18889
33200,23024,18907
33255,23035,18906
33264,23037,18927
33220,23029,18931
33184,23028,18938
33276,23019,18943
33260,23009,18953
33231,23004,18966
33220,23009,18974
33284,23021,18988
33256,23026,19005
33272,23036,19020
33280,23045,19029
33248,23046,19047
33197,23022,19056
33168,23016,19054
33229,23007,19063
33248,23009,19087
33292,23017,19086
33340,23006,19096
33321,23008,19114
33257,23024,19124
33220,23030,19142
33224,23020,19144
33196,23014,19167
33192,23010,19172
33192,23005,19185
33208,23000,19193
33256,23007,19218
33312,23000,19227
33236,23010,19231
33192,23010,19252
33228,23027,19262
33212,23020,19276
33268,23022,19293
33344,23019,19294
33328,23012,19319
33312,22984,19334
33292,22988,19353
33233,23005,19364
33152,23011,19372
33132,23021,19400
33194,23023,19417
33176,23020,19447
33160,23012,19447
33208,23000,19479
33167,22993,19490
33172,22988,19518
33264,22994,19518
33326,23009,19550
33381,23012,19577
33360,23006,19580
33460,23012,19608
33524,23012,19623
33546,23010,19655
33504,22996,19652
33496,22992,19686
33481,22989,19696
33409,22991,19728
33372,22996,19748
33304,22999,19779
33288,23007,19798
33288,23012,19794
33272,23013,19842
33205,23009,19860
33180,22996,19857
33216,22989,19913
33216,22983,19929
33168,22991,19931
33164,22994,19966
33196,22989,19981
33260,22997,20022
33262,23005,20038
33276,23008,20056
33304,23001,20065
33314,22999,20111
33369,22968,20133
33389,22966,20137
33334,22976,20171
33273,22980,20192
33212,22997,20231
33208,23009,20217
33244,22993,20286
33261,22994,20308
33300,22983,20318
33292,22977,20358
33284,22972,20346
33337,22973,20404
33381,22967,20412
33384,22977,20464
33356,22982,20465
33324,22992,20529
33288,23008,20550
33252,23001,20573
33260,22994,20606
33284,22973,20595
33247,22981,20661
33224,22972,20685
33172,22983,20719
33168,22964,20696
33137,22970,20762
33100,22982,20767
33188,22989,20844
33172,22988,20860
33181,22987,20843
33228,22978,20895
33252,22969,20909
33196,22973,20946
33192,22964,20989
33188,22972,20964
33128,22985,21035
33120,22976,21074
33164,22981,21051
33200,22990,21105
33176,22985,21143
33156,22972,21104
33236,22969,21174
33272,22958,21194
33280,22967,21207
33300,22967,21277
33340,22975,21308
33368,22983,21321
33364,22991,21300
33336,22990,21361
33269,22985,21316
33192,22956,21402
33140,22943,21403
33112,22940,21444
33100,22944,21410
33150,22975,21501
33196,22972,21451
33216,22983,21551
33192,22979,21571
33222,22975,21615
33204,22970,21601
33164,22969,21660
33180,22956,21664
33192,22941,21703
33216,22948,21730
33268,22948,21755
33248,22962,21780
33228,22967,21747
33216,22974,21799
33224,22975,21749
33197,22964,21848
33196,22956,21796
33226,22947,21900
33248,22936,21842
33308,22942,21969
33324,22952,21986
33317,22959,21950
33286,22968,22016
33269,22981,21944
33280,22986,22044
33221,22949,22016
33196,22948,22100
33272,22947,22116
33368,22937,22048
33385,22945,22060
33400,22938,22116
33388,22948,22148
33394,22967,22065
33404,22973,22178
33380,22974,22152
33476,22973,22084
33544,22940,22183
33548,22924,22214
33468,22932,22130
33396,22940,22236
33380,22935,22224
33420,22953,22196
33336,22971,22238
33280,22953,22283
33212,22958,22270
33164,22956,22285
33156,22945,22328
33152,22941,22276
33148,22940,22370
33114,22925,22400
33088,22930,22430
33104,22944,22389
33156,22943,22365
33184,22950,22408
33085,22957,22533
33040,22940,22520
33032,22932,22567
33053,22925,22500
33042,22935,22518
33052,22919,22623
33024,22933,22636
32980,22940,22601
32992,22961,22620
33004,22946,22685
33033,22948,22701
33056,22951,22746
33025,22943,22671
32965,22912,22780
32964,22916,22783
33004,22924,22778
33028,22935,22828
32974,22919,22796
33040,22944,22806
33108,22972,22824
33180,22935,22760
33180,22933,22902
33132,22931,22896
33104,22924,22933
33100,22927,22878
33108,22903,22837
33056,22918,22856
32977,22933,22879
32904,22935,22884
32776,22940,23008
32593,22955,22980
32404,22953,23029
32356,22924,22970
32316,22920,22921
32621,22920,23045
33202,22909,23030
33944,22919,23078
34820,22935,22996
35904,22954,22999
37240,22968,23064
38864,22940,23101
40617,22938,23049
42304,22951,22996
44116,22906,23012
46048,22896,23094
47476,22936,23136
48420,22932,23148
49116,22979,23116
48868,22932,23050
47029,22956,23197
44400,22960,23182
42000,22978,23220
39813,22925,23116
37756,22918,23228
35816,22915,23236
34464,22919,23284
34036,22922,23195
33944,22914,23212
33864,22921,23316
33508,22940,23356
33024,22932,23295
32684,22924,23388
32546,22900,23381
32428,22897,23436
32228,22896,23414
31997,22900,23471
31768,22890,23489
31576,22904,23385
31504,22919,23522
31350,22927,23512
31068,22912,23500
30852,22908,23487
30668,22900,23558
30552,22892,23524
30422,22895,23548
30352,22884,23412
30316,22888,23511
30336,22895,23447
30364,22912,23529
30400,22924,23530
30368,22916,23509
30394,22905,23511
30448,22896,23436
30460,22892,23520
30496,22889,23435
30520,22887,23532
30580,22898,23527
30628,22905,23438
30616,22919,23542
30648,22919,23548
30701,22914,23410
30844,22900,23492
30856,22890,23539
30816,22885,23383
30820,22879,23512
30764,22885,23524
30812,22892,23431
30896,22904,23488
30980,22916,23519
31076,22920,23408
31088,22921,23473
31032,22903,23477
31040,22889,23511
31056,22881,23516
31090,22877,23444
31142,22886,23519
31156,22888,23524
31204,22903,23492
31244,22908,23520
31276,22916,23396
31306,22911,23475
31308,22905,23397
31344,22900,23487
31374,22885,23373
31384,22885,23460
31445,22881,23392
31436,22889,23449
31396,22903,23401
31400,22908,23460
31444,22916,23425
31477,22917,23441
31464,22898,23460
31456,22886,23449
31480,22880,23455
31496,22878,23445
31520,22881,23426
31552,22891,23391
31616,22904,23452
31576,22915,23449
31524,22917,23333
31560,22925,23444
31620,22898,23462
31638,22894,23325
31646,22879,23467
31680,22877,23436
31644,22884,23380
31632,22892,23452
31604,22901,23453
31628,22909,23369
31607,22910,23481
31612,22909,23497
31613,22913,23364
31592,22900,23482
31616,22892,23479
31584,22886,23436
31508,22892,23380
31501,22886,23446
31540,22896,23496
31568,22911,23359
31656,22916,23473
31640,22918,23476
31684,22914,23346
31632,22913,23456
31648,22902,23474
31688,22885,23330
31644,22893,23437
31588,22900,23412
31636,22908,23362
31648,22919,23423
31712,22927,23396
31692,22914,23399
31728,22910,23246
31758,22903,23356
31769,22893,23320
31769,22884,23276
31740,22891,23185
31772,22908,23284
31724,22901,23240
31756,22927,23256
31816,22935,23247
31902,22919,23110
32000,22913,23201
32052,22904,23160
32101,22894,23042
32152,22898,23132
32168,22895,23124
32194,22899,22987
32296,22910,23099
32340,22916,23058
32408,22933,22990
32412,22927,22984
32432,22927,23008
32496,22924,22936
32564,22924,22958
32620,22888,22970
32697,22897,22857
32780,22902,22940
32856,22922,22945
32940,22935,22812
33024,22940,22916
33117,22948,22907
33125,22919,22813
33172,22912,22894
33248,22913,22878
33360,22911,22876
33428,22916,22754
33420,22901,22884
33388,22910,22849
33292,22927,22785
33312,22934,22787
33388,22938,22809
33320,22919,22838
33180,22911,22731
33124,22910,22831
33173,22900,22790
33241,22911,22810
33238,22902,22742
33128,22919,22731
33020,22934,22813
32916,22944,22789
32860,22916,22684
32941,22908,22765
32800,22924,22674
32736,22897,22791
32916,22880,22791
32654,22887,22678
32638,22901,22781
32684,22909,22735
32660,22917,22789
32576,22908,22779
32520,22908,22736
32525,22893,22780
32524,22911,22716
32504,22895,22776
32436,22885,22796
32400,22885,22793
32364,22887,22799
32448,22902,22715
32485,22918,22804
32477,22921,22818
32458,22911,22704
32468,22903,22804
32416,22874,22845
32372,22863,22845
32369,22830,22862
32364,22858,22767
32288,22860,22856
32313,22869,22884
32368,22880,22862
32420,22893,22885
32408,22884,22884
32452,22889,22853
32396,22883,22924
32357,22871,22969
32348,22860,22908
32392,22863,22976
32413,22820,23012
32460,22860,22917
32532,22868,23008
32592,22873,23022
32597,22873,22991
32596,22868,23082
32612,22877,23114
32685,22863,23010
32668,22857,23165
32673,22845,23165
32764,22853,23184
32784,22859,23201
32796,22871,23147
32768,22876,23225
32744,22880,23132
32748,22876,23240
32821,22850,23287
32900,22833,23175
32888,22839,23306
32920,22832,23300
32990,22842,23362
33036,22849,23382
33068,22865,23305
33068,22881,23384
33112,22862,23460
33120,22855,23332
33080,22856,23503
33096,22853,23493
33184,22837,23407
33184,22816,23544
33174,22827,23548
33192,22848,23614
33144,22852,23509
33108,22854,23618
33104,22857,23591
33196,22854,23637
33292,22852,23683
33328,22820,23622
33240,22817,23737
33188,22821,23720
33108,22824,23694
33096,22833,23765
33120,22848,23780
33124,22854,23660
33089,22853,23767
33081,22849,23801
33164,22842,23760
33256,22812,23789
33309,22794,23768
33328,22818,23736
33300,22817,23836
33336,22822,23842
33468,22834,23854
33536,22840,23879
33516,22848,23943
33492,22849,23815
33472,22823,23978
33440,22817,23940
33404,22824,24004
33472,22807,23955
33580,22810,23929
33460,22826,24028
33376,22843,24092
33344,22828,23965
33388,22824,24105
33424,22826,24159
33380,22823,24020
33327,22820,24202
33356,22789,24180
33364,22797,24245
33244,22804,24123
33284,22822,24277
33420,22832,24277
33332,22825,24260
33365,22824,24241
33449,22825,24359
33448,22818,24369
33488,22815,24320
33456,22791,24308
33420,22791,24388
33409,22804,24454
33358,22809,24376
33368,22817,24489
33400,22829,24482
33468,22821,24472
33476,22826,24476
33468,22820,24519
33404,22813,24535
33408,22802,24538
33412,22812,24617
33512,22785,24492
33504,22797,24613
33428,22807,24612
33384,22813,24716
33390,22832,24740
33388,22817,24655
33396,22813,24721
33313,22783,24791
33344,22799,24672
33276,22774,24772
33338,22779,24799
33385,22790,24880
33461,22798,24898
33472,22805,24760
33504,22803,24878
33561,22796,24886
33476,22791,24968
33440,22791,24992
33434,22773,24887
33441,22774,25023
33440,22783,24929
33412,22791,25026
33432,22801,24999
33388,22806,25106
33360,22811,25114
33456,22804,25068
33448,22807,25090
33448,22773,25147
33412,22767,25008
33337,22775,25156
33332,22781,25135
33288,22790,25004
33257,22796,25124
33312,22810,25032
33377,22809,25095
33404,22804,25111
33412,22796,25156
33381,22786,25172
33380,22781,25166
33416,22766,25112
33416,22775,25169
33392,22789,25173
33326,22805,24996
33320,22789,25097
33352,22784,25077
33354,22774,25124
33268,22777,25124
33256,22761,25012
33256,22760,25097
33300,22769,25157
33284,22772,24982
33248,22765,25140
33144,22779,25116
33104,22794,25156
33180,22781,24990
33060,22772,25140
33044,22772,25108
33108,22765,25143
33124,22745,25024
33172,22748,25160
33180,22752,25125
33204,22762,25084
33284,22783,25053
33144,22775,25148
33048,22780,25085
32992,22786,25161
32996,22759,25048
33068,22749,25033
33156,22751,25132
33220,22757,25105
33270,22735,25150
33316,22753,25008
33356,22764,25101
33336,22772,25092
33338,22781,25107
33249,22781,25020
33232,22749,25006
33284,22745,25076
33292,22735,25084
33244,22743,24980
33232,22762,24992
33244,22745,25005
33248,22767,25041
33214,22771,24901
33249,22769,24969
33304,22772,24961
33292,22748,24999
33226,22735,24917
33228,22732,24836
33240,22731,24973
33196,22739,24961
33188,22750,24844
33172,22766,24941
33210,22772,24932
33133,22752,24829
33112,22750,24951
33092,22759,24908
33101,22738,24810
33158,22734,24904
33204,22743,24888
33152,22725,24931
33144,22736,24802
33157,22758,24870
33093,22769,24893
33116,22753,24918
33088,22745,24763
33157,22741,24860
33216,22730,24901
33184,22729,24813
33172,22719,24828
33164,22724,24836
33268,22736,24898
33208,22753,24817
33232,22748,24809
33092,22741,24829
33040,22748,24900
33097,22738,24722
33240,22731,24875
33184,22732,24852
33168,22714,24895
33108,22722,24794
33060,22727,24838
33020,22739,24828
33064,22769,24765
33056,22736,24860
32956,22745,24894
32980,22743,24823
32969,22712,24782
33056,22709,24861
33073,22717,24920
33080,22732,24828
33133,22717,24907
33212,22729,24876
33248,22747,24908
33252,22729,24957
33204,22737,24842
33144,22738,24925
33092,22713,24960
33028,22698,24814
33081,22701,24984
33041,22714,24956
33072,22735,25007
32984,22716,24965
33000,22727,25023
33032,22740,24863
32988,22735,25053
32908,22727,25053
32992,22700,24910
33008,22701,25063
33064,22704,25086
33107,22697,25044
33156,22712,25116
33148,22721,25124
33196,22728,25138
33196,22725,25061
33224,22720,25150
33140,22715,25029
33112,22698,25190
33108,22696,25153
33108,22695,25184
33100,22709,25132
33100,22717,25230
33156,22722,25223
33168,22727,25264
33262,22716,25244
33260,22709,25244
33292,22697,25344
33276,22693,25338
33325,22695,25296
33404,22676,25222
33420,22692,25420
33380,22712,25413
33328,22693,25394
33252,22702,25403
33184,22704,25463
33140,22703,25352
33120,22693,25479
33060,22698,25469
33008,22685,25420
32992,22693,25541
32972,22704,25631
32920,22681,25588
32958,22693,25612
32960,22703,25612
33020,22705,25552
33076,22693,25712
33056,22700,25687
33132,22673,25777
33124,22663,25628
33128,22669,25743
33196,22674,25767
33164,22677,25818
33108,22692,25816
33052,22693,25817
33084,22693,25956
33072,22703,25932
33112,22692,25988
33140,22688,25837
33108,22684,25996
33108,22658,26049
33136,22662,25907
33144,22676,26108
33124,22689,26060
33112,22697,26047
33148,22701,26084
33141,22700,26114
33141,22704,26201
33112,22668,26128
33124,22659,26141
33156,22661,26252
33144,22668,26304
33008,22676,26156
32961,22689,26268
33038,22693,26372
33020,22703,26268
32844,22708,26423
32764,22674,26365
32671,22668,26471
32472,22663,26340
32288,22652,26445
32192,22656,26432
32136,22663,26554
32292,22681,26391
32656,22690,26516
33212,22695,26600
34024,22695,26473
35080,22700,26661
36152,22661,26622
37712,22653,26604
39536,22671,26534
41388,22663,26709
43344,22681,26740
45560,22720,26696
47432,22673,26720
48788,22684,26713
49732,22712,26834
50112,22713,26661
49064,22721,26773
46648,22650,26884
43956,22652,26892
41604,22663,26813
39624,22682,26770
37248,22701,26845
35392,22710,26956
34516,22679,26820
34068,22684,26881
33796,22668,26913
33489,22666,27017
33040,22641,26864
32681,22640,27060
32413,22648,27020
32196,22658,27087
31944,22671,26941
31626,22661,27024
31316,22661,26989
31072,22663,26996
30884,22660,27140
30708,22636,27156
30544,22632,27028
30400,22632,27124
30257,22640,27205
30112,22648,27124
30020,22663,27143
29960,22668,27045
29860,22660,27183
29888,22663,27121
29856,22657,27101
29864,22644,27203
29881,22633,27192
29836,22639,27020
29888,22645,27220
30000,22644,27187
30029,22649,27048
30000,22662,27241
29970,22660,27237
29956,22663,27092
29946,22652,27158
29984,22646,27116
29984,22636,27252
30016,22634,27260
29988,22647,27078
30104,22647,27199
30128,22658,27129
30164,22663,27292
30220,22668,27280
30244,22664,27162
30288,22641,27140
30348,22644,27325
30428,22639,27327
30465,22629,27158
30428,22639,27342
30461,22644,27352
30376,22659,27244
30340,22666,27337
30348,22671,27361
30317,22655,27214
30292,22655,27312
30366,22642,27360
30484,22631,27190
30600,22636,27375
30596,22629,27305
30628,22645,27325
30680,22657,27175
30688,22651,27279
30665,22663,27188
30742,22663,27254
30760,22657,27109
30848,22652,27236
30872,22627,27207
30881,22642,27205
30830,22628,27045
30820,22648,26986
30805,22655,27103
30762,22657,27151
30792,22661,27014
30808,22663,27095
30734,22658,26950
30788,22638,26905
30798,22634,27076
30936,22633,27031
30890,22639,26917
30828,22652,26838
30796,22663,27012
30772,22660,26901
30718,22658,26959
30652,22661,26958
30596,22653,26860
30645,22652,26805
30676,22631,26785
30576,22634,26746
30656,22643,26921
30716,22654,26811
30728,22654,26860
30756,22661,26870
30800,22677,26848
30752,22661,26836
30708,22658,26708
30672,22639,26623
30596,22639,26758
30568,22635,26768
30532,22637,26679
30530,22652,26700
30516,22657,26601
30524,22669,26556
30480,22661,26471
30424,22668,26615
30492,22660,26548
30380,22641,26546
30252,22644,26334
30364,22642,26439
30404,22649,26455
30354,22644,26295
30404,22661,26429
30420,22673,26358
30452,22663,26233
30473,22662,26330
30496,22655,26272
30404,22660,26279
30496,22641,26148
30628,22645,26220
30704,22646,26196
30668,22663,26084
30764,22662,26102
30800,22665,26064
30808,22678,26144
31000,22668,25957
30984,22665,26040
31094,22657,25989
31068,22655,26044
31052,22644,25964
31088,22655,26031
31040,22652,25881
31133,22660,25956
31228,22673,25908
31325,22674,25972
31468,22676,25890
31580,22663,25871
31740,22653,25776
31776,22657,25934
31856,22644,25844
31932,22653,25913
32004,22658,25719
32064,22677,25893
32132,22666,25857
32134,22677,25723
32120,22687,25799
32124,22679,25779
32133,22652,25826
32116,22658,25727
32136,22658,25642
32069,22669,25821
32040,22655,25725
32005,22676,25792
31937,22685,25709
31893,22669,25605
31888,22679,25713
31909,22675,25781
31764,22671,25765
31557,22644,25646
31584,22644,25676
31454,22656,25695
31369,22655,25788
31448,22671,25601
31368,22670,25781
31237,22669,25791
31176,22676,25616
31097,22661,25712
31068,22655,25798
31024,22638,25688
31033,22645,25744
30876,22645,25741
30872,22641,25817
30944,22657,25724
30832,22671,25649
30752,22668,25836
30756,22648,25829
30852,22645,25750
30940,22633,25710
31028,22633,25784
30944,22635,25796
30941,22624,25756
30968,22631,25708
30984,22646,25862
31040,22660,25817
30984,22663,25905
30981,22639,25825
31032,22612,25892
31012,22625,25940
30992,22619,25912
30960,22620,25905
30912,22631,25954
30944,22631,26062
30900,22642,25957
30898,22652,26021
30928,22639,26137
30944,22638,26018
30956,22633,26156
30988,22631,26137
30972,22601,26234
30968,22609,26101
30972,22606,26188
31032,22617,26177
31088,22625,26331
31140,22637,26308
31072,22637,26226
31056,22631,26391
31068,22629,26408
31008,22623,26412
31016,22605,26429
30996,22613,26476
31124,22605,26316
31116,22607,26529
31148,22621,26502
31130,22632,26560
31168,22644,26585
31264,22631,26497
31300,22618,26456
31404,22623,26531
31454,22597,26679
31440,22601,26668
31392,22605,26588
31357,22615,26592
31304,22613,26766
31336,22620,26701
31360,22629,26811
31256,22632,26716
31348,22610,26689
31468,22607,26897
31504,22601,26818
31474,22602,26917
31540,22597,26777
31560,22593,26959
31576,22612,27003
31576,22629,26865
31588,22625,27022
31612,22620,27078
31724,22619,26951
31600,22605,27049
31544,22591,27143
31584,22591,27061
31648,22597,27102
31668,22607,27236
31668,22620,27070
31616,22612,27229
31576,22616,27308
31626,22621,27175
31656,22621,27357
31641,22588,27375
31680,22583,27308
31726,22589,27376
31760,22596,27375
31792,22593,27348
31736,22600,27487
31772,22622,27540
31712,22617,27383
31720,22619,27572
31740,22599,27616
31740,22595,27500
31776,22588,27500
31844,22576,27709
31884,22585,27684
31820,22600,27597
31844,22617,27774
31784,22600,27759
31728,22608,27821
31636,22612,27701
31608,22598,27696
31668,22584,27845
31708,22579,27876
31684,22586,27940
31716,22581,27780
31856,22590,27984
31940,22604,27928
31908,22621,28033
31940,22596,27904
31929,22604,28044
31944,22604,28071
31904,22595,27967
31828,22584,28066
31772,22568,28167
31852,22582,28046
31900,22596,28114
31916,22588,28156
31865,22605,28244
31856,22607,28100
31788,22596,28300
31768,22596,28308
31832,22588,28191
31784,22588,28241
31776,22564,28359
31808,22569,28226
31836,22593,28230
31805,22581,28341
31772,22596,28339
31744,22597,28453
31752,22600,28304
31728,22581,28431
31688,22572,28497
31776,22573,28420
31900,22574,28423
31776,22559,28392
31726,22570,28452
31853,22585,28572
31872,22596,28423
31808,22589,28611
31724,22582,28593
31656,22589,28472
31784,22580,28652
31840,22556,28577
31892,22553,28674
31972,22570,28562
31976,22582,28600
31936,22580,28711
31920,22580,28575
31872,22591,28705
31974,22594,28660
31981,22566,28789
31976,22577,28640
31892,22564,28666
31892,22551,28807
31924,22564,28823
32008,22578,28868
32185,22572,28728
32264,22581,28823
32101,22596,28828
32188,22579,28941
32288,22570,28810
32308,22569,28912
32301,22569,28903
32304,22548,29017
32221,22559,28908
32188,22569,28874
32174,22589,28969
32184,22593,28941
32145,22575,29102
32165,22577,29108
32224,22575,28992
32132,22567,29135
32121,22566,29084
32185,22547,29204
32172,22551,29056
32184,22568,29266
32165,22567,29233
32172,22577,29119
32180,22580,29126
32208,22586,29191
32220,22578,29224
32285,22575,29198
32280,22562,29383
32276,22541,29305
32312,22540,29285
32304,22552,29447
32310,22565,29439
32157,22572,29304
32112,22582,29460
32236,22569,29409
32296,22557,29508
32270,22551,29379
32216,22544,29528
32176,22542,29588
32176,22553,29458
32204,22564,29640
32164,22559,29604
32116,22564,29671
32064,22580,29517
32088,22575,29740
32101,22561,29616
32148,22549,29676
32140,22540,29650
32160,22551,29777
32288,22524,29813
32220,22549,29661
32292,22573,29844
32292,22556,29831
32392,22561,29732
32360,22564,29906
32424,22560,29912
32444,22564,29788
32476,22530,29927
32388,22533,29997
32400,22532,29860
32414,22555,29932
32444,22544,30079
32416,22567,30055
32376,22579,30101
32316,22563,29970
32308,22546,29981
32296,22544,29994
32396,22542,30129
32480,22528,30087
32377,22530,30231
32272,22543,30087
32240,22558,30304
32264,22557,30268
32372,22562,30142
32344,22558,30308
32366,22559,30320
32360,22554,30228
32325,22524,30404
32348,22521,30414
32336,22524,30305
32313,22540,30477
32324,22556,30471
32316,22569,30340
32308,22552,30501
32352,22551,30516
32376,22556,30548
32440,22545,30485
32340,22545,30485
32276,22516,30437
32260,22516,30645
32416,22534,30590
32560,22550,30498
32504,22565,30604
32500,22571,30697
32477,22541,30666
32492,22535,30709
32525,22528,30599
32592,22519,30705
32576,22521,30764
32588,22533,30628
32612,22544,30860
32616,22548,30706
32576,22565,30816
32632,22545,30777
32668,22558,30884
32650,22543,30933
32624,22535,30919
32513,22527,30855
32556,22517,30941
32548,22525,30804
32492,22526,30950
32500,22551,30983
32536,22535,30837
32544,22541,31015
32516,22557,30929
32620,22547,31061
32661,22532,31044
32672,22527,30977
32644,22532,31108
32617,22532,30990
32468,22521,31124
32412,22532,31152
32484,22546,31007
32508,22552,31077
32536,22545,31033
32516,22541,31117
32554,22527,31069
32584,22523,31247
32550,22514,31258
32564,22527,31141
32568,22529,31173
32592,22543,31158
32638,22561,31204
32640,22540,31220
32660,22530,31173
32645,22526,31276
32628,22514,31380
32564,22508,31442
32552,22516,31375
32648,22518,31248
32757,22526,31364
32756,22538,31343
32700,22550,31321
32782,22535,31541
32736,22540,31501
32782,22532,31375
32904,22536,31436
32908,22502,31357
32848,22501,31464
32832,22515,31577
32817,22516,31637
32868,22532,31604
32948,22551,31622
32920,22534,31594
32948,22540,31547
33030,22535,31677
33076,22510,31623
33040,22497,31545
33026,22502,31596
33064,22511,31512
33048,22523,31773
33028,22514,31732
32948,22529,31638
32912,22535,31644
32944,22547,31768
32872,22517,31676
32832,22517,31728
32773,22508,31780
32804,22513,31672
32784,22495,31794
32889,22522,31820
33044,22520,31663
33016,22540,31932
32892,22523,31870
32948,22521,31746
32932,22522,31796
32972,22518,31932
32952,22484,31796
32884,22494,31827
32850,22508,31783
32828,22521,31933
32832,22535,31916
32832,22514,31799
32792,22522,32067
32744,22522,31973
32856,22527,31868
32920,22496,32017
32938,22495,31978
32964,22493,32102
32952,22492,31960
32988,22503,32164
33052,22524,32148
33004,22534,32044
32992,22519,32088
33004,22526,32196
33008,22529,32006
33004,22497,32199
32988,22500,32158
32901,22505,32039
32828,22509,32324
32968,22489,32287
32864,22514,32167
32840,22526,32186
32836,22535,32320
32820,22509,32221
32748,22514,32357
32628,22516,32342
32528,22484,32199
32408,22495,32401
32300,22507,32304
32040,22492,32425
31968,22513,32224
32048,22527,32358
32312,22519,32513
32877,22527,32460
33596,22524,32279
34492,22528,32574
35620,22489,32513
37109,22494,32412
38992,22513,32561
40944,22495,32529
42740,22516,32549
44876,22549,32424
46852,22514,32544
48252,22508,32584
49280,22548,32460
49772,22548,32636
49004,22487,32522
46844,22498,32422
44234,22509,32630
41852,22525,32608
39773,22543,32496
37696,22572,32534
35788,22516,32517
34600,22516,32633
34080,22507,32661
33856,22503,32514
33604,22495,32714
33272,22476,32569
32996,22474,32700
32760,22493,32524
32556,22514,32757
32324,22501,32634
32116,22509,32535
31852,22510,32698
31568,22492,32685
31388,22487,32585
31356,22484,32692
31296,22469,32729
31136,22480,32788
30940,22494,32603
30785,22486,32852
30676,22500,32797
30664,22515,32709
30681,22505,32836
30584,22489,32772
30520,22486,32812
30544,22485,32789
30636,22471,32708
30740,22479,32832
30728,22484,32725
30693,22498,32907
30762,22496,32864
30778,22501,32775
30740,22501,32899
30789,22500,32930
30768,22495,32980
30824,22472,32848
30900,22479,32744
30934,22473,33036
30952,22492,32999
31044,22484,32984
31060,22502,32965
31005,22513,32927
31045,22501,33103
31144,22501,33120
31216,22480,32949
31253,22474,33053
31232,22478,33237
31224,22482,33249
31164,22494,33157
31064,22498,33372
31068,22506,33287
31124,22500,33152
31164,22494,33448
31352,22492,33396
31458,22487,33204
31476,22481,33486
31440,22480,33429
31405,22471,33256
31428,22476,33525
31383,22485,33471
31472,22494,33541
31668,22504,33488
31728,22503,33369
31760,22493,33396
31788,22490,33366
31766,22485,33511
31734,22461,33509
31748,22468,33360
31672,22484,33580
31668,22498,33516
31688,22489,33404
31860,22504,33575
31641,22500,33517
31688,22502,33381
31736,22474,33598
31728,22475,33503
31745,22468,33551
31730,22476,33568
31796,22484,33647
31960,22502,33580
31964,22505,33525
31960,22519,33585
31924,22492,33489
31921,22490,33660
31853,22489,33639
31864,22474,33677
31824,22476,33669
31844,22487,33676
31968,22487,33671
31976,22484,33583
31912,22493,33672
31965,22495,33584
32058,22500,33633
32085,22492,33721
31974,22496,33750
31880,22469,33629
31828,22471,33738
31844,22482,33630
31808,22470,33701
31844,22498,33741
31876,22507,33575
31874,22497,33774
31816,22500,33693
31654,22500,33501
31728,22490,33753
31832,22471,33596
31800,22479,33713
31824,22480,33572
31840,22497,33740
31874,22494,33701
31929,22500,33580
31785,22511,33765
31740,22510,33689
31900,22505,33568
31972,22487,33559
31960,22483,33457
32020,22480,33740
32103,22489,33665
32064,22507,33541
32096,22495,33686
32192,22515,33669
32280,22522,33669
32292,22505,33554
32364,22506,33664
32492,22499,33717
32552,22491,33669
32536,22501,33708
32608,22479,33660
32638,22493,33468
32692,22511,33746
32721,22501,33671
32732,22510,33579
32836,22510,33708
32912,22521,33679
33028,22493,33567
33160,22486,33743
33248,22491,33689
33364,22479,33575
33472,22487,33568
33520,22502,33469
33618,22511,33693
33783,22528,33602
33760,22511,33506
33721,22504,33756
33784,22495,33708
33772,22487,33620
33804,22493,33710
33852,22477,33516
33796,22493,33634
33692,22511,33652
33688,22503,33757
33765,22516,33665
33808,22521,33780
33676,22497,33796
33632,22490,33710
33592,22505,33889
33481,22470,33799
33308,22481,33661
33244,22493,33884
33160,22503,33840
33142,22492,33734
33228,22503,33885
33132,22508,33871
33204,22497,33920
33192,22499,33876
33028,22485,33788
33008,22465,33892
32992,22471,33927
33044,22478,33828
32964,22496,33960
32964,22485,33973
33028,22495,33873
33020,22489,33965
32920,22481,33884
32893,22476,33900
32900,22474,33790
32884,22479,34124
32820,22446,34068
32864,22463,33964
32868,22477,33991
32800,22501,33871
32868,22474,34173
32836,22478,34020
32844,22491,34164
32832,22460,33993
32820,22446,34277
32720,22446,34239
32684,22455,34322
32693,22465,34261
32660,22462,34100
32756,22476,34393
32992,22479,34285
33100,22489,34240
33112,22457,34516
33136,22455,34368
33184,22437,34454
33280,22435,34552
33228,22453,34488
33180,22439,34628
33128,22446,34661
33068,22468,34639
33028,22468,34662
33056,22471,34740
33108,22450,34662
33248,22447,34704
33308,22436,34556
33436,22432,34924
33380,22441,34841
33376,22430,34772
33526,22440,34936
33580,22455,34924
33548,22463,34935
33532,22482,35026
33476,22442,34989
33600,22446,35024
33461,22447,35015
33528,22423,34964
33440,22429,35113
33416,22437,35095
33274,22456,35108
33456,22445,35209
33489,22460,34973
33480,22462,35222
33505,22434,35344
33596,22437,35311
33660,22429,35193
33676,22436,35445
33636,22420,35380
33624,22433,35301
33700,22442,35373
33724,22459,35399
33716,22445,35282
33764,22436,35673
33812,22452,35574
33792,22441,35628
33808,22436,35687
33844,22406,35564
33740,22416,35460
33700,22433,35821
33820,22439,35753
33752,22457,35575
33744,22466,35857
33824,22437,35864
33936,22436,35946
33765,22428,35877
33712,22412,35872
33768,22424,35942
33945,22417,36032
33968,22427,36052
33868,22436,36004
33804,22440,36092
33792,22448,36167
33922,22454,36132
34068,22445,36119
34140,22437,36140
34121,22432,36033
34016,22420,36230
33952,22426,36056
34008,22407,36380
34032,22415,36336
34060,22428,36388
34029,22433,36412
34004,22426,36514
34012,22423,36501
34032,22405,36628
33929,22405,36583
33904,22399,36711
33912,22411,36641
33952,22413,36775
34016,22420,36484
34053,22428,36816
34030,22438,36764
33932,22446,36871
33984,22418,36764
33844,22415,36772
33732,22407,36814
33660,22405,36806
33880,22415,36816
33940,22402,36887
33728,22407,37108
33836,22418,37029
33956,22435,36984
34052,22436,37021
34012,22433,36919
33972,22402,37260
33992,22403,37165
33928,22399,37006
33984,22406,37335
34024,22389,37239
33932,22394,37228
34028,22414,37212
34120,22423,37121
34060,22424,37398
34096,22438,37428
34012,22396,37454
33985,22398,37383
34004,22403,37610
34028,22377,37481
34052,22394,37266
34060,22417,37582
33966,22403,37640
33940,22417,37511
33968,22405,37669
33993,22409,37709
34088,22409,37637
34140,22380,37745
34112,22386,37820
34201,22391,37768
34196,22382,37532
34068,22397,37808
34044,22413,37917
34076,22428,37861
34060,22407,37945
33984,22408,37954
33948,22404,38012
34032,22396,38012
34196,22365,37948
34125,22373,37981
34032,22381,37773
33901,22395,38022
33868,22407,38206
33872,22422,38101
33812,22401,37881
33752,22397,38290
33820,22399,38084
34068,22392,38232
33968,22364,38188
33864,22369,38181
33956,22383,38273
33989,22404,38076
33896,22399,38263
33864,22407,38407
33924,22418,38210
33936,22396,38023
33916,22398,38309
33884,22367,38461
33884,22372,38241
33808,22364,38404
33792,22380,38396
33864,22400,38348
33785,22381,38501
33760,22392,38117
33852,22397,38528
33817,22407,38468
33781,22383,38415
33800,22381,38492
33764,22366,38432
33756,22367,38388
33776,22374,38503
33741,22375,38486
33686,22384,38616
33620,22405,38476
33636,22384,38201
33568,22378,38503
33653,22381,38646
33776,22386,38407
33704,22358,38541
33688,22360,38465
33728,22383,38648
33588,22371,38501
33496,22388,38541
33560,22396,38535
33572,22400,38663
33704,22374,38453
33672,22376,38564
33653,22374,38432
33684,22353,38606
33728,22351,38456
33736,22372,38552
33604,22379,38521
33600,22398,38556
33648,22382,38536
33618,22386,38481
33624,22387,38449
33688,22358,38573
33716,22371,38358
33692,22359,38639
33728,22348,38476
33801,22367,38584
33876,22373,38463
33800,22397,38680
33776,22376,38557
33784,22379,38508
33856,22373,38620
33904,22376,38613
33912,22340,38556
33944,22350,38656
33897,22347,38508
33888,22366,38636
33804,22356,38386
33792,22374,38620
33856,22390,38702
33820,22399,38661
33732,22357,38649
33676,22359,38551
33722,22359,38689
33686,22332,38692
33813,22342,38549
33948,22343,38374
33876,22364,38744
33912,22380,38625
33928,22391,38397
33988,22359,38823
33873,22361,38657
33848,22372,38487
33798,22339,38855
33716,22333,38706
33740,22348,38621
33716,22359,38872
33680,22342,38734
33656,22360,38700
33684,22373,38874
33694,22338,38733
33732,22352,38468
33668,22354,38908
33644,22341,38764
33576,22344,38501
33536,22329,38844
33568,22337,38693
33856,22348,38848
33936,22365,38878
33856,22376,38774
33868,22355,38882
33776,22361,38908
33821,22354,38753
33704,22335,38884
33669,22330,38753
33672,22341,38956
33718,22327,39039
33866,22352,38803
33792,22364,38943
33728,22354,38631
33728,22360,38878
33648,22346,38913
33628,22341,39010
33652,22344,38997
33676,22320,38934
33718,22321,38663
33700,22340,38951
33696,22333,39103
33677,22351,38853
33680,22360,38959
33648,22342,38683
33728,22350,39005
33756,22342,38877
33820,22347,39007
33776,22316,39092
33728,22320,38880
33720,22332,38716
33764,22345,39000
33748,22340,39119
33737,22358,39169
33733,22345,38961
33700,22346,39085
33744,22341,39035
33718,22348,39088
33696,22316,38767
33620,22327,39204
33517,22338,39009
33502,22327,39143
33604,22354,39207
33576,22356,39108
33604,22337,39164
33664,22344,39191
33664,22353,39236
33628,22319,39073
33716,22336,39170
33637,22318,39228
33612,22333,38911
33712,22316,39201
33644,22346,39299
33600,22355,39244
33532,22334,39060
33508,22340,39333
33562,22345,39324
33441,22313,39183
33588,22317,39316
33612,22334,39260
33628,22318,39304
33652,22333,39332
33700,22327,39173
33716,22334,39378
33626,22339,39304
33704,22344,39385
33718,22317,39237
33792,22319,39431
33724,22300,39511
33768,22310,39381
33854,22323,39106
33772,22337,39525
33684,22327,39356
33677,22333,39440
33812,22341,39495
33780,22345,39345
33764,22313,39475
33784,22308,39389
33872,22322,39588
33908,22297,39388
33900,22313,39303
33908,22314,39536
33893,22330,39519
33924,22346,39455
33804,22338,39645
33760,22329,39408
33800,22306,39548
33716,22302,39417
33648,22309,39692
33748,22288,39584
33757,22300,39604
33772,22311,39468
33744,22333,39385
33736,22318,39736
33636,22319,39629
33565,22310,39756
33518,22310,39644
33624,22305,39608
33692,22304,39651
33700,22313,39519
33708,22288,39815
33596,22301,39687
33620,22320,39745
33540,22311,39678
33724,22314,39884
33500,22316,39774
33541,22329,39646
33639,22284,39921
33628,22295,39815
33720,22303,39657
33696,22287,39885
33728,22301,39828
33624,22306,39863
33552,22313,39802
33516,22314,39810
33488,22319,39901
33552,22289,39873
33612,22287,39805
33620,22282,39940
33576,22269,39757
33652,22290,40031
33693,22311,39823
33745,22296,39959
33720,22312,39792
33612,22326,40033
33492,22301,39861
33424,22298,39917
33332,22279,39988
33320,22279,39920
33033,22282,40117
32852,22279,39876
32872,22286,40000
32704,22314,40002
32766,22325,40064
32984,22307,39900
33496,22303,40049
34140,22312,39836
34960,22275,40156
35908,22286,39909
37076,22322,39975
38669,22300,40071
40425,22309,39710
42140,22295,40023
44132,22330,40208
46080,22338,40052
47364,22373,39744
48344,22297,40089
49044,22300,40132
48664,22267,40048
46813,22287,40120
44276,22297,40100
42044,22331,40184
40000,22306,39999
38184,22328,40125
36488,22303,39777
35260,22303,40168
34716,22304,39989
34496,22266,40140
34241,22272,39825
33884,22285,40260
33636,22262,40134
33308,22276,40071
33061,22292,40022
33020,22295,40132
32824,22279,40122
32556,22291,40280
32424,22294,40094
32324,22267,40036
32244,22265,40164
32130,22255,39863
31932,22273,40124
31784,22275,40280
31540,22287,40117
31348,22279,39797
31256,22283,40087
31136,22276,40224
31144,22273,40070
31080,22276,40103
30968,22245,40199
30729,22252,40068
30764,22271,39760
30940,22264,40071
30976,22279,40057
31050,22299,39972
31152,22278,40044
31136,22277,39983
31092,22277,40000
31212,22248,40033
31276,22255,39941
31297,22264,40031
31264,22255,39992
31244,22263,39972
31272,22279,39991
31416,22293,39999
31676,22278,39972
31572,22271,39853
31464,22265,39658
31548,22266,40109
31612,22243,39956
31744,22249,40037
31720,22259,39871
31664,22270,40160
31764,22269,40037
31786,22285,39704
31816,22284,40071
31812,22286,39943
31709,22285,39687
31680,22249,40100
31772,22246,40181
31600,22244,40071
31629,22256,39870
31748,22268,40015
31784,22265,39767
31900,22276,39904
31916,22282,40076
31908,22255,39886
31857,22253,39556
31924,22252,39815
32012,22255,39988
31988,22234,39687
32112,22248,39827
32080,22265,39534
32080,22279,39860
31988,22268,39668
31980,22279,39712
32188,22274,39431
32216,22257,39727
32164,22248,39754
32084,22253,39484
32036,22238,39580
31988,22240,39353
31976,22252,39550
31989,22274,39676
31976,22268,39637
32044,22276,39389
32076,22281,39385
32100,22244,39504
32108,22249,39404
32104,22244,39428
32041,22258,39414
32124,22246,39447
32185,22258,39232
32228,22279,39509
32260,22276,39244
32205,22272,39369
32230,22283,38996
32122,22255,39240
32124,22258,39364
32164,22234,39233
32134,22247,39239
32076,22247,39036
32072,22244,39140
32092,22266,39268
32064,22272,39063
32008,22289,39122
31900,22260,39141
31828,22260,38944
31852,22247,38729
32072,22251,39037
32224,22241,39092
32172,22263,38863
32084,22250,38894
32096,22270,38567
32145,22278,38946
32140,22284,38809
32072,22252,38695
32160,22259,38798
32204,22249,38756
32284,22262,38662
32296,22237,38767
32412,22250,38644
32312,22268,38686
32304,22268,38328
32388,22286,38563
32412,22264,38633
32388,22274,38572
32424,22265,38519
32560,22243,38516
32712,22247,38436
32708,22260,38511
32688,22241,38588
32712,22263,38407
32792,22279,38396
32868,22268,38407
32908,22273,38359
32966,22266,38246
33148,22273,38374
33148,22270,38285
33148,22236,38406
33256,22242,38292
33440,22264,38298
33512,22247,38260
33536,22272,38264
33608,22287,38177
33660,22262,38244
33741,22262,37927
33792,22278,38183
33856,22245,38325
33888,22240,38127
33900,22255,38180
33852,22237,38061
33748,22253,38212
33764,22275,38206
33768,22260,38121
33752,22269,38109
33710,22275,38029
33696,22272,38204
33656,22234,38060
33668,22231,37990
33644,22236,38175
33532,22240,38020
33444,22257,37904
33320,22244,38116
33302,22251,37991
33280,22248,37712
33192,22257,38054
33084,22255,37932
32872,22221,37982
32860,22220,37895
32884,22224,38080
32900,22241,37895
32894,22247,37648
32960,22236,37863
32920,22249,37956
32864,22257,37913
32804,22232,37628
32728,22230,37960
32720,22217,37856
32837,22240,37863
32664,22205,37585
32669,22214,37846
32748,22232,37948
32608,22253,37841
32600,22232,37557
32628,22235,37895
32696,22234,37709
32748,22233,37855
32644,22209,37551
32522,22208,37814
32407,22196,37936
32328,22211,37972
32288,22225,37807
32489,22214,37856
32645,22222,37795
32797,22232,37983
32796,22242,37746
32668,22204,37871
32684,22207,37630
32652,22208,37837
32554,22181,37984
32732,22202,37791
32716,22220,37878
32688,22211,37877
32672,22217,37813
32734,22225,37988
32704,22205,38014
32853,22207,37759
32886,22200,37917
32896,22178,37833
32870,22188,37925
32844,22193,37871
32840,22215,37684
32880,22199,37983
32872,22212,37788
32860,22219,37925
32902,22225,37837
32820,22194,38036
32856,22185,37818
32988,22183,37932
33024,22199,37797
33082,22173,37988
33079,22192,37976
33044,22214,37947
33016,22226,37686
32988,22198,38056
32897,22196,37956
32812,22196,37705
32976,22187,38085
33094,22181,37909
33132,22189,37732
33021,22174,38172
33076,22182,38060
33133,22197,37925
33156,22212,38201
33204,22211,38111
33300,22208,38203
33317,22176,38119
33248,22167,38116
33204,22159,38104
33212,22162,37858
33212,22173,38213
33188,22181,38042
33206,22194,38176
33196,22197,38212
33280,22204,38114
33236,22200,37892
33100,22170,38197
33096,22162,38151
33100,22166,38199
33181,22174,38123
33300,22156,38335
33244,22161,38204
33276,22178,37929
33316,22191,38350
33412,22202,38215
33576,22200,38180
33384,22203,38276
33384,22157,38287
33336,22165,38215
33317,22162,38417
33420,22186,38204
33464,22161,38317
33424,22191,38356
33452,22187,38260
33422,22188,38053
33345,22197,38490
33356,22165,38376
33401,22148,38500
33374,22149,38268
33356,22167,38428
33356,22151,38364
33192,22168,38516
33342,22183,38457
33576,22169,38389
33472,22180,38599
33432,22185,38492
33392,22184,38547
33396,22144,38438
33456,22151,38321
33436,22148,38621
33412,22148,38511
33420,22151,38461
33388,22172,38606
33368,22182,38591
33396,22191,38630
33321,22161,38591
33272,22153,38562
33280,22156,38696
33336,22146,38659
33292,22153,38652
33252,22132,38663
33188,22151,38668
33101,22181,38493
33150,22160,38810
33116,22183,38564
33104,22154,38716
33088,22156,38716
33132,22148,38684
33132,22153,38636
33160,22106,38804
33210,22137,38753
33164,22148,38481
33056,22169,38846
33188,22173,38757
33176,22158,38791
33068,22158,38722
33149,22165,38772
33346,22132,38744
33528,22142,38816
33476,22143,38532
33396,22129,38736
33493,22151,38937
33300,22165,38791
33332,22167,38750
33416,22168,38700
33316,22148,38816
33312,22146,38693
33188,22141,38895
33238,22117,38773
33188,22124,38511
33108,22129,38833
33166,22143,38831
33124,22172,38772
33072,22156,38825
33112,22156,38556
33128,22162,38869
33086,22131,38800
33125,22137,38820
33200,22133,38751
33020,22112,38918
33016,22116,38815
32952,22133,38864
33048,22148,38708
33117,22156,38620
33044,22141,38868
33116,22138,38759
33140,22128,38572
33060,22133,38836
33124,22133,38801
33124,22117,38674
33148,22132,38781
33036,22121,38697
33025,22141,38868
33064,22156,38637
33157,22134,38741
33128,22143,38540
33136,22139,38873
33120,22113,38618
33072,22100,38753
33044,22115,38662
33073,22129,38804
33149,22111,38629
33120,22127,38742
33048,22154,38612
32992,22126,38713
32904,22135,38685
32988,22132,38734
33065,22130,38791
33100,22102,38751
33088,22117,38720
33068,22125,38740
33124,22108,38670
33036,22127,38837
33024,22159,38780
32996,22143,38730
32997,22127,38759
33004,22117,38693
33008,22121,38703
33036,22105,38760
33072,22108,38772
33232,22117,38700
33156,22105,38857
33100,22121,38743
33124,22149,38745
33074,22117,38468
33084,22127,38780
33076,22119,38893
32988,22094,38753
32924,22094,38461
33028,22106,38701
33176,22096,38796
33057,22111,38887
33006,22132,38756
33085,22114,38463
33108,22129,38783
33162,22116,38900
33128,22112,38772
33096,22100,38700
33140,22108,38820
33248,22087,38894
33104,22092,38772
32988,22108,38775
33033,22134,38698
33068,22118,38732
33072,22135,38815
33082,22105,38737
33172,22095,38800
33252,22103,38807
33244,22087,38655
33178,22098,38815
33129,22084,38736
33152,22107,38840
33312,22109,38684
33204,22125,38809
33096,22106,38752
33025,22111,38854
33036,22106,38840
33087,22100,38760
33148,22100,38905
33116,22100,38857
33172,22078,38785
33184,22088,38804
33152,22114,38857
33064,22119,38551
32925,22103,38848
32956,22101,38994
32920,22101,38880
32936,22098,38748
32936,22073,39001
32928,22076,38872
32972,22087,38929
32992,22103,38870
33056,22093,38880
33116,22100,38964
33024,22117,38894
33000,22100,38960
33092,22094,38788
33024,22090,39084
33004,22084,38989
33052,22101,38829
33064,22073,39075
32992,22087,38999
32936,22105,38746
32892,22105,39172
32844,22111,39042
32840,22111,38953
32910,22113,39197
32856,22071,39052
32832,22074,39100
32784,22086,39029
32772,22063,39206
32744,22084,38997
32880,22087,38791
32860,22100,39252
32940,22093,39118
33056,22091,39004
33040,22084,38880
33048,22076,39201
33096,22053,39128
33024,22063,38991
33061,22070,39295
33044,22098,39132
33036,22080,39032
32944,22089,39201
32837,22101,39180
32949,22102,39053
32828,22072,39174
32700,22061,38880
32740,22065,39321
32854,22058,38874
33072,22077,39332
32996,22079,39117
32940,22101,39232
32852,22084,39168
32728,22092,39360
32800,22092,39212
32812,22068,39168
32720,22061,39200
32720,22056,39270
32832,22066,39375
32768,22074,39244
32896,22041,39369
32840,22072,39253
32805,22085,39332
32916,22081,39236
32912,22094,39210
32917,22097,39137
32948,22059,39092
32944,22060,39161
32928,22055,39108
32885,22054,39282
32884,22077,38952
32813,22082,39191
32784,22068,39279
32846,22073,39407
32997,22079,39316
33089,22084,39090
32968,22057,39246
32911,22054,39449
32844,22044,39294
32886,22048,39111
32925,22055,39303
33010,22084,39349
32960,22065,39268
32836,22077,39444
32793,22085,39341
32896,22052,39277
33084,22055,39464
33060,22056,39348
32968,22030,39049
32884,22039,39473
32812,22052,39271
32884,22076,39400
32740,22062,39333
32713,22060,39289
32664,22061,39344
32600,22055,39279
32572,22044,39112
32698,22042,39484
32832,22052,39454
32828,22024,39508
32697,22042,39401
32712,22052,39405
32672,22065,39408
32660,22070,39519
32720,22054,39509
32752,22051,39404
32704,22041,39557
32696,22041,39601
32652,22020,39444
32684,22023,39302
32712,22035,39736
32662,22052,39552
32688,22060,39336
32608,22066,39792
32744,22063,39677
32732,22060,39709
32680,22029,39609
32752,22026,39718
32744,22023,39821
32713,22032,39644
32660,22047,39548
32584,22037,39876
32580,22045,39784
32600,22046,39783
32456,22058,39693
32508,22049,39716
32504,22023,39835
32548,22019,39751
32640,22013,39814
32740,22020,39764
32622,22039,39807
32468,22041,39895
32376,22059,39936
32224,22045,40012
32160,22045,39876
31986,22035,39759
31812,22039,40088
31688,22011,40000
31656,22012,39820
31936,22031,40185
32408,22038,40092
33073,22050,40199
33905,22057,40116
34872,22080,40173
36080,22037,40073
37601,22030,39969
39352,22039,40244
41024,22023,40153
42836,22021,40128
44676,22041,40110
45952,22077,40221
46772,22028,40357
47280,22046,40226
46584,22067,39919
44356,22082,40356
41872,22027,40193
39784,22044,40278
38012,22030,40308
36324,22041,40349
34652,22012,40296
33685,22016,40206
33272,22031,40317
33108,22043,40056
32937,22038,40431
32500,22049,40364
32220,22018,40389
32108,22012,40436
31925,21998,40372
31676,22004,40289
31508,22015,40500
31352,22000,40441
31148,22023,40392
30988,22034,40344
30940,22033,40412
30904,22037,40393
30780,22007,40476
30536,22002,40592
30384,22000,40455
30256,22000,40337
30061,22008,40484
29964,22004,40509
29901,22016,40432
29845,22023,40356
29770,22020,40388
29844,22028,40556
29892,22018,40505
29892,22007,40620
29996,22000,40487
30016,21991,40432
30004,21996,40455
30064,22012,40124
30132,22013,40655
30269,22033,40500
30260,22036,40417
30236,22023,40640
30204,22019,40487
30156,21999,40372
30144,21991,40431
30204,21996,40182
30237,21998,40644
30180,22016,40455
30260,22012,40620
30318,22020,40601
30304,22028,40748
30308,22023,40648
30468,22023,40591
30480,21992,40808
30516,21988,40668
30552,21988,40365
30536,22003,40836
30394,22005,40769
30424,22020,40839
30536,22016,40661
30460,22020,40748
30468,22021,40444
30564,22016,40940
30652,22012,40784
30612,21986,40788
30712,21988,40729
30680,21990,40807
30728,22008,40736
30824,22004,40804
30832,22010,40692
30792,22023,40772
30816,22012,40740
30856,22016,40647
30856,21993,40757
30808,21983,40693
30784,21988,40831
30746,22000,40648
30668,21995,40711
30692,22014,40580
30785,22018,40860
30828,22023,40653
30848,22007,40332
30820,21999,40740
30944,21988,40613
30964,21982,40732
30930,21984,40664
30820,21986,40863
30844,22005,40861
30864,22014,40631
31048,22012,40780
30992,22012,40594
30880,22011,40884
30729,22006,40711
30712,22004,40796
30768,21982,40783
30846,21988,40548
30880,21993,40869
30904,22001,40684
30932,22015,40803
30932,22028,40855
30896,22010,40684
30900,22008,40808
30904,22013,40870
30888,21991,40663
30864,21997,40804
30876,21980,40824
30838,21984,40649
30908,21989,40792
30948,22008,40777
30837,22026,40508
30778,22011,40767
30720,22016,40856
30720,22009,40785
30796,22004,40593
30720,22005,40727
30704,21981,40512
30656,21993,40645
30618,21996,40833
30701,22017,40640
30776,22028,40320
30836,22023,40805
30818,22009,40596
30748,22004,40655
30852,21999,40564
30864,21998,40693
30918,22006,40711
31098,21986,40500
31236,21996,40597
31332,22006,40500
31320,22010,40693
31320,22028,40470
31356,22022,40149
31426,22016,40591
31512,22007,40383
31668,21997,40484
31674,21999,40237
31652,21991,40489
31669,22005,40548
31772,22023,40380
31742,22015,40321
31721,22019,40376
31752,22031,40321
31932,22005,40045
32096,22008,40316
32133,22004,40368
32036,21988,40112
32052,21998,40212
32304,22007,40089
32536,22023,40175
32654,22035,40124
32612,22043,39943
32432,22047,40174
32420,22005,40031
32488,21992,39764
32608,21985,40105
32652,21984,39940
32596,21999,39844
32424,22005,39981
32436,21999,39748
32368,22022,39814
32201,22028,39813
32172,22008,39701
32113,22000,39826
32052,21994,39716
31966,21986,39632
31864,21991,39644
31733,21999,39645
31740,21989,39269
31776,22011,39621
31748,22023,39632
31800,22005,39558
31705,21996,39265
31756,21996,39617
31664,21993,39380
31676,21985,39474
31690,21993,39479
31704,21967,39509
31692,21978,39359
31704,21992,39412
31708,22009,39420
31632,22020,39418
31544,22009,39268
31520,21982,39388
31561,21977,39403
31596,21968,39327
31668,21976,39424
31688,21954,39284
31576,21970,39392
31624,21985,39202
31552,21993,39468
31472,21996,39388
31381,21999,39220
31376,21989,39556
31480,21983,39390
31504,21972,39366
31548,21972,39408
31476,21953,39484
31476,21962,39249
31628,21975,39552
31720,21988,39614
31764,21980,39380
31716,21977,39524
31690,21973,39231
31740,21970,39556
31816,21946,39575
31857,21950,39534
31904,21951,39239
31876,21959,39653
31860,21980,39716
31858,21972,39470
31884,21975,39607
31976,21972,39390
32024,21985,39650
32076,21951,39599
32080,21940,39599
32096,21948,39380
32080,21956,39596
32112,21953,39741
32124,21964,39486
32100,21974,39599
32196,21988,39300
32249,21960,39532
32288,21961,39661
32304,21948,39605
32332,21953,39605
32352,21957,39731
32221,21939,39534
32188,21959,39269
32173,21956,39604
32165,21983,39687
32184,21961,39468
32148,21972,39590
32096,21964,39228
32064,21943,39240
32120,21936,39503
32172,21948,39644
32228,21935,39617
32232,21946,39522
32413,21952,39535
32448,21981,39460
32380,21961,39657
32392,21956,39463
32452,21956,39504
32397,21949,39431
32352,21956,39565
32288,21924,39540
32256,21933,39335
32285,21949,39482
32200,21943,39292
32257,21956,39548
32356,21961,39376
32424,21976,39413
32500,21943,39423
32584,21949,39076
32568,21952,39337
32600,21931,39452
32592,21936,39516
32601,21955,39404
32628,21941,39172
32596,21962,39361
32576,21962,39504
32476,21982,39249
32468,21951,39364
32644,21946,39016
32572,21924,39376
32520,21924,39497
32502,21932,39332
32624,21940,39060
32631,21959,39298
32676,21944,39468
32552,21958,39369
32504,21957,39247
32552,21940,39329
32449,21943,39368
32412,21938,39344
32404,21914,39281
32580,21926,39388
32732,21943,39463
32716,21956,39332
32796,21947,39134
32644,21947,39481
32665,21953,39332
32840,21948,39357
32848,21945,39279
32704,21916,39473
32632,21918,39263
32688,21935,39357
32656,21926,39364
32652,21952,39293
32656,21959,39455
32629,21941,39346
32600,21943,39381
32556,21951,39392
32496,21942,39333
32432,21934,39348
32384,21935,39393
32476,21911,39314
32480,21921,39508
32436,21947,39333
32512,21952,39063
32636,21961,39456
32760,21961,39372
32732,21928,39175
32816,21927,39508
32689,21924,39407
32724,21922,39329
32662,21932,39541
32696,21937,39418
32624,21949,39462
32586,21936,39366
32528,21941,39164
32594,21934,39524
32717,21932,39429
32652,21919,39559
32704,21915,39404
32748,21915,39383
32772,21916,39452
32820,21941,39473
32652,21920,39510
32548,21932,39472
32608,21940,39455
32636,21943,39460
32628,21940,39495
32564,21940,39430
32596,21909,39621
32804,21906,39455
32736,21915,39444
32669,21940,39431
32608,21917,39524
32629,21948,39416
32592,21949,39639
32540,21957,39481
32504,21920,39468
32520,21917,39644
32556,21911,39476
32632,21912,39206
32517,21895,39500
32408,21928,39624
32476,21942,39581
32504,21929,39493
32612,21933,39541
32804,21929,39593
32840,21932,39548
32868,21933,39552
32950,21903,39612
32792,21900,39540
32768,21901,39687
32760,21908,39559
32752,21927,39297
32824,21941,39604
32816,21951,39535
32824,21953,39508
32992,21920,39540
32924,21921,39580
32948,21908,39567
32832,21935,39696
32916,21908,39472
32888,21917,39567
32864,21938,39577
32732,21949,39516
32620,21951,39473
32768,21922,39541
32800,21924,39615
32725,21917,39364
32740,21916,39687
32736,21892,39633
32812,21895,39573
32808,21912,39623
32848,21934,39415
32876,21919,39578
32888,21928,39766
32813,21933,39518
32752,21936,39681
32608,21935,39724
32644,21894,39584
32825,21889,39687
32796,21901,39680
32840,21931,39780
32740,21911,39700
32704,21926,39652
32720,21934,39831
32852,21929,39724
32788,21933,39537
32885,21925,39917
32892,21895,39751
32840,21894,39607
32798,21900,39904
32868,21922,39828
32868,21925,39751
32864,21942,39973
32869,21942,39862
32832,21921,39800
32832,21912,39788
32864,21903,39877
32902,21905,39829
32877,21889,40036
32900,21898,39911
32844,21908,39823
32856,21910,39989
32864,21926,40068
32868,21933,39833
32869,21943,39965
32828,21911,39972
32940,21909,39928
32945,21909,40130
32984,21887,39881
32984,21905,40044
32996,21918,39860
32864,21909,40151
32721,21933,39964
32720,21943,40100
32780,21917,40031
32913,21919,40212
32976,21913,40096
33045,21916,39885
33056,21880,40231
33004,21902,40281
33048,21917,40158
33032,21943,40047
33000,21914,40345
32944,21922,40093
33028,21924,40270
32925,21924,40096
33080,21925,40404
33120,21892,40353
33004,21901,40177
32924,21907,40337
33016,21895,39966
32900,21908,40276
32992,21927,40455
33100,21934,40364
33016,21943,40392
33052,21910,40232
32920,21911,40511
32821,21904,40324
33048,21918,40432
33152,21888,40433
33116,21903,40089
33136,21920,40390
33204,21916,40482
33232,21921,40601
33212,21926,40396
33128,21929,40508
33056,21901,40537
32976,21902,40304
32960,21884,40550
33068,21895,40681
33172,21908,40485
33204,21902,40519
33068,21925,40568
32972,21929,40596
32977,21937,40649
32936,21902,40464
33004,21900,40599
32922,21904,40580
32926,21888,40477
32889,21901,40612
32772,21915,40647
33208,21922,40600
33508,21908,40576
33356,21925,40676
33016,21920,40653
32823,21921,40589
32776,21921,40628
33276,21885,40684
33316,21878,40645
32985,21895,40556
32980,21897,40351
32976,21917,40777
32956,21933,40596
32952,21940,40356
33096,21909,40765
33020,21907,40769
33108,21906,40777
33252,21911,40724
33232,21902,40703
33132,21885,40800
33072,21896,40863
33060,21915,40846
33044,21932,40868
33036,21910,40877
33216,21915,40640
33276,21916,40967
33304,21912,40817
33368,21885,40956
33406,21893,40837
33388,21895,41112
33352,21911,40869
33272,21896,41036
33192,21912,40805
33180,21910,40987
33248,21921,41103
33356,21922,41214
33276,21892,40980
33281,21895,41161
33424,21893,41148
33640,21879,40956
33564,21885,41333
33484,21903,41252
33412,21929,41136
33472,21911,41268
33466,21902,41351
33436,21907,41385
33308,21899,41297
33240,21892,41344
33236,21900,41117
33300,21877,41388
33268,21893,41508
33248,21908,41449
33280,21903,41404
33296,21924,41477
33280,21916,41111
33220,21924,41559
33172,21894,41653
33124,21890,41556
33224,21900,41569
33248,21903,41220
33100,21886,41540
32984,21906,41752
32980,21922,41664
33200,21936,41676
33180,21906,41276
33128,21899,41764
33196,21895,41772
33472,21898,41679
33492,21906,41512
33376,21872,41887
33368,21883,41763
33376,21903,41438
33448,21921,41735
33429,21904,41837
33452,21904,41784
33240,21901,41839
33220,21908,41745
33400,21872,41956
33374,21871,41783
33364,21872,41500
33368,21894,41991
33324,21908,41875
33294,21931,41860
33232,21902,41860
33220,21916,41831
33204,21908,41820
33173,21897,41916
33177,21895,41804
33144,21873,42020
33088,21882,41769
33048,21895,41901
32884,21913,41915
32900,21897,41765
32744,21901,41905
32656,21906,41920
32489,21913,41900
32404,21887,41919
32212,21891,41527
32356,21892,41991
32776,21877,41756
33440,21897,41901
34060,21908,41815
34812,21945,42024
35956,21908,41804
37384,21926,41836
38932,21927,41789
40268,21888,41922
41868,21882,41860
43656,21900,41805
45104,21895,41756
46176,21916,41664
46964,21956,41719
46728,21908,41946
45068,21927,41657
42492,21926,41774
40228,21950,41705
38376,21897,41812
36852,21893,41753
35372,21893,41405
34272,21897,41711
33760,21911,41684
33632,21903,41701
33454,21903,41621
33124,21911,41680
32812,21913,41670
32524,21904,41528
32272,21903,41788
32144,21870,41509
31926,21873,41637
31800,21883,41543
31524,21895,41759
31428,21894,41606
31720,21905,41479
31569,21919,41565
31404,21914,41712
31204,21908,41550
31048,21884,41496
30948,21886,41533
30929,21887,41479
30813,21871,41396
30676,21882,41465
30584,21895,41468
30768,21911,41092
30829,21904,41396
30749,21903,41479
30824,21902,41358
30876,21896,40993
30941,21877,41209
31030,21876,41452
30956,21884,41201
30976,21892,41244
30956,21909,41289
30952,21900,41095
30984,21903,40812
31016,21903,41317
31104,21902,41152
31092,21888,41032
31032,21884,41220
31112,21877,41124
31068,21877,40768
31152,21892,41285
31124,21897,41091
31172,21920,40817
31230,21925,41316
31296,21900,41135
31436,21894,40888
31364,21893,41215
31428,21889,41151
31421,21888,41052
31408,21894,41181
31380,21874,41141
31296,21891,41132
31336,21897,40956
31492,21917,41064
31620,21910,41032
31712,21909,41069
31725,21906,41017
31717,21897,41092
31756,21895,40945
31666,21903,40865
31666,21877,40901
31780,21886,40912
31784,21899,40756
31993,21911,40967
31920,21908,40813
31940,21902,40830
32013,21895,40703
31989,21900,40340
31909,21870,40800
31909,21877,40528
32008,21900,40639
31976,21900,40530
32066,21908,40479
31976,21914,40182
32100,21922,40650
32020,21893,40460
31876,21885,40478
31758,21892,40480
31900,21877,40441
32000,21881,40413
32156,21895,40320
32244,21911,40382
32100,21923,40440
32016,21924,40295
32048,21899,40022
32052,21892,40277
32104,21892,40263
32172,21888,40161
32132,21885,40085
32076,21886,40174
32020,21900,40140
31936,21920,39998
31928,21908,40062
31932,21908,40092
31953,21912,40008
31937,21904,39927
32000,21901,39855
32064,21896,39932
32080,21901,39909
32100,21881,39758
31985,21903,39815
31844,21919,39596
31912,21922,39733
31980,21908,39725
31932,21912,39801
31900,21910,39628
31984,21907,39428
32028,21894,39703
31884,21905,39573
31716,21893,39302
31836,21906,39620
31973,21897,39412
31948,21916,39141
32120,21916,39427
32054,21913,39408
32064,21909,39503
32008,21911,39317
31980,21905,39308
32119,21910,39301
32232,21888,39145
32240,21897,39240
32224,21921,39149
32352,21928,39316
32352,21946,39057
32448,21921,38947
32412,21918,39085
32464,21918,39130
32517,21907,39061
32572,21914,38764
32556,21895,39120
32856,21902,38997
33056,21915,38933
33088,21925,39084
33100,21948,38903
33132,21924,38918
33188,21921,38903
33332,21921,38873
33389,21924,38886
33384,21895,38808
33416,21900,38872
33294,21917,38833
33394,21926,38736
33632,21946,38908
33409,21925,38764
33368,21925,38682
33584,21932,38705
33508,21932,38781
33257,21899,38704
33240,21901,38388
33296,21916,38692
33216,21900,38764
33108,21920,38773
33016,21942,38629
32948,21927,38653
32856,21940,38636
32782,21932,38573
32752,21938,38631
32871,21904,38298
32756,21900,38676
32776,21912,38566
32756,21902,38580
32604,21914,38272
32434,21939,38695
32372,21946,38573
32233,21924,38520
32336,21921,38685
32184,21915,38532
32144,21919,38573
32152,21895,38404
32172,21911,38608
32128,21919,38676
32368,21912,38546
32368,21925,38500
32408,21941,38542
32332,21930,38556
32224,21931,38632
32196,21904,38414
32273,21908,38557
32185,21900,38519
32220,21911,38564
32361,21898,38505
32296,21912,38269
32164,21929,38642
32120,21936,38535
32044,21933,38533
32012,21928,38564
32216,21925,38548
32324,21917,38509
32412,21902,38383
32364,21901,38689
32376,21916,38661
32344,21916,38804
32313,21932,38717
32368,21938,38656
32548,21946,38751
32486,21940,38785
32484,21930,38935
32557,21925,38822
32534,21920,38759
32576,21902,38854
32644,21911,38860
32524,21919,38855
32416,21924,38919
32572,21928,39015
32601,21963,38908
32608,21954,38719
32640,21915,39026
32576,21903,38951
32568,21906,38916
32652,21903,38866
32656,21916,39013
32664,21927,38948
32760,21949,39134
32816,21952,38999
32887,21952,38973
32924,21946,39008
32944,21918,38875
32836,21902,38919
32772,21902,39017
32716,21901,39044
32650,21905,39095
32720,21919,39111
32664,21927,39225
32744,21958,39012
32996,21937,39200
32912,21926,39143
32920,21915,39175
32820,21909,39140
32828,21902,39224
32790,21900,39116
32728,21925,39076
32812,21928,39303
32984,21951,39170
33093,21927,39084
33056,21933,39324
33128,21939,39189
33124,21920,39154
33064,21917,39112
33105,21920,38864
33144,21896,39244
33388,21901,39185
33056,21914,39143
32840,21924,39151
33200,21929,39136
33136,21925,39137
33124,21922,39292
33172,21909,39205
33078,21903,39327
33032,21895,39185
33112,21912,39332
33112,21910,39209
33208,21922,39208
33216,21935,39181
33204,21934,39268
33242,21929,39173
33276,21932,39197
33437,21919,38861
33413,21901,39188
33336,21892,39055
33312,21927,39068
33280,21919,39119
33332,21929,39188
33324,21920,39149
33288,21935,38851
33136,21940,39242
33136,21916,39060
33309,21905,38916
33360,21899,39164
33196,21891,38919
33196,21894,39058
33216,21907,39132
33292,21906,39069
33236,21927,39205
33308,21939,39290
33364,21932,39185
33464,21927,39181
33389,21925,39085
33300,21908,39012
33260,21889,39253
33252,21895,39195
33100,21902,39309
33153,21916,39193
33164,21925,39316
33160,21935,39188
33140,21932,39199
33136,21919,39117
33164,21911,39104
33312,21906,39013
33289,21892,38982
33300,21905,39279
33200,21916,39148
33068,21922,39156
32924,21932,39044
33108,21938,39081
33268,21912,39119
33200,21908,38868
33319,21925,38972
33072,21914,39044
33104,21917,39212
33225,21888,39100
33208,21895,39209
33188,21897,39095
33220,21915,39029
33264,21925,39020
33194,21919,39085
33208,21915,39180
33276,21914,39060
33144,21903,39089
33120,21920,38941
33016,21877,39047
33052,21901,39098
33252,21908,38998
33096,21902,38741
33308,21916,39128
33125,21921,38969
32984,21919,38711
32960,21920,39145
33104,21881,38988
33036,21877,38943
33097,21884,39127
33024,21895,38996
33041,21918,38829
33096,21908,39116
33092,21911,38992
33092,21917,39040
32964,21919,38967
33044,21894,38648
33016,21887,39021
33012,21888,38797
33048,21895,38937
33008,21876,38994
33016,21893,38863
33008,21914,38884
32988,21914,38845
32988,21908,38910
32996,21905,38868
32952,21895,38969
33036,21898,38836
32992,21892,38911
33048,21876,38788
32972,21876,38512
32980,21895,38897
32952,21911,38759
32900,21908,38828
32844,21911,38729
32876,21906,38779
32820,21902,38705
32944,21898,38750
32974,21885,38652
33092,21890,38557
33008,21871,38681
32981,21887,38591
33032,21906,38500
33172,21905,38437
33184,21914,38535
33056,21911,38500
33028,21879,38462
32988,21872,38468
33020,21870,38407
33148,21877,38406
33112,21877,38407
32980,21901,38295
33112,21922,38476
33124,21895,38212
33014,21900,38330
33088,21904,38009
33032,21881,38198
32912,21876,38361
32948,21880,38229
32992,21860,37989
32912,21869,38231
32784,21882,38085
32708,21902,38159
32744,21889,37839
32900,21898,38060
32980,21898,37973
33068,21887,37988
33120,21882,37908
33044,21869,37740
33108,21871,38117
33196,21876,37977
33124,21895,37764
33096,21881,37975
33204,21894,37852
33112,21893,37696
33089,21888,37884
33144,21882,37841
33101,21881,37935
33028,21874,37828
32996,21849,37728
33168,21871,37876
33092,21881,37652
33096,21896,37587
33088,21880,37750
33008,21902,37731
33020,21887,37656
32976,21887,37552
32881,21876,37661
32884,21867,37765
32916,21876,37628
32756,21857,37543
32894,21860,37712
33076,21879,37543
33045,21901,37284
32940,21904,37642
33100,21877,37532
33144,21863,37543
33156,21855,37368
33208,21857,37484
33244,21865,37355
33096,21850,37543
33060,21860,37436
33216,21869,37428
33128,21881,37396
33080,21887,37160
33100,21900,37480
33085,21862,37292
33092,21855,37041
33008,21870,37372
32970,21842,37229
32992,21853,36986
33004,21866,37300
32944,21887,37236
33004,21902,37167
32804,21872,37334
32741,21883,37204
32784,21868,37190
32793,21853,37183
32840,21848,37177
32842,21860,37101
32760,21857,37127
32892,21868,37058
33009,21893,36965
33020,21869,37187
33080,21885,37065
33056,21868,37165
33029,21869,37028
33012,21855,37126
32909,21847,37012
33040,21850,37052
33064,21864,36925
32977,21885,36709
32932,21863,36951
33000,21869,36932
33006,21877,36840
33092,21861,36759
33040,21869,36585
33001,21861,36953
32992,21849,36840
33032,21860,36727
33052,21868,36822
33040,21853,36790
32877,21868,36709
32940,21875,36623
32961,21884,36727
33070,21863,36736
33080,21849,36644
33049,21844,36395
33048,21845,36682
33048,21841,36540
33100,21846,36524
33148,21871,36532
33013,21860,36583
32952,21868,36520
32900,21872,36421
32876,21871,36264
32896,21865,36501
33064,21836,36452
33061,21835,36460
32992,21833,36486
33016,21842,36329
33068,21856,36412
33072,21864,36344
33052,21871,36420
33012,21865,36336
32960,21876,36257
32932,21868,36224
32908,21834,36288
32912,21833,35990
32865,21835,36314
32792,21848,36192
32796,21863,36038
32701,21853,36185
32654,21861,36057
32696,21864,35885
32784,21875,36180
32820,21842,36040
32868,21854,36060
32904,21843,35924
32928,21853,36108
32986,21830,35975
33010,21839,35728
33052,21854,35990
32952,21877,35879
32936,21859,35922
32916,21863,35865
32813,21853,35815
32780,21860,35788
32796,21823,35639
32816,21832,35857
32832,21837,35728
32772,21852,35650
32780,21870,35672
32808,21884,35694
32762,21887,35749
32657,21848,35636
32600,21838,35584
32544,21829,35440
32600,21837,35550
32696,21833,35521
32768,21829,35400
32804,21833,35364
32800,21841,35300
32832,21850,35399
32801,21854,35364
32762,21863,35248
32720,21860,35300
32636,21831,35204
32512,21814,35180
32456,21814,34928
32496,21822,35188
32656,21837,35068
32526,21845,34916
32449,21853,35127
32393,21858,34967
32312,21837,34976
32368,21836,34836
32448,21829,34916
32592,21829,34855
32444,21826,34724
32405,21820,34868
32424,21820,34756
32452,21853,34638
32436,21852,34540
32380,21848,34380
32224,21852,34580
32128,21831,34498
32324,21821,34516
32404,21820,34362
32416,21820,34429
32320,21829,34407
32248,21834,34433
32198,21844,34340
32128,21859,34268
32140,21843,34244
32168,21836,34124
32118,21832,34167
32108,21828,34145
32080,21819,34175
32056,21827,34085
31980,21812,33977
31936,21823,34007
31936,21840,34005
31976,21853,33888
31976,21851,33855
31905,21846,33670
31821,21821,33956
31712,21819,33791
31596,21817,33831
31412,21828,33740
31265,21810,33671
31164,21831,33508
31144,21843,33792
31296,21829,33716
31676,21834,33631
32224,21833,33586
32952,21828,33457
33836,21822,33687
34916,21824,33583
36296,21830,33473
37880,21805,33613
39424,21820,33443
41092,21845,33537
42840,21846,33480
44180,21875,33388
45168,21829,33470
45868,21816,33400
45740,21820,33412
44188,21810,33285
41808,21820,33433
39584,21846,33271
37712,21860,33148
36125,21823,33436
34516,21841,33315
33231,21841,33209
32488,21828,33265
32212,21816,33287
32016,21821,33071
31772,21793,33264
31440,21796,33156
31176,21802,32994
31012,21806,33244
30840,21824,33175
30636,21826,33077
30468,21828,33045
30292,21828,32921
30140,21815,33145
30088,21806,33132
29900,21786,33068
29668,21788,32998
29540,21795,32872
29436,21799,33135
29280,21815,33052
29112,21821,32942
29060,21827,33014
28948,21820,33007
28884,21809,33008
28870,21797,32885
28852,21795,33009
28816,21796,33001
28838,21799,33036
28860,21804,33013
28920,21823,32940
28932,21809,32952
28932,21817,32909
28924,21814,32920
28932,21808,32801
29013,21799,33045
28984,21798,32836
28968,21794,33079
29008,21807,33060
29008,21797,32935
29006,21813,33153
29028,21821,33066
29181,21833,32975
29192,21825,33144
29184,21805,33125
29208,21793,32944
29260,21783,33245
29320,21785,33212
29344,21795,33020
29402,21801,33313
29388,21814,33196
29360,21817,33088
29377,21816,33374
29572,21820,33252
29540,21807,33154
29444,21796,33447
29368,21797,33303
29524,21781,33431
29516,21782,33311
29560,21797,33472
29497,21806,33359
29440,21819,33434
29480,21817,33396
29580,21813,33362
29600,21804,33452
29664,21788,33315
29700,21778,33348
29688,21781,33436
29665,21790,33316
29656,21796,33476
29676,21809,33377
29688,21811,33380
29684,21812,33393
29644,21810,33213
29580,21793,33316
29525,21781,33281
29580,21780,33373
29557,21783,33188
29544,21793,33422
29580,21788,33317
29644,21796,33097
29676,21804,33272
29596,21807,33176
29596,21809,33245
29680,21807,33185
29740,21798,33298
29780,21772,33269
29750,21770,33214
29700,21787,33117
29640,21791,33349
29640,21800,33270
29729,21805,33049
29752,21810,33183
29768,21804,33177
29770,21800,33269
29744,21799,33104
29736,21773,33325
29653,21777,33217
29620,21785,33255
29632,21794,33228
29628,21795,33159
29620,21805,33254
29590,21813,33101
29644,21807,33300
29672,21797,33270
29708,21792,33049
29696,21773,33165
29604,21776,33316
29552,21788,33192
29476,21794,33287
29480,21806,33172
29484,21819,33205
29508,21805,33302
29580,21808,33156
29640,21800,33374
29684,21789,33305
29732,21790,33234
29804,21771,33236
29869,21780,33309
29900,21791,33258
29924,21801,33276
29952,21809,33356
29960,21813,33286
29974,21793,33268
30000,21796,33364
30126,21785,33149
30112,21772,33265
30224,21774,33476
30369,21782,33379
30372,21793,33196
30468,21797,33444
30564,21815,33409
30660,21809,33343
30704,21806,33399
30672,21796,33487
30632,21778,33344
30692,21772,33542
30856,21774,33452
31034,21781,33512
31176,21795,33433
31292,21790,33559
31452,21801,33528
31616,21816,33564
31596,21798,33358
31584,21785,33596
31636,21792,33463
31684,21781,33605
31744,21788,33465
31768,21769,33608
31718,21781,33588
31654,21799,33628
31616,21796,33392
31576,21799,33694
31536,21798,33603
31577,21796,33653
31584,21773,33556
31548,21767,33743
31496,21767,33644
31436,21767,33497
31364,21772,33574
31316,21781,33661
31332,21797,33544
31240,21791,33795
31172,21798,33634
31188,21773,33493
31216,21772,33652
31136,21761,33794
31185,21769,33753
31108,21757,33601
31012,21766,33812
30892,21772,33822
30816,21785,33761
30776,21793,33668
30776,21771,33834
30798,21759,33788
30780,21773,33844
30853,21759,33808
30896,21755,33815
30840,21765,33732
30828,21754,33625
30913,21760,33864
30977,21770,33829
31009,21783,33665
30984,21757,33973
30952,21745,33905
30936,21741,33831
31060,21736,33975
31172,21737,33980
31128,21736,33972
31104,21749,33917
31102,21765,34060
31136,21757,33964
31136,21764,34092
31184,21756,34093
31232,21761,34148
31212,21725,34068
31209,21725,34264
31204,21726,34207
31268,21730,34229
31337,21728,34207
31304,21748,34013
31332,21767,34340
31412,21775,34268
31444,21733,34244
31476,21727,34183
31532,21731,34301
31566,21721,34311
31604,21719,34277
31656,21724,34212
31676,21732,34311
31660,21748,34335
31664,21733,34274
31684,21739,34217
31684,21740,34335
31684,21739,34372
31772,21709,34220
31804,21701,34172
31756,21714,34309
31808,21729,34404
31872,21705,34239
31936,21724,34077
32008,21738,34363
32048,21740,34196
32064,21740,34307
32124,21722,34233
32144,21709,34345
32128,21705,34262
32108,21712,34031
32060,21698,34341
32056,21725,34220
32140,21733,34226
32168,21728,34121
32164,21733,34300
32104,21734,34194
32048,21714,34172
32068,21705,33926
32136,21701,34255
32192,21707,34036
32236,21724,34148
32256,21719,33888
32316,21732,33887
32364,21717,34001
32412,21724,34119
32444,21721,34053
32436,21732,33831
32428,21697,33960
32420,21703,34073
32452,21698,33999
32485,21682,33999
32456,21705,33807
32480,21719,33974
32476,21715,33980
32516,21714,33947
32572,21722,33896
32520,21714,33959
32464,21672,33789
32384,21689,33882
32328,21684,33748
32292,21700,33948
32340,21691,33749
32376,21703,33831
32396,21722,33708
32485,21721,33893
32572,21718,33695
32584,21717,33799
32612,21684,33672
32624,21669,33863
32576,21671,33756
32512,21676,33541
32568,21695,33836
32600,21711,33704
32589,21720,33524
32588,21701,33648
32585,21710,33807
32588,21710,33772
32644,21675,33647
32700,21685,33732
32780,21678,33739
32822,21687,33726
32820,21703,33629
32781,21687,33746
32768,21692,33653
32820,21708,33745
32772,21705,33749
32760,21700,33636
32784,21689,33671
32812,21685,33759
32832,21693,33644
32868,21665,33834
32916,21669,33736
32964,21695,33534
32944,21708,33779
32960,21697,33712
32926,21697,33559
32880,21695,33816
32864,21674,33715
32824,21679,33500
32792,21686,33755
32741,21657,33660
32812,21671,33729
32865,21687,33513
32916,21710,33660
32976,21689,33807
33000,21693,33679
33000,21680,33543
33032,21677,33700
33064,21679,33702
33060,21654,33464
33032,21655,33692
33056,21665,33598
33028,21682,33663
32988,21686,33561
32964,21707,33746
33017,21670,33553
33068,21672,33652
33069,21668,33532
33108,21661,33693
33100,21679,33520
32974,21649,33607
32968,21657,33477
32996,21680,33616
33038,21691,33534
33108,21697,33377
33200,21695,33584
33221,21692,33526
33172,21686,33439
33126,21646,33388
33120,21644,33319
33116,21650,33482
33176,21659,33421
33208,21664,33300
33181,21671,33294
33184,21689,33396
33140,21684,33239
33164,21671,33431
33156,21671,33311
33252,21670,33119
33252,21638,33327
33248,21645,33204
33216,21656,33069
33182,21676,33253
33216,21689,33341
33298,21671,33206
33316,21663,33007
33340,21668,33180
33317,21661,33205
33304,21658,33185
33300,21631,32981
33256,21636,33247
33276,21647,33149
33344,21663,32932
33436,21669,33127
33472,21680,33045
33465,21660,33097
33430,21647,32887
33372,21648,33031
33312,21647,33022
33292,21657,33081
33352,21665,33056
33444,21640,33029
33488,21640,32933
33452,21665,33094
33436,21677,33047
33344,21688,33040
33240,21647,32884
33249,21637,33105
33231,21626,32993
33241,21638,32800
33280,21637,33093
33328,21655,32913
33432,21645,33020
33561,21652,32805
33620,21656,32919
33652,21670,33103
33600,21643,32972
33521,21637,33043
33488,21632,32916
33480,21637,33087
33456,21652,33038
33424,21620,32837
33468,21642,33073
33472,21656,32947
33460,21675,33070
33468,21648,32861
33508,21648,33063
33504,21648,32960
33532,21618,33085
33513,21612,32984
33536,21625,33165
33544,21646,33076
33552,21631,32876
33444,21647,33077
33500,21651,33004
33504,21657,33112
33484,21649,33159
33584,21619,32998
33680,21612,33120
33668,21609,32997
33624,21620,33127
33573,21630,33133
33532,21640,33041
33546,21638,33088
33556,21657,33145
33600,21665,33020
33608,21625,33198
33576,21620,33154
33620,21609,33028
33672,21612,33029
33732,21624,33151
33684,21638,33031
33712,21625,33183
33740,21631,33144
33668,21647,33015
33588,21649,33214
33572,21620,33076
33512,21620,33154
33568,21615,33100
33576,21597,33159
33568,21603,33164
33512,21604,33205
33440,21633,33090
33376,21644,33161
33428,21655,33159
33500,21649,33159
33464,21639,33081
33412,21604,33013
33456,21604,33222
33561,21600,33152
33588,21606,33056
33576,21621,33240
33480,21644,33105
33476,21626,33200
33520,21620,33134
33558,21636,33160
33576,21631,33177
33640,21599,32971
33681,21599,33200
33612,21612,33274
33704,21592,33201
33712,21604,33276
33664,21622,33198
33592,21624,33056
33572,21642,33304
33604,21638,33224
33692,21639,33305
33720,21595,33237
33692,21599,33121
33624,21602,33119
33608,21604,33240
33616,21614,33322
33628,21637,33249
33584,21615,33260
33524,21619,33239
33580,21615,33140
33616,21615,33287
33616,21604,33260
33600,21613,33143
33640,21611,33140
33632,21588,33031
33644,21593,33332
33620,21604,33261
33754,21614,33157
33916,21625,33140
34024,21620,33080
33908,21620,33204
33780,21596,33108
33788,21592,33311
33805,21609,33257
33724,21574,33261
33640,21582,33236
33676,21597,33260
33644,21604,33244
33672,21615,33125
33768,21615,33128
33840,21605,33052
33724,21604,33260
33764,21575,33176
33872,21569,33033
33928,21576,33244
33952,21595,33041
33924,21592,33228
33940,21604,33017
33881,21607,33181
33876,21599,33100
33972,21594,33112
34064,21580,33045
34164,21576,33316
34076,21577,33250
33936,21603,33233
33834,21612,33244
33736,21605,33222
33716,21593,33142
33653,21594,33127
33605,21588,33191
33592,21590,33278
33664,21580,33207
33772,21568,33189
33792,21557,33135
33736,21566,33199
33720,21572,33197
33626,21589,33287
33533,21599,33151
33456,21599,33420
33492,21603,33287
33432,21601,33151
33468,21583,33271
33512,21567,33337
33532,21575,33376
33592,21573,33287
33660,21594,33519
33644,21566,33452
33592,21587,33334
33512,21597,33526
33516,21607,33401
33544,21605,33356
33620,21563,33444
33668,21561,33572
33685,21564,33453
33756,21577,33519
33832,21587,33588
33888,21599,33561
33949,21604,33497
33920,21605,33552
33708,21604,33517
33644,21597,33562
33760,21558,33380
33808,21543,33634
33825,21549,33573
33684,21561,33372
33544,21572,33636
33436,21598,33556
33317,21580,33608
33240,21589,33455
33137,21590,33687
33068,21588,33596
33072,21554,33477
33128,21557,33557
33396,21551,33570
33880,21566,33497
34680,21559,33639
35688,21565,33524
36848,21593,33373
38248,21588,33589
39924,21597,33517
41576,21614,33290
43084,21553,33537
44808,21550,33404
46712,21553,33493
48072,21590,33245
48836,21668,33421
49456,21561,33358
49188,21608,33465
47376,21606,33331
44720,21620,33320
42273,21654,33236
40224,21557,33402
38308,21552,33220
36380,21547,33321
34890,21548,33189
34368,21550,33333
34252,21575,33169
34172,21583,33438
33888,21607,33313
33296,21564,33159
32792,21554,33358
32588,21548,33361
32517,21546,33271
32412,21543,33356
32285,21558,33396
32208,21541,33262
32100,21558,33453
32008,21570,33388
31932,21576,33278
31852,21553,33369
31728,21550,33390
31573,21553,33222
31417,21534,33401
31336,21541,33352
31260,21553,33234
31192,21535,33334
31096,21544,33083
31094,21568,33287
31012,21562,33252
31030,21566,33119
31072,21560,33279
31108,21551,33255
31148,21541,33300
31172,21538,33252
31108,21538,33167
31112,21543,33186
31215,21552,33116
31276,21560,33156
31292,21568,33089
31252,21566,33111
31272,21561,33071
31389,21554,33131
31480,21544,33031
31580,21545,33020
31646,21545,32920
31680,21556,33175
31580,21565,33095
31550,21559,33001
31542,21561,32953
31560,21561,32852
31636,21562,33036
31732,21558,32966
31692,21529,33012
31788,21530,32932
31812,21538,32860
31784,21544,32743
31824,21556,32969
31924,21565,32813
31993,21572,32908
32076,21577,32744
32020,21546,32925
31932,21536,32783
31940,21538,32579
31996,21538,32807
32084,21545,32741
32105,21557,32673
31964,21567,32580
31925,21583,32532
31909,21553,32671
32000,21558,32621
32048,21557,32460
32096,21546,32631
32117,21548,32527
32040,21527,32292
32088,21526,32364
32129,21541,32528
32161,21549,32341
32140,21569,32412
32158,21555,32208
32244,21547,32426
32244,21541,32340
32252,21532,32259
32264,21522,32252
32365,21520,32057
32328,21527,32175
32125,21543,32263
32060,21548,32125
32128,21562,32092
32188,21574,32136
32240,21574,31983
32108,21572,32080
32064,21541,32073
32065,21519,31909
32160,21527,32092
32124,21540,31968
32164,21541,31783
32281,21551,31936
32309,21568,31804
32272,21579,31712
32208,21572,31891
32176,21547,31816
32140,21538,31687
32117,21511,31665
32132,21519,31588
32142,21525,31676
32224,21527,31700
32240,21540,31527
32265,21550,31561
32304,21548,31452
32317,21553,31580
32284,21557,31564
32192,21560,31375
32188,21525,31548
32288,21533,31437
32280,21540,31428
32296,21559,31392
32309,21569,31371
32388,21575,31330
32336,21578,31308
32376,21579,31238
32349,21588,31207
32440,21537,31068
32560,21532,31133
32601,21532,31150
32716,21543,31087
32808,21539,31098
32812,21558,31057
32704,21568,31012
32576,21578,30845
32568,21576,30854
32728,21551,30764
32884,21541,30953
32976,21540,30891
33052,21535,30887
33056,21537,30633
33136,21546,30695
33142,21552,30609
33280,21573,30796
33336,21604,30727
33496,21557,30583
33720,21552,30565
33844,21540,30489
33904,21539,30679
34024,21544,30605
33900,21541,30442
33888,21548,30452
33944,21562,30380
34021,21575,30552
33985,21581,30496
33864,21580,30360
33816,21574,30408
33722,21563,30286
33620,21554,30301
33577,21554,30237
33572,21557,30288
33565,21564,30167
33492,21536,30333
33424,21550,30188
33408,21573,30288
33469,21565,30112
33512,21565,30138
33252,21546,30044
33100,21552,30215
32982,21517,30136
33024,21520,30053
33008,21533,30148
32924,21545,29998
32902,21557,30090
32840,21564,30110
32876,21563,30058
32836,21555,30061
32648,21540,30004
32548,21534,29836
32520,21534,29916
32512,21532,29799
32492,21537,29863
32604,21542,29782
32728,21552,29937
32750,21548,29732
32756,21546,29914
32572,21545,29869
32429,21486,29692
32350,21497,29769
32384,21488,29661
32396,21493,29793
32433,21497,29648
32534,21508,29684
32620,21511,29632
32532,21518,29703
32464,21524,29623
32332,21517,29751
32332,21509,29655
32344,21495,29796
32372,21499,29765
32388,21510,29613
32524,21486,29751
32672,21496,29775
32732,21512,29764
32764,21522,29752
32552,21527,29596
32569,21494,29815
32640,21490,29772
32580,21493,29616
32592,21491,29694
32653,21487,29764
32800,21501,29648
32960,21516,29752
33078,21529,29775
33168,21525,29816
33188,21527,29774
33160,21519,29624
33044,21521,29688
32884,21495,29637
32792,21493,29810
32832,21472,29773
32862,21477,29598
32980,21490,29818
32988,21503,29777
32950,21517,29628
32920,21512,29804
32864,21508,29755
32884,21505,29600
32984,21497,29791
33092,21500,29764
33136,21463,29605
33200,21487,29773
33076,21493,29740
33069,21511,29612
33108,21494,29653
33112,21487,29735
33080,21486,29692
33080,21492,29632
33216,21477,29556
33356,21471,29656
33308,21476,29687
33188,21491,29513
33176,21476,29616
33072,21486,29543
33104,21495,29650
33200,21506,29508
33220,21511,29564
33246,21474,29588
33348,21468,29414
33409,21461,29543
33424,21468,29535
33480,21493,29560
33480,21511,29567
33436,21481,29513
33448,21500,29360
33473,21497,29524
33408,21493,29498
33388,21489,29333
33488,21489,29484
33576,21479,29341
33472,21480,29504
33412,21490,29484
33325,21466,29352
33252,21477,29364
33332,21481,29304
33468,21517,29433
33469,21476,29300
33400,21458,29382
33324,21461,29455
33312,21461,29428
33366,21472,29425
33500,21451,29280
33604,21471,29464
33548,21490,29418
33430,21511,29279
33576,21478,29285
33532,21479,29413
33472,21469,29440
33436,21456,29468
33264,21461,29418
33300,21475,29284
33328,21450,29340
33300,21461,29277
33301,21469,29477
33406,21495,29438
33424,21481,29390
33428,21483,29336
33368,21474,29296
33384,21473,29266
33372,21438,29400
33348,21440,29423
33392,21445,29436
33456,21457,29292
33420,21481,29440
33334,21468,29394
33276,21469,29237
33260,21462,29403
33332,21469,29409
33368,21442,29261
33404,21459,29404
33392,21431,29392
33384,21450,29244
33444,21457,29381
33441,21476,29385
33468,21487,29367
33540,21495,29360
33428,21491,29250
33316,21441,29365
33260,21434,29398
33388,21433,29366
33464,21433,29372
33364,21440,29345
33372,21458,29287
33368,21455,29353
33394,21468,29263
33472,21471,29335
33456,21470,29326
33372,21468,29332
33389,21428,29188
33340,21437,29378
33380,21430,29342
33284,21452,29184
33262,21436,29228
33340,21459,29300
33289,21469,29336
33344,21478,29181
33424,21465,29319
33432,21456,29198
33296,21452,29388
33276,21441,29212
33285,21444,29349
33184,21425,29359
33190,21439,29199
33228,21460,29385
33280,21458,29316
33420,21465,29191
33520,21477,29397
33356,21432,29375
33244,21433,29233
33204,21433,29341
33156,21439,29392
33292,21453,29260
33269,21458,29306
33252,21468,29258
33316,21448,29464
33228,21459,29395
33116,21454,29452
33150,21457,29334
33256,21423,29368
33308,21415,29492
33324,21422,29545
33364,21424,29529
33344,21446,29450
33284,21456,29540
33256,21454,29588
33192,21450,29384
33252,21460,29522
33224,21439,29410
33064,21432,29542
33012,21444,29612
32964,21417,29470
33088,21440,29663
33224,21447,29596
33120,21474,29527
33008,21454,29703
33064,21444,29677
33140,21433,29521
33108,21447,29596
33072,21428,29524
33100,21431,29703
33032,21436,29733
33000,21448,29593
33053,21431,29684
33225,21445,29765
33312,21456,29618
33172,21449,29703
33160,21452,29793
33068,21446,29766
32964,21422,29631
33024,21422,29768
33060,21428,29720
33056,21447,29892
33096,21420,29869
33036,21439,29900
33032,21442,29889
33080,21440,29932
33016,21434,29926
33060,21440,29956
33060,21423,29946
33084,21436,29818
33064,21409,29998
32948,21421,29832
32920,21428,29927
32932,21453,30047
32997,21465,30048
33004,21437,30036
33056,21433,29936
33112,21437,30079
33104,21414,29985
33060,21415,30076
33000,21420,30176
32982,21441,30215
32910,21418,30229
32960,21431,30269
33092,21465,30272
33101,21424,30335
33136,21425,30288
33088,21431,30162
33060,21421,30389
33000,21407,30380
32948,21415,30255
32920,21439,30436
32900,21415,30448
32992,21437,30421
33024,21436,30381
33069,21446,30348
33024,21424,30519
32877,21414,30544
32924,21415,30434
32972,21407,30655
33080,21409,30625
33008,21423,30499
33000,21413,30559
32964,21428,30734
33012,21436,30610
32970,21438,30567
33104,21445,30693
33124,21412,30641
33004,21398,30772
32988,21403,30680
32876,21411,30680
32798,21417,30638
32836,21426,30857
32932,21439,30855
33004,21432,30929
33056,21431,30880
33164,21423,30932
33261,21431,30911
33380,21400,30791
33252,21405,30986
33124,21403,30936
33020,21413,30821
33052,21429,30964
33102,21440,30991
33036,21420,30844
33009,21428,31042
33064,21431,31008
33040,21440,30906
32992,21401,31088
32988,21392,31073
32928,21410,30940
32964,21406,31078
32926,21423,31096
32832,21394,31005
32756,21421,31062
32708,21436,31152
32741,21428,31093
32701,21406,31052
32616,21396,30978
32640,21397,31176
32696,21402,31052
32729,21408,31203
32792,21416,31230
32821,21423,31297
32916,21425,31239
32892,21436,31324
32869,21422,31272
32916,21427,31180
32960,21387,31287
32876,21397,31281
32764,21396,31294
32740,21409,31276
32738,21412,31333
32768,21430,31320
32732,21417,31205
32712,21415,31209
32704,21415,31129
32600,21411,31343
32540,21413,31324
32602,21380,31396
32768,21385,31239
32880,21398,31139
32808,21420,31305
32750,21402,31277
32720,21417,31334
32728,21428,31229
32868,21403,31233
32893,21393,31125
32761,21382,31287
32704,21387,31300
32652,21393,31266
32544,21415,31191
32436,21386,31293
32348,21400,31239
32364,21415,31164
32292,21417,31273
32588,21421,31162
33164,21397,31137
33903,21383,31140
34689,21390,31214
35696,21392,31235
37008,21423,31029
38624,21391,31272
40228,21402,31190
41716,21428,31013
43256,21459,31200
44928,21401,31128
46380,21406,31177
47188,21437,31042
47872,21377,31044
47808,21394,30966
46096,21413,31202
43508,21441,31141
41124,21487,31064
39096,21420,31066
37260,21436,30920
35408,21417,31092
33902,21420,31111
33232,21387,31104
33128,21383,31083
33124,21393,30949
32932,21390,31135
32429,21404,31076
31952,21412,31048
31808,21394,30984
31800,21409,31075
31745,21397,30949
31668,21402,31028
31493,21369,31046
31373,21368,30911
31088,21377,31041
30940,21385,31044
30924,21399,30962
30908,21386,30932
30928,21396,31022
30880,21399,31011
30781,21397,30983
30628,21379,30999
30377,21375,30790
30192,21374,30854
30204,21361,30926
30228,21367,30772
30260,21379,30975
30240,21385,30908
30232,21398,30768
30214,21409,30936
30289,21397,30888
30324,21388,30748
30388,21392,30807
30444,21357,30700
30496,21361,30945
30484,21368,30879
30468,21383,30710
30504,21392,30880
30548,21396,30775
30584,21403,30684
30684,21398,30853
30758,21373,30815
30924,21359,30644
30984,21359,30780
30892,21359,30632
30788,21366,30655
30748,21380,30752
30756,21388,30765
30816,21397,30725
30917,21402,30595
31016,21402,30773
31100,21397,30693
31100,21373,30516
31136,21356,30604
31240,21359,30547
31260,21383,30652
31286,21392,30655
31316,21383,30628
31348,21388,30491
31385,21401,30501
31356,21388,30396
31376,21382,30629
31456,21375,30553
31469,21380,30368
31492,21380,30437
31508,21369,30405
31480,21372,30444
31528,21393,30316
31576,21407,30401
31467,21421,30341
31388,21383,30240
31367,21386,30333
31352,21379,30312
31345,21383,30245
31308,21362,30124
31380,21365,30117
31520,21373,30058
31584,21383,30087
31528,21397,29976
31508,21407,30167
31544,21413,30103
31632,21383,29920
31613,21380,30020
31562,21376,29864
31590,21383,30033
31572,21372,29976
31548,21372,29917
31548,21383,29860
31548,21397,29755
31490,21397,29871
31472,21391,29837
31488,21380,29831
31525,21369,29807
31564,21364,29786
31644,21369,29771
31612,21383,29735
31616,21387,29696
31606,21407,29691
31644,21418,29511
31696,21396,29604
31661,21395,29624
31696,21398,29477
31694,21392,29535
31672,21364,29567
31710,21369,29401
31684,21377,29398
31572,21388,29343
31496,21411,29484
31500,21415,29423
31560,21421,29446
31613,21403,29264
31588,21389,29444
31620,21396,29391
31646,21389,29359
31673,21394,29250
31744,21383,29350
31821,21398,29150
31868,21404,29257
31948,21405,29273
32046,21404,29132
32052,21409,29190
32028,21407,29090
32121,21405,29198
32209,21404,29149
32244,21383,29203
32236,21396,29093
32260,21407,29174
32348,21430,29183
32432,21412,29145
32460,21412,29103
32492,21408,28985
32520,21420,29001
32504,21391,29156
32622,21397,29100
32708,21405,29123
32740,21394,28948
32784,21418,28989
32884,21417,28983
33042,21452,29102
33160,21417,28916
33192,21417,29109
33228,21418,29068
33264,21415,28905
33268,21390,29095
33280,21399,29033
33247,21389,28916
33232,21402,29093
33218,21420,28965
33156,21428,28917
33080,21443,29056
33020,21409,28962
33004,21415,29063
32928,21407,28901
32877,21401,28950
32768,21378,29076
32672,21393,28916
32587,21405,28981
32517,21430,29077
32513,21409,28977
32406,21416,29028
32376,21426,29093
32417,21394,28935
32424,21399,29060
32320,21383,29032
32296,21389,29124
32284,21404,29140
32160,21383,29120
32068,21399,28979
31944,21409,29132
31924,21412,29040
31874,21415,29020
31820,21383,29175
31748,21376,29167
31740,21374,29036
31862,21377,29252
32036,21386,29225
32005,21382,29123
31909,21385,29184
31788,21398,29257
31792,21403,29258
31790,21396,29216
31692,21375,29153
31680,21357,29301
31780,21352,29180
31828,21367,29401
31840,21373,29385
31900,21391,29253
31960,21370,29429
32036,21393,29365
32052,21389,29380
32012,21383,29418
32004,21376,29404
32040,21375,29553
31992,21341,29636
32032,21356,29505
32104,21351,29686
32128,21352,29612
32152,21368,29769
32208,21393,29636
32304,21364,29869
32317,21365,29865
32197,21369,29736
32185,21364,29892
32200,21337,29956
32216,21348,29908
32290,21338,29957
32368,21358,30080
32449,21366,30061
32489,21364,30160
32528,21378,30103
32605,21375,30064
32568,21349,30102
32452,21352,30317
32416,21351,30215
32456,21329,30364
32556,21338,30420
32688,21351,30396
32720,21351,30456
32676,21369,30341
32680,21380,30444
32704,21348,30556
32684,21353,30532
32660,21354,30607
32728,21322,30508
32756,21325,30567
32776,21340,30695
32804,21359,30589
32788,21378,30652
32756,21351,30596
32676,21362,30845
32744,21371,30836
32808,21342,30700
32789,21351,30915
32876,21319,30807
32936,21328,30919
32964,21341,30903
32996,21356,30946
33012,21340,30832
33012,21348,30893
32957,21362,30841
32908,21364,30983
32956,21337,30981
32941,21324,30943
32964,21328,30983
32900,21333,30930
32836,21320,31138
32796,21332,31143
32800,21353,30988
32976,21367,31270
33029,21340,31239
33036,21352,31197
32932,21344,31255
32996,21345,31184
32968,21320,31383
33004,21325,31353
33020,21342,31209
33000,21326,31442
32992,21337,31432
32960,21351,31352
32953,21365,31519
33000,21364,31535
33060,21320,31585
32976,21318,31600
32876,21311,31560
32828,21320,31636
32956,21328,31493
32928,21322,31716
32928,21333,31732
32944,21353,31649
32976,21349,31713
32928,21344,31625
32913,21337,31837
32916,21317,31681
32900,21318,31793
32900,21323,31743
32920,21304,31909
32960,21315,31892
33040,21340,31820
33104,21348,32076
33028,21331,32045
32986,21328,32106
32944,21332,31993
33000,21318,32098
33000,21325,32185
32996,21301,32204
33092,21321,32038
33102,21309,32135
33060,21335,32172
32978,21332,32268
32956,21343,32391
33012,21351,32324
33040,21313,32154
33052,21312,32398
33028,21303,32336
33064,21312,32246
33012,21324,32444
33004,21311,32372
33064,21330,32517
33077,21333,32446
33008,21345,32446
32928,21324,32356
32848,21301,32577
32816,21314,32625
32784,21303,32572
32812,21316,32572
32836,21323,32479
32832,21330,32716
32856,21337,32500
32948,21344,32775
32829,21346,32774
32772,21317,32775
32876,21319,32801
32868,21318,32709
32885,21309,32808
32816,21303,32766
32820,21303,32887
32924,21323,32917
32937,21330,32932
32896,21335,33013
32913,21337,32977
32904,21341,33031
32901,21332,32994
32932,21298,32920
32901,21289,32968
32857,21289,32838
32936,21317,33164
33072,21298,33103
32964,21310,33012
32933,21328,33036
32940,21327,33083
32964,21321,33159
32920,21328,32964
32924,21299,33260
32908,21289,33223
32900,21295,33278
32896,21304,33248
32876,21316,33268
32880,21329,33294
32908,21345,33389
32916,21313,33110
32860,21329,33328
32800,21310,33368
32768,21307,33265
32856,21277,33325
32844,21276,33191
32768,21288,33452
32720,21301,33220
32788,21314,33528
32868,21328,33473
32820,21336,33324
32740,21328,33527
33000,21295,33555
32904,21287,33573
33008,21294,33487
33090,21293,33612
33013,21312,33572
33064,21277,33632
33164,21305,33616
33121,21305,33577
33125,21309,33517
33132,21314,33756
33152,21309,33713
33204,21311,33640
33256,21274,33850
33166,21280,33764
33092,21294,33825
33145,21284,33735
33112,21298,33904
33076,21306,33880
33084,21310,33671
33060,21324,33996
33104,21292,33823
33096,21284,33958
33080,21287,33888
33072,21291,34020
33069,21309,33988
33056,21281,33808
33044,21295,34137
33012,21308,34077
33016,21306,34052
33077,21316,34083
33120,21287,34132
33148,21293,33999
33124,21293,34230
33112,21268,34076
33089,21278,34207
33060,21305,34035
32988,21287,34281
32864,21293,34196
32804,21298,34148
32825,21294,34249
32884,21313,34300
32956,21274,34260
32996,21269,34253
32968,21300,34322
32996,21273,34234
33096,21293,34400
33068,21316,34224
33000,21295,34356
32900,21306,34360
32832,21297,34295
32804,21304,34285
32828,21276,34468
32924,21277,34382
32976,21277,34311
32972,21284,34421
32992,21294,34458
33080,21322,34319
33076,21295,34440
33016,21299,34535
32952,21301,34476
32964,21291,34450
33012,21294,34396
33032,21295,34384
33016,21264,34371
32964,21269,34264
32988,21291,34581
33020,21304,34517
32936,21317,34605
32964,21296,34503
33012,21289,34439
33052,21292,34607
32924,21285,34553
32856,21285,34623
32814,21281,34564
32840,21269,34609
32876,21277,34311
32900,21318,34466
32936,21290,34390
32988,21295,34695
33048,21308,34588
33032,21293,34503
33020,21287,34564
33032,21281,34551
33060,21281,34580
33008,21285,34541
32984,21300,34698
33000,21280,34653
33028,21292,34621
33028,21295,34548
33028,21292,34429
33068,21284,34784
33156,21297,34654
33132,21260,34585
33132,21256,34620
33128,21262,34481
33160,21271,34753
33196,21289,34756
33196,21297,34661
33132,21301,34675
33092,21305,34525
33128,21295,34877
33216,21283,34562
33260,21281,34896
33204,21284,34812
33168,21285,34887
33132,21303,34813
33036,21283,34916
32972,21303,34850
33000,21295,34904
33008,21301,34841
33024,21298,34823
33080,21301,34837
33085,21254,34906
33068,21253,34880
33080,21257,34924
33048,21280,34892
33072,21284,34880
33148,21288,34929
33140,21298,34860
33112,21309,34900
33032,21274,34703
33036,21263,35052
33024,21257,34966
33032,21252,34993
33081,21274,34868
33016,21279,34999
32957,21303,35039
33012,21280,34887
33016,21287,35028
33032,21281,35101
33024,21284,35009
33024,21271,34796
32988,21262,35152
32924,21273,35044
32952,21277,34957
32964,21287,35100
32940,21269,35101
32858,21287,34932
32820,21300,35180
32916,21300,35124
32948,21271,35157
32992,21269,35060
33088,21263,35052
33092,21264,35119
33028,21279,35046
33048,21260,35275
33032,21284,35156
32793,21287,34951
32764,21304,35301
32625,21277,35212
32380,21275,35143
32260,21285,35322
32228,21255,35232
32372,21251,35266
32848,21276,35172
33444,21264,35159
34220,21280,35042
35224,21310,35372
36444,21289,35248
38028,21294,35035
39924,21303,35364
41828,21257,35204
43744,21266,35314
45916,21271,35212
47708,21312,35300
48989,21258,35293
50024,21304,35175
50636,21310,35396
49664,21365,35270
47272,21279,35052
44500,21285,35396
42116,21294,35302
40032,21271,35342
37792,21282,35254
35844,21253,35071
34685,21258,35353
34104,21279,35199
33820,21285,35164
33524,21295,35396
33008,21268,35264
32624,21269,35095
32416,21259,35375
32256,21261,35300
31956,21267,35292
31564,21238,35317
31340,21252,35213
31220,21262,35458
31096,21275,35311
30956,21284,35133
30777,21261,35453
30716,21254,35364
30580,21247,35303
30480,21255,35380
30324,21233,35335
30188,21239,35356
30109,21244,35316
30076,21255,35237
30082,21279,35209
30004,21276,35289
30024,21279,35332
30092,21260,35289
30133,21260,35324
30140,21247,35272
30164,21248,35144
30216,21235,35355
30252,21247,35042
30278,21255,35248
30276,21265,35060
30373,21268,35296
30360,21279,35304
30356,21265,35404
30400,21262,35301
30476,21234,35335
30576,21260,35301
30616,21239,35397
30676,21244,35308
30653,21253,35402
30620,21270,35325
30664,21283,35296
30673,21259,35236
30784,21255,35335
30820,21258,35457
30808,21235,35377
30831,21250,35412
30884,21236,35332
30964,21253,35229
31001,21260,35345
30972,21276,35397
30912,21286,35404
30888,21264,35265
30929,21255,35117
30996,21242,35471
31040,21253,35212
30960,21243,35407
30916,21255,35240
30912,21260,35244
30886,21287,35335
30952,21261,35317
31022,21268,35330
31129,21266,35212
31237,21262,35182
31284,21252,35223
31333,21249,35287
31342,21246,35312
31356,21254,35220
31352,21245,35012
31364,21251,35312
31374,21268,35166
31380,21271,35157
31384,21269,35157
31344,21264,35055
31272,21257,35272
31308,21252,35152
31316,21253,35225
31288,21257,35105
31308,21245,35004
31345,21252,35145
31428,21266,35100
31408,21280,35089
31332,21271,35005
31365,21258,35040
31348,21241,35101
31300,21231,35030
31312,21248,34937
31376,21249,34896
31420,21260,34929
31412,21268,34951
31452,21273,34916
31460,21278,34834
31456,21284,34940
31420,21279,34901
31440,21247,34773
31440,21242,34693
31460,21236,34965
31456,21252,34823
31412,21252,34741
31328,21268,34933
31200,21278,34804
31232,21287,34708
31327,21285,34652
31396,21285,34517
31464,21244,34849
31448,21238,34736
31436,21241,34714
31430,21255,34668
31444,21261,34664
31448,21285,34431
31480,21271,34676
31452,21287,34632
31400,21269,34501
31412,21271,34695
31544,21270,34532
31624,21244,34633
31720,21243,34608
31790,21249,34575
31841,21253,34522
31917,21277,34566
31960,21289,34609
31996,21301,34521
32137,21307,34572
32153,21271,34604
32096,21269,34391
32156,21262,34649
32288,21276,34584
32520,21276,34522
32580,21277,34564
32606,21278,34523
32716,21288,34513
32864,21307,34631
33013,21309,34708
33088,21303,34607
33192,21295,34529
33285,21284,34588
33420,21268,34548
33416,21272,34603
33436,21285,34612
33524,21271,34817
33620,21279,34731
33668,21286,34652
33648,21288,34761
33636,21280,34796
33672,21276,34733
33672,21273,34741
33648,21272,34587
33560,21277,34793
33484,21280,34623
33360,21295,34925
33364,21293,34812
33268,21303,34836
33256,21290,34869
33260,21285,34949
33189,21271,34965
33124,21263,35008
33080,21271,34948
32960,21281,34982
32924,21252,34994
32856,21254,35153
32764,21268,35121
32698,21284,35083
32645,21276,35094
32669,21271,35191
32704,21261,35293
32712,21253,35237
32714,21262,35188
32652,21255,35234
32574,21255,35344
32544,21254,35308
32497,21268,35400
32570,21268,35324
32688,21261,35309
32644,21269,35239
32604,21255,35297
32580,21253,35392
32628,21249,35388
32672,21218,35525
32749,21225,35421
32744,21266,35496
32704,21270,35444
32869,21283,35441
32788,21239,35449
32848,21231,35492
32833,21226,35505
32817,21217,35368
32808,21221,35629
32804,21233,35564
32756,21253,35503
32580,21228,35688
32468,21234,35636
32529,21244,35648
32664,21240,35575
32776,21240,35410
32852,21216,35716
32924,21209,35652
32956,21209,35748
33005,21223,35662
32960,21209,35737
32964,21228,35784
32948,21249,35707
32940,21233,35786
32900,21228,35569
32919,21226,35836
32933,21223,35574
32972,21204,35959
32981,21204,35668
32960,21210,35977
32964,21217,35888
32980,21239,35837
33024,21249,35792
33064,21252,35836
33108,21246,35870
33148,21217,35963
33158,21203,35988
33229,21192,35940
33164,21189,35876
33156,21199,35906
33196,21212,35726
33220,21227,36061
33229,21239,35974
33172,21221,35730
33121,21220,36093
33136,21230,36016
33128,21204,35939
33173,21216,36135
33149,21189,35940
33104,21199,36056
33060,21215,36015
33068,21200,35938
33072,21212,36058
33128,21220,36139
33150,21215,36077
33189,21216,36156
33120,21204,36061
33120,21199,35992
33208,21203,36036
33330,21208,36090
33348,21216,36102
33292,21223,35969
33258,21232,35991
33224,21238,35961
33208,21229,36119
33220,21216,36089
33328,21217,36072
33388,21181,36138
33396,21178,36183
33404,21184,36143
33384,21207,36202
33368,21209,36140
33302,21228,36102
33276,21209,36103
33260,21204,36161
33328,21213,36060
33388,21200,36212
33408,21202,36128
33406,21174,35884
33412,21191,36262
33509,21198,36160
33504,21214,36084
33460,21199,36073
33440,21203,36040
33416,21204,36290
33456,21211,36182
33496,21189,36205
33525,21212,36228
33526,21173,36204
33516,21175,36325
33460,21190,36224
33396,21203,36296
33348,21228,36204
33328,21198,36148
33396,21199,36231
33360,21199,36191
33276,21195,36196
33276,21181,36172
33296,21179,36250
33357,21187,36357
33336,21180,36095
33380,21188,36140
33416,21193,36234
33421,21198,36277
33390,21197,36392
33332,21186,36084
33257,21180,36180
33300,21161,36244
33344,21165,36300
33344,21166,36357
33268,21174,36316
33344,21181,36432
33236,21191,36308
33152,21193,36388
33216,21191,36062
33296,21182,36289
33336,21176,36263
33314,21167,36281
33268,21159,36420
33214,21179,36334
33176,21177,36377
33200,21190,36372
33244,21220,36300
33278,21189,36340
33108,21204,36300
33116,21191,36280
33152,21188,36114
33177,21186,36481
33216,21188,36377
33200,21191,36390
33136,21171,36368
33076,21173,36297
33086,21188,36325
33126,21194,36273
33152,21182,36479
33098,21184,36434
33041,21186,36353
33048,21172,36302
33076,21168,36193
33072,21179,36548
33060,21191,36431
33040,21170,36184
32986,21209,36468
32980,21224,36460
33052,21181,36473
33096,21176,36380
33212,21174,36479
33216,21172,36465
33216,21163,36349
33206,21170,36205
33212,21184,36583
33204,21193,36485
33232,21181,36388
33236,21192,36596
33176,21193,36489
33160,21183,36512
33193,21182,36359
33136,21177,36492
33108,21151,36520
33121,21154,36413
33117,21174,36525
33132,21177,36494
33208,21188,36477
33144,21204,36518
33116,21177,36406
33012,21172,36628
33092,21164,36524
33124,21164,36431
33128,21172,36605
33144,21148,36399
33160,21157,36544
33194,21165,36487
33152,21182,36405
33172,21187,36548
33164,21188,36553
33168,21194,36620
33080,21157,36554
33124,21147,36485
33160,21148,36633
33124,21164,36487
33080,21188,36588
32992,21161,36452
33001,21189,36673
32968,21190,36593
33000,21201,36513
33044,21166,36676
33044,21160,36606
33121,21156,36359
33133,21169,36577
33140,21145,36581
33112,21160,36631
33076,21181,36359
33045,21168,36692
33044,21183,36511
33076,21184,36366
33060,21184,36726
33080,21186,36609
33088,21143,36577
33120,21140,36608
