ECG,EDA,RR
31656,40857,31799
31756,40882,31790
31800,40928,31803
31780,40918,31799
31776,40884,31806
31764,40833,31799
31772,40815,31768
31758,40805,31772
31812,40813,31817
31888,40846,31844
31936,40896,31821
31968,40943,31786
32000,40956,31772
31940,40953,31819
31912,40920,31839
31879,40869,31836
31848,40831,31841
31848,40796,31831
31848,40804,31815
31916,40839,31797
31953,40887,31767
31976,40938,31783
32014,40964,31776
32022,40940,31770
32028,40917,31765
31968,40841,31748
31928,40801,31764
31928,40807,31809
31968,40804,31763
32020,40852,31764
32100,40896,31751
32154,40901,31735
32145,40961,31733
32132,40952,31796
32068,40918,31788
32048,40876,31791
32044,40828,31801
32042,40813,31789
32084,40820,31768
32140,40860,31708
32192,40903,31721
32236,40957,31744
32260,40948,31751
32260,40936,31751
32272,40916,31745
32236,40874,31748
32240,40852,31743
32244,40831,31764
32249,40831,31761
32321,40829,31784
32416,40876,31828
32456,40944,31844
32456,40989,31847
32452,40975,31788
32436,40948,31804
32373,40895,31814
32376,40853,31822
32368,40823,31833
32408,40833,31841
32448,40877,31834
32488,40924,31824
32488,40967,31831
32488,41004,31844
32520,40988,31909
32526,40917,31909
32516,40903,31882
32484,40861,31886
32440,40847,31872
32456,40839,31948
32528,40881,31908
32564,40932,31926
32613,40981,31938
32612,40999,31926
32652,41007,31925
32642,40959,31959
32604,40921,32000
32620,40879,31993
32712,40820,32002
32757,40855,31982
32804,40877,31969
32882,40932,31988
32852,40983,31993
32824,41006,31983
32784,41015,31977
32776,40967,32020
32760,40920,32053
32752,40876,32047
32784,40855,32007
32808,40854,32019
32852,40900,32007
32833,40946,32015
32762,40981,32052
32718,41036,32081
32665,41009,32064
32556,40967,32037
32460,40882,32044
32372,40885,32068
32388,40858,32062
32432,40863,32062
32506,40896,32063
32569,40949,32063
32588,40992,32154
32688,41014,32159
32720,41015,32149
32772,40967,32173
32784,40919,32165
32792,40847,32164
32828,40848,32156
32888,40863,32161
32960,40886,32165
33008,40919,32185
32993,40976,32217
33000,41005,32228
32936,40999,32247
32836,40964,32244
32740,40920,32244
32704,40873,32239
32724,40832,32310
32740,40839,32336
32778,40881,32340
32817,40951,32324
32792,40967,32350
32799,40999,32356
32780,40994,32372
32768,40959,32399
32772,40908,32388
32764,40869,32450
32784,40839,32429
32812,40847,32457
32848,40879,32460
32940,40933,32484
32970,40967,32492
32977,41005,32516
32950,40999,32527
32892,40959,32522
32856,40920,32541
32768,40828,32548
32788,40839,32564
32788,40805,32576
32854,40855,32583
32916,40923,32588
32977,40967,32602
33014,40967,32616
33024,40950,32635
33024,40955,32635
32972,40903,32651
32952,40857,32660
32952,40836,32703
33004,40839,32699
33033,40879,32704
33040,40924,32711
32968,40967,32726
32905,40999,32733
32864,40994,32743
32960,40956,32749
33161,40912,32767
33436,40869,32791
33988,40793,32813
34812,40827,32820
35868,40863,32828
36936,40904,32835
37805,40959,32843
38280,40997,32847
38808,40991,32851
39108,40957,32868
39357,40908,32895
39540,40872,32903
40180,40852,32912
41952,40865,32919
44496,40884,32918
45564,40942,32928
44524,41001,32956
41807,41048,32962
37469,41068,32965
32012,41068,33000
26672,41044,32999
23062,41015,33040
21490,40961,33052
21812,40967,33063
23204,40996,33103
25076,41027,33124
26976,41044,33142
28540,41060,33158
29780,41093,33159
30740,41043,33172
31380,40988,33188
31828,40912,33219
32156,40932,33229
32448,40935,33261
32647,40967,33292
32804,41007,33329
32988,41053,33346
33084,41077,33309
33141,41079,33365
33092,41032,33391
33120,40988,33415
33132,40932,33437
33160,40917,33453
33193,40926,33464
33304,40955,33481
33420,41004,33527
33481,41044,33540
33518,41070,33565
33537,41061,33575
33528,41028,33597
33468,40967,33596
33452,40925,33612
33444,40914,33620
33484,40912,33647
33564,40959,33670
33644,41004,33677
33710,41045,33692
33712,41031,33700
33764,41052,33724
33772,41031,33726
33752,40967,33727
33780,40925,33733
33800,40912,33740
33808,40914,33745
33864,40935,33767
33917,40994,33788
33952,41042,33799
33913,41069,33812
33868,41057,33824
33828,41027,33831
33784,40961,33816
33788,40920,33851
33858,40888,33852
33908,40898,33860
34008,40940,33869
34068,40989,33901
34024,41013,33909
34030,41022,33927
34020,41031,33940
34017,41006,33951
33976,40959,33949
33976,40911,33966
34004,40888,33990
34096,40901,33974
34184,40897,33993
34244,40980,34029
34348,41020,34028
34420,41053,34032
34496,41043,34041
34549,41007,34039
34604,40940,34044
34612,40900,34055
34676,40882,34064
34768,40890,34065
34876,40903,34055
35008,40933,34055
35144,40991,34069
35192,41029,34085
35280,41035,34092
35308,40996,34092
35380,40944,34100
35469,40901,34108
35576,40849,34095
35760,40860,34100
35989,40909,34101
36176,40961,34104
36340,40983,34136
36488,41039,34140
36592,41031,34136
36676,40981,34160
36744,40943,34164
36836,40895,34183
36932,40865,34199
37024,40887,34201
37160,40918,34213
37308,40980,34220
37438,41009,34210
37517,41037,34244
37580,41031,34257
37608,40996,34260
37620,40948,34270
37640,40907,34263
37653,40890,34265
37684,40893,34284
37700,40940,34281
37732,40991,34310
37712,41038,34329
37632,41062,34341
37528,41053,34300
37356,41006,34352
37204,40967,34353
37012,40927,34367
36772,40918,34378
36552,40927,34372
36308,40933,34390
36044,41015,34397
35748,41060,34407
35360,41084,34417
34973,41090,34420
34580,41053,34433
34173,41008,34432
33768,40959,34438
33397,40937,34436
33056,40942,34439
32756,40988,34446
32512,41038,34444
32232,41085,34450
31986,41105,34455
31780,41095,34456
31520,41076,34468
31252,41025,34471
31020,40991,34477
30856,40964,34463
30776,40933,34464
30695,40948,34485
30610,41009,34485
30528,41076,34493
30434,41095,34511
30420,41106,34517
30316,41061,34525
30232,41019,34524
30164,40988,34534
30132,40943,34533
30172,40959,34529
30232,40987,34548
30296,41028,34553
30298,41082,34564
30268,41105,34564
30244,41095,34566
30256,41060,34583
30220,41002,34553
30188,40967,34561
30216,40928,34591
30268,40944,34593
30312,40983,34597
30368,41031,34613
30408,41033,34620
30396,41063,34619
30392,41080,34629
30368,41049,34630
30377,40999,34644
30404,40948,34652
30396,40931,34644
30412,40937,34663
30510,40967,34673
30610,41031,34681
30756,41065,34684
30816,41071,34695
30824,41077,34701
30826,41039,34709
30820,40996,34716
30804,40940,34703
30832,40906,34711
30916,40935,34705
30948,40966,34719
31044,41012,34724
31078,41059,34748
31116,41071,34769
31108,41023,34773
31096,41016,34796
31048,40967,34799
31048,40929,34812
31090,40912,34813
31072,40909,34823
31104,40928,34804
31160,40996,34823
31192,41044,34860
31249,41061,34872
31290,41053,34879
31244,40967,34872
31264,40957,34881
31276,40914,34897
31320,40900,34898
31364,40911,34876
31408,40930,34884
31460,40997,34884
31460,41030,34888
31468,41060,34900
31440,41036,34916
31424,40996,34943
31364,40955,34930
31313,40912,34940
31312,40895,34946
31356,40849,34936
31400,40934,34935
31476,40967,34957
31536,41031,34897
31608,41042,34940
31604,41025,34941
31524,40994,34957
31444,40956,34950
31460,40903,34989
31449,40877,34993
31484,40884,35001
31556,40927,34973
31680,40967,34985
31772,41019,35016
31840,41034,35042
31833,41026,35034
31745,40999,35037
31712,40953,35041
31696,40852,35057
31738,40871,35066
31784,40879,35076
31844,40917,35055
31866,40964,35052
31885,41007,35100
31928,41025,35108
31932,41041,35113
31885,40991,35118
31792,40940,35124
31768,40893,35128
31824,40878,35142
31884,40839,35156
31974,40903,35156
32100,40952,35162
32108,41006,35165
32129,41031,35173
32064,41028,35181
32048,40981,35183
32057,40945,35191
32084,40855,35204
32108,40879,35172
32152,40885,35180
32184,40923,35229
32236,40964,35233
32201,40997,35237
32204,41033,35240
32220,41021,35252
32196,40999,35217
32144,40940,35229
32080,40901,35220
32076,40885,35240
32096,40882,35276
32116,40916,35301
32164,40967,35305
32184,41015,35311
32174,41042,35326
32169,41035,35335
32129,40999,35364
32108,40945,35364
32112,40902,35356
32201,40877,35321
32214,40886,35364
32228,40926,35406
32292,40967,35396
32320,41021,35412
32304,41020,35428
32312,41031,35440
32269,40982,35453
32232,40948,35457
32208,40907,35428
32224,40887,35411
32288,40881,35479
32344,40917,35492
32408,40966,35463
32460,41015,35471
32504,41036,35510
32528,41020,35486
32544,40988,35516
32549,40951,35551
32541,40901,35537
32532,40849,35537
32508,40885,35520
32532,40925,35564
32552,40961,35569
32536,41014,35579
32536,41028,35544
32524,41028,35550
32541,40988,35602
32540,40911,35540
32556,40894,35552
32540,40868,35572
32556,40887,35618
32612,40925,35628
32646,40967,35628
32628,41020,35629
32636,41036,35644
32600,41028,35650
32568,40999,35653
32504,40936,35653
32496,40884,35660
32485,40860,35662
32472,40871,35673
32468,40915,35647
32508,40953,35654
32504,40998,35684
32484,41018,35684
32476,41006,35686
32448,40967,35681
32418,40929,35679
32408,40885,35676
32436,40860,35685
32420,40864,35687
32360,40865,35704
32440,40940,35661
32532,40991,35656
32556,41005,35661
32588,41007,35660
32664,40967,35712
32648,40924,35720
32632,40837,35738
32656,40839,35732
32770,40852,35740
32852,40885,35743
32881,40932,35745
32868,40967,35741
32879,40997,35719
32856,40983,35711
32824,40953,35695
32752,40908,35703
32696,40861,35700
32660,40838,35730
32692,40839,35768
32768,40878,35775
32852,40917,35783
32892,40967,35796
32921,40995,35785
32884,40967,35772
32844,40945,35732
32792,40893,35735
32774,40855,35751
32740,40831,35759
32736,40837,35809
32832,40868,35796
33000,40911,35789
33056,40965,35735
33084,40983,35799
33060,40967,35793
32996,40940,35780
32960,40895,35764
32956,40845,35776
32948,40821,35749
32928,40831,35743
32940,40865,35736
32997,40917,35742
33072,40914,35725
33056,40967,35753
33072,40960,35793
33013,40943,35781
32976,40847,35776
32988,40839,35777
32993,40821,35774
32956,40824,35781
32924,40861,35781
32944,40896,35772
32985,40956,35697
33144,40977,35724
33316,40967,35743
33532,40937,35775
33972,40877,35748
34620,40838,35732
35468,40823,35724
36464,40817,35729
37288,40844,35735
37700,40903,35719
38132,40951,35700
38604,40975,35702
39012,40967,35703
39248,40935,35655
39780,40900,35640
41412,40837,35639
43244,40823,35628
43792,40830,35653
42792,40868,35660
40220,40949,35636
36164,41031,35630
31112,41069,35624
26320,41084,35624
23364,41060,35624
22272,41007,35591
22740,40884,35566
23960,40873,35609
25494,40917,35553
27134,40951,35593
28676,40982,35585
30000,41029,35584
30952,41039,35588
31526,41029,35588
31881,40993,35583
32111,40940,35565
32264,40900,35557
32412,40879,35556
32617,40833,35561
32860,40908,35557
33070,40949,35564
33168,41001,35556
33200,41031,35516
33190,40998,35524
33136,40950,35516
33108,40904,35556
33085,40876,35505
33080,40839,35490
33092,40871,35485
33184,40892,35505
33248,40909,35480
33248,40983,35503
33252,41007,35468
33268,40993,35473
33256,40952,35476
33236,40917,35463
33196,40870,35463
33264,40839,35463
33308,40863,35424
33384,40877,35421
33416,40892,35372
33457,40967,35396
33456,40991,35396
33456,40981,35401
33484,40932,35380
33480,40879,35335
33488,40845,35343
33548,40820,35329
33576,40804,35324
33604,40852,35316
33660,40900,35311
33720,40948,35312
33792,40967,35300
33761,40959,35297
33748,40895,35277
33692,40879,35279
33688,40831,35270
33732,40812,35303
33748,40807,35277
33799,40853,35286
33824,40890,35311
33846,40941,35303
33886,40960,35288
33892,40948,35292
33924,40908,35311
33944,40837,35298
33968,40793,35288
34020,40791,35287
34104,40790,35295
34196,40839,35292
34302,40879,35272
34400,40927,35266
34488,40945,35260
34552,40924,35248
34540,40892,35237
34548,40862,35223
34580,40804,35216
34624,40791,35215
34700,40792,35199
34832,40837,35201
34952,40879,35185
35084,40909,35173
35204,40935,35159
35278,40926,35151
35352,40887,35132
35430,40839,35084
35484,40807,35063
35612,40783,35044
35757,40787,35038
35908,40823,35020
36060,40869,35016
36184,40923,34989
36312,40934,34993
36440,40895,34977
36508,40868,34993
36564,40839,34948
36676,40785,34923
36784,40764,34894
36904,40782,34897
37052,40820,34885
37183,40868,34877
37328,40893,34861
37444,40937,34857
37472,40932,34823
37424,40903,34800
37412,40846,34775
37392,40813,34745
37412,40797,34719
37404,40804,34708
37384,40807,34655
37372,40893,34618
37333,40937,34626
37228,40964,34604
37024,40957,34578
36808,40900,34545
36569,40865,34524
36268,40831,34493
35937,40817,34461
35652,40823,34415
35340,40863,34382
35020,40920,34378
34676,40967,34369
34300,40987,34341
33911,40980,34308
33536,40943,34276
33152,40900,34248
32796,40857,34229
32525,40838,34181
32252,40855,34151
31992,40871,34156
31784,40935,34124
31576,40967,34104
31372,40999,34084
31136,40944,34055
30896,40961,34001
30672,40900,33996
30488,40863,33981
30328,40839,33969
30220,40844,33945
30140,40847,33924
30128,40917,33908
30109,40967,33889
30028,40988,33871
29961,40981,33849
29892,40948,33820
29840,40900,33796
29808,40839,33799
29796,40831,33772
29808,40836,33759
29824,40861,33736
29861,40892,33716
29892,40948,33701
29888,40967,33684
29852,40961,33660
29864,40911,33660
29869,40878,33645
29852,40832,33636
29896,40815,33620
29948,40800,33593
29998,40852,33580
30052,40902,33552
30132,40943,33538
30180,40967,33537
30192,40951,33527
30138,40918,33504
30100,40861,33500
30076,40822,33480
30100,40796,33471
30124,40804,33447
30233,40837,33428
30309,40871,33415
30361,40921,33405
30388,40948,33388
30368,40931,33365
30356,40892,33346
30312,40844,33335
30292,40804,33311
30310,40775,33296
30368,40787,33282
30432,40774,33263
30490,40853,33245
30528,40912,33234
30542,40922,33228
30568,40913,33222
30564,40839,33192
30580,40831,33178
30565,40791,33159
30561,40775,33149
30628,40775,33132
30716,40812,33118
30816,40861,33095
30820,40892,33076
30821,40923,33069
30840,40877,33043
30812,40868,33024
30800,40822,32994
30780,40785,32976
30793,40757,32932
30820,40769,32950
30840,40804,32935
30937,40828,32899
31004,40879,32871
31032,40911,32846
30992,40895,32820
30986,40876,32796
31004,40820,32760
31005,40767,32745
31022,40703,32745
31084,40761,32700
31137,40792,32677
31204,40844,32652
31208,40881,32621
31248,40907,32590
31248,40900,32560
31317,40871,32582
31248,40812,32560
31244,40773,32508
31268,40710,32497
31296,40750,32476
31392,40796,32455
31478,40823,32429
31504,40885,32396
31536,40914,32391
31512,40897,32398
31474,40823,32375
31416,40807,32368
31380,40765,32332
31418,40741,32286
31460,40756,32284
31513,40791,32250
31616,40839,32208
31648,40885,32238
31648,40917,32221
31608,40909,32210
31605,40868,32188
31584,40818,32158
31548,40772,32103
31588,40775,32072
31650,40764,32060
31692,40805,32050
31772,40839,32013
31837,40853,31985
31848,40885,31957
31862,40900,31961
31805,40868,31983
31788,40828,31963
31764,40783,31901
31780,40759,31908
31816,40772,31876
31849,40804,31874
31920,40852,31868
31964,40871,31824
31940,40917,31760
31940,40917,31748
31932,40876,31751
31892,40816,31742
31838,40775,31724
31830,40760,31674
31872,40773,31638
31878,40804,31663
31920,40852,31655
31952,40900,31605
31968,40919,31591
31932,40920,31545
31873,40879,31545
31836,40797,31581
31808,40772,31572
31852,40759,31520
31884,40773,31502
31884,40805,31461
31934,40869,31440
31976,40909,31422
31976,40931,31420
31936,40916,31372
31894,40892,31445
31828,40815,31356
31828,40796,31365
31837,40762,31340
31896,40781,31306
31973,40816,31329
32030,40868,31364
32076,40879,31334
32100,40927,31279
32140,40925,31250
32148,40906,31259
32112,40839,31228
32088,40805,31206
32105,40756,31280
32132,40783,31210
32164,40820,31201
32212,40864,31177
32256,40871,31166
32260,40930,31223
32256,40925,31201
32232,40884,31172
32216,40839,31119
32220,40788,31111
32248,40732,31117
32244,40775,31106
32253,40807,31073
32228,40856,31055
32192,40909,31145
32224,40884,31049
32216,40911,31072
32176,40877,31042
32140,40836,31015
32056,40791,31064
31980,40765,31068
32022,40773,31007
32124,40807,31028
32204,40853,31042
32129,40911,31004
32076,40895,30976
31990,40914,30932
31928,40884,31036
31912,40836,30963
31912,40780,30964
31924,40759,30916
32004,40775,31015
32024,40813,31004
32044,40857,30919
32111,40900,30911
32164,40927,30907
32208,40919,30884
32284,40881,30887
32288,40831,30900
32240,40795,30869
32272,40756,30863
32317,40764,30855
32352,40812,30877
32404,40829,30943
32440,40900,30905
32444,40937,30857
32452,40927,30845
32416,40852,30875
32352,40839,30885
32336,40791,30831
32358,40726,30820
32356,40774,30900
32376,40813,30853
32448,40852,30813
32512,40901,30836
32528,40927,30808
32510,40924,30780
32488,40881,30833
32452,40839,30874
32408,40777,30805
32436,40773,30788
32472,40780,30806
32502,40773,30760
32560,40859,30756
32620,40912,30758
32648,40926,30777
32628,40935,30825
32624,40895,30817
32572,40848,30829
32524,40801,30770
32544,40782,30767
32576,40756,30812
32644,40829,30752
32726,40879,30733
32784,40927,30738
32788,40942,30698
32800,40900,30740
32784,40903,30784
32752,40853,30758
32724,40815,30684
32756,40757,30714
32774,40796,30703
32740,40839,30695
32744,40887,30676
32833,40934,30669
33040,40949,30652
33232,40946,30644
33509,40916,30716
34084,40868,30744
34880,40812,30727
35940,40788,30677
36924,40804,30635
37657,40833,30637
38180,40874,30647
38732,40935,30621
38980,40965,30649
39172,40965,30683
39556,40929,30684
40612,40880,30693
42909,40820,30657
45192,40789,30592
45449,40812,30608
43596,40868,30604
40176,40944,30617
35208,41032,30616
29460,41087,30608
24732,41088,30612
21940,41065,30578
21149,41027,30552
21956,40961,30578
23592,40868,30639
25449,40927,30663
27148,40957,30573
28588,40989,30573
29736,40999,30594
30609,41046,30582
31204,41050,30565
31641,41001,30629
31908,40942,30663
32105,40916,30588
32244,40887,30584
32389,40889,30590
32520,40927,30590
32648,40967,30588
32737,41012,30580
32824,41039,30596
32856,41039,30596
32816,40997,30592
32797,40938,30588
32820,40884,30573
32836,40856,30540
32928,40871,30548
33012,40893,30527
33132,40958,30508
33208,40999,30504
33220,41021,30495
33212,41023,30572
33168,40957,30575
33136,40918,30588
33133,40879,30572
33129,40844,30579
33188,40861,30569
33248,40889,30540
33360,40942,30531
33444,40990,30556
33520,41012,30532
33521,41000,30455
33517,40932,30438
33480,40918,30436
33431,40868,30441
33496,40840,30447
33518,40855,30453
33560,40895,30456
33600,40944,30456
33664,40983,30457
33668,40967,30447
33692,41007,30404
33661,40967,30432
33626,40916,30503
33600,40878,30525
33632,40839,30492
33692,40823,30432
33752,40868,30462
33836,40932,30444
33912,40989,30440
33972,41004,30444
33984,40996,30459
33944,40967,30447
33936,40912,30460
33940,40879,30449
33992,40852,30471
34064,40868,30487
34196,40903,30456
34360,40942,30444
34464,40981,30459
34480,41012,30471
34504,40967,30460
34540,40964,30433
34580,40916,30412
34652,40879,30481
34740,40832,30497
34842,40853,30508
35016,40900,30488
35144,40948,30443
35244,40985,30392
35352,41014,30374
35448,41013,30372
35532,40967,30376
35604,40919,30408
35648,40868,30361
35740,40868,30425
35884,40887,30426
36037,40919,30374
36200,40957,30330
36372,41007,30351
36508,41028,30374
36596,41028,30372
36660,40993,30372
36748,40956,30390
36848,40909,30385
36960,40879,30440
37056,40911,30481
37204,40936,30432
37336,40960,30396
37436,41022,30421
37496,41059,30428
37532,41052,30390
37504,41023,30422
37465,40965,30400
37408,40927,30418
37369,40918,30413
37380,40891,30510
37424,40933,30484
37436,40996,30485
37392,41062,30532
37278,41078,30540
37108,41079,30540
36860,41052,30449
36600,40999,30503
36284,40960,30511
35908,40948,30471
35576,40950,30474
35248,41014,30481
34916,41052,30559
34528,41095,30491
34120,41113,30525
33704,41125,30620
33300,41079,30583
32916,41036,30529
32545,40998,30559
32242,40977,30571
31972,40989,30573
31740,41019,30583
31552,41071,30545
31336,41122,30540
31108,41146,30549
30910,41137,30619
30696,41092,30628
30488,41027,30684
30316,40992,30692
30220,40991,30687
30160,40989,30681
30137,41030,30667
30160,41079,30657
30092,41121,30649
30028,41149,30708
29948,41141,30713
29878,41095,30724
29834,41026,30684
29804,41003,30660
29752,40980,30681
29748,40999,30687
29817,40996,30734
29861,41071,30781
29916,41109,30786
29980,41129,30808
29976,41127,30766
29956,41089,30732
29920,41002,30760
29928,40998,30774
29982,40964,30780
30061,40994,30768
30108,41012,30764
30168,41063,30816
30192,41105,30890
30240,41135,30907
30266,41071,30899
30228,41072,30924
30208,41026,30893
30204,40983,30831
30224,40957,30849
30272,40967,30849
30344,41001,30884
30416,41055,30925
30461,41095,30980
30500,41119,30983
30525,41113,31004
30504,41071,31002
30504,40977,31015
30514,40980,31033
30542,40967,31012
30564,40964,30965
30608,41001,30975
30684,41049,30961
30764,41087,31057
30772,41119,31081
30800,41115,31069
30820,41073,31060
30828,40967,31050
30844,40940,31105
30828,40940,31109
30828,40960,31111
30888,41004,31079
30960,41045,31131
31032,41095,31153
31096,41119,31109
31112,41108,31105
31132,41068,31095
31132,41031,31084
31109,40932,31140
31104,40957,31150
31154,40960,31160
31196,40999,31103
31272,41055,31101
31300,41103,31100
31384,41119,31117
31404,41084,31132
31428,41078,31209
31404,41029,31225
31382,40987,31195
31381,40965,31156
31428,40935,31135
31488,41015,31161
31591,41052,31161
31632,41092,31162
31676,41128,31239
31689,41082,31223
31648,41053,31144
31620,41047,31165
31636,40998,31188
31656,40967,31193
31720,40977,31209
31792,41030,31212
31862,41077,31205
31884,41121,31220
31904,41151,31230
31880,41141,31221
31838,41095,31205
31848,41061,31236
31812,40985,31281
31788,40989,31248
31833,40996,31285
31885,41042,31265
31905,41093,31239
31937,41136,31239
31960,41159,31260
31956,41157,31262
31948,41108,31261
31934,41061,31239
31912,41031,31237
31932,41000,31343
31956,41031,31318
31996,41052,31341
32064,41108,31343
32092,41149,31340
32120,41174,31310
32109,41149,31304
32060,41116,31276
32066,41071,31293
32073,41039,31343
32072,41009,31332
32065,41021,31335
32108,41063,31345
32192,41117,31341
32241,41159,31340
32245,41178,31366
32236,41175,31376
32244,41140,31380
32176,41093,31366
32156,41053,31333
32188,41016,31305
32228,40981,31327
32264,41063,31358
32348,41125,31367
32412,41163,31404
32392,41182,31394
32332,41172,31392
32288,41141,31391
32328,41095,31351
32312,41044,31383
32324,41028,31399
32366,41039,31429
32448,41077,31439
32516,41081,31399
32540,41160,31380
32548,41181,31419
32520,41188,31410
32500,41144,31393
32416,41095,31501
32392,41071,31455
32372,41031,31471
32448,41044,31448
32489,41073,31468
32556,41127,31465
32600,41167,31484
32588,41191,31506
32544,41180,31524
32556,41141,31511
32581,41089,31524
32572,41053,31600
32592,41024,31575
32604,41033,31560
32636,41069,31569
32697,41084,31578
32748,41141,31599
32780,41181,31580
32784,41175,31580
32740,41143,31612
32713,41095,31588
32708,41046,31596
32760,41023,31604
32824,41031,31611
32864,41069,31623
32924,41119,31631
32924,41167,31620
32880,41181,31623
32753,41180,31664
32640,41149,31639
32616,41095,31653
32612,41036,31660
32632,41021,31671
32677,41037,31676
32692,41076,31656
32716,41125,31662
32720,41175,31672
32721,41196,31686
32708,41186,31672
32592,41111,31692
32484,41095,31681
32416,41061,31687
32398,41031,31698
32428,41045,31700
32508,41087,31719
32573,41133,31729
32576,41173,31733
32564,41204,31719
32565,41199,31743
32584,41159,31727
32648,41106,31736
32644,41017,31738
32684,41043,31750
32752,41047,31748
32799,41082,31766
32840,41135,31756
32868,41180,31766
32828,41205,31768
32784,41199,31775
32728,41124,31783
32690,41109,31800
32628,41060,31815
32620,41053,31808
32676,41055,31800
32724,41093,31799
32792,41100,31831
32832,41186,31857
32856,41215,31870
32858,41200,31841
32828,41175,31860
32764,41125,31836
32784,41071,31848
32804,41060,31849
32860,41031,31884
32900,41102,31903
32956,41157,31927
33004,41204,31943
33000,41213,31949
32925,41215,31920
32872,41173,31879
32854,41125,31879
32848,41076,31897
32848,41063,31889
32852,41071,31893
32908,41119,31895
32948,41148,31886
33000,41203,31948
33006,41223,31965
32985,41223,31904
32956,41180,31925
32952,41137,31908
32916,41095,31899
32912,41039,31897
32940,41077,31930
32974,41113,31937
33004,41164,31919
33024,41213,31937
33002,41236,31940
32920,41223,31937
32918,41189,31927
33024,41146,31924
33252,41103,31942
33532,41078,31920
34064,41080,31940
34836,41109,31947
35892,41157,31954
36896,41212,31952
37692,41223,31952
38152,41223,31949
38660,41186,31956
38836,41127,31956
39020,41090,31948
39308,41084,31933
40116,41116,31926
42124,41127,31928
44928,41166,31954
45972,41214,31928
44760,41255,31932
41836,41278,31928
37280,41272,31960
31636,41257,31995
26317,41232,32020
22812,41164,31991
21360,41223,31948
21824,41256,31964
23380,41289,31969
25344,41332,31960
27101,41348,31956
28512,41272,31943
29660,41231,31948
30551,41193,31951
31224,41149,32025
31700,41122,32036
32088,41147,32025
32393,41172,32016
32620,41223,32007
32772,41261,31992
32940,41279,31987
33040,41282,31999
33049,41255,32012
33062,41193,32007
33056,41149,31999
33077,41091,31987
33144,41106,31991
33252,41157,31981
33324,41204,31972
33404,41255,31958
33432,41276,31903
33437,41271,31973
33452,41223,31952
33416,41181,31940
33380,41133,31948
33432,41065,31950
33464,41109,31948
33564,41150,31973
33633,41205,31970
33696,41203,31968
33724,41259,31961
33696,41252,31948
33640,41215,31949
33644,41168,31968
33612,41119,31948
33620,41103,31940
33668,41070,31937
33738,41133,31952
33800,41191,31944
33832,41223,31964
33856,41255,31954
33840,41255,31956
33824,41207,31956
33816,41159,31957
33839,41119,31946
33845,41088,31957
33869,41095,31941
33952,41141,31971
34024,41189,32002
34076,41222,32007
34108,41240,32043
34100,41237,32056
34096,41207,32045
34104,41159,32041
34110,41114,32063
34136,41095,32039
34208,41092,32024
34272,41120,32028
34356,41185,32041
34440,41220,32041
34528,41253,32029
34542,41234,32014
34584,41213,32026
34584,41172,32006
34592,41125,32006
34628,41107,32007
34708,41071,32024
34852,41145,32013
34980,41191,32000
35068,41238,31990
35144,41255,31992
35228,41255,31983
35252,41221,31974
35296,41177,31962
35372,41129,31945
35484,41071,31933
35628,41103,31935
35804,41143,31925
35968,41196,31921
36109,41239,31908
36232,41276,31893
36344,41263,31940
36436,41223,31948
36484,41180,31948
36548,41135,31958
36657,41117,31929
36816,41112,31951
36968,41156,31908
37120,41196,31879
37276,41262,31897
37360,41270,31899
37440,41265,31868
37480,41232,31916
37528,41191,31930
37516,41145,31927
37560,41095,31909
37597,41127,31913
37648,41161,31868
37696,41223,31839
37700,41275,31849
37684,41286,31845
37604,41295,31820
37492,41260,31888
37304,41219,31895
37132,41128,31890
36964,41143,31860
36752,41149,31847
36516,41185,31879
36244,41236,31893
35960,41301,31816
35576,41317,31813
35157,41319,31815
34728,41281,31814
34272,41236,31831
33876,41164,31828
33476,41165,31829
33108,41164,31824
32783,41216,31802
32505,41217,31879
32228,41319,31794
31952,41325,31814
31660,41332,31784
31368,41289,31815
31132,41247,31869
30886,41188,31853
30684,41173,31812
30540,41183,31781
30428,41210,31808
30340,41223,31812
30300,41294,31801
30224,41335,31776
30098,41316,31804
30004,41279,31839
29925,41214,31875
29848,41179,31833
29804,41129,31812
29780,41159,31812
29801,41189,31801
29840,41247,31823
29865,41288,31815
29889,41269,31824
29880,41289,31821
29841,41248,31815
29788,41194,31838
29792,41148,31873
29812,41124,31902
29848,41125,31910
29924,41170,31905
30016,41216,31878
30084,41260,31853
30076,41284,31861
30068,41273,31861
30053,41236,31877
30084,41189,31876
30088,41148,31868
30128,41125,31879
30212,41124,31900
30256,41159,31897
30357,41204,31911
30440,41252,31905
30492,41271,31902
30472,41268,31910
30444,41222,31900
30448,41178,31893
30453,41091,31909
30532,41095,31922
30544,41107,31916
30612,41158,31908
30708,41197,31847
30732,41239,31924
30752,41257,31953
30762,41218,31983
30772,41197,31946
30724,41164,31940
30704,41121,31939
30768,41078,31964
30800,41094,31999
30856,41137,31948
30949,41189,31957
31000,41217,31946
31016,41253,32007
31004,41236,32008
31008,41205,31981
31016,41124,31980
31012,41111,31965
31007,41085,32003
31012,41061,31983
31106,41134,31973
31196,41199,31957
31256,41237,31941
31268,41255,32037
31272,41251,31980
31272,41197,32001
31220,41157,31984
31192,41112,31964
31212,41091,32027
31236,41088,32044
31294,41159,31985
31376,41179,31973
31420,41191,31987
31436,41209,31973
31440,41255,32029
31424,41215,32044
31436,41125,31980
31485,41105,32007
31529,41090,31988
31580,41068,32053
31640,41135,32023
31718,41205,32007
31740,41223,32000
31762,41261,32008
31741,41251,31992
31736,41212,32007
31676,41117,32057
31664,41113,32076
31680,41086,32044
31748,41101,32013
31816,41135,32032
31856,41165,32001
31904,41222,31995
31912,41241,32047
31896,41244,32082
31840,41201,32044
31820,41157,32032
31820,41116,32016
31880,41089,32038
31948,41085,32029
32000,41135,32023
32065,41175,32020
32136,41206,32007
32168,41245,32047
32184,41237,32049
32152,41196,32086
32108,41154,32040
32069,41097,32033
32088,41086,32005
32108,41092,32011
32164,41127,32041
32212,41178,32068
32236,41213,32012
32272,41239,32030
32244,41247,32024
32200,41199,32023
32156,41144,32007
32104,41098,32000
32100,41071,31993
32148,41090,32030
32196,41121,32055
32244,41175,32043
32284,41167,32074
32260,41234,32068
32252,41220,32092
32164,41145,32077
32117,41128,32103
32084,41088,32103
32112,41060,32084
32136,41039,32045
32204,41102,32044
32272,41159,32057
32328,41199,32079
32340,41172,32074
32341,41191,32087
32292,41165,32076
32224,41118,32096
32192,41082,32109
32208,41048,32165
32236,41066,32125
32296,41095,32116
32376,41136,32116
32434,41180,32134
32444,41207,32134
32416,41186,32124
32365,41160,32164
32332,41111,32197
32356,41068,32219
32382,41029,32185
32420,41054,32169
32500,41091,32177
32616,41129,32199
32644,41133,32200
32648,41189,32221
32636,41189,32225
32628,41140,32229
32589,41094,32230
32572,41059,32234
32557,41030,32229
32580,40996,32222
32613,41079,32288
32680,41125,32284
32724,41158,32263
32768,41173,32262
32788,41181,32284
32796,41119,32337
32772,41084,32285
32812,41049,32281
32852,41027,32293
32888,41039,32300
32868,41068,32311
32840,41090,32313
32760,41159,32324
32740,41191,32311
32736,41145,32356
32718,41132,32382
32728,41089,32388
32712,41062,32390
32640,41028,32397
32592,41024,32392
32528,41068,32390
32516,41100,32367
32600,41153,32373
32664,41180,32365
32616,41172,32408
32540,41127,32437
32476,41081,32409
32496,41048,32414
32512,41037,32420
32540,40998,32431
32560,41061,32444
32641,41112,32429
32716,41159,32429
32788,41180,32477
32841,41187,32516
32816,41142,32495
32824,41056,32492
32788,41049,32505
32756,41021,32524
32788,41031,32539
32804,41065,32553
32844,41116,32571
32824,41159,32564
32748,41191,32580
32728,41177,32608
32704,41137,32615
32704,41095,32646
32656,41032,32689
32692,41016,32712
32716,41031,32720
32788,41060,32740
32864,41111,32731
32932,41121,32735
32928,41179,32751
32900,41169,32764
32856,41129,32775
32828,41090,32775
32816,41021,32815
32808,41021,32860
32832,41031,32844
32884,41059,32855
32945,41101,32869
33000,41167,32879
33048,41169,32884
32992,41127,32903
32948,41125,32956
32924,41079,32938
32918,41024,32957
32960,41013,32972
33020,40999,32972
33088,41048,32975
33120,41095,32991
33177,41141,33021
33188,41173,33031
33160,41166,33038
33136,41121,33034
33080,41056,33060
33084,40991,33076
33084,40967,33076
33116,40996,33089
33124,41029,33088
33092,41095,33110
33104,41143,33098
33176,41161,33100
33390,41156,33103
33600,41117,33120
33960,41063,33125
34620,41014,33172
35556,40948,33163
36572,40977,33180
37504,41021,33166
38108,41059,33189
38718,41100,33216
39136,41140,33224
39468,41133,33228
39644,41100,33232
40252,41060,33236
41820,40989,33257
44448,40956,33262
45920,40967,33270
45296,41030,33286
42844,41090,33288
38804,41169,33310
33500,41185,33314
28004,41233,33349
23972,41223,33360
21976,41165,33365
22016,41116,33369
23268,41060,33383
25084,41083,33381
26922,41092,33400
28492,41135,33415
29756,41170,33436
30748,41196,33433
31456,41177,33447
31909,41095,33480
32228,41089,33476
32480,41038,33495
32649,41010,33501
32776,41015,33527
32944,41042,33541
33072,41082,33554
33164,41135,33588
33253,41148,33588
33280,41154,33596
33252,41116,33603
33252,41049,33617
33277,41004,33639
33328,40998,33644
33416,40989,33646
33525,41026,33668
33592,41025,33667
33640,41101,33669
33655,41127,33677
33652,41125,33698
33628,41086,33711
33653,41040,33719
33689,40967,33711
33720,40967,33741
33772,40967,33756
33816,40996,33765
33864,41047,33775
33877,41088,33788
33856,41119,33799
33796,41101,33799
33784,41073,33796
33752,41024,33839
33732,40967,33841
33712,40959,33847
33752,40951,33863
33792,41012,33872
33856,41055,33892
33889,41079,33893
33912,41113,33904
33896,41110,33917
33896,41031,33937
33916,41021,33943
33921,40976,33981
33960,40956,33981
34009,40961,33996
34072,40967,34004
34112,41028,34029
34156,41094,34041
34188,41102,34052
34152,41079,34079
34148,41060,34102
34168,41012,34117
34204,40983,34125
34276,40908,34122
34356,40948,34148
34452,40996,34143
34552,41026,34164
34654,41087,34176
34704,41109,34189
34768,41101,34196
34768,41057,34196
34780,41015,34188
34816,40967,34199
34860,40927,34213
34933,40940,34218
35000,40991,34229
35136,41036,34215
35232,41044,34223
35304,41095,34248
35389,41095,34261
35464,41063,34267
35508,41010,34265
35604,40967,34277
35720,40943,34279
35884,40941,34285
36044,40967,34279
36228,41027,34311
36380,41078,34325
36524,41094,34332
36628,41092,34327
36704,41057,34366
36752,41004,34369
36852,40964,34370
36956,40945,34388
37052,40949,34399
37212,40989,34399
37312,41033,34417
37412,41077,34444
37472,41103,34457
37508,41095,34464
37536,41060,34479
37596,41000,34503
37588,40967,34500
37600,40952,34505
37612,40961,34510
37604,40981,34532
37584,41057,34521
37516,41091,34549
37384,41095,34564
37248,41106,34567
37061,41060,34582
36800,41004,34594
36512,40990,34609
36176,40964,34608
35904,40956,34612
35646,40999,34631
35320,41045,34620
34960,41088,34636
34596,41085,34660
34208,41108,34660
33816,41081,34663
33437,41025,34681
33018,40952,34645
32692,40962,34679
32396,40960,34697
32108,40999,34705
31897,41058,34713
31664,41095,34724
31429,41076,34732
31188,41113,34724
30984,41071,34717
30768,41023,34749
30576,40967,34757
30460,40948,34748
30389,40965,34763
30316,40988,34750
30284,41035,34785
30214,41061,34788
30180,41095,34793
30100,41095,34784
30048,41060,34788
29991,41010,34821
29942,40959,34818
29936,40924,34805
29952,40929,34805
29988,40967,34855
30032,41017,34855
30049,41047,34864
30080,41076,34872
30048,41071,34854
30036,41023,34902
29996,40991,34904
29980,40951,34906
29985,40921,34904
30000,40927,34911
30024,40931,34935
30108,40992,34921
30164,41045,34926
30208,41061,34941
30240,41060,34943
30248,40967,34948
30250,40952,34957
30260,40924,34960
30276,40901,34969
30320,40898,34981
30376,40937,34991
30428,40951,34999
30536,41028,35017
30588,41044,35029
30612,41054,35034
30656,41009,35055
30636,40967,35049
30624,40914,35052
30700,40893,35053
30790,40863,35093
30910,40930,35121
30961,40990,35136
30956,41031,35144
30972,41060,35156
30996,41003,35164
30992,41001,35172
31004,40965,35180
31032,40907,35180
31022,40879,35201
31032,40893,35217
31108,40935,35228
31172,40967,35224
31254,41027,35247
31272,41047,35256
31244,41044,35257
31148,41012,35266
31077,40953,35271
31100,40905,35271
31128,40885,35270
31196,40892,35272
31301,40929,35272
31340,40967,35276
31373,41018,35284
31412,41047,35302
31396,41038,35303
31388,40999,35301
31376,40917,35303
31373,40897,35308
31392,40871,35293
31404,40878,35308
31488,40933,35300
31589,40964,35320
31636,41015,35327
31672,41001,35332
31656,41031,35332
31632,40985,35349
31568,40947,35348
31576,40909,35356
31604,40881,35360
31644,40883,35324
31704,40914,35334
31753,40957,35365
31792,41002,35356
31844,41024,35353
31860,41015,35348
31818,40974,35372
31764,40936,35389
31764,40900,35391
31765,40863,35373
31814,40873,35373
31880,40910,35389
31936,40953,35407
31960,41007,35423
31963,41016,35460
31952,41028,35439
31900,40940,35470
31852,40918,35472
31868,40884,35461
31868,40847,35471
31908,40857,35487
31960,40852,35494
31960,40920,35444
32032,40973,35471
32050,40990,35503
32032,40997,35519
32016,40949,35505
31945,40917,35508
31932,40869,35520
31924,40807,35522
31950,40839,35541
32024,40877,35513
32086,40916,35502
32132,40960,35511
32148,40988,35559
32121,40981,35573
32116,40943,35567
32112,40895,35564
32156,40848,35566
32164,40807,35575
32196,40823,35551
32272,40871,35536
32288,40908,35577
32324,40900,35584
32356,40956,35591
32366,40964,35623
32316,40940,35622
32270,40877,35639
32245,40837,35625
32260,40789,35644
32312,40807,35615
32353,40845,35608
32448,40901,35633
32520,40920,35657
32564,40957,35663
32580,40958,35663
32520,40925,35680
32464,40835,35634
32432,40804,35658
32416,40789,35644
32468,40796,35636
32492,40838,35652
32532,40844,35674
32565,40923,35711
32568,40952,35719
32572,40948,35705
32532,40917,35704
32496,40868,35719
32480,40775,35733
32460,40799,35728
32472,40801,35733
32512,40786,35735
32600,40868,35692
32641,40910,35685
32636,40950,35693
32624,40937,35748
32602,40903,35753
32576,40855,35756
32544,40801,35743
32520,40799,35751
32548,40792,35748
32556,40797,35754
32556,40871,35754
32604,40940,35757
32668,40956,35749
32636,40942,35759
32545,40904,35781
32484,40861,35786
32496,40815,35760
32493,40792,35775
32456,40802,35733
32456,40799,35716
32428,40885,35783
32336,40935,35768
32296,40913,35789
32232,40947,35719
32208,40915,35765
32176,40837,35800
32196,40820,35789
32212,40805,35784
32228,40794,35782
32304,40789,35799
32396,40869,35801
32484,40932,35756
32596,40951,35765
32684,40935,35798
32732,40913,35799
32681,40864,35812
32644,40812,35816
32613,40789,35760
32640,40807,35749
32676,40836,35756
32692,40872,35798
32696,40912,35821
32660,40949,35839
32616,40948,35838
32556,40901,35847
32476,40860,35837
32448,40766,35841
32481,40772,35836
32492,40780,35839
32550,40823,35847
32604,40857,35861
32640,40903,35822
32629,40932,35799
32664,40929,35847
32660,40895,35868
32636,40839,35864
32608,40799,35876
32668,40781,35860
32700,40779,35857
32756,40770,35862
32808,40860,35855
32869,40889,35858
32825,40932,35876
32821,40916,35813
32804,40880,35841
32776,40839,35879
32781,40792,35877
32797,40732,35863
32824,40764,35857
32831,40805,35862
32916,40847,35794
33000,40895,35812
33020,40899,35796
32984,40871,35813
32932,40866,35788
32877,40812,35799
32868,40767,35789
32864,40757,35788
32804,40755,35804
32788,40788,35847
32832,40820,35847
33028,40879,35839
33221,40893,35828
33448,40876,35836
33864,40847,35764
34496,40800,35766
35268,40743,35757
36236,40727,35764
37102,40719,35796
37547,40760,35767
37981,40807,35748
38440,40839,35776
38876,40876,35769
39064,40879,35744
39480,40839,35738
40960,40793,35726
43040,40737,35748
43892,40716,35750
43208,40735,35733
40884,40784,35733
37020,40871,35669
32077,40942,35660
27113,40926,35656
23832,40952,35649
22428,40926,35644
22644,40895,35654
23816,40836,35684
25328,40807,35704
26988,40796,35697
28492,40780,35684
29780,40859,35695
30752,40911,35687
31356,40928,35676
31673,40916,35671
31934,40871,35674
32108,40831,35674
32216,40770,35693
32380,40747,35644
32565,40768,35631
32732,40785,35672
32868,40832,35686
32964,40869,35679
33020,40885,35648
33068,40884,35660
33055,40848,35681
33049,40801,35693
33088,40711,35677
33116,40722,35672
33150,40721,35677
33232,40772,35630
33265,40812,35623
33336,40812,35601
33320,40876,35644
33340,40871,35624
33324,40838,35580
33308,40786,35573
33272,40749,35609
33280,40682,35591
33312,40718,35532
33388,40761,35585
33460,40813,35571
33500,40847,35568
33484,40876,35526
33496,40877,35521
33464,40826,35557
33433,40785,35537
33420,40745,35532
33468,40685,35463
33565,40711,35516
33580,40757,35516
33585,40799,35504
33636,40836,35477
33656,40863,35439
33676,40877,35493
33704,40831,35490
33721,40767,35473
33708,40736,35438
33685,40706,35431
33696,40709,35463
33766,40724,35470
33856,40759,35460
33948,40839,35405
34000,40868,35460
34032,40863,35452
34040,40831,35437
34028,40773,35444
34028,40727,35405
34076,40708,35399
34148,40708,35425
34224,40743,35423
34334,40789,35364
34428,40831,35397
34492,40868,35389
34536,40860,35388
34560,40820,35331
34557,40735,35316
34616,40718,35361
34708,40695,35329
34812,40711,35317
34956,40743,35282
35096,40785,35254
35220,40823,35293
35308,40857,35263
35401,40831,35256
35520,40813,35205
35552,40767,35175
35608,40727,35204
35772,40700,35182
35864,40703,35168
36032,40727,35148
36224,40774,35140
36336,40813,35126
36512,40855,35080
36600,40852,35060
36660,40815,35036
36721,40761,35047
36768,40711,35044
36864,40692,35021
36980,40692,34995
37080,40724,34981
37196,40775,34924
37284,40821,34941
37348,40839,34916
37372,40823,34900
37368,40804,34874
37308,40757,34852
37256,40708,34797
37232,40692,34766
37197,40695,34738
37220,40726,34705
37185,40780,34708
37072,40807,34695
36936,40849,34668
36744,40831,34633
36484,40805,34607
36184,40772,34578
35880,40711,34526
35576,40703,34513
35228,40692,34499
34924,40734,34438
34592,40796,34444
34239,40834,34405
33844,40857,34375
33388,40870,34348
33004,40828,34316
32640,40752,34284
32288,40724,34240
31984,40706,34206
31720,40710,34192
31512,40749,34183
31320,40786,34161
31120,40839,34124
30936,40861,34098
30752,40844,34073
30561,40804,34023
30356,40772,34017
30188,40703,33991
30052,40697,33969
29970,40711,33937
29944,40737,33896
29920,40773,33885
29924,40826,33865
29868,40851,33855
29796,40844,33831
29748,40804,33796
29652,40724,33776
29592,40708,33746
29585,40681,33724
29588,40661,33714
29644,40711,33687
29661,40763,33664
29684,40812,33637
29712,40780,33618
29712,40831,33600
29712,40783,33586
29696,40743,33567
29696,40699,33536
29704,40671,33511
29736,40668,33488
29788,40692,33461
29888,40749,33445
29911,40792,33445
29944,40816,33427
29932,40828,33405
29944,40788,33383
29914,40741,33356
29913,40665,33339
29964,40665,33316
30060,40679,33292
30156,40692,33269
30260,40749,33239
30316,40793,33212
30364,40821,33180
30410,40806,33177
30386,40775,33169
30368,40735,33132
30372,40644,33111
30380,40653,33095
30392,40663,33063
30454,40695,33049
30484,40737,33036
30560,40781,33008
30590,40815,32979
30592,40813,32959
30560,40777,32942
30573,40729,32916
30572,40676,32912
30592,40658,32895
30668,40645,32849
30716,40708,32820
30796,40740,32804
30884,40777,32775
30940,40775,32749
30924,40804,32724
30912,40774,32731
30892,40727,32711
30925,40677,32677
30956,40652,32657
30940,40613,32629
30956,40687,32591
31033,40743,32544
31136,40780,32530
31176,40807,32497
31160,40807,32472
31144,40773,32452
31101,40702,32420
31128,40669,32380
31142,40655,32357
31153,40652,32368
31197,40681,32324
31277,40720,32284
31336,40773,32277
31326,40806,32237
31316,40770,32212
31276,40749,32191
31188,40711,32191
31176,40679,32188
31192,40645,32162
31220,40599,32119
31248,40677,32116
31340,40727,32085
31384,40767,32048
31369,40799,32033
31361,40769,32037
31304,40748,32050
31285,40701,32005
31280,40654,31969
31276,40622,31964
31308,40625,31932
31364,40663,31919
31424,40696,31893
31452,40724,31900
31468,40771,31852
31472,40775,31854
31452,40737,31837
31400,40684,31797
31380,40652,31825
31380,40613,31806
31444,40606,31750
31492,40646,31743
31569,40695,31704
31588,40737,31676
31578,40766,31705
31553,40711,31693
31536,40709,31644
31481,40673,31637
31444,40627,31597
31436,40603,31576
31472,40599,31557
31534,40632,31551
31596,40641,31507
31640,40725,31532
31656,40745,31529
31657,40745,31525
31644,40711,31500
31621,40676,31458
31602,40612,31425
31640,40591,31396
31682,40612,31375
31738,40629,31369
31780,40670,31332
31792,40711,31359
31788,40740,31359
31773,40735,31292
31721,40711,31276
31688,40655,31239
31640,40620,31284
31584,40591,31244
31668,40583,31234
31728,40629,31209
31796,40671,31211
31864,40711,31156
31884,40747,31192
31886,40701,31204
31876,40701,31126
31852,40663,31143
31840,40597,31100
31824,40576,31127
31860,40591,31149
31937,40616,31071
32056,40655,31063
32120,40696,31038
32121,40737,31111
32132,40741,31033
32092,40711,31024
32040,40660,31027
31980,40609,30999
31976,40581,31059
32000,40600,31004
32112,40621,30990
32244,40669,30980
32276,40720,30963
32304,40745,30918
32264,40748,31013
32185,40711,30983
32094,40671,30922
32050,40620,30916
32104,40604,30916
32164,40593,30897
32184,40629,30911
32204,40679,30923
32240,40711,30868
32332,40757,30884
32272,40748,30847
32228,40727,30900
32137,40676,30912
31997,40600,30837
31952,40596,30831
31968,40599,30808
31992,40638,30900
32052,40682,30847
32152,40732,30809
32212,40752,30789
32200,40762,30879
32184,40730,30799
32172,40647,30780
32188,40628,30788
32198,40600,30809
32312,40600,30843
32416,40599,30762
32488,40681,30777
32544,40733,30751
32544,40757,30737
32532,40753,30727
32477,40721,30769
32432,40679,30817
32432,40636,30800
32448,40607,30808
32472,40590,30777
32524,40638,30732
32556,40687,30716
32576,40727,30724
32564,40755,30732
32536,40745,30721
32512,40711,30677
32476,40671,30775
32456,40612,30684
32492,40590,30713
32528,40597,30695
32584,40628,30710
32612,40679,30712
32688,40724,30766
32692,40711,30698
32668,40748,30676
32600,40711,30657
32548,40663,30681
32536,40620,30676
32541,40583,30643
32568,40555,30624
32628,40615,30727
32700,40659,30730
32756,40711,30708
32772,40742,30639
32768,40732,30648
32740,40710,30662
32752,40623,30633
32731,40604,30628
32724,40582,30615
32772,40556,30684
32840,40599,30604
32884,40655,30629
32932,40663,30580
32944,40724,30662
32860,40727,30657
32772,40684,30586
32744,40644,30573
32856,40599,30589
33084,40559,30580
33320,40575,30556
33820,40599,30540
34592,40655,30605
35636,40687,30644
36700,40711,30557
37536,40703,30536
38022,40665,30567
38580,40616,30536
38832,40583,30536
39121,40559,30596
39400,40541,30618
40164,40599,30548
42004,40645,30555
44760,40672,30518
45920,40693,30498
44888,40711,30548
42076,40727,30586
37612,40695,30560
31928,40685,30517
26624,40669,30500
23040,40693,30525
21498,40729,30508
21844,40767,30548
23272,40740,30580
25084,40813,30500
26848,40807,30531
28308,40722,30488
29476,40698,30575
30388,40656,30501
31096,40635,30531
31620,40604,30496
32020,40649,30604
32370,40692,30529
32640,40708,30532
32776,40752,30505
32868,40756,30553
32952,40718,30609
32992,40670,30565
33012,40615,30566
33046,40583,30552
33092,40591,30517
33168,40639,30513
33224,40644,30500
33284,40729,30518
33312,40757,30493
33312,40752,30564
33319,40721,30570
33300,40673,30564
33296,40620,30493
33300,40591,30458
33380,40604,30449
33440,40625,30492
33472,40679,30520
33496,40757,30533
33520,40758,30520
33512,40719,30430
33488,40711,30452
33468,40668,30452
33428,40631,30432
33478,40592,30431
33520,40599,30407
33592,40599,30424
33637,40673,30510
33668,40724,30431
33672,40746,30420
33672,40753,30439
33660,40711,30389
33620,40672,30501
33596,40631,30393
33656,40572,30405
33680,40565,30404
33764,40615,30417
33858,40669,30436
33888,40721,30447
33912,40745,30439
33920,40745,30453
33924,40711,30439
33912,40676,30424
33916,40609,30557
33960,40597,30468
34012,40604,30482
34088,40631,30462
34176,40679,30444
34260,40727,30424
34324,40756,30533
34328,40748,30463
34329,40711,30471
34372,40660,30490
34396,40623,30553
34428,40597,30491
34544,40599,30471
34628,40623,30471
34740,40673,30437
34880,40719,30516
34960,40753,30480
34997,40756,30439
35056,40711,30447
35132,40677,30426
35200,40622,30405
35288,40605,30384
35400,40591,30476
35541,40622,30501
35712,40687,30498
35892,40721,30482
36048,40747,30437
36156,40711,30463
36233,40698,30494
36312,40661,30452
36360,40614,30409
36482,40591,30431
36584,40603,30422
36740,40591,30429
36924,40661,30496
37084,40708,30520
37208,40743,30452
37276,40748,30428
37312,40703,30460
37336,40663,30468
37376,40629,30470
37406,40599,30470
37496,40596,30484
37552,40629,30487
37596,40677,30479
37644,40711,30464
37661,40748,30468
37592,40748,30471
37500,40711,30492
37373,40672,30506
37212,40639,30497
37052,40605,30493
36856,40605,30497
36652,40647,30550
36440,40693,30600
36164,40711,30615
35884,40775,30621
35516,40775,30631
35121,40751,30598
34676,40707,30554
34238,40656,30554
33810,40631,30599
33416,40630,30640
33086,40669,30600
32782,40711,30569
32520,40771,30594
32212,40799,30607
31920,40791,30662
31592,40762,30599
31276,40701,30630
31040,40671,30599
30841,40631,30647
30656,40647,30710
30544,40679,30625
30452,40695,30646
30390,40764,30636
30312,40791,30713
30209,40796,30727
30084,40719,30698
29980,40701,30670
29884,40669,30708
29852,40636,30745
29818,40654,30777
29824,40671,30780
29853,40711,30799
29860,40734,30782
29896,40780,30746
29849,40789,30727
29800,40761,30738
29736,40696,30770
29678,40668,30733
29663,40636,30842
29688,40604,30840
29772,40661,30811
29856,40726,30796
29889,40768,30794
29929,40791,30816
29956,40796,30837
29924,40752,30845
29932,40703,30851
29936,40676,30855
29936,40647,30871
30016,40639,30884
30112,40677,30876
30168,40724,30945
30216,40757,30976
30260,40792,30991
30288,40801,30988
30281,40762,31006
30290,40711,30944
30272,40669,30945
30324,40642,30968
30320,40645,30973
30380,40674,30959
30420,40738,31026
30496,40772,31063
30532,40804,30977
30540,40789,31006
30548,40775,31021
30572,40728,31035
30559,40668,31004
30532,40644,31074
30600,40644,31107
30692,40687,31040
30773,40727,31047
30832,40772,31053
30896,40804,31084
30904,40788,31092
30940,40772,31077
30952,40721,31152
30952,40672,31124
30984,40655,31113
31020,40649,31087
31074,40673,31151
31196,40731,31185
31240,40775,31136
31268,40813,31119
31268,40805,31133
31256,40775,31121
31268,40741,31188
31260,40653,31128
31256,40647,31146
31316,40655,31126
31372,40685,31163
31452,40725,31196
31537,40777,31152
31593,40805,31137
31589,40813,31192
31564,40785,31174
31512,40727,31156
31476,40681,31141
31489,40658,31236
31532,40649,31149
31602,40695,31168
31692,40732,31171
31752,40765,31239
31791,40805,31179
31788,40805,31199
31740,40728,31172
31722,40716,31265
31728,40676,31230
31712,40609,31207
31757,40645,31198
31796,40686,31188
31905,40729,31278
31976,40771,31239
31989,40801,31215
31953,40764,31216
31928,40771,31212
31904,40724,31268
31892,40679,31278
31872,40625,31224
31889,40645,31234
31972,40676,31286
32048,40727,31281
32129,40775,31236
32152,40807,31244
32152,40804,31220
32112,40770,31282
32096,40718,31300
32090,40679,31239
32092,40663,31239
32108,40650,31239
32092,40684,31264
32159,40733,31247
32236,40772,31236
32248,40804,31300
32236,40792,31290
32188,40771,31244
32144,40735,31258
32076,40687,31266
32076,40623,31261
32127,40641,31219
32174,40679,31334
32200,40738,31281
32209,40764,31256
32257,40797,31275
32262,40816,31291
32254,40772,31270
32224,40710,31299
32173,40679,31356
32184,40655,31289
32217,40621,31299
32276,40680,31310
32348,40735,31317
32364,40789,31322
32424,40813,31319
32460,40804,31313
32420,40783,31321
32376,40747,31320
32336,40698,31375
32308,40645,31406
32320,40665,31424
32357,40695,31414
32433,40748,31405
32476,40799,31407
32512,40823,31445
32516,40797,31462
32480,40797,31447
32424,40736,31463
32404,40711,31429
32400,40691,31374
32412,40687,31459
32480,40711,31468
32590,40753,31494
32680,40813,31484
32668,40829,31460
32678,40832,31487
32644,40807,31481
32632,40769,31472
32620,40711,31505
32656,40695,31552
32789,40695,31558
32884,40703,31512
32925,40772,31517
32980,40837,31528
32964,40855,31513
32908,40831,31553
32780,40822,31587
32690,40780,31578
32669,40724,31572
32674,40704,31552
32728,40700,31563
32808,40733,31567
32844,40797,31567
32849,40831,31561
32814,40865,31565
32766,40871,31552
32716,40839,31546
32608,40776,31623
32487,40744,31597
32444,40711,31562
32440,40701,31562
32456,40750,31568
32495,40797,31585
32560,40853,31559
32570,40884,31564
32568,40865,31561
32540,40847,31607
32558,40805,31639
32644,40726,31639
32669,40727,31606
32780,40730,31587
32836,40764,31585
32916,40809,31594
32992,40855,31591
32992,40839,31604
32916,40879,31609
32856,40817,31619
32776,40807,31599
32692,40756,31661
32645,40731,31664
32656,40735,31628
32736,40761,31623
32816,40818,31669
32884,40848,31661
32908,40897,31647
32901,40885,31638
32852,40855,31632
32821,40798,31663
32798,40763,31716
32804,40711,31650
32876,40727,31679
32916,40748,31653
32960,40800,31699
33004,40839,31724
33020,40871,31660
32996,40884,31688
32964,40845,31713
32904,40803,31732
32868,40749,31684
32892,40692,31685
32924,40712,31701
32964,40741,31684
32980,40793,31679
33044,40815,31684
33104,40860,31712
33100,40875,31743
33040,40836,31743
32972,40796,31687
32940,40755,31689
32920,40706,31696
32972,40727,31672
33044,40749,31724
33120,40769,31724
33153,40836,31741
33089,40869,31732
33000,40871,31699
33000,40839,31688
33137,40792,31681
33344,40755,31692
33584,40711,31702
34070,40711,31686
34788,40743,31724
35777,40791,31716
36828,40838,31684
37700,40852,31683
38240,40862,31685
38752,40829,31660
38996,40766,31632
39236,40741,31716
39468,40716,31727
40192,40727,31668
41980,40748,31686
44848,40788,31648
46260,40836,31705
45404,40893,31727
42736,40904,31734
38396,40910,31673
32760,40901,31684
27232,40880,31665
23389,40853,31652
21570,40820,31648
21793,40879,31708
23180,40928,31727
25096,40960,31708
26876,40938,31668
28364,40967,31677
29556,40939,31656
30508,40879,31659
31204,40829,31700
31692,40802,31727
32072,40800,31685
32400,40825,31695
32660,40884,31684
32832,40928,31701
33004,40927,31702
33080,40938,31707
33104,40908,31694
33121,40864,31716
33128,40807,31751
33152,40788,31751
33190,40796,31701
33260,40824,31694
33360,40871,31709
33437,40877,31718
33500,40943,31705
33484,40942,31680
33480,40917,31655
33472,40870,31670
33420,40831,31660
33412,40765,31673
33436,40789,31661
33504,40805,31652
33573,40864,31652
33618,40921,31659
33632,40918,31639
33612,40948,31700
33584,40901,31652
33572,40865,31623
33541,40829,31649
33556,40775,31646
33556,40781,31618
33605,40816,31652
33620,40855,31671
33672,40919,31629
33704,40952,31644
33704,40939,31617
33688,40906,31644
33628,40871,31660
33612,40831,31676
33624,40789,31688
33668,40783,31696
33716,40831,31662
33788,40873,31646
33884,40921,31655
33904,40947,31659
33924,40929,31669
33908,40919,31647
33880,40873,31729
33844,40791,31671
33824,40790,31685
33880,40800,31676
33976,40829,31688
34060,40871,31732
34168,40921,31683
34184,40957,31693
34244,40917,31672
34296,40924,31713
34320,40878,31713
34372,40805,31688
34444,40788,31668
34573,40793,31676
34704,40820,31703
34848,40868,31655
34968,40881,31652
35024,40932,31622
35084,40946,31652
35160,40876,31623
35208,40853,31637
35264,40815,31596
35329,40787,31601
35456,40772,31651
35616,40820,31569
35784,40854,31585
35956,40884,31568
36078,40935,31544
36188,40937,31570
36284,40915,31601
36380,40822,31609
36464,40805,31584
36580,40775,31550
36724,40784,31527
36872,40799,31521
37025,40849,31517
37140,40901,31588
37252,40909,31561
37312,40935,31515
37352,40909,31512
37344,40865,31523
37352,40798,31517
37376,40780,31517
37432,40780,31569
37485,40822,31519
37544,40868,31505
37560,40908,31493
37560,40932,31495
37472,40943,31458
37360,40925,31556
37212,40871,31495
37044,40830,31508
36862,40772,31485
36652,40806,31535
36377,40839,31554
36160,40881,31524
35840,40941,31484
35497,40933,31495
35104,40967,31479
34680,40944,31516
34240,40893,31536
33770,40857,31492
33385,40825,31487
32976,40828,31453
32652,40868,31465
32417,40905,31529
32185,40911,31473
31940,40985,31452
31684,40999,31496
31384,40927,31455
31081,40908,31460
30820,40857,31495
30612,40828,31519
30432,40804,31452
30333,40869,31472
30260,40912,31444
30180,40924,31527
30140,40991,31465
30072,40996,31478
29932,40966,31500
29824,40912,31508
29769,40868,31460
29728,40838,31470
29708,40839,31456
29722,40863,31456
29736,40913,31479
29772,40959,31501
29797,40993,31547
29780,40995,31509
29744,40956,31487
29708,40908,31503
29681,40873,31465
29666,40783,31543
29700,40828,31527
29780,40865,31503
29856,40910,31513
29936,40916,31495
29980,40983,31552
30016,40982,31580
29972,40953,31550
29952,40901,31519
29960,40852,31506
29997,40827,31526
30076,40823,31524
30168,40859,31515
30256,40901,31521
30276,40932,31574
30288,40983,31605
30308,40967,31589
30308,40949,31577
30300,40897,31538
30300,40856,31543
30305,40820,31559
30336,40820,31551
30424,40855,31568
30520,40863,31618
30600,40948,31574
30668,40967,31558
30652,40967,31559
30657,40944,31572
30628,40903,31570
30634,40839,31557
30656,40815,31537
30716,40823,31633
30788,40824,31590
30868,40884,31583
30956,40934,31595
31008,40967,31596
31009,40967,31604
30980,40932,31593
30964,40863,31588
30936,40839,31630
30960,40821,31656
31032,40767,31590
31096,40839,31612
31172,40892,31599
31216,40937,31586
31224,40937,31623
31240,40967,31641
31244,40928,31610
31148,40879,31613
31133,40836,31595
31156,40799,31649
31180,40756,31662
31248,40815,31601
31305,40860,31620
31368,40913,31588
31436,40942,31665
31452,40948,31660
31440,40881,31644
31404,40860,31613
31392,40823,31600
31408,40785,31623
31452,40777,31620
31508,40783,31622
31544,40853,31625
31564,40904,31609
31601,40935,31652
31593,40885,31637
31620,40903,31639
31617,40848,31641
31588,40815,31617
31604,40788,31631
31632,40776,31635
31672,40804,31618
31748,40839,31637
31785,40888,31693
31816,40884,31650
31812,40931,31629
31776,40898,31615
31720,40847,31619
31741,40791,31623
31753,40775,31649
31792,40724,31636
31828,40791,31612
31904,40839,31649
31964,40895,31671
31983,40895,31639
32006,40911,31618
31944,40892,31625
31884,40839,31649
31854,40789,31621
31860,40764,31659
31900,40759,31677
31948,40749,31687
32017,40833,31622
32072,40876,31633
32088,40908,31650
32080,40914,31645
32064,40881,31652
32012,40837,31641
32008,40780,31623
32040,40759,31682
32076,40753,31671
32152,40789,31710
32176,40832,31655
32224,40879,31656
32284,40873,31660
32288,40897,31663
32308,40879,31671
32256,40836,31670
32252,40783,31687
32244,40762,31693
32264,40725,31673
32313,40783,31737
32356,40838,31724
32392,40872,31705
32398,40910,31769
32407,40916,31772
32348,40869,31780
32268,40831,31785
32216,40792,31769
32230,40756,31777
32228,40757,31793
32278,40796,31814
32392,40831,31828
32448,40871,31821
32456,40919,31824
32408,40877,31861
32364,40852,31844
32308,40821,31873
32262,40774,31889
32284,40749,31898
32332,40761,31909
32332,40781,31921
32408,40847,31935
32428,40880,31949
32460,40923,31954
32452,40924,31964
32444,40889,31997
32388,40796,32024
32372,40792,32002
32384,40772,32016
32456,40741,32002
32585,40777,32060
32646,40806,32049
32720,40879,32049
32753,40909,32065
32728,40921,32117
32676,40890,32097
32638,40849,32097
32524,40797,32106
32432,40767,32126
32431,40760,32134
32530,40789,32148
32588,40806,32152
32644,40886,32157
32685,40916,32183
32628,40930,32212
32512,40846,32249
32413,40838,32212
32356,40792,32229
32328,40769,32233
32304,40762,32237
32272,40773,32238
32294,40828,32311
32349,40879,32325
32412,40912,32334
32436,40912,32321
32436,40887,32324
32456,40828,32336
32492,40789,32372
32516,40750,32365
32616,40745,32423
32732,40769,32411
32788,40820,32429
32900,40871,32431
32956,40863,32446
32912,40899,32457
32832,40865,32509
32784,40816,32529
32732,40779,32532
32712,40737,32536
32688,40699,32541
32700,40766,32545
32712,40805,32553
32716,40853,32607
32792,40880,32637
32856,40889,32641
32852,40839,32636
32878,40795,32659
32832,40759,32655
32832,40732,32676
32888,40726,32692
32929,40735,32704
32944,40799,32724
32980,40839,32727
32969,40869,32757
32972,40834,32788
32968,40833,32814
32920,40788,32818
32879,40748,32820
32896,40692,32822
32892,40703,32853
32932,40740,32847
33009,40776,32860
33040,40827,32894
33062,40863,32906
33036,40860,32932
32964,40823,32943
32948,40782,32953
32944,40725,32979
32948,40701,32989
32964,40696,32981
33033,40700,33004
33096,40775,33015
33164,40815,33031
33192,40850,33039
33192,40859,33044
33164,40821,33066
33056,40764,33075
32984,40728,33079
32964,40694,33063
33128,40681,33117
33333,40711,33140
33612,40756,33148
34160,40808,33150
34888,40839,33156
35896,40832,33156
36928,40805,33195
37680,40731,33200
38060,40703,33207
38588,40673,33206
38936,40678,33234
39304,40706,33263
39728,40772,33256
40660,40793,33268
42724,40828,33284
45248,40839,33286
46070,40807,33332
44709,40772,33332
41784,40758,33336
37244,40770,33342
31672,40785,33368
26444,40836,33383
23062,40892,33396
21700,40951,33409
22176,40894,33427
23584,40944,33448
25321,40919,33453
27024,40865,33463
28472,40791,33495
29652,40773,33501
30612,40764,33479
31292,40743,33541
31800,40825,33548
32184,40871,33565
32448,40900,33572
32624,40908,33584
32727,40871,33612
32772,40780,33645
32828,40769,33652
32925,40733,33668
33024,40731,33679
33140,40759,33685
33275,40804,33709
33326,40836,33725
33360,40882,33734
33404,40884,33750
33408,40823,33742
33404,40804,33780
33384,40767,33782
33405,40711,33789
33460,40719,33821
33504,40749,33824
33576,40793,33828
33636,40830,33860
33624,40895,33864
33605,40878,33878
33592,40839,33880
33532,40794,33912
33460,40757,33924
33456,40711,33927
33536,40709,33945
33560,40706,33949
33612,40783,33956
33676,40828,33980
33712,40861,34005
33760,40864,34012
33744,40837,34023
33716,40784,34037
33676,40703,34053
33720,40705,34015
33784,40701,34061
33844,40724,34076
33916,40769,34108
33980,40808,34132
34030,40836,34144
34046,40852,34158
33976,40822,34177
33948,40742,34199
33934,40720,34196
33968,40676,34209
34008,40681,34231
34073,40701,34240
34192,40741,34263
34292,40796,34277
34372,40828,34301
34432,40828,34335
34480,40799,34332
34528,40756,34352
34541,40707,34358
34596,40645,34364
34640,40660,34376
34720,40684,34397
34840,40740,34377
34972,40780,34412
35005,40805,34420
35052,40821,34416
35076,40784,34428
35092,40741,34439
35149,40672,34447
35256,40654,34454
35381,40655,34468
35544,40679,34428
35720,40729,34452
35872,40780,34447
35990,40775,34468
36056,40807,34469
36136,40772,34507
36208,40733,34524
36280,40684,34535
36388,40633,34543
36545,40643,34543
36704,40670,34564
36884,40711,34553
37060,40741,34547
37196,40789,34580
37304,40797,34585
37408,40769,34617
37420,40716,34623
37480,40650,34636
37532,40647,34626
37636,40644,34618
37734,40668,34668
37774,40708,34677
37808,40760,34676
37801,40788,34692
37788,40797,34676
37733,40765,34712
37652,40719,34725
37548,40687,34695
37416,40637,34743
37324,40641,34737
37189,40676,34731
37072,40729,34729
36872,40771,34760
36652,40816,34775
36360,40820,34795
35980,40802,34765
35616,40749,34807
35160,40701,34801
34724,40677,34798
34325,40679,34793
33976,40711,34778
33664,40763,34796
33365,40804,34839
33084,40838,34836
32788,40836,34841
32476,40812,34841
32200,40768,34841
31919,40727,34820
31640,40701,34822
31424,40688,34823
31237,40711,34852
31056,40727,34874
30912,40804,34868
30773,40839,34884
30636,40853,34887
30497,40821,34859
30364,40773,34854
30273,40730,34875
30180,40686,34905
30126,40693,34908
30112,40671,34913
30116,40758,34927
30140,40801,34899
30144,40839,34917
30104,40836,34940
30064,40813,34951
30036,40764,34913
30024,40711,34920
30016,40657,34959
30064,40668,34993
30120,40707,34972
30248,40745,34992
30340,40741,34997
30365,40821,34951
30304,40830,35031
30268,40784,35017
30208,40711,34993
30208,40692,35020
30184,40679,35047
30224,40615,35052
30244,40679,35024
30272,40735,35084
30359,40716,35079
30404,40806,35048
30412,40807,35063
30394,40789,35109
30410,40732,35116
30446,40653,35127
30480,40660,35092
30540,40649,35129
30652,40676,35145
30776,40679,35158
30828,40753,35127
30845,40800,35179
30880,40759,35174
30852,40760,35188
30824,40711,35148
30782,40679,35204
30796,40589,35210
30876,40628,35215
30916,40645,35229
31020,40692,35191
31108,40751,35227
31164,40741,35276
31168,40773,35260
31173,40751,35230
31192,40685,35294
31136,40639,35293
31136,40623,35260
31176,40613,35260
31256,40615,35332
31333,40678,35313
31413,40719,35300
31468,40760,35333
31508,40755,35335
31508,40734,35334
31448,40685,35306
31420,40632,35301
31420,40605,35335
31436,40581,35359
31512,40605,35352
31612,40652,35353
31673,40709,35325
31676,40732,35321
31652,40745,35365
31668,40721,35380
31612,40668,35366
31580,40631,35361
31560,40583,35373
31573,40583,35372
31628,40611,35392
31688,40607,35394
31777,40664,35335
31817,40725,35357
31788,40742,35350
31732,40697,35369
31676,40663,35367
31618,40624,35421
31612,40581,35423
31665,40578,35424
31704,40599,35428
31788,40608,35437
31848,40679,35420
31858,40711,35396
31848,40727,35405
31868,40695,35452
31828,40655,35444
31796,40604,35449
31780,40541,35468
31784,40540,35470
31868,40583,35436
31956,40629,35425
32040,40677,35479
32100,40711,35489
32120,40711,35487
32093,40691,35497
32076,40645,35494
32029,40599,35477
32020,40564,35480
32072,40549,35508
32129,40581,35534
32196,40629,35510
32288,40663,35540
32328,40691,35540
32273,40705,35492
32212,40687,35495
32156,40646,35553
32116,40599,35556
32072,40533,35557
32117,40558,35548
32228,40583,35566
32317,40628,35534
32381,40676,35519
32396,40711,35524
32396,40710,35590
32404,40703,35576
32372,40633,35572
32317,40597,35591
32284,40573,35548
32264,40553,35544
32320,40583,35605
32365,40633,35612
32425,40677,35613
32428,40672,35620
32400,40711,35615
32388,40687,35620
32369,40635,35639
32328,40592,35576
32352,40528,35585
32364,40549,35607
32412,40580,35606
32460,40625,35601
32536,40671,35607
32544,40697,35607
32544,40711,35596
32525,40681,35617
32488,40643,35658
32480,40591,35669
32440,40567,35620
32396,40551,35605
32436,40566,35629
32496,40607,35676
32532,40671,35672
32584,40703,35628
32588,40706,35631
32572,40684,35641
32581,40639,35640
32576,40591,35620
32600,40558,35615
32645,40551,35644
32696,40583,35637
32708,40616,35629
32708,40673,35631
32669,40703,35653
32600,40703,35696
32516,40676,35696
32484,40637,35694
32504,40583,35696
32552,40553,35703
32604,40549,35708
32636,40581,35705
32660,40619,35706
32628,40662,35697
32616,40695,35701
32528,40703,35716
32444,40672,35704
32321,40631,35700
32250,40574,35705
32213,40532,35719
32234,40535,35716
32288,40551,35726
32344,40599,35724
32416,40644,35716
32480,40677,35719
32501,40678,35719
32480,40652,35725
32488,40607,35739
32520,40556,35748
32508,40516,35733
32558,40523,35716
32684,40532,35687
32808,40583,35717
32888,40625,35727
32924,40652,35766
32948,40660,35773
32880,40639,35724
32716,40591,35775
32584,40536,35788
32512,40517,35735
32501,40503,35732
32550,40524,35740
32568,40573,35747
32608,40621,35748
32616,40668,35729
32628,40660,35728
32714,40621,35738
32692,40575,35738
32677,40532,35815
32709,40501,35796
32756,40485,35799
32801,40516,35813
32820,40567,35813
32836,40607,35812
32840,40639,35825
32788,40648,35790
32780,40615,35752
32756,40572,35773
32704,40527,35752
32701,40487,35780
32736,40487,35813
32756,40526,35815
32836,40549,35808
32953,40596,35832
33016,40612,35828
33032,40629,35828
33056,40619,35825
33029,40556,35767
33000,40502,35765
33016,40476,35756
33072,40479,35780
33180,40493,35801
33144,40543,35799
33120,40586,35808
33057,40623,35752
32964,40629,35738
32920,40589,35790
33016,40565,35786
33148,40509,35782
33320,40481,35760
33704,40471,35782
34408,40493,35776
35328,40519,35756
36344,40568,35748
37300,40599,35748
37708,40609,35748
38048,40583,35755
38420,40548,35726
38828,40506,35687
39080,40480,35660
39568,40473,35653
41024,40489,35644
43248,40533,35632
44332,40588,35629
43868,40623,35629
41666,40656,35617
37884,40660,35612
32860,40638,35607
27640,40612,35609
24033,40590,35580
22456,40593,35583
22552,40605,35572
23734,40647,35568
25292,40684,35564
26968,40710,35556
28492,40704,35551
29738,40669,35562
30652,40625,35589
31236,40566,35557
31608,40499,35564
31980,40519,35582
32281,40536,35588
32500,40605,35608
32740,40639,35600
32924,40660,35608
32984,40669,35591
33024,40627,35591
33044,40583,35588
33104,40541,35591
33120,40521,35575
33188,40519,35591
33256,40524,35599
33336,40576,35591
33368,40615,35589
33344,40646,35567
33356,40651,35514
33360,40631,35567
33348,40583,35544
33368,40527,35547
33374,40455,35527
33420,40484,35519
33468,40511,35511
33549,40556,35504
33596,40607,35495
33620,40639,35500
33600,40637,35484
33564,40604,35476
33524,40541,35469
33501,40496,35463
33504,40479,35460
33512,40462,35455
33613,40487,35445
33672,40533,35436
33721,40583,35428
33760,40617,35418
33770,40620,35416
33758,40589,35414
33696,40546,35420
33648,40492,35398
33677,40421,35393
33736,40448,35404
33813,40465,35416
33856,40516,35356
33925,40574,35359
33920,40582,35361
33920,40591,35405
33956,40565,35345
33956,40519,35354
33936,40479,35400
33940,40425,35376
33972,40429,35394
34005,40450,35330
34100,40501,35335
34180,40548,35327
34248,40583,35321
34276,40580,35326
34320,40549,35329
34360,40511,35327
34366,40461,35292
34416,40429,35272
34496,40425,35297
34612,40450,35296
34701,40495,35296
34768,40548,35300
34852,40572,35294
34890,40551,35278
34944,40549,35251
35000,40498,35230
35068,40441,35223
35156,40424,35206
35264,40411,35190
35380,40440,35180
35540,40480,35166
35704,40535,35152
35860,40526,35151
35980,40539,35125
36048,40549,35104
36112,40501,35088
36176,40448,35079
36272,40420,35060
36348,40412,35041
36484,40409,34964
36606,40476,35004
36748,40525,34990
36840,40556,34953
36942,40567,34934
36972,40540,34917
36965,40489,34901
36960,40442,34879
36988,40376,34807
37056,40400,34788
37092,40428,34787
37136,40486,34754
37176,40543,34741
37204,40577,34726
37150,40580,34708
37008,40556,34673
36860,40511,34658
36684,40479,34618
36536,40428,34604
36356,40428,34564
36164,40455,34537
35928,40519,34513
35709,40569,34492
35372,40567,34454
34997,40597,34436
34532,40578,34394
34087,40553,34373
33656,40481,34347
33276,40455,34311
32920,40455,34284
32600,40487,34247
32320,40487,34212
32025,40580,34182
31776,40604,34183
31497,40623,34163
31228,40599,34137
30948,40542,34112
30724,40492,34085
30508,40463,34044
30352,40454,33995
30268,40487,33991
30170,40527,33972
30101,40579,33948
29980,40613,33924
29928,40615,33900
29876,40583,33888
29765,40487,33868
29693,40444,33840
29652,40452,33823
29644,40438,33785
29656,40468,33770
29676,40510,33730
29712,40567,33701
29744,40549,33723
29756,40572,33701
29722,40564,33670
29680,40525,33670
29636,40479,33636
29682,40443,33613
29720,40436,33609
29788,40445,33599
29849,40497,33584
29908,40540,33565
29948,40580,33548
29936,40580,33526
29908,40559,33509
29889,40500,33501
29872,40455,33476
29872,40380,33460
29884,40384,33447
29960,40394,33415
30076,40451,33396
30142,40525,33383
30180,40564,33347
30169,40565,33349
30188,40533,33340
30156,40495,33313
30136,40437,33287
30152,40404,33276
30188,40364,33263
30264,40419,33233
30328,40455,33181
30372,40511,33144
30409,40540,33180
30488,40544,33159
30456,40469,33159
30428,40453,33120
30416,40411,33104
30433,40378,33100
30485,40357,33078
30528,40396,33063
30628,40452,33055
30684,40491,33023
30720,40492,32999
30724,40504,32993
30693,40497,32966
30680,40449,32937
30665,40402,32909
30700,40365,32889
30732,40324,32856
30800,40374,32853
30852,40426,32839
30913,40485,32815
30973,40500,32775
30980,40517,32749
30932,40484,32724
30925,40433,32697
30932,40391,32657
30936,40361,32636
30952,40343,32623
30988,40369,32604
31076,40423,32572
31142,40455,32532
31200,40501,32517
31216,40508,32493
31209,40472,32468
31188,40431,32432
31208,40365,32420
31180,40337,32404
31198,40333,32372
31244,40365,32359
31304,40404,32325
31360,40448,32313
31424,40436,32293
31424,40481,32277
31368,40455,32240
31312,40410,32216
31304,40365,32224
31296,40330,32218
31308,40324,32205
31372,40356,32193
31444,40400,32151
31496,40444,32112
31556,40481,32092
31572,40479,32078
31520,40455,32071
31464,40415,32048
31408,40369,32031
31420,40327,32007
31454,40327,31948
31501,40359,31948
31548,40411,31917
31596,40450,31900
31602,40481,31901
31588,40489,31892
31588,40455,31878
31528,40380,31868
31508,40367,31829
31524,40327,31829
31560,40327,31815
31591,40348,31769
31632,40398,31724
31636,40448,31703
31708,40477,31689
31772,40476,31686
31764,40455,31642
31712,40410,31633
31688,40361,31612
31704,40327,31633
31724,40325,31594
31764,40356,31569
31804,40403,31572
31852,40432,31532
31828,40472,31503
31825,40478,31468
31790,40455,31440
31773,40412,31429
31758,40357,31404
31745,40328,31401
31768,40289,31379
31840,40349,31351
31894,40384,31320
31944,40444,31362
31916,40479,31350
31892,40487,31359
31868,40415,31333
31829,40402,31265
31820,40354,31253
31828,40327,31229
31868,40320,31223
31929,40344,31198
32004,40398,31237
32081,40447,31233
32116,40471,31200
32124,40487,31168
32084,40452,31159
32048,40393,31116
32056,40349,31093
32034,40333,31095
32056,40319,31092
32109,40353,31119
32136,40395,31127
32168,40439,31104
32188,40446,31046
32220,40479,31020
32237,40448,31015
32224,40403,31024
32208,40353,31013
32208,40311,30993
32269,40308,30974
32364,40301,30932
32429,40369,30981
32448,40424,30957
32428,40455,30948
32360,40455,30945
32361,40439,30930
32336,40390,30929
32292,40343,30916
32304,40308,30894
32348,40301,30864
32356,40320,30861
32352,40351,30841
32384,40377,30839
32400,40436,30847
32352,40430,30816
32272,40413,30843
32184,40372,30869
32161,40321,30880
32162,40292,30847
32189,40276,30778
32257,40309,30788
32296,40358,30769
32334,40402,30751
32384,40407,30791
32440,40435,30790
32456,40409,30757
32454,40372,30743
32424,40316,30723
32500,40289,30716
32546,40276,30719
32580,40271,30711
32580,40349,30687
32636,40393,30669
32629,40430,30679
32594,40428,30703
32464,40406,30656
32356,40304,30668
32309,40290,30660
32324,40275,30635
32372,40263,30616
32446,40285,30690
32496,40335,30664
32512,40375,30621
32544,40414,30617
32544,40423,30596
32504,40391,30681
32464,40343,30626
32446,40295,30584
32464,40267,30585
32524,40268,30584
32596,40295,30549
32660,40313,30620
32662,40343,30628
32668,40404,30628
32668,40413,30604
32660,40377,30553
32636,40343,30554
32608,40284,30517
32597,40263,30549
32620,40228,30581
32664,40281,30569
32712,40324,30562
32788,40373,30496
32804,40401,30498
32796,40421,30488
32784,40391,30478
32764,40342,30540
32757,40289,30502
32741,40271,30464
32784,40260,30452
32852,40291,30436
32904,40322,30415
32866,40348,30492
32808,40399,30492
32788,40405,30501
32912,40388,30468
33082,40340,30411
33264,40313,30391
33734,40264,30406
34460,40263,30393
35480,40283,30391
36520,40305,30361
37376,40388,30373
37952,40404,30407
38553,40404,30413
38824,40384,30343
39088,40340,30365
39390,40303,30329
40200,40281,30368
42132,40257,30364
44972,40268,30335
46236,40324,30315
45242,40388,30317
42476,40454,30316
38044,40487,30332
32352,40489,30300
26840,40424,30342
23060,40436,30393
21381,40397,30321
21696,40388,30332
23108,40408,30308
24973,40447,30292
26784,40480,30384
28272,40455,30305
29464,40509,30301
30384,40478,30346
31040,40428,30341
31444,40372,30337
31744,40332,30302
32012,40324,30354
32273,40351,30389
32485,40394,30324
32632,40418,30313
32732,40472,30361
32800,40479,30410
32788,40447,30312
32808,40391,30334
32772,40351,30324
32800,40317,30324
32872,40308,30305
32962,40327,30275
33056,40380,30345
33124,40433,30365
33184,40450,30301
33216,40455,30273
33152,40433,30277
33148,40380,30250
33156,40335,30236
33160,40307,30244
33216,40300,30244
33229,40321,30255
33281,40356,30245
33324,40407,30225
33368,40399,30215
33380,40432,30205
33364,40413,30272
33332,40360,30305
33304,40316,30269
33332,40285,30260
33384,40268,30212
33464,40295,30215
33536,40349,30206
33620,40397,30176
33668,40423,30293
33672,40403,30211
33636,40391,30200
33580,40361,30249
33556,40311,30241
33560,40270,30203
33625,40276,30181
33680,40301,30278
33752,40334,30224
33860,40382,30200
33884,40421,30305
33888,40426,30282
33892,40399,30242
33896,40348,30229
33892,40303,30268
33916,40273,30321
33964,40261,30242
34056,40290,30229
34180,40325,30329
34264,40380,30263
34364,40409,30223
34404,40421,30327
34420,40401,30228
34436,40343,30252
34476,40303,30199
34536,40263,30305
34608,40268,30228
34712,40284,30213
34817,40327,30295
34944,40389,30217
35084,40415,30185
35165,40410,30204
35212,40406,30204
35304,40348,30163
35377,40307,30262
35508,40263,30182
35612,40263,30201
35764,40280,30174
35934,40333,30213
36072,40380,30257
36220,40410,30168
36288,40428,30196
36368,40404,30170
36448,40324,30166
36500,40317,30266
36584,40285,30281
36720,40277,30263
36930,40300,30236
37112,40337,30215
37228,40410,30196
37332,40438,30199
37368,40447,30215
37388,40420,30215
37408,40365,30222
37397,40325,30252
37436,40289,30226
37452,40301,30186
37500,40324,30329
37548,40372,30301
37535,40416,30256
37488,40455,30277
37440,40468,30285
37312,40447,30284
37096,40391,30278
36904,40362,30256
36692,40329,30333
36412,40324,30365
36160,40320,30372
35916,40405,30311
35628,40455,30317
35220,40497,30332
34804,40503,30300
34348,40487,30359
33908,40443,30388
33500,40399,30415
33120,40357,30405
32789,40359,30369
32488,40392,30370
32224,40441,30341
31992,40487,30417
31744,40487,30456
31448,40522,30376
31204,40519,30396
30956,40455,30360
30768,40384,30471
30548,40373,30413
30436,40365,30385
30340,40393,30412
30312,40436,30420
30264,40492,30417
30232,40479,30405
30172,40528,30517
30076,40500,30517
29980,40479,30441
29908,40413,30464
29896,40388,30465
29918,40364,30483
29908,40356,30542
29940,40440,30493
29996,40485,30516
30000,40524,30484
30016,40484,30540
29988,40497,30601
29964,40453,30516
29949,40405,30540
29960,40349,30520
29998,40359,30615
30060,40389,30636
30126,40428,30603
30172,40487,30584
30208,40517,30609
30268,40455,30596
30220,40481,30589
30180,40441,30684
30168,40399,30615
30144,40356,30639
30188,40357,30625
30272,40381,30709
30324,40380,30664
30428,40471,30687
30470,40493,30677
30457,40503,30700
30440,40485,30687
30433,40436,30734
30400,40390,30761
30404,40325,30791
30460,40351,30804
30548,40373,30772
30644,40417,30741
30724,40455,30774
30772,40492,30777
30796,40506,30782
30788,40434,30792
30788,40391,30794
30764,40365,30777
30809,40325,30812
30872,40337,30879
30928,40357,30852
31040,40413,30823
31136,40455,30855
31200,40492,30855
31214,40508,30848
31194,40479,30798
31144,40417,30921
31144,40381,30885
31180,40341,30871
31180,40335,30885
31216,40382,30885
31284,40412,30868
31356,40455,30897
31408,40495,30908
31400,40504,30922
31364,40441,30952
31338,40407,30957
31356,40349,30957
31388,40307,30945
31460,40351,30927
31492,40366,30933
31540,40423,30964
31602,40471,30920
31644,40508,30905
31672,40513,30934
31676,40489,30928
31600,40393,30922
31634,40391,30908
31654,40350,30951
31668,40367,30985
31712,40374,30975
31756,40424,30932
31828,40480,30965
31834,40516,30959
31860,40520,30959
31848,40455,30965
31816,40428,30965
31788,40409,30948
31736,40372,30948
31768,40364,30964
31816,40399,30956
31886,40439,30958
31932,40492,30966
31948,40527,30965
31956,40537,30961
31945,40514,30966
31900,40473,30981
31848,40425,30969
31832,40388,30981
31864,40383,30994
31924,40407,31012
32000,40454,31017
32036,40509,31023
32052,40536,31015
32040,40547,30994
31968,40519,30995
31940,40476,30997
31940,40433,30989
31929,40394,31050
31948,40388,31039
31956,40384,31005
32037,40471,31009
32096,40519,31016
32132,40559,31020
32144,40564,31015
32152,40535,31049
32124,40502,31034
32072,40441,31028
32061,40408,31036
32080,40401,31038
32156,40424,31076
32201,40455,31111
32272,40532,31130
32324,40564,31064
32354,40559,31056
32337,40541,31091
32312,40495,31092
32260,40452,31094
32216,40420,31104
32228,40420,31105
32244,40436,31117
32300,40487,31132
32300,40527,31127
32340,40569,31111
32380,40583,31169
32376,40541,31188
32336,40517,31199
32312,40455,31201
32294,40423,31188
32320,40417,31161
32368,40443,31199
32404,40492,31180
32448,40541,31188
32468,40575,31230
32486,40575,31298
32480,40559,31257
32416,40500,31309
32376,40446,31294
32364,40420,31263
32412,40422,31279
32464,40444,31292
32528,40503,31300
32560,40536,31315
32608,40572,31324
32620,40575,31327
32577,40556,31319
32548,40509,31324
32544,40455,31357
32580,40429,31381
32660,40416,31412
32732,40429,31368
32844,40476,31366
32893,40541,31380
32916,40575,31396
32876,40575,31409
32809,40549,31397
32736,40517,31400
32648,40465,31421
32592,40424,31404
32580,40425,31404
32620,40455,31417
32656,40504,31434
32639,40549,31437
32592,40581,31430
32553,40583,31436
32466,40561,31439
32392,40519,31429
32340,40468,31445
32312,40439,31444
32296,40428,31460
32344,40452,31457
32452,40497,31447
32520,40565,31460
32524,40583,31460
32541,40596,31452
32568,40566,31460
32590,40527,31468
32572,40471,31487
32622,40417,31482
32716,40439,31471
32832,40452,31481
32872,40503,31483
32912,40556,31503
32913,40585,31495
32972,40589,31492
32964,40573,31504
32886,40527,31499
32740,40444,31508
32684,40451,31528
32716,40405,31529
32756,40445,31537
32800,40506,31551
32824,40551,31549
32854,40569,31559
32836,40596,31548
32780,40575,31556
32724,40535,31581
32694,40487,31586
32688,40452,31582
32692,40449,31578
32732,40471,31591
32816,40519,31600
32832,40565,31652
32836,40599,31652
32748,40617,31668
32744,40581,31663
32768,40549,31652
32680,40495,31653
32672,40469,31651
32668,40455,31644
32704,40485,31636
32772,40526,31641
32828,40597,31685
32830,40620,31676
32832,40623,31630
32816,40601,31632
32789,40559,31636
32764,40509,31628
32760,40480,31641
32780,40469,31640
32868,40500,31652
32944,40551,31645
33041,40589,31644
33040,40583,31596
32968,40637,31624
32876,40613,31623
32812,40560,31657
32900,40516,31674
33117,40487,31689
33384,40479,31695
33780,40502,31693
34504,40549,31677
35480,40591,31676
36524,40621,31679
37356,40621,31646
37861,40596,31639
38372,40552,31655
38708,40507,31652
38992,40487,31659
39252,40487,31653
39980,40519,31660
41605,40557,31644
44452,40592,31620
46188,40621,31660
45720,40647,31696
43276,40653,31692
39188,40629,31685
33700,40613,31661
28024,40616,31646
23778,40624,31644
21650,40647,31641
21608,40695,31658
22844,40732,31660
24676,40749,31656
26448,40759,31657
27968,40711,31666
29216,40668,31669
30180,40615,31666
30921,40574,31669
31468,40561,31677
31870,40541,31679
32204,40605,31677
32481,40660,31684
32628,40693,31692
32688,40703,31660
32724,40673,31716
32788,40623,31689
32856,40575,31689
32913,40535,31692
33000,40535,31672
33040,40533,31733
33128,40592,31678
33224,40654,31668
33276,40679,31703
33280,40685,31720
33300,40660,31675
33284,40615,31660
33268,40557,31656
33256,40533,31682
33296,40519,31696
33364,40508,31663
33380,40583,31652
33412,40637,31721
33444,40675,31674
33437,40631,31668
33416,40653,31656
33404,40603,31676
33389,40556,31661
33380,40520,31668
33388,40508,31665
33448,40529,31653
33534,40583,31639
33657,40623,31701
33758,40669,31677
33804,40668,31662
33809,40640,31668
33812,40601,31650
33813,40544,31649
33872,40505,31721
33876,40479,31696
33920,40485,31681
33941,40583,31697
34022,40626,31694
34104,40668,31701
34152,40660,31698
34141,40641,31700
34149,40596,31727
34164,40549,31745
34144,40521,31756
34172,40503,31790
34220,40543,31788
34296,40583,31789
34384,40633,31776
34488,40654,31751
34516,40673,31788
34505,40640,31783
34468,40607,31780
34476,40557,31805
34504,40527,31788
34588,40517,31764
34716,40543,31765
34868,40571,31733
34980,40625,31720
35048,40679,31717
35119,40677,31724
35197,40649,31727
35236,40613,31709
35272,40564,31697
35348,40540,31697
35468,40539,31694
35592,40559,31685
35748,40607,31663
35936,40637,31695
36056,40652,31719
36192,40685,31720
36268,40663,31717
36360,40615,31712
36485,40564,31708
36544,40540,31696
36660,40551,31687
36824,40567,31672
36972,40617,31641
37132,40665,31636
37232,40706,31636
37304,40699,31649
37376,40679,31645
37416,40632,31636
37412,40583,31623
37448,40553,31612
37528,40557,31660
37568,40583,31674
37612,40638,31683
37660,40672,31679
37676,40711,31620
37629,40725,31622
37552,40696,31641
37444,40652,31639
37312,40614,31636
37180,40581,31617
37036,40583,31567
36880,40605,31614
36668,40661,31604
36422,40711,31601
36076,40748,31632
35700,40757,31628
35292,40733,31655
34864,40687,31652
34449,40647,31652
34040,40612,31661
33653,40608,31653
33332,40647,31663
33012,40685,31668
32708,40736,31658
32398,40765,31665
32112,40789,31648
31788,40759,31660
31468,40711,31650
31176,40655,31652
30960,40620,31660
30776,40629,31648
30640,40652,31636
30560,40694,31615
30484,40733,31602
30373,40717,31604
30292,40773,31597
30156,40748,31597
30022,40695,31639
29928,40647,31653
29884,40615,31669
29836,40609,31653
29857,40620,31628
29902,40653,31629
29940,40711,31620
29940,40756,31640
29908,40763,31667
29868,40733,31669
29789,40676,31688
29760,40629,31695
29740,40597,31696
29776,40599,31662
29832,40615,31653
29872,40661,31653
29896,40701,31656
29940,40703,31660
29980,40749,31676
29992,40711,31670
29976,40660,31674
29976,40622,31680
30004,40598,31684
30044,40580,31700
30100,40609,31711
30192,40646,31713
30268,40640,31701
30314,40733,31734
30338,40693,31767
30348,40687,31768
30372,40625,31751
30357,40580,31738
30361,40546,31719
30384,40530,31735
30452,40590,31740
30524,40639,31726
30580,40687,31732
30668,40709,31735
30701,40727,31751
30736,40702,31732
30736,40648,31738
30708,40607,31740
30704,40564,31751
30748,40561,31777
30812,40596,31752
30894,40634,31760
30957,40679,31772
30988,40711,31771
30972,40711,31776
30932,40663,31796
30908,40619,31804
30876,40596,31809
30888,40551,31799
30960,40557,31796
31052,40583,31796
31124,40630,31810
31200,40679,31847
31244,40684,31857
31268,40711,31820
31280,40695,31789
31265,40649,31808
31262,40604,31831
31293,40565,31816
31316,40568,31814
31349,40604,31815
31412,40645,31819
31440,40685,31819
31524,40727,31863
31544,40719,31868
31540,40693,31798
31445,40654,31812
31400,40605,31829
31424,40575,31829
31448,40571,31821
31528,40591,31821
31614,40644,31836
31652,40695,31828
31656,40727,31871
31668,40736,31885
31680,40704,31879
31628,40663,31861
31614,40608,31864
31626,40583,31833
31657,40580,31847
31716,40607,31858
31808,40655,31860
31884,40701,31844
31892,40741,31857
31893,40740,31860
31868,40711,31845
31880,40636,31853
31912,40617,31855
31880,40583,31860
31896,40583,31865
31949,40612,31860
32036,40649,31849
32088,40703,31871
32080,40737,31868
32080,40736,31859
32036,40725,31862
32006,40672,31868
32000,40621,31868
32008,40588,31861
32006,40588,31871
32056,40604,31873
32114,40671,31876
32136,40704,31871
32174,40710,31873
32178,40751,31889
32160,40708,31894
32113,40671,31893
32052,40623,31901
32020,40580,31901
32072,40583,31905
32108,40612,31896
32137,40655,31879
32164,40711,31894
32184,40749,31868
32173,40746,31932
32128,40727,31943
32088,40640,31984
32096,40613,31991
32080,40573,31990
32064,40583,31981
32068,40610,32013
32153,40640,32004
32184,40708,31974
32220,40743,31998
32236,40738,32013
32201,40711,32033
32202,40665,32029
32240,40616,32048
32256,40576,32068
32264,40576,32103
32316,40608,32120
32364,40639,32135
32416,40695,32135
32452,40724,32157
32456,40732,32169
32456,40707,32184
32400,40615,32182
32368,40607,32213
32416,40578,32226
32448,40578,32220
32488,40568,32252
32544,40628,32256
32572,40684,32245
32580,40711,32255
32544,40727,32269
32513,40702,32285
32495,40645,32305
32460,40607,32305
32484,40559,32330
32520,40549,32333
32564,40574,32356
32552,40646,32361
32557,40676,32377
32580,40727,32391
32628,40711,32397
32596,40688,32404
32544,40644,32415
32528,40605,32420
32556,40575,32428
32657,40566,32438
32720,40591,32458
32812,40632,32485
32868,40678,32499
32920,40727,32484
32928,40697,32498
32864,40660,32525
32824,40633,32544
32848,40596,32553
32838,40564,32536
32806,40554,32548
32801,40583,32554
32796,40645,32590
32820,40678,32596
32789,40724,32613
32766,40725,32612
32676,40700,32632
32556,40658,32636
32440,40604,32632
32372,40583,32645
32380,40580,32655
32452,40591,32679
32528,40645,32694
32596,40690,32707
32652,40728,32709
32664,40740,32712
32652,40711,32737
32652,40661,32763
32668,40599,32760
32709,40582,32753
32774,40580,32767
32897,40598,32791
33000,40661,32796
33032,40711,32815
32984,40708,32831
32932,40735,32848
32936,40711,32860
32864,40665,32866
32720,40626,32884
32690,40596,32895
32664,40576,32924
32704,40604,32948
32792,40661,32952
32844,40711,32966
32850,40741,32980
32884,40744,32999
32864,40710,33004
32836,40669,33023
32772,40624,33039
32741,40593,33055
32773,40591,33065
32808,40573,33069
32872,40654,33103
32936,40703,33133
32956,40749,33125
32924,40756,33140
32884,40711,33142
32816,40668,33177
32756,40631,33201
32780,40583,33207
32804,40583,33205
32905,40623,33220
32989,40669,33245
33024,40710,33252
33084,40741,33260
33152,40741,33303
33172,40732,33293
33148,40654,33308
33116,40631,33311
33168,40599,33338
33236,40596,33356
33177,40609,33362
33184,40655,33362
33208,40711,33387
33248,40759,33399
33216,40763,33424
33097,40692,33449
32960,40679,33441
32912,40636,33457
33032,40596,33477
33268,40601,33481
33512,40623,33497
33976,40655,33509
34684,40711,33516
35632,40740,33524
36652,40740,33536
37484,40711,33529
37900,40671,33560
38384,40617,33566
38784,40579,33586
39180,40583,33608
39520,40612,33617
40336,40660,33625
42159,40701,33625
44764,40730,33638
46098,40725,33636
45408,40711,33671
42928,40696,33668
38740,40664,33676
33340,40685,33680
27820,40703,33721
23904,40744,33722
22080,40789,33697
22188,40815,33730
23424,40849,33761
25152,40854,33772
26888,40800,33785
28404,40748,33772
29680,40700,33799
30692,40660,33829
31401,40649,33844
31908,40669,33852
32272,40673,33858
32542,40749,33877
32704,40790,33878
32768,40798,33920
32888,40763,33927
32945,40725,33933
32993,40668,33949
33052,40621,33948
33104,40615,33956
33149,40639,33964
33254,40695,33991
33312,40740,34008
33381,40735,34012
33368,40769,34017
33352,40743,34025
33344,40703,34031
33324,40652,34050
33336,40583,34068
33324,40607,34076
33348,40625,34079
33436,40673,34098
33505,40720,34107
33552,40773,34112
33568,40760,34114
33508,40744,34123
33472,40670,34135
33472,40638,34149
33481,40613,34164
33505,40604,34162
33564,40621,34166
33589,40671,34156
33652,40711,34199
33645,40765,34213
33652,40762,34207
33652,40740,34217
33620,40695,34232
33604,40648,34245
33616,40615,34255
33636,40614,34265
33656,40637,34273
33708,40679,34260
33784,40711,34277
33824,40767,34294
33856,40774,34320
33866,40751,34349
33852,40695,34351
33846,40643,34377
33860,40620,34389
33912,40607,34398
33993,40647,34368
34056,40660,34397
34148,40740,34433
34260,40779,34444
34340,40773,34453
34364,40751,34463
34408,40693,34455
34452,40663,34495
34488,40631,34487
34532,40599,34462
34597,40646,34517
34696,40693,34505
34788,40743,34516
34856,40781,34496
34928,40747,34500
34988,40751,34535
35052,40700,34551
35136,40663,34548
35225,40612,34559
35300,40612,34534
35444,40647,34550
35569,40692,34567
35708,40750,34586
35784,40749,34583
35847,40791,34596
35948,40756,34594
36016,40739,34589
36104,40673,34641
36209,40597,34639
36348,40620,34660
36516,40654,34631
36760,40703,34661
36920,40754,34693
37080,40772,34688
37180,40791,34702
37240,40768,34680
37248,40724,34708
37304,40676,34741
37336,40621,34742
37376,40624,34758
37408,40660,34767
37484,40708,34733
37500,40758,34782
37512,40799,34797
37500,40799,34792
37432,40780,34821
37380,40733,34769
37288,40685,34791
37172,40669,34814
37084,40648,34844
36956,40678,34844
36796,40711,34852
36616,40766,34836
36356,40807,34823
36060,40815,34872
35692,40796,34888
35272,40751,34870
34848,40705,34853
34400,40646,34872
34020,40668,34897
33724,40700,34896
33452,40749,34873
33185,40783,34864
32876,40829,34900
32544,40820,34924
32228,40797,34925
31865,40775,34919
31545,40687,34911
31252,40677,34919
30980,40671,34920
30778,40708,34895
30669,40733,34909
30640,40793,34951
30576,40817,34951
30477,40829,34956
30358,40791,34948
30244,40752,34951
30156,40707,34956
30096,40674,34967
30077,40663,34935
30060,40661,34932
30084,40724,34943
30096,40770,34965
30076,40815,34999
30045,40823,34988
29968,40764,34988
29936,40743,35013
29968,40692,34977
30012,40654,34989
30060,40647,35031
30168,40645,35029
30208,40710,35037
30208,40773,35044
30200,40796,35031
30204,40796,35035
30160,40775,35066
30127,40729,35088
30084,40639,35101
30124,40645,35091
30172,40638,35108
30220,40668,35073
30300,40703,35090
30381,40732,35124
30436,40789,35165
30454,40799,35152
30432,40764,35177
30428,40711,35130
30381,40640,35191
30384,40631,35217
30450,40639,35207
30556,40654,35234
30668,40710,35197
30748,40749,35205
30808,40783,35255
30869,40788,35252
30880,40766,35260
30884,40711,35286
30844,40656,35253
30848,40630,35250
30892,40623,35268
30938,40654,35303
31008,40702,35321
31077,40751,35366
31152,40767,35350
31204,40781,35363
31220,40762,35380
31246,40708,35353
31253,40676,35353
31264,40639,35352
31276,40629,35364
31308,40654,35385
31352,40676,35428
31404,40740,35449
31452,40777,35444
31484,40789,35437
31448,40765,35449
31376,40711,35463
31364,40633,35432
31396,40629,35436
31368,40620,35417
31424,40652,35431
31512,40697,35429
31580,40751,35429
31636,40788,35448
31689,40797,35500
31656,40740,35484
31536,40709,35439
31464,40662,35495
31480,40582,35516
31536,40636,35516
31582,40647,35519
31668,40705,35532
31752,40743,35508
31772,40781,35493
31754,40790,35505
31724,40762,35545
31705,40711,35559
31661,40670,35553
31638,40639,35546
31677,40623,35564
31713,40657,35564
31768,40703,35589
31820,40748,35621
31896,40735,35627
31889,40774,35628
31862,40756,35648
31901,40708,35647
31814,40663,35631
31784,40629,35659
31840,40628,35660
31872,40655,35676
31864,40698,35676
31910,40748,35686
31916,40772,35692
31893,40750,35696
31876,40724,35705
31844,40669,35709
31863,40631,35677
31872,40623,35653
31946,40605,35697
32028,40627,35745
32096,40678,35735
32124,40720,35743
32160,40723,35748
32124,40716,35767
32100,40728,35767
32028,40687,35730
32024,40639,35737
32032,40597,35786
32052,40585,35737
32096,40612,35765
32164,40656,35746
32264,40704,35803
32321,40740,35836
32346,40748,35824
32332,40710,35816
32264,40678,35838
32192,40583,35794
32176,40583,35801
32220,40583,35872
32276,40610,35876
32340,40661,35876
32390,40658,35881
32420,40735,35824
32456,40741,35837
32417,40711,35887
32328,40661,35917
32276,40615,35916
32256,40583,35927
32268,40583,35880
32292,40599,35929
32364,40636,35949
32392,40701,35953
32464,40729,35909
32461,40735,35892
32468,40673,35918
32472,40662,35969
32476,40620,35924
32448,40575,35908
32440,40561,35964
32444,40591,36012
32516,40635,35990
32608,40692,35934
32640,40710,36007
32652,40732,36021
32612,40706,36008
32580,40645,35948
32556,40597,35980
32548,40575,36013
32609,40558,36023
32670,40582,35961
32689,40636,36027
32736,40679,36022
32728,40708,36039
32716,40688,35988
32716,40689,35972
32696,40650,36048
32692,40607,36036
32750,40564,36030
32792,40566,36033
32842,40588,35991
32896,40631,36026
32916,40695,36057
32948,40711,36050
32960,40729,36060
32900,40703,35980
32820,40644,36053
32704,40601,36049
32644,40583,36004
32632,40538,36000
32636,40599,36068
32652,40644,36063
32692,40693,36063
32668,40718,36075
32620,40732,36034
32560,40703,36000
32481,40656,36061
32416,40620,36079
32444,40580,36078
32500,40570,36072
32540,40583,36077
32590,40637,36092
32672,40703,36028
32780,40719,36096
32796,40732,36087
32800,40694,36117
32773,40657,36042
32821,40605,36125
32916,40580,36103
32952,40583,36044
32980,40599,36110
33008,40633,36121
33000,40679,36127
32968,40727,36089
32864,40732,36065
32768,40671,36088
32738,40651,36157
32692,40605,36141
32628,40569,36079
32612,40575,36137
32650,40589,36144
32748,40629,36166
32822,40671,36100
32828,40735,36078
32880,40711,36172
32908,40671,36165
32848,40645,36175
32792,40591,36171
32740,40561,36169
32732,40557,36182
32764,40583,36094
32764,40596,36148
32832,40671,36167
32920,40711,36185
32925,40711,36103
32920,40668,36164
32928,40629,36177
32868,40599,36164
32860,40564,36109
32868,40553,36124
32908,40567,36174
32936,40608,36148
32980,40661,36163
32997,40694,36085
33020,40678,36133
32992,40661,36163
32996,40621,36139
32989,40566,36148
33004,40550,36068
33024,40533,36137
33112,40556,36117
33108,40605,36132
33064,40636,36061
33040,40647,36133
32984,40679,36113
33004,40661,36025
33084,40602,36093
33236,40559,36096
33616,40534,36079
34264,40516,36088
35152,40539,36085
36216,40574,36031
37160,40588,36013
37600,40647,36011
38000,40644,35984
38432,40639,35988
38848,40571,36048
39032,40544,36024
39576,40519,36015
41180,40507,36001
43372,40516,36012
44492,40560,36000
44000,40617,35929
41856,40685,35929
38021,40721,35944
32980,40718,35959
27764,40696,35982
24124,40660,35956
22461,40629,35943
22569,40612,35953
23724,40583,35908
25225,40663,35884
26902,40695,35892
28410,40732,35909
29632,40725,35935
30616,40694,35927
31208,40644,35943
31580,40599,35937
31860,40559,35916
32116,40545,35897
32344,40564,35876
32577,40607,35898
32768,40632,35920
32920,40671,35917
33002,40677,35906
33068,40645,35900
33052,40617,35883
33004,40564,35884
32940,40527,35884
32964,40509,35867
33024,40540,35871
33142,40584,35868
33232,40639,35845
33292,40639,35837
33300,40676,35836
33228,40653,35830
33184,40609,35819
33168,40559,35761
33216,40527,35724
33232,40519,35718
33292,40503,35766
33328,40581,35764
33396,40631,35740
33413,40663,35729
33425,40661,35719
33404,40638,35711
33336,40591,35708
33352,40556,35700
33384,40521,35681
33412,40511,35678
33468,40527,35657
33524,40583,35640
33568,40635,35566
33604,40653,35565
33588,40653,35588
33565,40629,35580
33512,40594,35564
33500,40540,35556
33480,40511,35564
33460,40477,35473
33472,40527,35474
33564,40570,35496
33720,40612,35495
33792,40665,35500
33820,40661,35492
33828,40639,35470
33820,40583,35434
33804,40543,35429
33804,40503,35444
33788,40495,35436
33848,40519,35387
33936,40559,35352
34016,40613,35380
34104,40618,35372
34134,40656,35353
34181,40623,35356
34212,40602,35325
34244,40527,35282
34252,40495,35253
34328,40493,35224
34454,40517,35240
34572,40555,35225
34704,40607,35212
34804,40646,35140
34864,40647,35149
34904,40615,35151
34940,40567,35132
35008,40532,35072
35116,40495,35043
35240,40493,35045
35368,40512,35044
35540,40549,35021
35688,40596,34956
35844,40636,34952
35932,40641,34974
36036,40612,34932
36108,40565,34917
36196,40516,34898
36264,40455,34880
36384,40476,34822
36500,40488,34798
36648,40536,34819
36768,40591,34781
36844,40621,34726
36880,40607,34726
36894,40597,34725
36880,40559,34693
36932,40513,34668
36928,40487,34617
37000,40471,34600
37052,40501,34591
37089,40546,34564
37116,40559,34541
37108,40620,34519
37048,40621,34479
36940,40596,34467
36764,40563,34384
36544,40517,34372
36332,40495,34373
36116,40493,34340
35909,40503,34292
35672,40550,34276
35389,40596,34259
35068,40653,34236
34712,40652,34196
34314,40628,34167
33853,40577,34141
33440,40524,34116
33052,40485,34081
32720,40486,34044
32428,40513,34029
32100,40559,34004
31824,40620,33981
31596,40644,33942
31352,40655,33917
31076,40623,33903
30844,40573,33866
30622,40524,33838
30424,40501,33809
30292,40493,33786
30188,40515,33749
30120,40567,33725
30084,40570,33692
30000,40623,33679
29940,40614,33653
29849,40609,33639
29780,40556,33621
29705,40500,33604
29680,40479,33564
29632,40464,33551
29656,40490,33511
29728,40533,33496
29804,40583,33479
29824,40612,33453
29840,40641,33429
29788,40599,33353
29728,40548,33335
29685,40501,33357
29696,40455,33343
29728,40451,33317
29758,40477,33309
29832,40526,33279
29908,40580,33252
29932,40608,33244
29981,40625,33228
29992,40580,33221
29989,40532,33188
29972,40500,33164
29988,40453,33139
30002,40452,33121
30052,40476,33111
30132,40521,33111
30188,40521,33071
30276,40596,33077
30340,40617,33038
30336,40548,33012
30348,40540,32990
30368,40476,32969
30372,40452,32941
30422,40447,32917
30468,40471,32892
30544,40493,32850
30580,40556,32857
30644,40595,32824
30668,40592,32815
30668,40568,32817
30640,40520,32799
30621,40455,32768
30644,40447,32740
30688,40441,32724
30764,40455,32697
30858,40500,32684
30917,40551,32663
30980,40576,32647
30976,40594,32615
30956,40568,32581
30944,40524,32561
30980,40471,32576
30996,40443,32540
30984,40426,32515
31036,40452,32481
31106,40485,32447
31169,40545,32425
31225,40572,32396
31240,40575,32370
31296,40553,32343
31244,40504,32316
31216,40477,32292
31220,40435,32260
31212,40427,32236
31300,40444,32199
31341,40489,32191
31384,40533,32198
31424,40533,32172
31412,40573,32116
31404,40548,32100
31368,40503,32080
31381,40445,32052
31352,40423,32032
31360,40405,32052
31372,40431,32021
31440,40478,31999
31484,40490,31957
31520,40551,31947
31514,40549,31927
31480,40528,31905
31444,40479,31868
31440,40430,31884
31432,40392,31871
31450,40388,31871
31468,40417,31844
31528,40455,31819
31596,40509,31828
31620,40539,31818
31604,40556,31800
31576,40516,31778
31564,40468,31743
31504,40417,31716
31508,40387,31678
31550,40373,31687
31596,40388,31680
31668,40444,31652
31700,40497,31645
31696,40516,31588
31708,40535,31549
31680,40469,31534
31637,40427,31524
31620,40402,31511
31624,40364,31485
31688,40357,31449
31741,40383,31455
31836,40426,31460
31900,40479,31444
31914,40516,31424
31904,40516,31367
31881,40455,31362
31804,40438,31348
31790,40365,31324
31785,40320,31292
31800,40354,31286
31872,40375,31280
31900,40412,31248
31924,40487,31230
31908,40503,31215
31948,40503,31166
31912,40493,31221
31884,40440,31248
31880,40360,31212
31848,40327,31190
31874,40319,31187
31900,40357,31142
31964,40419,31111
32020,40455,31108
32053,40481,31103
32028,40486,31079
32024,40484,31095
32010,40428,31076
31972,40375,31041
31965,40328,31020
32012,40335,31076
32064,40325,31077
32149,40399,31055
32201,40450,31034
32216,40487,31024
32217,40500,30967
32148,40471,30967
32109,40428,30959
32068,40374,30964
32048,40307,30949
32064,40333,30943
32149,40360,30927
32204,40422,30925
32240,40455,30916
32272,40495,30909
32324,40497,30911
32348,40469,30887
32288,40429,30865
32252,40375,30856
32272,40345,30856
32269,40340,30852
32273,40351,30853
32344,40375,30839
32416,40452,30830
32481,40495,30814
32497,40489,30823
32528,40455,30814
32472,40431,30798
32460,40381,30805
32504,40349,30768
32568,40327,30820
32640,40361,30838
32732,40404,30780
32760,40455,30778
32758,40480,30743
32740,40499,30791
32680,40469,30817
32648,40391,30734
32556,40378,30720
32532,40343,30716
32540,40335,30716
32528,40351,30700
32528,40396,30697
32488,40455,30689
32444,40484,30684
32412,40489,30704
32384,40472,30681
32304,40428,30684
32212,40375,30685
32228,40333,30676
32268,40327,30668
32305,40342,30662
32388,40403,30636
32457,40429,30690
32520,40448,30706
32564,40471,30672
32584,40455,30647
32524,40419,30631
32516,40363,30628
32504,40343,30628
32552,40304,30618
32545,40344,30599
32588,40397,30644
32668,40437,30644
32688,40469,30589
32624,40473,30590
32520,40448,30583
32460,40409,30604
32436,40339,30634
32436,40316,30652
32484,40317,30638
32540,40337,30535
32624,40369,30577
32696,40413,30594
32689,40454,30598
32676,40455,30581
32668,40437,30585
32628,40388,30572
32604,40327,30549
32620,40301,30559
32644,40284,30641
32670,40309,30569
32704,40362,30554
32761,40419,30561
32748,40443,30534
32756,40443,30528
32744,40423,30583
32688,40372,30610
32660,40317,30598
32656,40240,30558
32617,40256,30544
32636,40295,30531
32696,40351,30516
32781,40399,30500
32828,40425,30533
32850,40437,30520
32860,40407,30488
32808,40359,30484
32800,40310,30487
32792,40276,30476
32836,40250,30481
32874,40263,30492
32900,40332,30520
32865,40379,30493
32812,40413,30457
32856,40421,30458
32952,40391,30500
33108,40336,30501
33321,40295,30493
33848,40255,30480
34572,40253,30439
35588,40265,30463
36608,40309,30456
37456,40367,30449
38028,40372,30420
38592,40394,30492
38812,40373,30517
39045,40341,30516
39384,40289,30497
40308,40261,30426
42340,40241,30425
45184,40252,30440
46317,40296,30438
45264,40367,30404
42512,40422,30450
38020,40476,30504
32336,40472,30484
26868,40455,30471
23120,40402,30425
21520,40384,30404
21872,40372,30423
23284,40389,30434
25190,40428,30401
26976,40455,30418
28464,40495,30416
29632,40493,30414
30544,40452,30444
31189,40375,30404
31632,40356,30423
31936,40317,30414
32224,40311,30423
32460,40324,30430
32638,40371,30437
32768,40416,30455
32888,40455,30428
32956,40445,30414
32990,40420,30411
32992,40380,30401
33001,40327,30394
33020,40285,30407
33088,40301,30394
33144,40305,30389
33200,40357,30389
33276,40403,30385
33308,40442,30383
33312,40438,30380
33304,40382,30372
33288,40367,30356
33248,40308,30369
33220,40249,30358
33266,40255,30364
33328,40302,30358
33392,40349,30364
33444,40383,30385
33460,40430,30389
33485,40429,30373
33464,40400,30359
33456,40352,30379
33416,40308,30421
33369,40270,30423
33381,40264,30433
33416,40292,30332
33492,40327,30339
33508,40372,30360
33512,40381,30369
33504,40419,30367
33496,40389,30364
33500,40343,30353
33472,40301,30348
33494,40263,30356
33540,40264,30359
33600,40285,30392
33697,40327,30445
33800,40374,30436
33876,40398,30429
33889,40404,30373
33893,40381,30385
33876,40327,30397
33876,40286,30402
33908,40249,30421
33974,40244,30404
34040,40240,30412
34119,40301,30407
34198,40357,30381
34248,40386,30439
34260,40387,30471
34306,40359,30481
34304,40308,30455
34316,40268,30431
34376,40220,30468
34453,40230,30460
34536,40253,30451
34664,40295,30442
34756,40342,30436
34888,40368,30445
34972,40364,30380
35040,40341,30365
35070,40301,30341
35136,40252,30343
35220,40214,30351
35328,40199,30348
35464,40220,30371
35644,40276,30367
35793,40327,30364
35948,40364,30343
36073,40360,30372
36144,40328,30377
36188,40295,30351
36232,40239,30380
36348,40199,30353
36520,40194,30360
36664,40237,30375
36844,40261,30460
36992,40325,30466
37072,40344,30437
37152,40353,30396
37164,40327,30413
37180,40284,30412
37196,40239,30424
37201,40199,30437
37204,40199,30446
37184,40231,30446
37232,40282,30456
37272,40311,30441
37284,40359,30452
37236,40359,30468
37088,40333,30476
36928,40294,30468
36720,40255,30466
36540,40217,30477
36360,40221,30497
36108,40216,30553
35832,40263,30572
35540,40327,30584
35188,40364,30549
34782,40383,30517
34376,40358,30511
33972,40313,30535
33560,40228,30535
33168,40205,30532
32829,40223,30561
32516,40257,30533
32224,40292,30577
31976,40356,30632
31709,40382,30616
31453,40388,30572
31192,40369,30565
30880,40316,30583
30649,40276,30596
30465,40238,30577
30316,40223,30598
30208,40257,30589
30180,40301,30592
30148,40351,30592
30060,40368,30609
29948,40397,30638
29844,40365,30708
29709,40327,30712
29620,40247,30655
29601,40229,30653
29556,40230,30661
29572,40244,30672
29636,40301,30664
29680,40359,30693
29724,40364,30680
29732,40384,30725
29708,40340,30780
29668,40324,30780
29660,40261,30765
29688,40231,30761
29740,40215,30722
29784,40191,30746
29836,40283,30748
29941,40327,30744
29996,40356,30742
30024,40373,30791
30033,40341,30838
30032,40301,30804
30038,40247,30780
30117,40212,30808
30144,40199,30785
30180,40233,30860
30252,40279,30810
30329,40313,30836
30408,40327,30820
30448,40353,30871
30464,40335,30919
30464,40281,30928
30476,40255,30930
30489,40199,30940
30560,40193,30951
30636,40217,30910
30680,40263,30875
30726,40311,30895
30784,40343,30904
30816,40349,30904
30816,40316,30892
30796,40279,30947
30780,40169,30996
30812,40157,30995
30853,40153,31020
30908,40199,31024
30992,40246,31029
31052,40301,31033
31073,40338,31032
31104,40342,31048
31108,40309,31046
31105,40266,31065
31076,40207,31029
31108,40179,31028
31164,40175,30974
31208,40195,31016
31288,40223,31032
31372,40286,31081
31360,40316,31079
31335,40309,31085
31340,40245,31069
31300,40199,31075
31293,40167,31079
31316,40165,31080
31404,40141,31097
31448,40177,31101
31508,40217,31076
31596,40261,31068
31652,40294,31063
31640,40295,31079
31644,40279,31081
31629,40229,31078
31596,40169,31087
31593,40140,31077
31620,40143,31084
31700,40159,31087
31744,40207,31082
31826,40253,31078
31888,40253,31069
31904,40288,31084
31889,40225,31097
31848,40199,31119
31848,40167,31102
31828,40133,31103
31844,40128,31111
31864,40153,31125
31904,40193,31167
31929,40236,31175
31957,40271,31180
31972,40279,31196
31964,40263,31141
31904,40199,31133
31900,40153,31141
31920,40125,31138
31960,40112,31141
31988,40149,31136
32077,40196,31143
32126,40240,31142
32148,40263,31156
32164,40274,31165
32128,40247,31164
32076,40198,31168
32026,40165,31161
32052,40100,31173
32064,40111,31158
32105,40132,31162
32164,40197,31156
32256,40230,31172
32304,40263,31152
32332,40269,31156
32356,40236,31211
32329,40176,31215
32228,40157,31153
32256,40125,31161
32301,40116,31169
32336,40141,31175
32412,40190,31141
32440,40245,31202
32448,40276,31212
32449,40240,31264
32450,40248,31215
32364,40212,31231
32312,40133,31207
32288,40133,31285
32365,40119,31255
32432,40149,31249
32456,40167,31266
32516,40236,31253
32516,40279,31314
32504,40277,31320
32500,40252,31334
32461,40207,31304
32416,40159,31300
32464,40130,31328
32480,40123,31316
32536,40155,31325
32628,40183,31324
32668,40238,31368
32716,40263,31402
32682,40284,31425
32664,40254,31429
32590,40212,31389
32525,40124,31391
32456,40127,31419
32509,40125,31404
32645,40148,31407
32733,40196,31415
32748,40237,31480
32741,40277,31468
32752,40284,31453
32745,40215,31462
32700,40213,31461
32652,40167,31495
32656,40093,31500
32676,40125,31486
32709,40156,31495
32784,40197,31487
32884,40253,31517
32932,40273,31557
32928,40276,31516
32924,40244,31524
32948,40208,31539
32952,40135,31520
32940,40125,31568
32985,40127,31589
32972,40156,31554
32996,40197,31552
33016,40242,31563
33045,40271,31549
32981,40289,31544
32888,40260,31542
32832,40206,31551
32800,40167,31552
32733,40135,31564
32652,40131,31604
32608,40148,31628
32624,40191,31630
32664,40243,31623
32668,40271,31637
32600,40249,31636
32520,40252,31629
32488,40197,31634
32512,40159,31628
32532,40127,31620
32596,40117,31640
32668,40135,31605
32780,40173,31621
32860,40228,31623
32896,40260,31622
32908,40237,31629
32916,40247,31625
32936,40185,31628
32944,40141,31673
32912,40119,31685
32924,40091,31696
32961,40119,31703
33008,40170,31708
32996,40221,31679
32964,40225,31687
32932,40256,31686
32912,40237,31704
32841,40156,31740
32784,40140,31744
32760,40108,31724
32792,40095,31717
32845,40125,31708
32864,40128,31719
32900,40199,31725
32971,40241,31720
32964,40255,31757
32925,40188,31759
32888,40181,31728
32870,40121,31740
32892,40103,31751
32876,40089,31749
32872,40108,31743
32908,40118,31739
32972,40191,31735
32976,40237,31745
32950,40239,31736
32916,40231,31760
32865,40177,31785
32864,40126,31781
32881,40099,31747
32888,40088,31751
32911,40108,31780
32933,40159,31797
32992,40207,31795
33024,40239,31794
33036,40199,31773
33004,40216,31751
32948,40166,31744
32916,40124,31750
32902,40087,31748
32884,40082,31751
32820,40108,31751
32804,40156,31738
32901,40199,31741
33092,40243,31741
33340,40253,31751
33636,40217,31786
34192,40167,31772
34912,40124,31751
35844,40093,31751
36728,40084,31744
37444,40090,31743
38004,40151,31729
38552,40212,31768
38796,40239,31772
39052,40252,31783
39392,40243,31781
40352,40199,31736
42574,40127,31751
45208,40084,31760
45860,40090,31748
44352,40132,31748
41248,40210,31744
36476,40281,31733
30776,40348,31757
25676,40393,31793
22404,40377,31784
21256,40327,31785
21872,40199,31780
23460,40221,31747
25384,40206,31758
27120,40231,31767
28584,40240,31761
29744,40311,31758
30668,40324,31744
31300,40335,31751
31732,40310,31780
32020,40258,31813
32176,40205,31808
32320,40141,31818
32452,40149,31782
32586,40186,31789
32704,40236,31794
32820,40235,31780
32876,40301,31766
32898,40303,31764
32893,40280,31788
32856,40236,31803
32864,40182,31780
32892,40156,31800
32932,40156,31799
33009,40173,31788
33060,40212,31751
33148,40270,31765
33188,40294,31760
33165,40301,31780
33168,40276,31769
33156,40229,31748
33148,40183,31751
33176,40151,31742
33216,40138,31750
33256,40122,31751
33348,40209,31743
33401,40255,31733
33417,40294,31748
33408,40284,31780
33400,40260,31781
33356,40223,31734
33336,40164,31736
33336,40139,31732
33352,40097,31748
33388,40154,31745
33474,40189,31716
33544,40240,31773
33612,40276,31777
33632,40252,31751
33648,40246,31751
33620,40224,31768
33564,40153,31765
33549,40087,31768
33584,40108,31815
33612,40133,31794
33712,40184,31791
33800,40231,31783
33860,40268,31833
33888,40269,31833
33952,40246,31798
33948,40178,31812
33968,40147,31820
34024,40113,31807
34140,40084,31799
34240,40127,31859
34352,40176,31844
34452,40209,31821
34528,40252,31798
34508,40262,31829
34489,40236,31839
34533,40189,31814
34620,40131,31801
34676,40097,31800
34778,40100,31780
34924,40131,31777
35070,40125,31807
35213,40212,31781
35316,40246,31761
35409,40257,31748
35464,40236,31745
35516,40183,31728
35592,40139,31773
35670,40094,31762
35804,40097,31743
35950,40112,31737
36124,40167,31712
36312,40212,31727
36440,40239,31692
36564,40261,31736
36665,40216,31746
36716,40187,31725
36784,40135,31697
36901,40098,31693
37021,40089,31678
37152,40127,31695
37272,40169,31727
37420,40183,31690
37516,40245,31681
37544,40253,31668
37537,40233,31679
37486,40190,31659
37444,40117,31689
37429,40111,31702
37433,40100,31704
37428,40145,31684
37416,40199,31654
37352,40219,31668
37280,40273,31657
37153,40292,31665
36928,40268,31644
36629,40227,31644
36360,40159,31652
36032,40149,31653
35740,40151,31653
35476,40179,31640
35144,40220,31648
34812,40277,31639
34449,40270,31640
34012,40316,31644
33590,40295,31637
33160,40247,31628
32801,40204,31633
32448,40175,31633
32148,40173,31636
31904,40167,31647
31656,40236,31640
31448,40285,31636
31224,40312,31645
31008,40327,31644
30760,40311,31634
30520,40223,31652
30320,40215,31655
30144,40180,31657
30036,40172,31663
29982,40197,31653
29944,40225,31660
29912,40302,31665
29870,40310,31682
29816,40327,31687
29760,40300,31676
29696,40263,31692
29648,40190,31697
29620,40175,31708
29620,40156,31725
29661,40190,31720
29697,40228,31725
29718,40285,31727
29740,40308,31788
29744,40321,31764
29756,40295,31782
29760,40251,31775
29728,40197,31790
29776,40161,31813
29784,40163,31844
29889,40149,31860
30016,40216,31867
30073,40271,31844
30087,40300,31879
30076,40311,31860
30116,40268,31879
30112,40228,31896
30112,40193,31906
30112,40157,31920
30172,40156,31916
30236,40130,31924
30324,40190,31941
30412,40263,31968
30444,40285,31961
30432,40303,31977
30429,40257,31980
30408,40220,32005
30372,40156,32035
30441,40137,32004
30480,40095,32017
30512,40137,32026
30536,40191,32007
30624,40244,32069
30684,40237,32084
30752,40270,32078
30760,40255,32072
30752,40215,32092
30754,40148,32100
30776,40111,32117
30816,40071,32132
30900,40133,32168
30950,40173,32172
31044,40216,32188
31134,40263,32181
31152,40275,32196
31165,40236,32200
31140,40191,32212
31104,40142,32211
31124,40083,32224
31141,40107,32252
31188,40127,32246
31237,40183,32254
31304,40196,32263
31340,40251,32263
31352,40260,32309
31336,40239,32307
31300,40167,32313
31252,40143,32324
31288,40109,32316
31380,40092,32324
31440,40125,32314
31480,40159,32382
31548,40209,32390
31564,40245,32391
31560,40248,32388
31552,40225,32415
31526,40161,32447
31512,40132,32452
31572,40102,32447
31628,40093,32458
31712,40123,32473
31780,40156,32460
31860,40199,32511
31920,40244,32532
31957,40231,32548
31896,40223,32553
31824,40172,32559
31784,40133,32569
31764,40068,32582
31784,40077,32614
31853,40108,32621
31908,40150,32622
31977,40198,32636
32048,40225,32636
32032,40241,32652
32020,40220,32687
31992,40177,32687
32040,40129,32709
32081,40121,32706
32136,40103,32711
32148,40087,32732
32228,40157,32769
32244,40231,32764
32256,40244,32775
32252,40225,32783
32197,40236,32792
32161,40189,32828
32152,40143,32825
32192,40103,32839
32229,40092,32849
32256,40125,32850
32318,40169,32883
32360,40219,32893
32390,40253,32904
32376,40263,32913
32316,40238,32939
32280,40186,32966
32237,40142,32978
32224,40069,32993
32256,40103,33005
32320,40138,33012
32364,40169,32980
32456,40223,33047
32526,40260,33077
32560,40263,33093
32564,40245,33109
32484,40194,33129
32440,40140,33141
32457,40094,33187
32466,40092,33202
32488,40126,33212
32584,40166,33229
32665,40220,33253
32716,40249,33268
32688,40262,33279
32621,40233,33312
32552,40188,33341
32513,40132,33353
32532,40108,33375
32564,40084,33390
32609,40119,33397
32668,40161,33418
32732,40220,33445
32790,40251,33474
32824,40252,33501
32849,40199,33511
32832,40189,33527
32828,40132,33533
32852,40101,33543
32862,40093,33572
32860,40087,33600
32868,40165,33620
32880,40212,33638
32872,40265,33652
32856,40263,33665
32852,40224,33665
32872,40167,33676
32830,40118,33722
32800,40099,33738
32832,40089,33745
32916,40111,33774
33024,40157,33783
33080,40196,33799
33120,40235,33815
33156,40245,33805
33180,40217,33844
33152,40174,33868
33124,40119,33878
33124,40093,33897
33112,40055,33916
33135,40092,33900
33154,40154,33934
33200,40199,33972
33152,40229,33974
33080,40239,33991
33034,40180,33983
32956,40157,34000
32869,40116,34048
32812,40041,34047
32740,40071,34051
32684,40108,34089
32692,40136,34104
32708,40199,34125
32736,40223,34133
32772,40191,34124
32772,40196,34151
32769,40157,34185
32796,40116,34207
32846,40073,34228
32906,40029,34238
32984,40090,34247
33068,40134,34271
33124,40148,34251
33140,40212,34300
33138,40229,34333
33096,40199,34338
33016,40148,34364
32976,40101,34351
32944,40068,34368
32924,40065,34423
32896,40061,34428
32948,40127,34437
32982,40164,34468
33024,40207,34484
33030,40220,34469
32988,40164,34527
32944,40147,34537
32870,40111,34557
32832,40065,34567
32864,40061,34556
32928,40071,34564
33004,40116,34613
33100,40167,34644
33136,40199,34653
33140,40208,34637
33120,40190,34692
33068,40140,34695
33024,40087,34725
33012,40063,34695
33068,40048,34752
33124,40079,34757
33196,40131,34748
33210,40140,34795
33212,40207,34799
33200,40225,34813
33132,40191,34793
33104,40149,34823
33048,40103,34865
33028,40048,34874
33052,40061,34833
33124,40076,34867
33220,40132,34912
33280,40146,34925
33328,40220,34925
33300,40223,34903
33280,40199,34924
33236,40156,34972
33132,40072,34972
33060,40069,34956
33140,40060,34968
33352,40086,35015
33598,40137,35028
33965,40180,35039
34532,40188,34989
35264,40212,35009
36188,40180,35034
37140,40145,35045
37832,40092,35085
38156,40039,35071
38681,40044,35094
39088,40086,35039
39444,40108,35076
39748,40182,35127
40580,40223,35117
42477,40216,35119
44608,40183,35128
45304,40148,35141
44084,40124,35108
41280,40116,35095
36860,40140,35140
31565,40188,35180
26533,40252,35162
23416,40327,35182
22228,40290,35167
22720,40335,35137
24006,40313,35175
25580,40264,35207
27241,40156,35232
28760,40134,35200
30040,40139,35188
31016,40156,35196
31629,40217,35245
32028,40251,35284
32297,40271,35296
32492,40284,35284
32644,40212,35302
32712,40199,35311
32804,40151,35317
32896,40122,35292
33025,40116,35285
33175,40133,35295
33292,40169,35349
33340,40221,35382
33344,40259,35374
33336,40253,35372
33320,40231,35391
33284,40181,35396
33248,40135,35359
33272,40092,35348
33312,40064,35334
33326,40111,35364
33356,40164,35397
33428,40198,35422
33488,40232,35437
33512,40199,35413
33504,40218,35433
33476,40175,35364
33472,40127,35425
33464,40060,35442
33492,40062,35429
33508,40085,35449
33524,40140,35444
33600,40188,35460
33640,40223,35460
33648,40199,35422
33629,40199,35396
33628,40157,35429
33636,40103,35468
33652,40071,35456
33728,40060,35476
33800,40092,35421
33776,40129,35412
33812,40144,35423
33872,40198,35420
33908,40215,35464
33928,40191,35492
33900,40149,35533
33844,40103,35505
33856,40047,35528
33884,40048,35547
33960,40071,35492
34009,40117,35472
34072,40161,35495
34152,40199,35492
34185,40209,35576
34160,40180,35564
34128,40144,35544
34148,40100,35560
34180,40047,35495
34252,40055,35505
34352,40083,35522
34496,40113,35548
34632,40168,35558
34760,40196,35548
34820,40189,35540
34832,40175,35549
34872,40133,35536
34934,40079,35558
35008,40060,35549
35108,40052,35541
35216,40071,35525
35352,40118,35532
35536,40169,35519
35692,40199,35532
35820,40208,35547
35872,40189,35476
35940,40147,35461
35984,40093,35520
36076,40062,35544
36188,40055,35541
36317,40092,35522
36466,40129,35543
36616,40175,35549
36776,40222,35543
36912,40199,35559
36984,40189,35551
37020,40155,35549
37048,40111,35540
37100,40071,35540
37180,40071,35541
37248,40103,35540
37336,40147,35535
37448,40188,35551
37529,40236,35542
37550,40236,35548
37516,40229,35549
37429,40167,35511
37340,40128,35469
37304,40105,35484
37256,40095,35548
37208,40106,35552
37132,40166,35525
36976,40214,35528
36832,40244,35468
36616,40261,35468
36288,40237,35463
35956,40199,35469
35648,40157,35469
35360,40133,35503
35012,40126,35510
34648,40135,35515
34276,40197,35514
33888,40251,35499
33532,40289,35484
33216,40300,35495
32812,40275,35421
32421,40231,35463
32080,40176,35495
31780,40141,35473
31536,40142,35404
31336,40140,35479
31122,40215,35463
30962,40263,35468
30848,40251,35476
30676,40287,35463
30492,40274,35405
30324,40225,35384
30160,40177,35423
30096,40157,35444
30084,40140,35456
30080,40135,35439
30080,40196,35436
30060,40248,35438
30010,40285,35447
29940,40299,35378
29889,40269,35401
29804,40213,35445
29788,40167,35446
29744,40123,35448
29724,40117,35400
29724,40137,35389
29802,40173,35436
29828,40239,35452
29901,40240,35437
29948,40265,35445
29912,40241,35415
29864,40199,35425
29860,40159,35460
29884,40103,35442
29916,40093,35437
30008,40117,35461
30108,40167,35465
30174,40213,35393
30196,40255,35442
30220,40261,35484
30180,40231,35457
30144,40183,35472
30132,40096,35406
30148,40095,35484
30164,40093,35487
30188,40071,35455
30276,40154,35484
30384,40196,35446
30476,40190,35473
30500,40239,35476
30488,40221,35444
30480,40133,35478
30448,40117,35500
30460,40095,35504
30526,40079,35429
30572,40110,35518
30652,40149,35511
30696,40154,35517
30792,40225,35479
30817,40231,35452
30802,40217,35532
30784,40164,35527
30756,40116,35532
30806,40084,35540
30864,40070,35488
30912,40093,35536
30984,40143,35526
31080,40167,35536
31157,40212,35477
31144,40243,35484
31125,40199,35524
31081,40152,35527
31040,40116,35463
31052,40077,35519
30996,40071,35514
31065,40094,35527
31144,40135,35440
31228,40185,35509
31248,40210,35512
31192,40228,35455
31192,40213,35511
31204,40153,35495
