ECG,EDA,RR
31480,41160,34829
31412,41109,34813
31368,41049,34845
31372,41021,34856
31396,41005,34872
31420,41007,34852
31476,41079,34885
31565,41124,34893
31592,41148,34900
31624,41173,34900
31600,41152,34916
31517,41101,34959
31456,41063,34948
31448,41018,34965
31520,40999,34956
31644,41023,34980
31720,41060,35004
31809,41101,35028
31800,41162,35036
31796,41183,35028
31760,41133,35039
31713,41109,35076
31653,41055,35093
31633,41017,35100
31648,40997,35119
31720,40977,35135
31792,41063,35119
31904,41117,35140
31916,41157,35180
31932,41165,35173
31896,41148,35160
31820,41081,35207
31788,41051,35229
31764,41009,35231
31764,41007,35244
31832,41020,35233
31940,41039,35233
32040,41120,35268
32132,41159,35301
32160,41160,35308
32120,41150,35311
32024,41103,35305
31940,41055,35325
31936,41008,35357
31968,40999,35356
32020,40988,35366
32124,41063,35359
32196,41111,35369
32248,41116,35405
32300,41169,35417
32308,41145,35399
32212,41095,35416
32168,41053,35460
32172,41001,35463
32248,40967,35463
32340,41010,35440
32384,41029,35453
32420,41111,35505
32448,41151,35514
32404,41148,35528
32332,41145,35493
32313,41088,35533
32289,41012,35573
32312,41005,35560
32316,40986,35533
32360,41001,35589
32428,41041,35588
32472,41100,35572
32488,41135,35568
32532,41133,35591
32576,41135,35639
32568,41092,35637
32508,41030,35648
32416,41004,35617
32413,40977,35616
32460,41005,35629
32500,41044,35676
32580,41087,35700
32672,41126,35701
32702,41151,35709
32704,41141,35719
32640,41080,35685
32608,40989,35685
32620,40988,35708
32660,40967,35716
32732,40989,35744
32804,41023,35751
32832,41077,35756
32884,41113,35776
32961,41121,35751
32973,41113,35759
32956,41069,35762
32908,41012,35798
32825,40967,35797
32784,40961,35812
32764,40967,35800
32782,41017,35812
32844,41065,35824
32888,41061,35772
32892,41122,35789
32804,41073,35822
32708,41053,35847
32628,40967,35864
32576,40967,35860
32500,40933,35856
32524,40960,35881
32562,40996,35837
32620,41026,35847
32660,41089,35895
32714,41111,35908
32706,41084,35912
32672,41052,35863
32640,40993,35944
32600,40957,35920
32578,40935,35940
32642,40949,35953
32756,40988,35933
32888,41038,35911
33000,41061,35975
33049,41101,35972
33057,41084,35989
33000,41036,36013
32926,40990,35944
32872,40935,36015
32772,40919,36005
32760,40936,36020
32800,40983,35997
32884,41028,35975
32961,41048,36024
32968,41087,36061
32924,41063,36048
32862,41013,36016
32832,40967,36007
32832,40897,36020
32808,40908,36057
32860,40916,36103
32944,40963,36087
32980,41012,36103
32996,41045,36069
32960,41069,36093
32930,41055,36121
32927,40989,36103
32888,40967,36124
32864,40923,36127
32853,40903,36065
32836,40925,36080
32856,40951,36143
32920,41009,36129
32989,41061,36084
33005,41077,36094
33012,41061,36143
32953,41028,36132
32844,40928,36133
32776,40922,36144
32740,40909,36068
32783,40917,36128
32840,40949,36129
32900,41001,36136
32932,41055,36064
32940,41071,36129
32956,41045,36130
32888,40982,36135
32833,40961,36048
32892,40910,36101
33066,40891,36120
33320,40904,36103
33628,40933,36042
34272,40996,36091
35084,41039,36088
35988,41044,36094
36928,41036,36028
37520,40989,36036
37796,40937,36068
38148,40896,36054
38604,40876,35975
38872,40903,36052
39000,40929,36026
39496,40999,35965
41352,41031,36021
43308,41037,36012
43924,41037,35956
42728,41001,35964
39836,40980,35981
35392,40932,35940
30332,40967,35908
25784,41000,35975
23236,41052,35956
22562,41087,35911
23272,41113,35896
24612,41140,35957
26090,41118,35935
27496,41028,35935
28816,41004,35884
29972,40957,35929
30864,40933,35909
31477,40940,35839
31929,40967,35915
32312,41013,35877
32540,41069,35861
32660,41076,35900
32773,41077,35900
32876,41020,35875
32920,40967,35873
32944,40920,35828
32952,40903,35784
33004,40900,35820
33088,40906,35858
33230,40993,35831
33324,41041,35824
33392,41058,35764
33373,41039,35804
33328,40992,35772
33289,40936,35727
33304,40892,35688
33328,40872,35716
33340,40885,35698
33428,40918,35621
33501,40965,35655
33550,41015,35650
33616,41030,35623
33616,41022,35607
33593,40972,35559
33528,40924,35559
33492,40839,35541
33452,40853,35471
33510,40864,35492
33576,40900,35478
33664,40953,35415
33756,40967,35401
33761,41004,35423
33752,41002,35389
33700,40962,35335
33629,40895,35331
33576,40853,35321
33616,40836,35311
33704,40836,35237
33769,40876,35236
33844,40927,35254
33928,40935,35236
33980,40999,35221
33968,40967,35168
33928,40937,35145
33864,40877,35133
33821,40853,35140
33789,40828,35113
33844,40822,35103
33944,40864,35049
34038,40909,35052
34116,40967,35063
34184,40984,35037
34176,40967,34964
34172,40935,34951
34188,40862,34939
34198,40833,34936
34244,40805,34908
34334,40820,34866
34444,40852,34864
34557,40899,34846
34664,40948,34810
34728,40964,34778
34774,40964,34740
34793,40916,34747
34808,40879,34721
34876,40815,34661
34928,40798,34684
35020,40797,34653
35161,40837,34641
35340,40889,34597
35524,40939,34602
35612,40967,34580
35696,40953,34566
35776,40927,34506
35844,40856,34503
35946,40813,34509
36092,40799,34478
36244,40807,34448
36388,40839,34408
36540,40903,34404
36648,40944,34397
36729,40960,34371
36796,40957,34341
36800,40912,34300
36788,40871,34307
36828,40831,34269
36856,40807,34212
36921,40812,34209
36984,40846,34199
37061,40903,34153
37112,40948,34138
37120,40967,34100
37013,40964,34068
36912,40933,34041
36788,40862,34032
36652,40839,33998
36516,40805,33969
36376,40825,33916
36224,40860,33897
36060,40908,33892
35864,40952,33850
35564,40980,33828
35240,40989,33799
34852,40926,33781
34436,40907,33742
34037,40847,33719
33677,40828,33684
33360,40836,33669
33072,40884,33626
32812,40917,33609
32514,40967,33582
32256,41004,33548
31968,40989,33535
31656,40957,33504
31344,40900,33476
31068,40836,33453
30854,40838,33435
30684,40844,33412
30516,40871,33380
30404,40928,33350
30333,40967,33348
30256,40992,33324
30104,40997,33287
30004,40956,33252
29864,40895,33253
29786,40838,33220
29776,40834,33149
29752,40820,33191
29764,40857,33156
29796,40892,33124
29832,40956,33121
29821,40967,33113
29824,40959,33069
29809,40928,33044
29768,40883,33047
29752,40812,33012
29744,40799,32994
29768,40807,32972
29864,40839,32929
29948,40871,32973
30024,40923,32932
30062,40956,32901
30040,40943,32912
30036,40906,32885
29988,40804,32870
29964,40807,32839
29960,40785,32837
30000,40767,32815
30102,40813,32816
30183,40856,32775
30264,40888,32775
30308,40941,32757
30328,40923,32727
30316,40893,32701
30256,40831,32703
30292,40747,32684
30332,40758,32659
30364,40765,32643
30420,40792,32654
30492,40839,32613
30565,40885,32535
30596,40911,32607
30624,40919,32572
30608,40871,32548
30560,40801,32569
30541,40725,32511
30596,40749,32500
30646,40742,32517
30716,40772,32479
30802,40829,32450
30912,40865,32462
30948,40855,32416
30961,40886,32395
30948,40812,32388
30912,40804,32391
30888,40764,32343
30908,40724,32321
30960,40740,32332
31036,40769,32281
31132,40820,32256
31208,40865,32237
31244,40887,32253
31260,40871,32191
31220,40839,32186
31160,40751,32158
31152,40743,32145
31172,40710,32156
31208,40730,32109
31250,40748,32092
31301,40800,32066
31384,40847,32100
31420,40837,32038
31428,40873,32018
31428,40831,32029
31392,40782,31985
31408,40752,31977
31412,40701,32004
31469,40711,31983
31501,40753,31956
31588,40799,31917
31624,40847,31900
31638,40887,31936
31602,40865,31885
31573,40821,31877
31552,40790,31876
31520,40741,31831
31520,40704,31836
31546,40681,31802
31602,40745,31777
31672,40789,31812
31720,40820,31772
31760,40861,31801
31748,40871,31736
31758,40854,31702
31700,40787,31725
31680,40737,31696
31704,40693,31649
31738,40711,31656
31818,40749,31639
31896,40796,31642
31936,40836,31653
31948,40879,31602
31948,40867,31553
31900,40831,31564
31860,40767,31568
31817,40725,31536
31800,40702,31527
31828,40710,31554
31912,40740,31485
32004,40785,31471
32072,40833,31504
32084,40864,31509
32044,40866,31428
31988,40831,31393
31980,40780,31428
31969,40733,31380
31988,40696,31440
32036,40672,31367
32124,40741,31349
32208,40788,31327
32248,40836,31348
32264,40855,31301
32256,40855,31341
32208,40829,31281
32148,40777,31252
32092,40724,31284
32068,40692,31260
32100,40656,31236
32148,40737,31293
32224,40759,31205
32280,40830,31205
32297,40850,31273
32296,40823,31185
32266,40821,31222
32224,40764,31175
32192,40727,31145
32196,40670,31228
32248,40692,31166
32321,40718,31135
32376,40767,31130
32392,40815,31190
32432,40830,31116
32408,40839,31132
32384,40813,31128
32325,40733,31179
32308,40700,31107
32264,40668,31091
32296,40663,31135
32368,40721,31074
32512,40710,31085
32556,40804,31110
32616,40805,31093
32628,40821,31070
32572,40785,31044
32520,40743,31071
32484,40687,31100
32436,40623,31050
32385,40661,31030
32372,40693,31035
32432,40748,31034
32496,40791,30994
32524,40830,31065
32520,40812,31024
32464,40747,31005
32369,40725,30972
32284,40684,31052
32233,40613,30996
32208,40659,30944
32224,40687,31044
32240,40741,30986
32249,40794,30946
32268,40820,30962
32268,40810,30952
32272,40740,30989
32266,40711,30967
32252,40679,30997
32284,40656,30936
32312,40644,30901
32448,40661,30992
32584,40732,30909
32693,40775,30912
32760,40775,30934
32776,40799,30953
32770,40761,30893
32692,40708,30885
32677,40668,30942
32632,40647,30881
32616,40637,30872
32600,40675,30940
32616,40718,30881
32672,40775,30861
32688,40799,30861
32684,40799,30848
32616,40764,30949
32524,40697,30852
32485,40650,30842
32500,40629,30916
32514,40627,30859
32580,40663,30924
32657,40679,30837
32752,40765,30833
32780,40790,30900
32764,40760,30849
32722,40763,30878
32668,40703,30822
32628,40657,30814
32605,40621,30857
32604,40626,30821
32613,40672,30804
32672,40711,30885
32720,40728,30797
32732,40780,30805
32712,40780,30841
32674,40764,30831
32636,40699,30804
32608,40657,30804
32616,40583,30772
32669,40631,30767
32725,40672,30851
32788,40708,30773
32849,40764,30773
32876,40789,30779
32848,40788,30823
32805,40759,30727
32692,40708,30724
32570,40646,30812
32638,40624,30742
32848,40616,30701
33116,40655,30773
33456,40704,30715
34004,40755,30694
34772,40768,30753
35766,40773,30753
36676,40732,30712
37368,40684,30668
37740,40639,30766
38304,40609,30757
38568,40621,30671
38892,40655,30695
39204,40711,30709
39932,40756,30687
41812,40788,30640
44552,40760,30749
45604,40727,30680
44536,40698,30745
41660,40679,30680
37124,40672,30672
31556,40702,30636
26368,40741,30660
22972,40824,30724
21613,40868,30646
22048,40886,30634
23396,40885,30708
25148,40831,30665
26804,40780,30710
28248,40711,30653
29440,40684,30636
30384,40673,30656
31088,40671,30689
31590,40757,30663
31948,40805,30660
32236,40823,30745
32413,40796,30690
32460,40743,30732
32540,40732,30696
32672,40676,30719
32749,40639,30697
32836,40652,30752
32952,40655,30693
33058,40711,30673
33160,40764,30741
33210,40797,30693
33220,40783,30655
33224,40756,30681
33158,40709,30665
33133,40642,30664
33160,40623,30710
33196,40615,30634
33264,40631,30607
33314,40692,30616
33408,40748,30593
33412,40765,30668
33400,40743,30612
33396,40733,30620
33358,40679,30581
33324,40629,30578
33340,40603,30637
33356,40589,30592
33424,40621,30559
33497,40668,30581
33568,40711,30630
33608,40756,30556
33633,40740,30569
33620,40711,30630
33588,40675,30559
33576,40604,30551
33576,40583,30631
33604,40581,30561
33701,40612,30641
33796,40661,30553
33884,40711,30613
33908,40724,30556
33900,40735,30604
33864,40694,30573
33840,40652,30555
33824,40592,30653
33821,40572,30578
33908,40567,30648
33996,40575,30569
34104,40654,30530
34204,40708,30564
34272,40724,30575
34297,40724,30590
34281,40695,30543
34236,40647,30546
34256,40583,30536
34312,40551,30593
34384,40559,30497
34484,40599,30479
34620,40621,30508
34729,40692,30485
34800,40733,30567
34848,40711,30495
34880,40685,30441
34916,40639,30453
34965,40583,30450
35052,40552,30537
35168,40549,30445
35300,40581,30429
35488,40642,30527
35656,40684,30436
35780,40679,30420
35868,40724,30482
35936,40686,30438
36016,40633,30528
36076,40558,30429
36188,40556,30429
36308,40558,30536
36460,40583,30436
36640,40634,30441
36832,40679,30549
36936,40705,30495
36996,40711,30481
37032,40695,30445
37064,40639,30554
37057,40583,30468
37088,40553,30494
37124,40561,30558
37200,40592,30487
37296,40647,30503
37324,40703,30495
37312,40725,30492
37253,40727,30606
37152,40704,30511
37068,40647,30521
36952,40599,30552
36848,40573,30581
36748,40545,30544
36648,40607,30569
36496,40663,30545
36288,40711,30661
36048,40743,30652
35716,40748,30621
35364,40711,30588
34965,40657,30604
34580,40617,30638
34208,40580,30613
33872,40599,30641
33532,40634,30727
33240,40676,30637
32984,40720,30640
32680,40765,30728
32328,40748,30675
32004,40727,30676
31712,40669,30657
31393,40589,30756
31149,40601,30727
30949,40589,30719
30784,40628,30764
30680,40656,30710
30604,40722,30748
30476,40757,30768
30348,40749,30791
30232,40733,30734
30108,40670,30775
29988,40612,30795
29900,40595,30773
29861,40580,30788
29872,40609,30855
29916,40654,30808
29944,40668,30846
29940,40735,30837
29904,40733,30820
29848,40701,30806
29788,40633,30926
29712,40583,30846
29732,40559,30852
29772,40526,30939
29820,40581,30879
29856,40641,30879
29920,40687,30925
29988,40708,30903
29996,40665,30983
30010,40674,30944
30000,40623,31008
29988,40573,30932
30012,40541,30941
30048,40538,31039
30108,40559,30964
30209,40621,30972
30300,40649,31066
30336,40684,31015
30356,40684,30999
30338,40654,31084
30344,40593,31052
30340,40524,31068
30404,40514,31025
30440,40487,31116
30492,40548,31067
30600,40593,31064
30688,40636,31088
30753,40673,31140
30781,40669,31084
30764,40636,31075
30680,40583,31170
30688,40492,31101
30712,40505,31113
30789,40488,31191
30880,40513,31111
30968,40541,31106
31044,40616,31135
31128,40652,31141
31152,40652,31119
31142,40621,31171
31084,40559,31172
31084,40516,31141
31108,40487,31124
31116,40487,31165
31184,40505,31154
31296,40552,31132
31374,40613,31204
31373,40635,31135
31356,40629,31132
31324,40609,31190
31288,40564,31153
31258,40507,31132
31284,40443,31192
31332,40468,31143
31396,40493,31145
31457,40556,31220
31536,40592,31161
31552,40630,31151
31541,40632,31231
31524,40609,31150
31478,40569,31174
31432,40511,31213
31436,40481,31169
31468,40455,31179
31548,40500,31263
31584,40555,31204
31648,40592,31192
31688,40613,31265
31677,40639,31193
31652,40604,31200
31584,40567,31277
31537,40511,31244
31534,40476,31236
31570,40455,31205
31640,40455,31256
31716,40541,31239
31764,40588,31215
31834,40623,31239
31845,40623,31236
31845,40598,31285
31825,40540,31236
31796,40492,31234
31802,40455,31305
31808,40455,31235
31860,40484,31239
31920,40535,31294
31980,40580,31263
32001,40614,31267
32042,40624,31288
31988,40601,31273
31904,40511,31239
31828,40493,31326
31800,40455,31249
31820,40442,31229
31909,40473,31303
31972,40506,31270
32064,40549,31332
32116,40615,31268
32128,40613,31321
32052,40583,31275
32016,40535,31249
31981,40479,31335
31940,40450,31265
31976,40443,31262
32010,40455,31316
32080,40513,31288
32189,40551,31300
32200,40599,31305
32208,40612,31288
32188,40583,31288
32132,40529,31363
32116,40451,31308
32100,40447,31260
32100,40447,31312
32196,40455,31335
32264,40474,31290
32300,40556,31368
32352,40592,31361
32386,40601,31335
32356,40565,31425
32320,40517,31376
32252,40455,31401
32220,40423,31399
32224,40427,31387
32316,40439,31436
32384,40493,31408
32412,40507,31420
32458,40572,31446
32476,40575,31420
32444,40556,31444
32368,40495,31485
32308,40445,31452
32288,40409,31453
32316,40411,31512
32356,40435,31468
32398,40476,31477
32500,40532,31516
32552,40554,31488
32588,40575,31476
32584,40540,31517
32592,40492,31544
32580,40444,31516
32594,40401,31564
32622,40386,31524
32705,40415,31575
32753,40455,31538
32748,40512,31519
32726,40533,31592
32684,40548,31559
32628,40530,31532
32576,40493,31608
32520,40416,31551
32516,40357,31554
32504,40388,31569
32466,40406,31561
32448,40450,31575
32432,40508,31586
32416,40527,31580
32384,40545,31590
32340,40519,31568
32256,40455,31596
32208,40418,31584
32184,40349,31600
32228,40375,31589
32316,40402,31588
32366,40455,31631
32438,40500,31588
32481,40532,31558
32525,40501,31596
32508,40511,31584
32492,40455,31644
32460,40401,31612
32452,40369,31641
32480,40367,31636
32504,40392,31636
32584,40432,31610
32640,40444,31674
32628,40527,31629
32557,40513,31630
32504,40495,31634
32452,40450,31676
32444,40396,31655
32417,40348,31610
32436,40348,31691
32477,40373,31661
32556,40427,31663
32636,40477,31688
32660,40513,31656
32656,40511,31681
32640,40497,31724
32602,40446,31672
32569,40396,31675
32552,40372,31724
32536,40349,31672
32596,40349,31677
32672,40413,31712
32712,40471,31684
32724,40514,31687
32724,40507,31730
32697,40485,31701
32640,40417,31732
32600,40390,31684
32596,40357,31707
32628,40349,31679
32676,40367,31709
32748,40412,31660
32789,40455,31669
32816,40511,31712
32836,40519,31668
32800,40471,31720
32708,40432,31660
32669,40387,31629
32720,40341,31664
32708,40322,31647
32728,40364,31681
32776,40404,31634
32956,40450,31639
33201,40484,31685
33384,40502,31623
33664,40487,31612
34248,40417,31663
35024,40365,31620
36028,40324,31613
36944,40308,31612
37620,40336,31653
38176,40376,31607
38684,40420,31584
38944,40477,31652
39120,40495,31597
39545,40455,31580
40605,40413,31601
43120,40341,31620
45616,40309,31584
46000,40296,31597
44224,40353,31588
40760,40421,31582
35732,40521,31577
30010,40574,31633
25141,40604,31592
22286,40579,31580
21517,40543,31588
22312,40465,31563
23913,40437,31620
25752,40401,31619
27421,40429,31597
28848,40447,31582
29989,40455,31594
30836,40520,31597
31436,40536,31596
31812,40505,31596
32076,40444,31648
32260,40361,31599
32368,40359,31623
32508,40351,31599
32692,40360,31653
32832,40408,31618
32940,40454,31610
33020,40487,31655
33012,40455,31638
33044,40468,31628
33044,40423,31648
33016,40359,31600
33029,40323,31600
33056,40285,31628
33128,40327,31610
33220,40385,31592
33278,40434,31585
33300,40421,31608
33288,40476,31580
33284,40455,31591
33220,40396,31567
33172,40351,31584
33184,40300,31572
33210,40252,31545
33260,40313,31596
33352,40366,31556
33436,40411,31548
33460,40431,31596
33465,40449,31555
33456,40430,31541
33432,40373,31560
33397,40325,31570
33373,40285,31528
33409,40274,31549
33492,40256,31557
33588,40340,31532
33668,40391,31531
33736,40422,31529
33748,40439,31588
33725,40400,31561
33700,40359,31557
33668,40309,31564
33672,40263,31551
33720,40247,31614
33788,40285,31573
33884,40325,31572
33948,40372,31609
34012,40402,31574
34016,40408,31589
34032,40403,31596
33984,40348,31636
33984,40293,31588
34021,40240,31594
34076,40249,31562
34148,40263,31608
34228,40315,31568
34312,40359,31573
34380,40392,31572
34420,40419,31564
34460,40392,31558
34484,40329,31559
34504,40287,31525
34565,40256,31504
34716,40245,31511
34838,40255,31541
35008,40270,31517
35168,40357,31479
35304,40387,31479
35396,40411,31492
35496,40380,31516
35532,40327,31439
35588,40285,31434
35696,40237,31483
35856,40228,31446
36024,40261,31474
36196,40303,31426
36368,40341,31444
36479,40359,31460
36604,40399,31426
36692,40391,31430
36740,40325,31468
36812,40280,31456
36845,40239,31433
36940,40196,31404
37040,40255,31466
37196,40293,31428
37300,40343,31414
37336,40386,31428
37344,40397,31429
37293,40373,31405
37212,40341,31461
37156,40276,31452
37092,40253,31471
37056,40229,31431
37000,40263,31429
36936,40321,31452
36864,40359,31457
36800,40401,31424
36600,40410,31484
36368,40391,31461
36084,40341,31457
35757,40297,31447
35412,40257,31505
35100,40255,31460
34792,40274,31460
34468,40319,31486
34172,40364,31477
33861,40409,31490
33504,40423,31535
33124,40405,31495
32740,40357,31495
32388,40302,31516
32084,40273,31503
31834,40253,31524
31588,40277,31552
31404,40316,31561
31280,40327,31527
31092,40415,31524
30925,40425,31518
30752,40397,31572
30572,40327,31538
30380,40292,31525
30242,40260,31596
30142,40241,31561
30088,40255,31551
30040,40295,31609
30031,40348,31565
29989,40391,31573
29956,40397,31605
29868,40375,31623
29816,40325,31623
29748,40247,31609
29748,40233,31591
29740,40212,31638
29764,40210,31617
29845,40269,31633
29916,40319,31652
29980,40353,31634
30000,40369,31636
30004,40351,31684
29972,40309,31639
29948,40253,31652
29984,40199,31682
29991,40154,31672
30061,40212,31684
30152,40248,31663
30253,40301,31732
30312,40336,31689
30380,40343,31705
30414,40317,31701
30400,40273,31760
30384,40231,31713
30392,40190,31726
30388,40164,31760
30436,40189,31727
30532,40239,31734
30644,40287,31760
30721,40281,31764
30728,40327,31751
30732,40303,31756
30657,40260,31762
30660,40205,31769
30642,40165,31805
30661,40137,31756
30744,40167,31775
30816,40215,31816
30876,40268,31781
30966,40311,31785
30988,40309,31806
30964,40295,31801
30892,40248,31765
30880,40197,31799
30876,40153,31791
30900,40100,31819
30964,40159,31787
31044,40199,31783
31120,40252,31836
31184,40292,31796
31208,40293,31776
31220,40281,31784
31180,40217,31772
31154,40193,31830
31140,40154,31783
31153,40124,31773
31220,40140,31831
31252,40175,31788
31300,40215,31814
31349,40280,31791
31365,40289,31794
31368,40266,31796
31304,40238,31805
31292,40186,31796
31309,40136,31751
31356,40080,31828
31412,40140,31809
31500,40185,31793
31544,40231,31835
31608,40232,31815
31624,40303,31813
31620,40279,31846
31616,40233,31820
31560,40166,31862
31552,40140,31838
31569,40124,31837
31620,40132,31833
31717,40189,31869
31796,40217,31832
31870,40241,31827
31912,40292,31878
31916,40261,31844
31872,40207,31833
31828,40173,31882
31821,40134,31838
31820,40116,31847
31852,40141,31833
31952,40164,31884
32016,40228,31845
32056,40271,31828
32066,40271,31877
32033,40228,31855
31984,40212,31852
31944,40162,31850
31916,40120,31871
31914,40100,31834
31957,40121,31836
31976,40165,31863
32040,40213,31822
32124,40213,31839
32128,40273,31844
32148,40239,31817
32100,40209,31832
32048,40152,31871
32012,40119,31871
32044,40093,31836
32104,40110,31836
32194,40152,31881
32270,40200,31847
32320,40244,31844
32360,40263,31844
32352,40239,31843
32309,40189,31903
32252,40148,31856
32220,40109,31853
32244,40081,31908
32297,40069,31879
32325,40139,31884
32408,40196,31876
32432,40231,31935
32437,40240,31910
32380,40221,31900
32340,40147,31939
32321,40127,31926
32332,40081,31924
32336,40071,31974
32376,40085,31948
32431,40099,31957
32465,40180,31987
32512,40213,31968
32544,40231,31985
32517,40199,31972
32484,40161,32016
32440,40113,31985
32437,40068,32007
32420,40036,32001
32472,40071,32025
32546,40111,32020
32602,40125,32016
32640,40199,32065
32620,40208,32039
32596,40196,32041
32548,40166,32073
32488,40097,32048
32452,40059,32055
32504,40045,32084
32588,40063,32054
32732,40103,32068
32816,40124,32076
32836,40188,32103
32856,40199,32089
32857,40196,32088
32813,40102,32084
32772,40087,32093
32684,40056,32080
32664,40029,32096
32620,40025,32092
32600,40099,32069
32676,40136,32103
32720,40159,32109
32756,40199,32080
32728,40164,32103
32620,40100,32081
32493,40081,32125
32413,40039,32109
32358,40029,32097
32350,40044,32093
32388,40080,32085
32448,40136,32110
32464,40174,32100
32496,40188,32099
32496,40175,32109
32504,40128,32118
32476,40071,32102
32456,40031,32110
32468,40023,32106
32592,40037,32144
32676,40084,32140
32761,40129,32112
32788,40151,32117
32820,40185,32108
32780,40164,32148
32720,40132,32151
32632,40071,32121
32621,40036,32132
32636,40002,32141
32632,40037,32163
32648,40076,32153
32700,40135,32148
32732,40167,32173
32728,40177,32165
32732,40143,32147
32688,40124,32193
32608,40068,32169
32604,40028,32162
32612,40018,32198
32668,40007,32175
32740,40079,32177
32832,40122,32183
32876,40167,32172
32868,40178,32212
32841,40175,32183
32784,40119,32186
32717,40041,32172
32686,40029,32213
32696,40013,32184
32760,40020,32185
32816,40061,32188
32868,40125,32194
32924,40167,32190
32912,40169,32167
32900,40140,32212
32876,40112,32177
32824,40060,32172
32772,40000,32128
32840,40007,32165
32884,40023,32180
32976,40031,32164
33072,40112,32164
33104,40143,32158
33104,40131,32184
33080,40154,32148
33032,40101,32144
32929,40028,32137
32880,40016,32160
33016,39996,32134
33262,40015,32141
33564,40044,32132
33941,40068,32132
34616,40136,32121
35504,40160,32141
36524,40135,32112
37365,40087,32125
37880,40047,32107
38333,39990,32140
38756,39976,32121
39033,40005,32118
39222,40052,32102
39740,40108,32097
40972,40140,32121
43720,40151,32102
45952,40111,32100
45920,40087,32121
43760,40052,32119
39908,40040,32093
34632,40071,32103
28976,40102,32120
24432,40156,32088
21968,40161,32107
21568,40244,32084
22616,40241,32130
24280,40231,32102
26029,40176,32111
27572,40110,32092
28868,40041,32116
29968,40036,32113
30837,40037,32104
31432,40085,32120
31872,40080,32124
32204,40172,32114
32440,40189,32135
32600,40167,32117
32662,40097,32120
32672,40071,32119
32756,40023,32149
32820,39991,32121
32904,40021,32123
32993,40059,32135
33112,40101,32111
33208,40139,32100
33240,40164,32143
33212,40149,32103
33198,40102,32081
33148,40036,32117
33141,40000,32079
33136,39977,32085
33181,39975,32053
33276,40036,32072
33364,40087,32049
33428,40121,32097
33480,40132,32060
33452,40132,32039
33405,40080,32075
33332,40029,32049
33320,39990,32036
33352,39967,32028
33368,39936,32036
33440,40017,32063
33505,40037,32036
33557,40109,32009
33572,40100,32023
33556,40116,32000
33504,40066,32043
33472,39992,32006
33437,39978,32007
33456,39959,32007
33505,39969,32007
33600,40007,32044
33676,40055,32015
33780,40103,32021
33836,40103,32023
33836,40103,32044
33804,40063,32061
33784,39999,32023
33784,39980,32031
33808,39943,32025
33908,39933,32033
34008,40005,32048
34100,40054,32037
34232,40097,32060
34308,40119,32037
34312,40117,32019
34328,40071,32049
34320,40017,32021
34328,39967,32000
34401,39943,32031
34496,39967,32002
34617,40006,31995
34768,40057,31995
34924,40094,32007
34989,40123,31972
35004,40111,31960
35024,40061,31967
35052,40014,31936
35112,39983,31916
35216,39943,31933
35360,39959,31929
35496,40023,31908
35640,40057,31911
35796,40103,31906
35892,40122,31893
35980,40100,31888
36076,40071,31903
36132,40015,31873
36240,39964,31863
36360,39943,31887
36500,39966,31886
36653,39996,31853
36832,40053,31862
36964,40099,31836
37064,40101,31869
37108,40110,31870
37136,40068,31836
37158,40020,31839
37169,39980,31831
37188,39943,31844
37252,39967,31831
37334,40004,31826
37364,40059,31831
37384,40105,31829
37344,40140,31839
37264,40116,31819
37120,40085,31816
36992,40004,31821
36878,39983,31821
36760,39943,31813
36660,39985,31817
36564,39989,31812
36401,40062,31820
36204,40114,31817
35924,40141,31815
35600,40143,31816
35252,40111,31825
34824,40053,31833
34432,40010,31835
34054,39981,31839
33684,40001,31832
33396,40001,31845
33096,40080,31830
32813,40092,31841
32504,40148,31843
32156,40144,31852
31824,40060,31845
31502,40055,31833
31236,39997,31828
31020,39976,31796
30824,39943,31821
30708,40034,31828
30600,40044,31889
30508,40121,31860
30384,40141,31857
30228,40135,31868
30144,40096,31863
30000,40037,31853
29908,39988,31897
29844,39924,31893
29849,39980,31913
29856,40007,31901
29888,40063,31888
29921,40100,31907
29921,40076,31885
29896,40125,31890
29848,40062,31903
29792,40019,31896
29748,39975,31887
29766,39941,31933
29796,39956,31963
29848,39989,31950
29936,40040,31943
30012,40092,31945
30044,40095,31947
30060,40096,31962
30044,40054,31972
30020,40004,31951
30036,39943,31962
30044,39934,31957
30092,39941,31973
30180,39981,32007
30260,40023,31980
30348,40060,31988
30388,40096,31980
30412,40069,31989
30376,40041,32019
30350,39995,32020
30332,39936,31988
30364,39927,31984
30420,39918,31996
30500,39963,31996
30612,40013,31994
30684,40061,31995
30700,40077,32003
30736,40071,32000
30712,39990,32005
30684,39993,32000
30684,39900,32021
30724,39908,32031
30724,39879,32021
30756,39943,32016
30852,39992,32006
30908,40048,32031
30956,40071,32015
30957,40029,32018
30877,40031,31999
30832,39977,32036
30812,39937,32017
30872,39900,32002
30952,39919,32001
31045,39943,31997
31124,40003,32020
31201,40046,31993
31245,40066,31999
31260,40068,31973
31220,40029,31999
31160,39973,31993
31128,39937,31983
31152,39903,31980
31192,39908,32007
31254,39938,32007
31348,39996,31984
31380,40037,31985
31432,40071,31972
31444,40063,32020
31445,40028,32020
31417,39976,32025
31401,39930,32015
31416,39901,32001
31496,39875,31997
31584,39943,31996
31652,39973,32017
31692,40040,32016
31740,40028,32012
31708,40060,32023
31685,40028,32022
31629,39967,32012
31628,39918,32044
31660,39892,32036
31710,39892,32033
31748,39935,32031
31836,39975,32021
31888,40032,32037
31933,40053,32071
31916,40053,32053
31844,40017,32037
31792,39964,32033
31780,39913,32020
31808,39893,32028
31840,39900,32025
31874,39928,32031
31945,39977,32063
31998,40021,32041
32016,40047,32028
31976,40039,32029
31956,40010,32008
31896,39964,32020
31872,39911,32007
31908,39883,31958
31994,39885,32016
32054,39925,32017
32116,39975,32017
32136,40020,32007
32143,40039,32013
32132,40047,32001
32084,39998,32004
32004,39957,32023
31952,39895,32028
31936,39885,32018
31988,39876,32007
32064,39921,32013
32176,39967,32005
32193,40001,32046
32216,40039,32025
32228,40021,32031
32216,39943,32020
32164,39933,32033
32108,39884,32060
32124,39871,32056
32156,39863,32060
32224,39869,32055
32264,39943,32079
32332,39984,32091
32316,40023,32101
32333,40023,32080
32281,39972,32119
32228,39900,32113
32168,39886,32100
32188,39848,32133
32220,39839,32125
32260,39891,32133
32329,39925,32153
32372,39975,32149
32396,40008,32164
32388,39993,32164
32368,39967,32180
32320,39916,32197
32320,39873,32198
32324,39847,32196
32336,39852,32199
32392,39872,32204
32484,39926,32204
32548,39981,32217
32580,40001,32226
32572,40007,32215
32560,39969,32244
32545,39917,32249
32544,39868,32238
32589,39836,32244
32652,39837,32229
32732,39865,32252
32836,39913,32253
32896,39957,32276
32876,39992,32263
32834,39983,32256
32788,39943,32258
32681,39907,32247
32588,39855,32276
32564,39799,32263
32624,39831,32263
32726,39857,32263
32748,39910,32257
32724,39962,32292
32684,39996,32292
32632,39981,32268
32549,39943,32276
32416,39903,32278
32332,39858,32270
32352,39833,32285
32384,39839,32292
32437,39861,32285
32525,39900,32271
32576,39967,32296
32606,39993,32313
32598,39999,32324
32608,39964,32301
32632,39908,32293
32604,39862,32303
32649,39829,32311
32708,39833,32324
32812,39861,32317
32912,39911,32314
32916,39958,32340
32933,39989,32332
32908,39984,32345
32804,39964,32329
32649,39888,32337
32566,39866,32364
32568,39827,32357
32608,39796,32360
32700,39863,32359
32764,39910,32373
32820,39961,32381
32865,39985,32372
32868,39989,32412
32824,39961,32407
32748,39903,32391
32712,39845,32397
32712,39829,32391
32744,39831,32388
32804,39815,32417
32856,39905,32404
32900,39943,32412
32940,39980,32409
32956,39973,32412
32936,39943,32416
32868,39892,32428
32800,39815,32409
32776,39820,32421
32796,39815,32415
32868,39845,32404
32908,39892,32413
32972,39940,32420
33000,39943,32419
32992,39975,32417
32952,39936,32406
32876,39869,32400
32841,39847,32412
32854,39812,32408
32873,39815,32399
32956,39837,32395
33016,39899,32390
33029,39934,32384
32992,39972,32411
32936,39969,32393
33016,39929,32383
33184,39870,32384
33400,39841,32383
33697,39808,32383
34368,39805,32381
35264,39822,32374
36372,39868,32368
37368,39889,32367
37988,39937,32351
38456,39932,32385
38868,39913,32383
39052,39860,32367
39144,39831,32376
39496,39795,32373
40616,39783,32364
43256,39796,32348
45632,39844,32359
45844,39896,32381
43864,39943,32370
40136,39988,32367
34925,39984,32356
29181,39964,32390
24420,39900,32372
21734,39908,32366
21237,39892,32372
22252,39919,32367
23984,39943,32351
25908,39997,32397
27580,40005,32384
28959,40004,32383
30020,39975,32373
30768,39919,32361
31278,39845,32389
31653,39827,32382
31968,39815,32378
32285,39845,32398
32500,39847,32393
32685,39938,32402
32850,39969,32397
32945,39972,32414
32952,39940,32415
32956,39884,32410
32916,39801,32407
32921,39807,32407
32957,39785,32391
33036,39815,32405
33128,39852,32404
33201,39919,32390
33248,39943,32372
33248,39943,32364
33232,39919,32383
33212,39871,32372
33176,39813,32349
33168,39756,32375
33209,39783,32356
33252,39800,32345
33324,39853,32357
33404,39893,32343
33456,39928,32337
33490,39937,32333
33444,39900,32332
33413,39844,32331
33392,39804,32316
33384,39770,32325
33440,39741,32308
33516,39791,32300
33610,39831,32317
33700,39890,32310
33724,39916,32306
33740,39919,32296
33710,39892,32317
33680,39857,32306
33640,39805,32302
33632,39752,32317
33692,39720,32313
33752,39791,32301
33828,39818,32333
33916,39849,32321
33972,39921,32328
34028,39921,32316
34014,39880,32331
33981,39855,32337
33984,39803,32324
34028,39758,32309
34080,39740,32348
34160,39783,32335
34266,39829,32325
34380,39874,32331
34496,39925,32332
34532,39919,32320
34544,39887,32316
34542,39842,32295
34532,39789,32281
34552,39753,32292
34620,39756,32263
34720,39783,32254
34872,39829,32273
35008,39876,32246
35105,39876,32237
35232,39908,32220
35280,39881,32217
35341,39844,32230
35412,39782,32201
35500,39744,32196
35636,39748,32193
35792,39768,32204
35956,39831,32178
36104,39871,32173
36256,39895,32169
36346,39911,32176
36401,39887,32157
36468,39839,32143
36508,39791,32164
36640,39744,32148
36768,39748,32140
36876,39769,32132
36988,39801,32133
37112,39872,32125
37196,39904,32134
37248,39903,32117
37256,39887,32105
37232,39831,32132
37208,39788,32113
37188,39763,32104
37180,39751,32110
37244,39788,32100
37288,39829,32097
37252,39879,32085
37216,39911,32105
37112,39911,32089
36936,39886,32094
36736,39844,32081
36516,39797,32093
36280,39765,32086
36044,39753,32085
35824,39780,32107
35588,39792,32095
35300,39884,32080
34952,39912,32076
34568,39895,32084
34136,39903,32103
33695,39855,32076
33280,39777,32075
32920,39764,32072
32593,39756,32065
32316,39753,32079
32084,39844,32081
31845,39885,32082
31609,39927,32071
31401,39919,32066
31141,39894,32068
30909,39852,32053
30704,39799,32058
30464,39760,32057
30348,39748,32064
30276,39781,32076
30232,39831,32090
30177,39872,32073
30136,39901,32073
30076,39919,32064
29972,39886,32069
29857,39845,32060
29736,39780,32076
29664,39751,32093
29622,39733,32091
29644,39773,32089
29713,39805,32081
29772,39853,32103
29814,39886,32114
29845,39897,32098
29820,39870,32096
29768,39825,32104
29784,39783,32096
29808,39740,32132
29901,39724,32113
29989,39745,32124
30032,39787,32127
30096,39800,32125
30160,39869,32128
30176,39881,32124
30152,39863,32124
30108,39812,32100
30060,39758,32149
30092,39717,32153
30164,39703,32145
30228,39732,32152
30293,39768,32167
30380,39826,32155
30480,39860,32152
30509,39854,32140
30468,39815,32135
30476,39801,32132
30408,39743,32140
30448,39687,32156
30500,39711,32154
30597,39727,32149
30672,39766,32143
30788,39813,32146
30846,39853,32135
30876,39871,32149
30872,39840,32145
30825,39796,32145
30816,39743,32138
30812,39669,32158
30864,39704,32146
30928,39716,32143
30981,39773,32135
31052,39815,32142
31100,39860,32137
31148,39854,32138
31144,39836,32133
31105,39815,32124
31064,39709,32113
31084,39705,32127
31140,39697,32101
31212,39684,32132
31308,39765,32113
31364,39805,32117
31388,39855,32105
31408,39846,32116
31424,39792,32102
31385,39789,32096
31348,39749,32126
31359,39701,32109
31384,39687,32111
31460,39717,32084
31560,39757,32124
31596,39815,32124
31624,39855,32118
31612,39861,32113
31636,39792,32111
31620,39792,32116
31536,39744,32145
31512,39698,32146
31552,39651,32139
31596,39713,32142
31660,39757,32141
31760,39803,32148
31804,39836,32155
31812,39852,32149
31785,39815,32144
31716,39789,32148
31681,39745,32172
31684,39705,32148
31688,39687,32163
31756,39687,32153
31828,39749,32156
31868,39799,32177
31889,39841,32165
31894,39839,32153
31872,39834,32159
31829,39788,32180
31814,39727,32162
31820,39686,32159
31828,39649,32147
31856,39695,32172
31905,39743,32148
31972,39793,32153
31993,39805,32132
31992,39839,32136
31980,39791,32156
31932,39778,32163
31892,39712,32154
31888,39687,32142
31872,39671,32140
31920,39685,32136
32000,39735,32157
32072,39777,32150
32128,39831,32152
32116,39832,32167
32073,39812,32167
32048,39728,32160
31992,39719,32162
31964,39677,32173
31988,39660,32164
32037,39679,32186
32117,39713,32181
32213,39768,32165
32268,39797,32199
32293,39820,32207
32244,39814,32201
32180,39765,32226
32172,39687,32237
32168,39664,32239
32229,39660,32241
32288,39668,32256
32328,39674,32269
32364,39743,32262
32404,39806,32284
32424,39828,32286
32437,39799,32297
32428,39765,32300
32352,39711,32321
32324,39660,32327
32292,39660,32327
32324,39668,32349
32380,39717,32356
32476,39759,32364
32528,39807,32373
32528,39823,32359
32516,39773,32409
32480,39759,32416
32472,39701,32408
32424,39655,32420
32442,39641,32429
32502,39673,32440
32560,39717,32441
32624,39765,32450
32636,39812,32463
32624,39828,32474
32606,39813,32479
32516,39754,32485
32448,39665,32497
32448,39674,32480
32552,39647,32508
32633,39657,32516
32716,39714,32525
32836,39776,32519
32960,39810,32541
32992,39824,32556
32964,39813,32556
32932,39775,32556
32876,39716,32569
32840,39671,32567
32828,39660,32567
32813,39678,32591
32780,39735,32604
32820,39781,32612
32824,39824,32615
32824,39840,32613
32713,39828,32633
32616,39776,32647
32532,39736,32646
32456,39697,32647
32417,39676,32684
32421,39687,32687
32484,39732,32695
32528,39791,32705
32576,39817,32716
32604,39857,32725
32586,39844,32745
32576,39799,32752
32572,39705,32765
32568,39708,32773
32636,39694,32781
32764,39703,32808
32836,39748,32813
32977,39804,32815
33076,39840,32841
33092,39855,32858
33064,39845,32861
33004,39798,32859
32960,39709,32885
32916,39720,32899
32872,39687,32901
32865,39709,32912
32908,39764,32917
32953,39796,32948
32992,39847,32943
32968,39869,32940
32928,39862,32948
32852,39812,32972
32752,39759,32981
32752,39720,32999
32789,39709,32996
32900,39718,32997
32964,39744,33015
33018,39815,33016
33036,39863,33008
33013,39854,33029
32965,39860,33028
32885,39815,33027
32808,39758,33030
32808,39735,33040
32832,39719,33040
32864,39719,33051
32928,39775,33039
33008,39823,33061
33072,39861,33056
33084,39893,33065
33080,39858,33050
32997,39799,33077
32978,39767,33077
32970,39735,33070
32980,39717,33087
33044,39729,33089
33132,39764,33113
33207,39803,33114
33232,39868,33109
33260,39880,33141
33196,39863,33140
33052,39797,33137
32824,39777,33137
32768,39724,33169
32941,39716,33168
33189,39700,33165
33548,39780,33185
34057,39823,33199
34844,39852,33209
35824,39884,33199
36836,39860,33220
37636,39814,33239
38056,39748,33225
38544,39711,33263
38920,39716,33270
39308,39741,33268
39568,39781,33284
40244,39833,33300
42032,39856,33296
44680,39866,33327
45944,39856,33340
45076,39837,33328
42376,39804,33372
38084,39776,33372
32760,39806,33373
27388,39852,33400
23648,39905,33413
22033,39908,33406
22268,39984,33459
23448,40015,33465
25072,39988,33484
26798,39943,33496
28340,39845,33497
29580,39814,33530
30564,39811,33533
31272,39815,33564
31776,39844,33591
32196,39901,33572
32452,39940,33633
32604,39943,33644
32652,39957,33655
32716,39903,33649
32760,39855,33717
32813,39805,33722
32872,39756,33748
32928,39796,33727
33041,39833,33761
33124,39892,33799
33184,39932,33801
33176,39959,33808
33188,39943,33841
33177,39913,33845
33190,39859,33866
33184,39815,33840
33224,39799,33864
33269,39805,33907
33285,39860,33900
33352,39904,33939
33380,39921,33903
33405,39980,33957
33432,39959,33969
33380,39925,33973
33340,39860,33988
33348,39808,33985
33404,39807,34009
33420,39815,33980
33440,39839,34023
33500,39916,34026
33588,39973,33999
33656,39985,34031
33656,39961,34063
33632,39932,34071
33592,39887,34061
33584,39837,34084
33572,39831,34127
33628,39841,34112
33696,39879,34133
33794,39928,34125
33908,39972,34161
33892,40001,34202
33824,40005,34193
33804,39956,34212
33808,39892,34236
33824,39862,34206
33880,39827,34256
33956,39844,34271
34064,39893,34234
34200,39943,34258
34296,39988,34292
34344,40019,34311
34332,39996,34284
34352,39972,34332
34336,39913,34324
34368,39868,34330
34408,39852,34341
34456,39863,34288
34564,39901,34338
34680,39938,34344
34780,40007,34371
34880,40025,34372
34972,39988,34338
35032,39987,34392
35016,39921,34387
35020,39881,34401
35084,39865,34413
35212,39887,34389
35380,39918,34417
35588,39971,34448
35772,40013,34457
35896,40028,34439
35988,40028,34469
36058,39989,34489
36152,39943,34494
36244,39903,34476
36332,39876,34497
36452,39888,34501
36648,39927,34533
36840,39965,34552
36964,40034,34550
37084,40045,34568
37124,40039,34576
37149,40004,34543
37208,39943,34533
37280,39916,34615
37288,39880,34610
37312,39897,34612
37372,39943,34581
37424,39999,34601
37464,40015,34629
37448,40069,34654
37388,40053,34641
37300,40035,34658
37180,39981,34648
37120,39924,34671
37004,39911,34628
36868,39919,34679
36748,39965,34660
36568,40020,34679
36340,40067,34645
36052,40087,34655
35668,40098,34670
35296,40053,34692
34852,40006,34649
34468,39965,34687
34096,39943,34695
33748,39957,34679
33452,40000,34693
33148,40045,34649
32852,40069,34700
32528,40126,34690
32240,40116,34649
31910,40078,34695
31620,39999,34687
31360,39992,34665
31108,39956,34671
30964,39976,34703
30824,40015,34695
30704,40043,34701
30562,40103,34679
30496,40123,34652
30356,40135,34657
30252,40087,34695
30116,40047,34709
30012,39957,34716
29920,39968,34709
29896,39943,34701
29920,40029,34711
29980,40064,34663
29982,40110,34724
29964,40103,34724
29928,40128,34695
29881,40088,34724
29836,40037,34759
29797,39997,34747
29820,39975,34759
29825,39968,34731
29868,40019,34759
29948,40069,34783
30088,40117,34790
30189,40141,34787
30212,40132,34759
30209,40068,34808
30165,40053,34808
30116,40004,34799
30136,39984,34823
30196,39967,34853
30328,40027,34823
30392,40079,34853
30464,40120,34877
30496,40104,34885
30464,40148,34849
30456,40109,34905
30436,40025,34909
30393,40025,34869
30396,39997,34919
30401,39993,34904
30408,40025,34951
30452,40085,34943
30572,40133,34964
30721,40134,34916
30776,40150,34985
30828,40128,34990
30836,40065,34977
30776,39990,34999
30752,39999,35033
30761,39993,35031
30826,40007,34988
30905,40096,35060
31016,40135,35047
31040,40167,35028
31076,40114,35079
31141,40129,35085
31116,40076,35047
31074,40017,35092
31036,40004,35057
31068,40019,35100
31180,40047,35108
31280,40071,35128
31368,40145,35079
31412,40170,35148
31440,40164,35133
31404,40143,35118
31326,40070,35129
31312,40041,35181
31345,40012,35172
31376,40020,35117
31413,40044,35143
31480,40098,35204
31564,40153,35200
31580,40180,35195
31556,40163,35173
31536,40147,35244
31508,40098,35262
31460,40044,35268
31456,40021,35221
31488,39997,35287
31568,40060,35316
31620,40103,35324
31694,40155,35314
31704,40178,35360
31700,40175,35299
31688,40151,35375
31676,40096,35367
31664,40045,35394
31640,40013,35335
31632,40023,35417
31640,40037,35433
31649,40103,35429
31680,40156,35452
31732,40148,35389
31752,40181,35463
31740,40132,35484
31692,40095,35492
31688,40047,35436
31676,40013,35517
31688,40011,35527
31736,40006,35476
31820,40092,35551
31878,40148,35533
31908,40167,35495
31916,40168,35572
31904,40139,35590
31828,40084,35533
31752,40043,35591
31784,39974,35596
31824,40004,35556
31887,40047,35617
31964,40089,35647
32038,40149,35649
32053,40168,35599
32064,40167,35681
32088,40136,35677
32048,40085,35623
32032,40037,35689
31982,40013,35697
32004,40004,35708
31988,40023,35685
32033,40101,35672
32108,40147,35759
32161,40172,35749
32152,40172,35737
32132,40133,35714
32088,40087,35800
32076,40028,35748
32096,39972,35823
32097,40009,35828
32153,40038,35772
32156,40092,35822
32184,40145,35860
32252,40177,35871
32264,40157,35860
32272,40138,35876
32308,40089,35856
32288,40037,35868
32318,40002,35909
32229,40003,35921
32145,40036,35952
32244,40101,35869
32341,40124,35968
32410,40176,35967
32440,40169,35905
32426,40132,36007
32352,40087,36015
32284,40036,35994
32236,39985,36012
32256,40025,35975
32348,40045,36047
32456,40095,36042
32509,40151,36026
32544,40176,36045
32516,40185,36104
32472,40147,36097
32417,40096,36025
32460,40039,36141
32516,40026,36132
32572,40023,36076
32548,40055,36132
32538,40100,36156
32528,40163,36183
32476,40176,36125
32420,40157,36160
32428,40153,36212
32400,40100,36225
32400,40060,36161
32408,39988,36252
32452,40032,36255
32476,40063,36273
32535,40095,36191
32524,40165,36287
32528,40193,36286
32448,40169,36324
32392,40167,36288
32301,40105,36335
32240,40039,36348
32294,40036,36268
32405,40036,36377
32504,40071,36364
32532,40112,36399
32576,40157,36319
32568,40172,36429
32564,40199,36437
32636,40175,36388
32664,40116,36397
32676,40071,36400
32752,40028,36508
32772,40030,36500
32812,40061,36477
32840,40111,36469
32820,40142,36487
32804,40199,36556
32804,40196,36585
32744,40167,36607
32728,40127,36559
32740,40068,36584
32768,40030,36666
32780,40035,36669
32832,40052,36584
32892,40100,36681
32932,40161,36725
32940,40172,36733
32952,40191,36652
32925,40157,36743
32880,40111,36783
32858,40064,36772
32858,40031,36793
32868,40012,36836
32900,40053,36734
33004,40103,36821
33056,40143,36837
33074,40177,36802
33112,40177,36895
33124,40139,36900
33068,40100,36852
33032,40042,36897
32948,40012,36855
32912,40005,36932
32920,40014,36916
33016,40093,36892
33086,40130,36849
33092,40165,36948
33084,40175,36948
33036,40136,36967
32984,40085,36871
33060,40039,36974
33088,40000,36979
33006,40005,36988
32968,39997,36919
32964,40079,36919
32928,40127,37009
33008,40120,36991
33132,40165,36938
33332,40124,36944
33560,40041,37021
34050,40022,36984
34812,39988,36997
35740,39989,36948
36732,39998,36908
37496,40046,37015
37904,40096,36991
38360,40133,36937
38788,40138,36916
39048,40122,36895
39080,40062,36879
39396,40012,36900
41088,39975,36902
43108,39976,36941
43800,39992,36967
42872,40071,36969
40312,40133,36949
36048,40204,36964
31036,40236,36902
26320,40213,36913
23512,40140,36944
22580,40128,36956
23116,40085,36879
24460,40071,36868
25960,40091,36949
27445,40085,36932
28884,40173,36965
30084,40191,36888
30912,40167,36864
31404,40166,36959
31712,40121,36936
31948,40055,36941
32152,40021,36836
32320,40000,36937
32576,40047,36924
32824,40081,36943
32950,40114,36837
33004,40183,36924
33012,40175,36934
33040,40151,36823
33044,40103,36828
33028,40053,36903
33028,39987,36878
33060,40009,36804
33092,40023,36829
33168,40071,36837
33244,40141,36831
33308,40161,36719
33352,40164,36807
33336,40136,36679
33300,40102,36761
33272,40062,36724
33308,40004,36628
33300,40007,36719
33348,40030,36692
33388,40071,36580
33452,40134,36652
33509,40148,36615
33508,40175,36526
33468,40140,36588
33408,40094,36583
33372,40037,36492
33408,40001,36532
33429,39997,36526
33500,40017,36421
33580,40065,36508
33632,40119,36484
33632,40165,36377
33608,40162,36421
33600,40137,36453
33609,40077,36405
33644,40034,36407
33672,40023,36332
33728,39997,36300
33764,40014,36358
33804,40053,36357
33901,40119,36337
33902,40144,36332
33904,40114,36287
33884,40128,36241
33880,40084,36293
33857,40030,36298
33872,39997,36205
33924,39991,36220
34020,40004,36244
34152,40053,36220
34264,40111,36212
34342,40135,36103
34356,40149,36158
34352,40135,36140
34369,40087,36062
34380,40037,36094
34432,39956,36071
34532,39984,35981
34640,40011,36024
34776,40023,35989
34912,40109,35933
35024,40134,35973
35112,40150,35925
35216,40118,35877
35268,40037,35865
35332,40023,35885
35404,39983,35777
35480,39975,35832
35608,39965,35796
35784,40036,35791
35944,40081,35687
36088,40121,35663
36236,40124,35719
36376,40102,35692
36424,40055,35641
36476,40006,35645
36460,39972,35554
36553,39953,35538
36676,39994,35556
36812,40033,35506
36952,40078,35496
36996,40116,35408
36996,40116,35365
36992,40103,35418
36980,40048,35359
36932,40004,35341
36885,39965,35271
36876,39963,35260
36876,39964,35257
36886,40036,35218
36852,40093,35180
36784,40122,35159
36636,40127,35077
36464,40088,35104
36225,40071,35015
35956,40014,34988
35677,39983,34985
35388,39972,34975
35060,40004,34918
34768,40051,34895
34480,40095,34817
34169,40133,34844
33816,40126,34779
33437,40134,34795
33036,40076,34753
32640,40008,34742
32296,39992,34671
32032,39996,34670
31789,40007,34612
31572,40029,34616
31416,40108,34596
31228,40143,34535
31076,40149,34555
30920,40123,34516
30716,40086,34469
30556,40012,34465
30408,39996,34445
30296,39983,34386
30268,39997,34404
30256,40047,34370
30245,40077,34335
30222,40097,34324
30168,40140,34308
30080,40124,34256
29984,40060,34283
29924,40023,34244
29880,39973,34193
29885,39967,34209
29880,39997,34194
29938,40031,34156
29997,40080,34154
30032,40121,34112
30073,40134,34120
30092,40079,34065
30024,40065,34084
29980,40017,34055
29936,39972,34036
29984,39965,34020
30062,39983,34004
30148,40023,33957
30226,40071,33981
30252,40106,33959
30260,40130,33934
30236,40100,33927
30204,40056,33890
30188,40007,33900
30204,39965,33874
30205,39963,33838
30296,39983,33832
30400,40009,33820
30460,40071,33785
30540,40108,33781
30572,40108,33772
30536,40092,33744
30488,40020,33723
30468,39997,33717
30468,39957,33674
30505,39943,33690
30561,39922,33663
30632,40017,33647
30732,40063,33624
30760,40095,33593
30800,40100,33584
30816,40050,33559
30776,40037,33556
30696,39984,33535
30700,39943,33509
30752,39937,33472
30812,39929,33481
30876,40001,33445
30957,40059,33439
31029,40085,33415
31020,40095,33407
31008,40087,33380
30958,40033,33340
30944,39975,33332
30946,39940,33284
31004,39927,33287
31076,39941,33257
31164,39984,33233
31206,40047,33220
31256,40085,33180
31300,40084,33179
31301,40068,33151
31272,40013,33149
31228,39983,33117
31269,39943,33084
31309,39879,33076
31392,39935,33055
31460,39973,33028
31568,40034,33035
31576,40069,33009
31556,40071,32992
31544,40061,32974
31504,40019,32921
31480,39943,32945
31481,39879,32917
31533,39904,32893
31589,39915,32889
31700,39957,32869
31792,40012,32861
31832,40050,32845
31826,40054,32828
31796,40051,32812
31724,40002,32791
31680,39936,32767
31636,39909,32769
31664,39886,32756
31728,39911,32724
31785,39943,32705
31828,39999,32702
31860,40044,32681
31844,40047,32661
31820,40025,32668
31780,39943,32631
31752,39935,32600
31768,39897,32582
31820,39881,32576
31844,39902,32555
31924,39932,32542
32036,39943,32528
32084,40044,32513
32088,40047,32495
32060,40029,32495
32048,39975,32464
32006,39891,32453
31972,39890,32424
31960,39868,32435
32013,39873,32415
32104,39931,32397
32181,39980,32407
32208,40016,32388
32196,40037,32367
32148,40023,32364
32084,39975,32340
32056,39913,32319
32024,39879,32317
32028,39861,32291
32044,39878,32293
32124,39884,32279
32186,39981,32285
32232,40012,32263
32244,40028,32263
32204,40011,32228
32172,39975,32220
32116,39910,32213
32096,39875,32198
32116,39869,32162
32120,39871,32168
32205,39908,32141
32284,39943,32136
32321,40017,32135
32360,40021,32152
32386,40002,32117
32360,39959,32123
32296,39902,32073
32284,39872,32084
32252,39857,32048
32292,39876,32039
32396,39892,32035
32480,39975,32017
32521,39997,31989
32528,40031,32005
32496,40014,31964
32421,39970,31935
32376,39919,31940
32392,39876,31909
32437,39844,31884
32522,39879,31885
32576,39935,31866
32636,39982,31839
32680,39989,31847
32673,40034,31802
32576,40010,31777
32464,39977,31760
32352,39919,31751
32352,39874,31710
32413,39850,31716
32456,39876,31703
32542,39920,31668
32584,39973,31637
32592,40013,31661
32577,40033,31599
32544,40015,31563
32456,39971,31553
32324,39919,31571
32228,39879,31509
32245,39870,31469
32280,39887,31491
32344,39935,31448
32456,39964,31411
32568,40025,31432
32560,40029,31397
32544,40014,31348
32544,39971,31391
32485,39912,31332
32548,39877,31304
32648,39855,31320
32684,39862,31254
32792,39917,31234
32876,39967,31239
32892,40011,31263
32848,40023,31173
32805,40000,31172
32733,39967,31201
32628,39904,31127
32552,39871,31109
32572,39831,31134
32644,39879,31077
32672,39923,31060
32728,39965,31029
32788,40002,31005
32806,39976,31062
32809,40000,30993
32797,39953,30964
32732,39857,30932
32721,39857,30921
32748,39849,30916
32800,39852,30896
32856,39879,30896
32892,39943,30845
32896,39988,30802
32912,40003,30816
32879,39990,30804
32848,39940,30788
32812,39873,30769
32784,39843,30748
32788,39828,30727
32832,39840,30703
32904,39879,30713
32968,39929,30675
32988,39977,30652
32996,39998,30633
32956,39983,30591
32880,39928,30632
32853,39875,30592
32864,39836,30600
32896,39823,30531
32948,39844,30508
33028,39873,30528
33100,39925,30489
33100,39972,30538
33020,39989,30468
32948,39977,30479
32948,39925,30429
33044,39829,30393
33252,39829,30437
33532,39813,30395
34136,39820,30409
34940,39864,30364
35972,39911,30343
36996,39941,30396
37720,39973,30320
38145,39943,30337
38633,39896,30277
38864,39860,30279
39096,39815,30305
39404,39791,30230
40252,39825,30233
42376,39859,30252
45032,39894,30192
45944,39934,30172
44680,39971,30240
41596,39984,30177
36832,39996,30154
31148,39949,30228
26084,39941,30124
22980,39926,30111
21880,39908,30200
22417,39972,30109
23878,40013,30092
25644,40055,30087
27337,40048,30181
28738,40033,30096
29884,39985,30138
30696,39896,30055
31256,39888,30061
31712,39869,30129
32040,39872,30074
32332,39912,30072
32528,39977,30117
32664,40004,30060
32788,40023,30022
32880,40004,30127
32888,39952,30033
32900,39916,30022
32912,39877,30021
32940,39844,30016
33020,39861,30001
33128,39897,30034
33184,39957,29953
33276,39999,29920
33324,40021,30008
33364,40001,29890
33346,39959,29894
33270,39909,29948
33240,39870,29855
33228,39841,29831
33316,39846,29836
33376,39901,29808
33468,39943,29812
33512,39991,29804
33532,40012,29777
33534,39989,29828
33496,39943,29796
33444,39893,29793
33392,39857,29821
33404,39844,29733
33444,39845,29742
33504,39893,29741
33572,39917,29728
33621,39980,29702
33644,40007,29792
33592,39991,29689
33528,39957,29791
33504,39908,29714
33520,39855,29738
33560,39801,29695
33600,39854,29684
33654,39885,29768
33744,39907,29684
33832,39988,29709
33848,39996,29693
33820,39988,29696
33824,39943,29716
33768,39892,29727
33761,39865,29693
33817,39833,29650
33901,39849,29703
34004,39887,29693
34088,39941,29745
34188,39983,29676
34240,39988,29742
34276,39995,29630
34250,39943,29626
34244,39892,29628
34300,39852,29716
34360,39825,29639
34472,39852,29620
34608,39880,29665
34750,39899,29610
34840,39972,29586
34920,39996,29620
34992,39943,29628
35041,39935,29591
35092,39889,29572
35184,39840,29669
35302,39812,29612
35417,39838,29567
35573,39877,29607
35724,39927,29596
35860,39967,29631
36004,39977,29588
36108,39972,29589
36177,39925,29641
36228,39870,29628
36284,39845,29692
36397,39817,29622
36516,39820,29700
36684,39879,29693
36852,39910,29637
36948,39975,29652
37012,39979,29677
37084,39980,29689
37092,39933,29678
37044,39882,29692
37020,39846,29701
37044,39815,29694
37072,39831,29727
37116,39862,29797
37140,39900,29729
37124,39979,29729
37072,39999,29720
36964,39991,29853
36768,39942,29814
36568,39894,29777
36392,39844,29776
36232,39836,29877
36056,39849,29827
35848,39895,29824
35568,39943,29816
35262,40005,29922
34912,40008,29836
34500,40015,29861
34096,39981,29839
33677,39931,29900
33276,39876,29891
32908,39869,29891
32620,39872,29913
32384,39909,29929
32152,39967,29887
31924,40015,29972
31688,40044,29906
31448,40007,29935
31204,39997,29895
30928,39929,29994
30741,39892,29923
30580,39879,29941
30480,39876,29924
30433,39918,29999
30360,39973,29993
30289,39972,29980
30196,40044,29957
30064,40036,30064
29956,39993,29996
29832,39943,30002
29756,39907,30072
29756,39872,29993
29770,39841,30016
29804,39929,30070
29844,39977,30039
29886,40023,30060
29888,40047,30012
29872,39991,30127
29824,39996,30049
29776,39943,30095
29740,39895,30115
29740,39876,30121
29776,39879,30119
29840,39871,30095
29912,39968,30197
30028,40015,30129
30104,40047,30165
30117,40039,30173
30124,39984,30257
30080,39943,30196
30060,39886,30226
30089,39871,30201
30144,39879,30231
30220,39909,30215
30320,39933,30274
30380,40007,30264
30436,40039,30258
30440,39985,30340
30400,39994,30270
30351,39943,30287
30360,39892,30324
30396,39876,30309
30480,39876,30313
30560,39916,30293
30644,39972,30387
30756,40007,30343
30804,40025,30404
30808,40031,30348
30780,39999,30434
30708,39940,30356
30692,39892,30380
30724,39868,30420
30772,39868,30424
30853,39909,30409
30977,39968,30420
31058,40007,30413
31093,40015,30419
31112,40029,30487
31080,39989,30420
31028,39941,30399
31028,39900,30466
31065,39878,30417
31116,39876,30401
31217,39917,30492
31312,39958,30412
31365,39981,30420
31416,40033,30452
31412,40028,30428
31376,39983,30451
31360,39943,30471
31348,39889,30442
31368,39845,30421
31409,39868,30471
31512,39903,30460
31612,39927,30505
31696,40007,30445
31724,40029,30440
31741,40014,30535
31706,39975,30482
31685,39924,30477
31688,39879,30543
31700,39853,30484
31748,39868,30503
31812,39897,30510
31880,39943,30551
31942,39997,30560
32004,40023,30572
32010,40011,30533
31932,39972,30549
31892,39933,30536
31862,39873,30533
31872,39844,30601
31920,39863,30553
32000,39897,30596
32072,39903,30556
32100,39966,30631
32164,40021,30565
32176,40014,30617
32128,39980,30567
32084,39924,30589
32056,39864,30579
32048,39852,30577
32064,39828,30583
32088,39899,30614
32144,39943,30562
32200,39993,30594
32224,40021,30647
32220,40018,30584
32160,39973,30617
32072,39935,30580
32056,39877,30581
32076,39853,30630
32092,39854,30594
32128,39888,30583
32208,39943,30642
32288,39989,30604
32304,40007,30613
32312,40018,30659
32304,39977,30613
32216,39925,30599
32140,39876,30609
32164,39859,30605
32208,39815,30636
32252,39892,30639
32332,39943,30695
32380,39989,30661
32420,40016,30739
32429,39999,30657
32400,39977,30688
32352,39934,30683
32348,39894,30661
32347,39863,30715
32372,39863,30681
32420,39900,30719
32480,39943,30780
32496,40000,30717
32512,40031,30739
32512,40031,30758
32480,39993,30791
32380,39926,30770
32332,39903,30756
32329,39868,30836
32376,39876,30789
32440,39920,30798
32480,39959,30830
32528,40012,30819
32548,40047,30839
32559,40032,30895
32534,40002,30836
32488,39956,30836
32452,39908,30898
32432,39885,30850
32484,39885,30854
32549,39892,30877
32664,39974,30887
32704,40028,30956
32685,40039,30897
32672,40047,30912
32616,40002,30901
32564,39940,30904
32564,39909,30948
32604,39884,30925
32684,39895,30977
32772,39915,30924
32844,39975,30927
32900,40039,30952
32880,40049,30939
32844,40046,31008
32780,39981,30964
32664,39972,31023
32584,39921,30967
32556,39901,31002
32620,39890,30954
32704,39900,30975
32780,39987,30956
32792,40036,31025
32764,40057,30969
32700,40058,30970
32624,40021,31005
32532,39972,30978
32452,39921,31012
32380,39871,30976
32390,39893,30996
32441,39901,30964
32520,39989,31046
32628,40047,31004
32641,40064,30982
32628,40066,30978
32613,40015,31031
32580,39983,31000
32590,39926,31042
32612,39905,31000
32664,39877,31015
32764,39935,31049
32897,39972,31005
32980,40035,30996
32980,40052,31028
32956,40060,31042
32888,40015,31085
32784,39965,31029
32690,39917,31016
32640,39893,31084
32664,39907,31032
32740,39922,31039
32840,39943,31082
32900,40016,31053
32884,40044,31040
32864,40007,31111
32840,40014,31079
32756,39969,31052
32732,39911,31108
32728,39883,31071
32736,39880,31111
32812,39902,31071
32888,39956,31072
32953,40012,31140
32965,40032,31103
32916,40045,31089
32869,40000,31071
32820,39964,31097
32772,39911,31119
32769,39853,31085
32764,39876,31085
32838,39903,31116
32912,39927,31080
32932,40007,31085
32972,40023,31076
32964,40037,31129
32920,40001,31081
32886,39943,31076
32864,39901,31089
32884,39870,31090
32928,39873,31075
33004,39896,31045
33092,39943,31111
33165,40006,31054
33168,40037,31052
33088,40033,31092
33004,39965,31068
33060,39943,31036
33224,39904,31098
33436,39860,31044
33769,39871,31033
34464,39855,31074
35352,39943,31077
36440,39982,31050
37340,39999,31020
37972,40017,31095
38464,39988,31033
38864,39935,31031
39032,39890,31051
39228,39871,31030
39728,39871,31030
40896,39908,31055
43544,39932,31049
46188,39974,31030
46628,40013,31093
44876,40033,31033
41380,40036,31000
36308,40004,31093
30556,40012,31054
25557,40000,31068
22612,39994,31063
21824,40036,31054
22693,40037,31116
24356,40104,31050
26177,40145,31049
27740,40134,31127
29008,40087,31063
30036,40005,31068
30828,39975,31141
31420,39943,31082
31872,39936,31076
32180,39961,31149
32480,40015,31111
32700,40070,31142
32838,40055,31149
32902,40095,31108
32948,40063,31127
32964,40018,31125
32956,39967,31122
32945,39922,31136
32976,39919,31116
33076,39938,31089
33160,40008,31149
33278,40065,31093
33324,40085,31093
33332,40077,31124
33332,40060,31100
33257,39964,31081
33240,39943,31056
33232,39917,31111
33244,39919,31065
33310,39911,31055
33380,39994,31100
33460,40045,31049
33520,40076,31111
33516,40079,31061
33472,40044,31044
33452,39994,31100
33424,39924,31049
33452,39917,31032
33496,39917,31036
33564,39905,31047
33632,39997,31055
33712,40041,31037
33744,40070,31042
33720,40068,31043
33688,40045,31039
33689,39996,31052
33644,39943,31037
33665,39907,31041
33732,39903,31079
33789,39930,31034
33884,39986,31096
33972,39999,31052
34016,40071,31062
34024,40064,31071
34016,40025,31097
33972,39967,31078
33928,39934,31053
33948,39894,31055
34000,39866,31108
34076,39919,31089
34120,39972,31064
34224,40023,31140
34272,40054,31078
34292,40036,31054
34300,40028,31119
34308,39975,31069
34336,39933,31055
34412,39889,31085
34504,39886,31044
34612,39903,31046
34757,39963,31034
34897,40005,31087
35040,40036,31015
35084,40039,31021
35141,40020,30996
35180,39981,31058
35248,39917,30996
35288,39880,30996
35416,39879,30993
35556,39901,31038
35748,39916,30980
35920,40004,30983
36077,40023,31005
36220,40043,31034
36268,39980,30997
36350,39957,30998
36428,39908,30967
36520,39879,31021
36640,39867,30983
36772,39868,30983
36918,39940,31007
37092,39994,30983
37244,40034,30983
37317,40036,30983
37341,40001,31031
37336,39967,31054
37316,39905,31028
37296,39869,30991
37296,39879,30997
37344,39901,31009
37408,39943,30995
37440,40002,31048
37400,40038,31076
37276,40036,31009
37156,40015,31026
36988,39972,31020
36784,39927,30999
36596,39893,31043
36420,39884,31072
36220,39925,31056
35992,39967,31034
35728,39996,31060
35396,40035,31065
34992,40070,31100
34616,40044,31083
34192,40003,31052
33781,39943,31097
33409,39887,31078
33056,39919,31066
32764,39943,31073
32508,39997,31064
32257,40038,31157
31960,40084,31116
31672,40085,31111
31420,40058,31086
31134,40009,31153
30869,39957,31124
30632,39901,31124
30476,39930,31109
30385,39943,31180
30296,40002,31143
30236,40045,31141
30184,40079,31205
30088,40047,31156
29988,40071,31145
29876,40015,31172
29801,39975,31157
29760,39924,31202
29770,39916,31192
29804,39941,31228
29840,39989,31202
29900,40028,31192
29932,40071,31257
29908,40077,31232
29868,40047,31229
29868,40015,31207
29844,39953,31281
29812,39918,31239
29844,39868,31236
29935,39935,31282
30036,39968,31301
30113,40023,31261
30144,40053,31280
30168,40071,31302
30164,40047,31296
30144,39981,31301
30148,39943,31288
30128,39916,31293
30160,39911,31342
30244,39883,31333
30328,39967,31324
30401,40018,31335
30484,40053,31327
30548,40062,31400
30512,40037,31365
30470,39989,31356
30468,39942,31361
30492,39896,31393
30584,39893,31367
30644,39923,31353
30697,39957,31385
30776,39996,31363
30816,40044,31417
30824,40050,31424
30824,40029,31388
30784,39977,31412
30768,39917,31405
30776,39888,31444
30808,39877,31423
30888,39900,31404
30976,39943,31409
31072,39991,31427
31120,39980,31470
31153,40033,31446
31140,39995,31424
31102,39971,31432
31076,39911,31421
31064,39841,31417
31097,39860,31438
31128,39876,31457
31244,39911,31425
31333,39981,31433
31383,40013,31437
31397,39996,31441
31408,40004,31492
31393,39943,31442
31377,39886,31436
31380,39865,31428
31408,39847,31461
31476,39835,31478
31568,39925,31456
31632,39965,31449
31668,39964,31468
31684,40006,31458
31684,39991,31452
31660,39910,31509
31632,39891,31478
31664,39850,31487
31724,39831,31473
31786,39812,31529
31864,39901,31511
31952,39941,31495
32012,39977,31495
32016,40004,31529
32000,39988,31509
31972,39941,31503
31916,39865,31496
31896,39841,31494
31924,39822,31544
31980,39845,31506
32068,39852,31517
32132,39941,31503
32192,39982,31569
32168,39980,31535
32119,39969,31495
32072,39927,31557
32040,39852,31533
32028,39840,31516
32052,39815,31541
32072,39839,31536
32144,39873,31530
32224,39935,31513
32245,39967,31545
32232,39975,31519
32176,39933,31511
32065,39927,31535
31972,39863,31550
31977,39823,31527
31988,39806,31515
32004,39834,31529
32064,39858,31564
32128,39932,31520
32132,39975,31520
32109,39964,31536
32089,39967,31519
32040,39923,31556
32016,39871,31572
31992,39833,31547
32004,39820,31556
32040,39841,31540
32096,39881,31591
32188,39929,31585
32204,39974,31585
32200,39983,31591
32169,39968,31583
32104,39929,31612
32092,39878,31630
32128,39796,31609
32149,39815,31623
32189,39829,31634
32245,39860,31671
32304,39935,31644
32348,39967,31637
32356,39976,31695
32340,39943,31669
32288,39903,31670
32248,39869,31716
32256,39823,31700
32270,39797,31711
32292,39828,31717
32340,39868,31685
32416,39923,31767
32450,39943,31772
32426,39972,31775
32416,39957,31767
32380,39917,31773
32321,39857,31769
32316,39796,31813
32364,39801,31797
32400,39829,31800
32500,39867,31808
32584,39916,31836
32620,39957,31830
32620,39980,31829
32600,39953,31825
32552,39911,31854
32484,39852,31846
32452,39783,31860
32444,39808,31855
32488,39815,31860
32532,39858,31860
32625,39887,31876
32701,39943,31863
32764,39967,31903
32748,39956,31873
32740,39907,31871
32732,39853,31899
32716,39815,31879
32748,39780,31860
32756,39809,31906
32788,39845,31895
32860,39908,31884
32888,39934,31876
32832,39951,31911
32740,39943,31912
32700,39903,31887
32656,39852,31862
32596,39797,31920
32520,39776,31901
32513,39796,31884
32544,39845,31924
32536,39898,31924
32509,39935,31909
32464,39943,31909
32409,39933,31922
32328,39887,31948
32289,39829,31924
32300,39789,31930
32366,39765,31927
32448,39773,31917
32504,39836,31953
32608,39874,31940
32685,39910,31953
32704,39935,31970
32685,39917,31957
32672,39866,31964
32632,39828,31959
32600,39783,31972
32608,39753,31992
32618,39760,31989
32688,39784,31992
32732,39865,31987
32712,39908,31999
32688,39932,31996
32656,39919,32001
32584,39860,32025
32517,39780,32017
32504,39772,32027
32505,39748,32029
32564,39753,32039
32636,39797,32031
32693,39849,32039
32788,39893,32036
32816,39900,32063
32837,39887,32049
32798,39815,32031
32764,39797,32072
32696,39748,32056
32748,39737,32045
32754,39730,32066
32772,39788,32063
32824,39834,32039
32856,39879,32069
32876,39887,32050
32869,39879,32050
32828,39815,32046
32791,39788,32055
32784,39745,32048
32776,39725,32042
32784,39735,32037
32840,39775,32048
32920,39831,32031
32980,39869,32047
32986,39879,32037
32997,39876,32029
32972,39833,32026
32928,39781,32045
32901,39708,32023
32884,39717,32012
32848,39727,32024
32861,39772,32023
32980,39821,32006
33218,39845,32033
33436,39895,32012
33664,39870,31996
34112,39836,32028
34780,39748,32009
35708,39728,31992
36644,39705,32007
37448,39716,31993
38008,39732,32015
38597,39804,32007
38892,39853,31997
39160,39880,31988
39380,39873,32016
40124,39833,32000
41956,39772,31989
44940,39705,31980
46264,39701,32016
45372,39732,32004
42684,39788,31994
38256,39868,32010
32746,39910,32009
27284,39996,32004
23380,39981,32015
21620,39933,32015
21852,39893,32006
23166,39837,32015
25000,39812,32005
26776,39815,32001
28265,39845,32033
29532,39880,32026
30549,39927,32047
31237,39932,32031
31668,39927,32035
31933,39883,32038
32125,39829,32039
32268,39783,32036
32424,39741,32042
32544,39768,32040
32704,39799,31999
32840,39846,32061
32920,39892,32044
32996,39901,32032
33062,39898,32053
33061,39861,32039
33044,39798,32029
33036,39756,32022
33068,39733,32015
33148,39741,32020
33236,39780,31999
33316,39823,32013
33385,39855,31999
33416,39883,31983
33416,39895,31990
33360,39835,31976
33296,39780,31947
33310,39740,31996
33360,39723,31964
33400,39720,31961
33472,39759,31975
33516,39823,31956
33556,39853,31952
33568,39868,31972
33536,39858,31944
33476,39815,31932
33445,39744,31949
33408,39719,31927
33404,39701,31925
33480,39687,31924
33556,39700,31929
33616,39791,31946
33684,39831,31924
33718,39844,31874
33724,39813,31949
33712,39807,31918
33692,39749,31912
33672,39703,31929
33700,39674,31937
33765,39680,31932
33872,39717,31921
33952,39771,31956
34020,39775,31938
34069,39831,31939
34102,39815,31935
34106,39780,31948
34080,39736,31933
34084,39687,31911
34096,39667,31942
34188,39676,31912
34296,39701,31914
34436,39735,31904
34540,39804,31889
34616,39812,31911
34679,39809,31879
34720,39779,31878
34740,39731,31864
34780,39671,31869
34820,39644,31860
34909,39649,31828
35032,39687,31852
35200,39725,31839
35324,39789,31824
35416,39804,31813
35501,39790,31831
35568,39765,31800
35620,39709,31807
35720,39657,31784
35805,39644,31788
35940,39641,31796
36060,39684,31805
36197,39724,31812
36364,39770,31785
36500,39799,31773
36564,39804,31764
36632,39724,31751
36686,39708,31780
36724,39653,31777
36788,39629,31746
36864,39649,31740
36981,39679,31736
37093,39698,31751
37208,39780,31740
37240,39796,31734
37228,39796,31718
37180,39764,31751
37072,39719,31724
36996,39660,31726
36976,39650,31687
36949,39652,31749
36936,39671,31729
36912,39749,31716
36808,39788,31737
36680,39815,31704
36464,39812,31717
36180,39773,31732
35872,39733,31695
35556,39680,31687
35188,39677,31727
34848,39676,31709
34540,39712,31707
34212,39773,31703
33892,39823,31696
33516,39855,31692
33112,39844,31697
32696,39809,31713
32320,39756,31698
31992,39687,31695
31692,39687,31686
31456,39684,31727
31220,39731,31694
31061,39773,31700
30912,39788,31708
30721,39852,31733
30568,39831,31704
30388,39806,31695
30180,39744,31711
30037,39716,31716
29912,39667,31706
29828,39687,31717
29792,39701,31713
29788,39758,31714
29784,39815,31708
29772,39837,31751
29700,39777,31745
29624,39791,31732
29552,39744,31738
29480,39701,31724
29473,39668,31766
29496,39641,31758
29544,39709,31760
29632,39759,31724
29704,39793,31783
29764,39812,31751
29756,39812,31748
29736,39773,31801
29728,39719,31769
29768,39672,31781
29785,39647,31764
29824,39599,31804
29886,39685,31800
29960,39728,31807
30044,39775,31799
30084,39776,31792
30096,39796,31817
30104,39758,31801
30080,39671,31800
30109,39655,31806
30172,39621,31833
30216,39628,31815
30284,39660,31820
30392,39708,31815
30504,39759,31825
30568,39767,31823
30576,39773,31812
30552,39751,31801
30496,39645,31821
30480,39628,31836
30510,39604,31826
30548,39612,31772
30600,39655,31844
30676,39687,31818
30736,39728,31818
30772,39765,31804
30789,39756,31844
30764,39711,31832
30712,39647,31828
30688,39623,31821
30724,39584,31810
30780,39596,31820
30860,39617,31816
30948,39642,31827
31012,39717,31824
31044,39721,31809
31040,39739,31837
30993,39703,31834
30980,39623,31820
30973,39606,31815
31016,39581,31820
31047,39576,31839
31125,39612,31810
31204,39655,31813
31296,39713,31838
31336,39727,31820
31345,39718,31820
31352,39687,31811
31349,39655,31836
31352,39588,31828
31312,39566,31815
31340,39559,31818
31384,39601,31818
31468,39637,31812
31532,39692,31837
31584,39712,31860
31568,39720,31831
31552,39676,31841
31505,39596,31840
31461,39588,31832
31500,39551,31857
31568,39552,31868
31652,39593,31840
31733,39628,31824
31816,39661,31879
31856,39709,31855
31864,39703,31849
31832,39679,31847
31792,39628,31879
31764,39572,31848
31768,39536,31851
31820,39552,31885
31864,39575,31853
31900,39591,31853
31972,39681,31872
31994,39700,31853
31937,39707,31845
31918,39676,31869
31872,39629,31864
31837,39575,31844
31820,39551,31847
31836,39543,31858
31909,39580,31860
32004,39628,31850
32066,39676,31872
32100,39705,31844
32080,39668,31845
32024,39677,31860
31965,39621,31848
31940,39567,31836
31952,39545,31844
31948,39503,31833
32010,39583,31860
32064,39623,31840
32120,39642,31847
32176,39707,31856
32176,39687,31879
32160,39662,31885
32104,39605,31889
32084,39572,31866
32060,39529,31876
32104,39526,31877
32102,39573,31901
32172,39612,31901
32228,39669,31901
32257,39693,31899
32232,39687,31935
32176,39661,31936
32153,39613,31933
32124,39553,31932
32108,39513,31960
32116,39532,31948
32192,39550,31959
32236,39609,31921
32300,39652,31993
32316,39684,31993
32319,39677,32004
32316,39647,31998
32284,39599,32012
32280,39548,32044
32280,39524,32014
32329,39512,32039
32408,39548,32031
32468,39593,32047
32536,39641,32067
32596,39669,32081
32604,39676,32061
32560,39639,32093
32472,39594,32079
32400,39548,32089
32388,39513,32092
32420,39500,32108
32456,39538,32110
32520,39580,32116
32580,39628,32047
32602,39618,32132
32624,39653,32135
32608,39629,32127
32564,39570,32124
32500,39498,32149
32460,39498,32135
32444,39489,32137
32500,39497,32073
32578,39572,32140
32653,39607,32148
32720,39636,32142
32772,39647,32151
32725,39604,32160
32708,39566,32156
32720,39504,32151
32724,39453,32159
32780,39476,32164
32817,39504,32164
32869,39559,32164
32936,39596,32153
32948,39614,32188
32924,39632,32167
32840,39589,32172
32744,39559,32166
32676,39496,32183
32604,39428,32169
32584,39473,32175
32596,39498,32165
32589,39544,32199
32608,39588,32195
32564,39629,32180
32556,39627,32192
32492,39597,32196
32432,39532,32201
32424,39496,32205
32440,39469,32197
32484,39452,32205
32544,39454,32231
32620,39535,32229
32740,39580,32230
32852,39609,32221
32877,39618,32244
32832,39588,32249
32828,39524,32244
32800,39491,32246
32776,39447,32252
32756,39431,32261
32804,39469,32252
32840,39524,32276
32824,39567,32271
32780,39598,32284
32732,39613,32278
32716,39573,32269
32664,39531,32287
32668,39476,32307
32676,39445,32297
32656,39431,32292
32716,39460,32295
32788,39512,32316
32876,39554,32311
32912,39599,32313
32900,39597,32310
32900,39559,32305
32808,39527,32340
32748,39468,32316
32780,39444,32322
32788,39431,32308
32789,39422,32309
32876,39516,32333
32974,39540,32334
32996,39591,32325
32932,39599,32316
32885,39559,32308
32856,39519,32321
32833,39465,32322
32813,39431,32301
32860,39427,32309
32904,39428,32293
32953,39515,32301
33024,39551,32292
33064,39588,32284
33056,39591,32293
33024,39571,32288
32993,39515,32287
32972,39469,32284
32948,39428,32270
32949,39431,32270
32924,39455,32263
32908,39510,32262
33008,39532,32263
33212,39584,32271
33400,39583,32263
33632,39515,32263
34068,39512,32261
34720,39463,32271
35708,39409,32255
36720,39407,32255
37484,39422,32246
37997,39475,32257
38540,39527,32252
38781,39559,32249
39040,39559,32256
39264,39559,32261
39940,39511,32258
41812,39448,32247
44688,39404,32240
45888,39393,32260
44856,39431,32260
42064,39512,32248
37484,39599,32253
31896,39652,32272
26506,39688,32263
22801,39633,32256
21276,39630,32253
21661,39559,32263
23089,39528,32276
24958,39508,32262
26740,39496,32268
28276,39559,32260
29550,39589,32292
30524,39622,32280
31168,39639,32271
31614,39585,32296
31860,39551,32293
32066,39490,32281
32264,39457,32315
32428,39447,32296
32592,39455,32294
32748,39509,32315
32900,39551,32305
33008,39580,32304
33072,39591,32319
33080,39557,32295
33050,39508,32292
33004,39431,32284
32981,39424,32276
33022,39413,32276
33084,39428,32258
33136,39471,32276
33244,39536,32263
33320,39559,32263
33364,39547,32262
33356,39541,32249
33312,39497,32256
33276,39453,32248
33248,39407,32240
33282,39393,32233
33352,39412,32225
33444,39463,32229
33504,39502,32199
33544,39540,32236
33520,39559,32217
33501,39495,32212
33444,39487,32224
33392,39408,32207
33384,39391,32188
33396,39383,32199
33432,39389,32192
33480,39412,32172
33558,39492,32199
33608,39532,32185
33628,39524,32213
33608,39512,32201
33556,39421,32188
33552,39415,32203
33548,39372,32209
33600,39352,32206
33668,39378,32215
33788,39431,32204
33892,39431,32223
33952,39509,32222
33988,39512,32211
34000,39495,32222
33988,39431,32223
33992,39398,32219
34032,39363,32221
34100,39343,32213
34164,39334,32209
34260,39414,32202
34364,39463,32215
34456,39500,32201
34522,39516,32189
34576,39490,32196
34624,39452,32188
34650,39388,32164
34702,39328,32172
34812,39351,32154
34973,39362,32148
35104,39380,32135
35264,39468,32156
35384,39495,32135
35484,39493,32125
35532,39488,32148
35580,39431,32127
35656,39395,32116
35748,39359,32111
35868,39345,32117
36000,39367,32112
36164,39396,32108
36332,39463,32121
36501,39485,32124
36588,39508,32104
36652,39486,32116
36700,39447,32124
36740,39390,32113
36788,39359,32109
36892,39328,32109
37014,39342,32101
37160,39420,32101
37292,39461,32115
37360,39503,32097
37384,39513,32116
37372,39486,32100
37276,39452,32101
37184,39405,32104
37152,39355,32106
37156,39349,32095
37120,39372,32101
37076,39420,32095
37060,39479,32111
36928,39508,32117
36760,39520,32111
36540,39508,32103
36248,39467,32111
35933,39413,32100
35644,39377,32113
35276,39351,32104
34977,39396,32100
34652,39444,32124
34285,39492,32109
33916,39500,32101
33532,39555,32105
33136,39525,32132
32756,39485,32112
32376,39431,32093
32084,39399,32117
31726,39381,32116
31436,39409,32109
31257,39448,32135
31100,39503,32132
30916,39541,32129
30756,39559,32124
30576,39535,32161
30340,39479,32142
30156,39431,32153
29997,39393,32157
29865,39373,32183
29820,39397,32192
29836,39431,32188
29856,39480,32200
29816,39486,32213
29744,39534,32231
29688,39508,32225
29684,39421,32241
29652,39413,32237
29600,39348,32278
29620,39356,32279
29681,39365,32281
29745,39415,32297
29810,39460,32319
29820,39503,32332
29808,39494,32326
29798,39492,32357
29748,39429,32365
29734,39337,32372
29744,39343,32370
29820,39331,32402
29892,39345,32405
30020,39388,32407
30108,39404,32421
30154,39474,32436
30208,39495,32457
30256,39463,32455
30224,39420,32406
30170,39364,32470
30140,39325,32480
30184,39318,32481
30244,39332,32487
30359,39375,32511
30457,39427,32509
30488,39412,32510
30517,39478,32537
30496,39450,32535
30516,39405,32541
30500,39325,32545
30508,39316,32561
30513,39296,32556
30613,39325,32559
30728,39355,32596
30816,39389,32598
30896,39445,32602
30936,39459,32623
30953,39431,32623
30944,39353,32623
30912,39341,32628
30912,39302,32660
30928,39287,32654
31005,39297,32654
31108,39349,32684
31189,39401,32686
31204,39431,32687
31205,39445,32692
31168,39415,32707
31148,39389,32727
31128,39333,32724
31128,39292,32720
31180,39271,32754
31292,39295,32756
31416,39305,32745
31528,39391,32757
31578,39428,32775
31608,39447,32810
31526,39428,32816
31481,39383,32828
31456,39321,32820
31460,39299,32857
31504,39276,32863
31592,39296,32858
31652,39335,32904
31704,39392,32910
31760,39431,32908
31852,39425,32932
31852,39420,32933
31864,39374,32964
31842,39316,32964
31825,39275,32965
31824,39274,33004
31832,39286,33013
31892,39317,33022
31964,39376,33006
32036,39422,33044
32056,39431,33076
32072,39387,33075
32056,39383,33072
32064,39303,33077
32056,39279,33119
32032,39271,33103
32040,39278,33159
32088,39318,33157
32176,39348,33159
32221,39421,33197
32200,39431,33212
32176,39416,33225
32150,39372,33222
32096,39308,33257
32048,39271,33287
32084,39268,33300
32132,39272,33287
32184,39321,33335
32185,39372,33351
32173,39413,33341
32168,39431,33354
32120,39405,33410
32078,39364,33415
32065,39304,33453
32101,39271,33428
32110,39229,33489
32108,39277,33511
32184,39311,33493
32268,39367,33548
32378,39388,33581
32424,39409,33556
32336,39409,33620
32260,39357,33647
32184,39272,33663
32144,39273,33655
32164,39253,33700
32262,39261,33733
32368,39303,33706
32489,39356,33776
32508,39399,33784
32460,39413,33822
32432,39399,33829
32360,39348,33863
32336,39289,33889
32292,39252,33912
32336,39227,33900
32348,39248,33908
32394,39291,33981
32452,39349,33985
32492,39378,34011
32524,39396,34039
32480,39351,34044
32460,39295,34076
32408,39280,34055
32364,39239,34113
32392,39197,34120
32405,39239,34092
32500,39277,34119
32560,39316,34183
32592,39373,34189
32604,39360,34183
32574,39373,34169
32516,39327,34253
32468,39268,34247
32487,39224,34277
32516,39215,34220
32545,39221,34293
32604,39239,34297
32633,39324,34324
32596,39325,34345
32556,39368,34316
32520,39351,34340
32512,39310,34401
32480,39237,34388
32442,39222,34417
32456,39207,34364
32544,39215,34383
32644,39257,34456
32717,39303,34471
32765,39320,34413
32829,39358,34437
32844,39337,34495
32812,39303,34510
32752,39216,34528
32700,39214,34470
32724,39204,34525
32848,39201,34560
32948,39221,34575
32980,39300,34598
33004,39328,34612
33004,39349,34557
32952,39348,34557
32912,39292,34617
32812,39245,34640
32800,39215,34663
32808,39187,34616
32784,39173,34695
32776,39245,34685
32772,39291,34716
32822,39306,34732
32816,39351,34684
32776,39343,34694
32682,39300,34761
32572,39240,34762
32484,39201,34740
32500,39193,34719
32536,39205,34820
32692,39246,34819
32840,39288,34845
32888,39336,34781
32909,39353,34780
32884,39351,34828
32812,39303,34892
32796,39248,34901
32796,39210,34884
32816,39193,34866
32944,39175,34893
33064,39245,34951
33149,39297,34980
33148,39327,34909
33100,39332,35015
33068,39348,35004
33012,39303,34973
32844,39244,35044
32724,39212,35042
32700,39187,35076
32740,39205,35000
32813,39239,35104
32900,39285,35103
32956,39329,35044
33040,39345,35149
32945,39334,35128
32852,39295,35164
32802,39215,35081
32792,39205,35172
32852,39175,35172
32908,39159,35200
32944,39232,35114
33016,39276,35213
33056,39285,35202
32996,39342,35175
32924,39327,35191
32836,39264,35212
32765,39242,35245
32769,39196,35157
32772,39143,35230
32712,39187,35244
32796,39228,35265
32901,39284,35175
32970,39329,35220
32972,39337,35256
32948,39333,35257
32860,39280,35212
32824,39215,35174
32840,39196,35231
32904,39164,35293
32936,39183,35281
32968,39220,35197
33000,39264,35255
33005,39287,35284
32976,39333,35261
32876,39323,35292
32804,39287,35188
32876,39232,35278
33044,39175,35261
33348,39164,35279
33716,39173,35190
34324,39207,35173
35124,39244,35196
36100,39284,35243
37056,39299,35262
37686,39289,35264
38012,39248,35172
38404,39199,35212
38816,39159,35240
39104,39141,35233
39444,39157,35255
40284,39191,35164
42368,39230,35156
44288,39263,35160
44780,39284,35228
43396,39295,35244
40312,39282,35240
35676,39264,35184
30320,39256,35152
25520,39220,35220
22856,39266,35254
22169,39290,35259
23056,39335,35220
24508,39365,35220
26044,39346,35284
27541,39371,35292
28837,39312,35223
29976,39218,35309
30780,39219,35316
31304,39191,35246
31708,39189,35325
32028,39225,35333
32276,39271,35309
32444,39311,35276
32552,39333,35393
32660,39317,35404
32760,39279,35312
32764,39234,35374
32684,39189,35428
32756,39156,35437
32832,39159,35463
32941,39189,35421
33080,39247,35428
33144,39291,35482
33172,39301,35484
33260,39303,35428
33228,39261,35479
33140,39205,35495
33124,39166,35468
33112,39142,35492
33124,39140,35501
33196,39151,35480
33300,39233,35521
33344,39271,35543
33352,39295,35580
33360,39292,35528
33349,39236,35591
33316,39175,35604
33276,39156,35568
33204,39124,35556
33236,39137,35668
33324,39175,35669
33441,39215,35631
33468,39276,35613
33480,39271,35682
33509,39289,35742
33548,39240,35748
33513,39207,35788
33436,39151,35741
33420,39120,35752
33444,39140,35847
33628,39164,35877
33805,39223,35804
33920,39263,35937
33836,39251,35859
33768,39284,35936
33700,39247,35991
33640,39205,35996
33670,39137,35980
33756,39127,36012
33836,39135,36093
33864,39160,36081
33916,39191,36117
34004,39271,36070
34041,39268,36087
34137,39280,36071
34124,39240,36175
34152,39159,36216
34168,39151,36221
34152,39122,36172
34208,39127,36245
34356,39172,36295
34541,39206,36304
34696,39260,36309
34768,39281,36320
34844,39270,36375
34896,39237,36284
35004,39188,36284
35060,39116,36415
35092,39125,36436
35180,39112,36445
35320,39124,36468
35448,39204,36436
35624,39252,36428
35752,39283,36535
35884,39275,36569
35952,39205,36554
36009,39189,36511
36100,39154,36513
36172,39108,36615
36308,39124,36632
36496,39138,36575
36704,39207,36623
36864,39251,36702
36877,39271,36684
36896,39267,36620
36924,39239,36685
36960,39197,36705
37049,39141,36736
37168,39097,36633
37168,39119,36757
37152,39156,36726
37160,39207,36772
37128,39252,36661
37152,39277,36775
37128,39269,36774
36996,39234,36708
36868,39201,36789
36716,39151,36761
36564,39133,36792
36456,39120,36708
36264,39165,36812
36026,39205,36777
35772,39245,36815
35476,39281,36711
35078,39287,36819
34644,39255,36708
34224,39207,36844
33816,39159,36844
33400,39132,36816
33084,39133,36822
32936,39169,36772
32744,39215,36837
32460,39263,36839
32096,39290,36877
31692,39298,36828
31372,39263,36849
31132,39207,36802
30908,39167,36871
30744,39109,36824
30624,39141,36911
30514,39158,36931
30456,39212,36815
30396,39256,36955
30304,39276,36939
30202,39285,36868
30060,39244,36933
29924,39188,36975
29848,39151,36935
29792,39112,37020
29806,39108,37023
29872,39151,37068
29968,39197,37100
30017,39244,37007
29996,39269,37042
29996,39269,37151
29949,39233,37161
29852,39174,37064
29844,39121,37192
29864,39107,37215
29904,39089,37127
29998,39131,37281
30032,39143,37289
30056,39229,37228
30058,39257,37329
30120,39250,37349
30149,39213,37292
30160,39165,37382
30144,39113,37412
30124,39084,37485
30156,39088,37383
30272,39113,37541
30394,39161,37569
30492,39231,37527
30580,39228,37581
30656,39204,37540
30724,39207,37661
30745,39156,37700
30664,39103,37696
30692,39073,37735
30724,39077,37636
30700,39108,37811
30793,39151,37807
30888,39167,37747
30972,39239,37869
30988,39220,37823
30884,39205,37859
30804,39158,37964
30749,39106,37997
30824,39071,37973
30912,39079,38012
31005,39108,38068
30976,39145,37964
30976,39201,38142
31040,39237,38119
31088,39228,38173
31056,39196,38079
31056,39109,38220
31096,39111,38252
31076,39031,38294
31088,39070,38303
31132,39107,38199
31220,39151,38365
31332,39189,38372
31392,39199,38324
31404,39225,38397
31400,39191,38333
31384,39143,38461
31424,39092,38433
31440,39055,38535
31428,39058,38575
31428,39093,38497
31460,39136,38631
31524,39192,38582
31596,39215,38608
31660,39213,38743
31668,39176,38791
31608,39140,38703
31528,39081,38828
31496,39052,38787
31540,39060,38884
31628,39086,38943
31716,39129,38884
31772,39175,39021
31760,39207,39032
31772,39211,38984
31765,39175,39095
31757,39147,39143
31708,39076,39199
31688,39047,39132
31708,39057,39268
31761,39079,39167
31812,39131,39276
31836,39175,39326
31860,39204,39236
31884,39212,39321
31848,39168,39372
31836,39131,39312
31901,39068,39494
31960,39004,39468
31953,39044,39421
32000,39076,39479
32076,39123,39604
32120,39157,39608
32084,39189,39585
32020,39183,39605
32050,39156,39543
32037,39111,39687
31980,39063,39713
32012,39025,39604
32076,39028,39709
32116,39047,39825
32228,39077,39766
32297,39140,39687
32308,39175,39838
32289,39170,39840
32260,39151,39900
32252,39094,39796
32216,39047,39887
32256,39015,39942
32309,39005,39830
32368,39031,39972
32404,39085,40004
32432,39136,39872
32456,39148,40057
32444,39163,40014
32424,39095,40015
32380,39084,39943
32344,39028,40112
32364,38993,39964
32406,38996,40087
32504,39003,40111
32616,39084,40037
32629,39125,40129
32604,39165,40020
32576,39140,40199
32486,39120,40197
32445,39078,40052
32440,39021,40209
32484,38980,40165
32532,38999,40199
32624,39015,40069
32776,39061,40255
32832,39110,40185
32757,39138,40238
32644,39127,40229
32588,39111,40199
32513,39070,40079
32468,39017,40241
32438,38976,40247
32500,38983,40124
32628,39010,40260
32733,39061,40185
32800,39110,40228
32820,39119,40076
32825,39141,40077
32812,39107,40228
32692,39037,40218
32596,39007,40053
32572,38974,40228
32565,38975,40144
32696,39011,40184
32852,39068,40038
32914,39101,40196
32925,39143,40126
32900,39130,40161
32892,39100,40012
32886,39063,40152
32852,39006,40108
32798,38983,39980
32748,38991,39972
32848,39012,40124
32856,39031,40045
32884,39111,39943
32892,39136,39917
32904,39148,40066
32880,39092,39997
32784,39057,40036
32661,39021,39904
32612,38982,40007
32608,38976,39965
32640,39021,39807
32712,39063,39919
32756,39111,39853
32805,39127,39908
32812,39144,39861
32808,39116,39840
32776,39063,39719
32748,39012,39855
32764,38983,39791
32768,38983,39660
32844,39018,39697
32956,39053,39788
33068,39110,39684
33124,39124,39668
33112,39139,39655
33008,39116,39673
32928,39046,39649
32804,39007,39644
32724,38983,39655
32704,38990,39497
32676,39013,39466
32672,39055,39524
32772,39068,39589
32828,39132,39559
32799,39135,39398
32696,39103,39544
32560,39023,39460
32520,39012,39375
32540,38976,39424
32569,38977,39476
32622,38973,39439
32704,39048,39303
32792,39100,39415
32832,39121,39397
32848,39092,39381
32849,39093,39232
32826,39034,39383
32792,38997,39303
32749,38975,39318
32772,38977,39182
32860,38959,39292
32978,39039,39211
33012,39084,39223
33068,39112,39104
33068,39117,39062
33024,39079,39042
32968,39035,39127
32932,38981,39128
32890,38910,38973
32912,38949,39084
32976,38977,39013
33020,39021,39047
33056,39047,38872
33064,39095,38989
33012,39097,38919
32976,39077,38945
32900,39027,38811
32853,38967,38839
32840,38941,38854
32892,38917,38697
33108,38967,38813
33400,39008,38757
33644,39047,38616
34000,39077,38679
34656,39047,38559
35421,39047,38644
36284,38999,38568
37064,38947,38441
37412,38908,38565
37760,38908,38492
38080,38942,38328
38416,38992,38423
38492,39047,38356
38596,39078,38359
39572,39079,38201
41704,39040,38313
43064,38999,38224
42788,38959,38221
40780,38941,38060
37216,38971,38160
32564,39015,38076
27846,39095,38080
24536,39128,37943
23096,39183,37975
23114,39174,37949
24112,39140,37958
25496,39081,37833
26944,39004,37852
28350,38988,37749
29636,38973,37690
30618,38992,37740
31244,39037,37756
31682,39076,37708
32012,39104,37725
32288,39104,37572
32412,39081,37540
32477,39031,37609
32576,38983,37581
32736,38944,37532
32856,38941,37521
32972,38962,37396
33104,39007,37476
33228,39050,37383
33312,39085,37300
33280,39097,37339
33225,39071,37308
33175,39023,37286
33210,38973,37156
33248,38937,37166
33352,38919,37199
33404,38956,37022
33437,38996,37127
33460,39052,37045
33508,39081,37045
33516,39091,36921
33432,39054,36901
33348,38998,36937
33381,38967,36900
33476,38919,36789
33500,38919,36765
33564,38959,36796
33660,39004,36784
33676,39021,36662
33636,39080,36728
33589,39085,36663
33560,39061,36580
33505,39010,36544
33508,38959,36608
33512,38913,36554
33556,38931,36479
33645,38949,36487
33744,39005,36476
33748,39047,36484
33756,39087,36359
33728,39084,36353
33764,39046,36428
33764,39001,36391
33737,38962,36312
33756,38919,36247
33804,38901,36320
33872,38951,36298
33964,38984,36304
34072,39029,36196
34088,39076,36207
34156,39076,36206
34165,39047,36217
34112,39012,36175
34088,38952,36149
34084,38915,36133
34134,38915,36006
34184,38943,36068
34300,38995,35957
34460,39034,36052
34596,39056,36028
34720,39060,35903
34768,39061,35981
34748,38991,35932
34833,38919,35934
34920,38910,35800
34940,38909,35900
35032,38919,35860
35121,38981,35768
35268,39028,35847
35408,39063,35804
35524,39053,35716
35568,39047,35781
35628,38998,35751
35716,38943,35653
35856,38911,35726
35981,38889,35635
36116,38919,35588
36318,38965,35669
36481,39001,35628
36612,39057,35622
36688,39053,35500
36732,39035,35548
36752,38997,35564
36761,38935,35504
36849,38901,35508
36932,38895,35480
37024,38919,35344
37112,38964,35436
37208,39011,35348
37212,39047,35335
37180,39062,35334
37188,39039,35278
37192,38991,35257
37116,38936,35266
37012,38897,35165
36912,38901,35244
36792,38919,35184
36732,38979,35192
36532,39031,35100
36296,39068,35113
36024,39074,35096
35708,39047,35093
35372,38988,34996
35009,38949,35053
34660,38908,35013
34344,38886,34958
34104,38943,34946
33828,38988,34981
33481,39047,34948
33144,39083,34884
32784,39079,34925
32444,39017,34885
32112,39013,34884
31764,38959,34791
31473,38924,34870
31212,38919,34822
31004,38951,34831
30852,38983,34765
30705,39044,34807
30604,39073,34781
30520,39078,34698
30440,39055,34753
30300,39010,34743
30136,38919,34695
29984,38919,34665
29936,38911,34725
29956,38893,34695
29929,38980,34720
29972,39023,34661
29948,39065,34638
29876,39077,34692
29812,39039,34673
29756,38979,34621
29705,38948,34693
29728,38912,34657
29744,38892,34668
29804,38896,34635
29924,38981,34645
30028,39013,34585
30112,39047,34632
30132,39028,34636
30088,39042,34575
30037,38983,34632
30020,38933,34598
30080,38896,34565
30113,38893,34639
30152,38919,34608
30276,38961,34627
30386,39015,34548
30393,39055,34609
30424,39047,34599
30412,38984,34613
30352,38983,34533
30384,38919,34605
30364,38872,34583
30406,38889,34540
30485,38913,34567
30640,38959,34575
30774,39012,34567
30816,39036,34490
30757,39045,34555
30703,39007,34492
30728,38983,34519
30701,38927,34532
30688,38887,34536
30796,38887,34484
30904,38861,34508
30988,38956,34525
31056,39013,34485
31117,39031,34516
31120,39044,34492
31000,39020,34511
30932,38973,34448
30912,38919,34494
30885,38867,34455
31004,38884,34508
31128,38911,34510
31149,38950,34492
31204,38994,34502
31316,39031,34444
31364,39037,34497
31333,39015,34500
31284,38952,34444
31272,38916,34487
31340,38872,34487
31402,38865,34518
31389,38894,34484
31398,38941,34512
31470,38989,34479
31568,39015,34516
31644,39039,34541
31680,39009,34561
31640,38964,34548
31640,38910,34597
31556,38885,34604
31460,38837,34550
31469,38884,34643
31537,38941,34631
31641,38981,34671
31716,39005,34701
31744,39037,34672
31748,39004,34760
31680,38959,34769
31640,38903,34716
31628,38880,34819
31658,38855,34843
31744,38841,34791
31836,38919,34854
31880,38972,34895
31886,39005,34876
31868,39008,34917
31814,38983,34917
31818,38912,34853
31772,38895,34917
31704,38848,34980
31701,38847,34964
31777,38860,34925
31868,38906,34972
31952,38940,34999
32000,38993,34928
31988,39012,35017
31977,38977,35017
31936,38935,35024
31880,38850,35036
31856,38855,35039
31873,38825,35023
31864,38845,34996
31936,38905,35010
32038,38959,35040
32085,38991,34983
32096,38997,35036
32097,38972,35037
32057,38919,35060
32016,38855,35045
32004,38841,35037
32008,38817,35039
32064,38847,35063
32104,38893,34960
32148,38951,35029
32228,38981,35047
32256,38989,35052
32177,38975,34981
32088,38916,35059
32036,38874,35030
31988,38828,34967
32028,38823,35041
32116,38847,35022
32192,38857,34951
32284,38933,35038
32368,38974,35019
32372,38977,34972
32288,38959,35010
32204,38911,35012
32144,38864,34921
32132,38844,35005
32164,38812,34975
32204,38843,34887
32276,38884,34964
32358,38927,34950
32384,38966,34917
32440,38980,34926
32408,38958,34921
32320,38913,34853
32233,38863,34909
32200,38831,34884
32230,38825,34893
32286,38836,34810
32294,38876,34847
32368,38901,34759
32380,38978,34823
32396,38983,34770
32380,38967,34802
32296,38912,34791
32208,38831,34724
32180,38850,34749
32224,38823,34679
32336,38846,34750
32434,38887,34719
32505,38941,34645
32512,38978,34679
32512,38993,34621
32559,38975,34679
32560,38935,34605
32532,38868,34663
32480,38838,34641
32388,38803,34600
32396,38854,34608
32448,38888,34548
32400,38940,34596
32380,38965,34551
32408,38991,34580
32428,38974,34565
32372,38919,34510
32296,38879,34540
32264,38852,34543
32253,38822,34452
32240,38822,34528
32248,38892,34503
32281,38940,34475
32352,38945,34465
32352,39005,34497
32344,38975,34479
32324,38912,34414
32292,38886,34479
32300,38847,34455
32388,38827,34396
32493,38841,34465
32596,38892,34461
32692,38941,34448
32748,38975,34420
32820,38999,34438
32804,38966,34445
32728,38918,34400
32620,38876,34461
32544,38807,34432
32537,38833,34364
32532,38839,34423
32540,38873,34436
32613,38951,34365
32628,38979,34432
32630,38983,34436
32593,38968,34439
32524,38919,34431
32456,38852,34356
32448,38841,34433
32454,38814,34423
32504,38812,34369
32588,38877,34425
32679,38910,34413
32752,38949,34396
32760,38978,34380
32736,38959,34428
32653,38901,34413
32590,38862,34354
32570,38814,34399
32620,38805,34422
32708,38783,34345
32808,38857,34425
32838,38907,34417
32832,38941,34357
32840,38941,34412
32820,38943,34415
32820,38895,34348
32868,38818,34416
32785,38804,34413
32684,38791,34339
32736,38804,34420
32892,38852,34381
33008,38898,34410
32992,38919,34388
32940,38951,34400
32948,38903,34311
32904,38887,34368
32804,38839,34384
32672,38802,34389
32700,38773,34343
32945,38804,34367
33420,38836,34322
33836,38887,34356
34124,38919,34345
34596,38919,34353
35288,38919,34311
36096,38876,34371
36844,38817,34352
37272,38783,34281
37680,38766,34356
38024,38780,34341
38400,38831,34308
38560,38881,34329
38820,38919,34337
40076,38940,34311
42436,38913,34320
43828,38860,34337
43484,38823,34361
41400,38806,34288
37796,38817,34337
33264,38863,34308
28676,38897,34333
25428,38996,34340
23897,39020,34316
23844,39033,34344
24712,39023,34356
25964,38964,34311
27280,38859,34356
28560,38860,34370
29712,38822,34311
30678,38831,34356
31365,38883,34308
31828,38919,34391
32116,38933,34376
32332,38981,34341
32389,38980,34416
32484,38919,34381
32572,38852,34439
32696,38843,34437
32820,38801,34406
32916,38824,34433
33044,38869,34388
33176,38919,34415
33252,38959,34471
33312,38972,34422
33332,38948,34468
33292,38903,34428
33216,38863,34453
33202,38820,34476
33220,38788,34409
33228,38823,34486
33256,38852,34422
33308,38885,34501
33408,38951,34444
33460,38973,34460
33496,38945,34503
33472,38888,34439
33424,38860,34506
33440,38821,34453
33452,38804,34516
33508,38805,34465
33610,38840,34543
33620,38895,34500
33620,38914,34549
33640,38967,34557
33664,38943,34519
33596,38911,34500
33546,38844,34582
33516,38800,34527
33500,38785,34623
33596,38807,34623
33676,38854,34616
33760,38900,34633
33816,38935,34660
33820,38959,34644
33760,38937,34695
33720,38894,34717
33728,38845,34725
33792,38796,34751
33824,38791,34695
33872,38804,34756
33968,38843,34694
34080,38892,34798
34144,38941,34791
34156,38959,34748
34136,38941,34837
34108,38885,34845
34149,38855,34805
34198,38805,34841
34240,38791,34841
34344,38791,34816
34488,38831,34869
34588,38885,34862
34612,38919,34831
34645,38941,34857
34660,38928,34879
34648,38887,34905
34688,38832,34821
34840,38780,34916
34992,38775,34903
35036,38783,34832
35208,38824,34927
35392,38876,34910
35500,38917,34919
35520,38919,34886
35528,38911,34927
35549,38871,34929
35622,38819,34894
35740,38785,34906
35880,38765,34944
36052,38775,34903
36248,38815,34956
36448,38853,34969
36588,38887,34964
36696,38919,34954
36736,38909,34951
36780,38875,34962
36776,38817,34940
36808,38778,34860
36876,38759,34893
36916,38772,34909
36996,38812,34872
37068,38857,34848
37100,38909,34892
37121,38900,34853
37056,38919,34855
36992,38889,34861
36925,38817,34815
36786,38772,34878
36704,38767,34848
36664,38781,34756
36608,38798,34847
36512,38876,34823
36340,38918,34740
36084,38947,34816
35764,38911,34791
35384,38900,34705
34980,38845,34785
34588,38804,34750
34204,38791,34708
33900,38797,34677
33632,38814,34732
33404,38895,34716
33144,38919,34624
32876,38956,34706
32600,38951,34679
32256,38911,34591
31860,38855,34645
31528,38815,34612
31272,38791,34589
31062,38815,34624
30932,38852,34604
30816,38884,34528
30704,38948,34599
30576,38967,34535
30436,38945,34558
30256,38919,34564
30136,38864,34543
30048,38792,34533
29976,38807,34450
29985,38815,34484
30028,38844,34477
30104,38881,34422
30145,38947,34476
30128,38969,34457
30052,38951,34393
29968,38898,34412
29936,38858,34369
29944,38811,34397
29913,38789,34391
29988,38804,34339
30081,38855,34348
30124,38892,34311
30188,38908,34277
30176,38967,34311
30176,38943,34305
30160,38903,34228
30124,38807,34266
30108,38807,34261
30144,38791,34199
30252,38808,34226
30334,38839,34215
30424,38887,34123
30524,38919,34177
30572,38953,34127
30564,38895,34142
30568,38896,34106
30524,38836,34069
30488,38804,34063
30548,38788,34051
30644,38799,34037
30724,38831,33971
30838,38878,33983
30920,38932,33951
30944,38951,33930
30944,38919,33917
30862,38884,33853
30844,38845,33884
30809,38797,33855
30812,38741,33847
30920,38791,33760
31012,38830,33799
31052,38884,33767
31129,38895,33697
31160,38945,33726
31176,38940,33671
31133,38882,33687
31069,38832,33665
31094,38773,33613
31140,38782,33602
31215,38796,33542
31301,38833,33556
31396,38863,33513
31457,38919,33437
31485,38956,33475
31488,38919,33431
31449,38886,33408
31424,38831,33369
31444,38788,33316
31484,38780,33303
31532,38789,33273
31568,38804,33204
31648,38887,33229
31680,38911,33182
31640,38916,33159
31580,38919,33108
31540,38877,33117
31560,38829,33068
31572,38791,33020
31604,38767,33020
31648,38775,32992
31716,38825,32967
31812,38839,32941
31912,38919,32910
31900,38933,32895
31864,38912,32849
31858,38868,32838
31872,38812,32821
31817,38788,32788
31798,38771,32749
31852,38781,32743
31940,38820,32693
32064,38863,32692
32117,38879,32643
32100,38941,32644
32088,38919,32592
32034,38876,32602
31972,38831,32556
31952,38791,32560
31928,38775,32525
31940,38772,32505
32008,38816,32441
32089,38876,32453
32148,38912,32433
32172,38931,32416
32132,38919,32380
32074,38889,32340
32060,38828,32348
32032,38788,32324
32060,38767,32300
32112,38789,32268
32160,38822,32261
32196,38876,32237
32260,38919,32205
32252,38943,32184
32224,38919,32165
32188,38886,32159
32192,38831,32133
32188,38788,32117
32216,38781,32092
32212,38767,32068
32260,38829,32058
32352,38882,32031
32388,38919,32000
32344,38941,31995
32332,38896,31967
32276,38893,31951
32292,38845,31914
32276,38798,31911
32252,38783,31884
32260,38798,31855
32305,38839,31845
32392,38903,31806
32448,38944,31805
32448,38953,31775
32468,38948,31772
32442,38905,31727
32428,38863,31703
32377,38832,31678
32400,38799,31647
32456,38790,31630
32512,38869,31596
32545,38917,31578
32604,38956,31540
32596,38973,31522
32557,38943,31492
32544,38929,31460
32496,38884,31422
32444,38842,31397
32456,38823,31362
32448,38847,31343
32484,38884,31307
32532,38932,31308
32576,38984,31260
32548,39004,31225
32480,38984,31211
32428,38951,31156
32404,38913,31111
32420,38854,31120
32437,38809,31067
32512,38861,31005
32580,38900,31020
32716,38959,30960
32800,39016,30929
32800,38989,30919
32760,39017,30884
32653,38975,30845
32562,38919,30818
32489,38893,30769
32472,38865,30739
32476,38882,30701
32544,38919,30670
32615,38973,30653
32652,39023,30657
32685,39032,30591
32640,38988,30536
32580,38997,30580
32500,38940,30504
32452,38902,30479
32480,38881,30445
32502,38902,30394
32584,38940,30452
32616,38993,30365
32652,39039,30359
32696,39060,30336
32700,39047,30353
32644,39012,30280
32645,38965,30284
32668,38917,30244
32652,38900,30237
32734,38887,30215
32812,38960,30215
32886,39012,30171
32869,39067,30174
32844,39073,30212
32796,39063,30136
32740,39030,30142
32669,38972,30153
32644,38935,30132
32668,38919,30100
32692,38919,30109
32764,38967,30096
32886,38999,30089
32940,39061,30143
32968,39077,30090
32908,39069,30052
32920,39032,30132
32944,38983,30065
32916,38933,30052
32832,38916,30119
32785,38929,30087
32788,38986,30137
32824,39014,30071
32840,39047,30063
32844,39101,30092
32808,39094,30070
32804,39021,30127
32858,38999,30108
32884,38951,30093
32864,38947,30182
32812,38956,30144
32826,38996,30132
32895,39045,30132
32972,39085,30207
33020,39108,30149
33072,39097,30164
32992,39036,30140
32848,39015,30233
32808,38973,30197
32760,38962,30180
32796,38977,30257
32869,39017,30224
32952,39060,30271
33064,39114,30233
32992,39129,30239
32865,39132,30283
32916,39087,30260
33129,39036,30324
33356,38997,30278
33540,38982,30317
33928,38990,30308
34654,38999,30372
35652,39079,30333
36552,39120,30345
37252,39130,30408
37668,39128,30358
37944,39095,30375
37824,39047,30434
37840,39028,30400
37989,39017,30412
38692,39028,30441
40304,39062,30447
43056,39095,30509
44316,39141,30485
43552,39191,30518
41080,39199,30517
37136,39191,30509
32236,39169,30564
27472,39172,30540
24096,39098,30551
22700,39175,30548
23036,39213,30567
24360,39252,30589
26096,39293,30606
27725,39298,30641
29014,39293,30629
30080,39239,30633
30912,39175,30639
31456,39129,30650
31804,39121,30655
32072,39140,30702
32352,39151,30676
32612,39231,30668
32812,39272,30738
32896,39295,30700
32916,39287,30744
32872,39240,30725
32864,39182,30767
32888,39158,30716
32916,39132,30717
32964,39157,30763
33044,39189,30753
33129,39216,30800
33224,39288,30770
33244,39316,30825
33232,39303,30790
33208,39277,30800
33156,39175,30828
33168,39188,30820
33180,39157,30861
33208,39172,30847
33268,39213,30896
33344,39239,30869
33404,39316,30874
33424,39328,30932
33404,39323,30898
33388,39261,30954
33352,39250,30919
33296,39207,30924
33308,39172,30968
33344,39197,30948
33424,39228,30959
33508,39284,30949
33566,39337,31003
33596,39365,30996
33588,39353,31019
33604,39310,31019
33536,39263,31042
33473,39223,31036
33464,39205,31023
33520,39217,31068
33561,39256,31052
33668,39316,31069
33760,39359,31066
33816,39383,31066
33824,39373,31095
33828,39316,31092
33836,39295,31080
33784,39247,31110
33828,39227,31078
33892,39231,31095
33948,39279,31111
34044,39335,31065
34116,39380,31065
34160,39399,31062
34236,39351,31047
34268,39357,31053
34240,39302,31027
34256,39259,31009
34332,39240,30991
34420,39260,30996
34548,39293,30985
34732,39349,30998
34868,39393,30967
34960,39423,30944
35040,39413,30983
35092,39369,30926
35116,39319,30945
35144,39271,30918
35232,39265,30937
35384,39265,30888
35566,39278,30892
35712,39369,30860
35889,39413,30855
36016,39428,30849
36060,39431,30834
36084,39392,30855
36148,39357,30816
36256,39300,30839
36356,39276,30791
36492,39289,30749
36608,39335,30791
36732,39360,30758
36816,39431,30761
36876,39462,30712
36888,39445,30700
36880,39420,30680
36863,39367,30702
36832,39335,30658
36837,39296,30663
36904,39321,30615
36984,39367,30588
37024,39426,30606
37036,39468,30584
36980,39494,30598
36893,39495,30544
36744,39463,30528
36548,39407,30478
36356,39374,30479
36188,39352,30445
36020,39359,30468
35796,39407,30437
35577,39448,30438
35296,39521,30390
34984,39541,30368
34592,39541,30413
34208,39505,30349
33761,39452,30383
33381,39415,30292
33080,39364,30258
32794,39415,30304
32512,39457,30263
32256,39506,30207
32012,39556,30232
31780,39583,30197
31544,39583,30237
31316,39551,30158
31068,39495,30209
30864,39452,30113
30708,39399,30085
30576,39452,30149
30484,39484,30073
30436,39542,30076
30408,39568,30039
30340,39615,30034
30246,39613,30049
30144,39580,30016
30040,39524,29992
29965,39485,29940
29940,39467,30016
29932,39463,29988
29936,39510,29917
29949,39554,29908
29984,39592,29948
29980,39623,29907
29956,39616,29974
29924,39577,29900
29880,39537,29871
29896,39501,29932
29908,39469,29848
29960,39445,29832
30068,39525,29864
30156,39559,29855
30224,39591,29808
30284,39649,29869
30248,39629,29836
30188,39599,29896
30156,39553,29827
30198,39516,29845
30244,39476,29860
30308,39460,29794
30437,39527,29796
30528,39559,29760
30620,39639,29799
30664,39655,29788
30660,39636,29839
30648,39618,29785
30636,39568,29756
30640,39527,29828
30636,39493,29745
30690,39460,29714
30772,39551,29754
30849,39588,29729
30904,39645,29760
30898,39639,29700
30896,39665,29692
30884,39624,29767
30824,39565,29672
30776,39532,29680
30812,39484,29717
30872,39519,29655
30924,39556,29633
30996,39597,29703
31060,39652,29612
31128,39687,29605
31072,39671,29676
31020,39637,29589
31024,39581,29556
30996,39543,29589
30996,39516,29573
31020,39525,29548
31116,39564,29523
31184,39605,29615
31236,39661,29512
31289,39677,29524
31296,39673,29524
31296,39636,29481
31236,39548,29541
31220,39555,29440
31264,39519,29447
31272,39520,29511
31292,39566,29417
31352,39613,29417
31434,39660,29486
31456,39642,29383
31460,39676,29367
31425,39646,29415
31376,39588,29380
31356,39551,29442
31392,39519,29356
31420,39503,29395
31468,39572,29307
31540,39625,29302
31576,39669,29349
31649,39647,29319
31674,39655,29279
31664,39654,29365
31616,39601,29247
31580,39557,29252
31558,39543,29319
31564,39541,29244
31584,39557,29198
31648,39626,29306
31716,39672,29220
31796,39699,29165
31828,39654,29244
31752,39663,29195
31685,39610,29145
31688,39543,29153
31685,39540,29163
31736,39545,29191
31796,39581,29111
31840,39637,29105
31877,39684,29220
31908,39708,29088
31911,39668,29092
31852,39677,29184
31790,39613,29092
31732,39573,29097
31760,39559,29042
31793,39524,29143
31908,39597,29063
32012,39644,29044
32092,39687,29151
32116,39708,29063
32112,39711,29013
32084,39676,29088
32012,39623,29042
31962,39591,29126
31974,39569,29020
32004,39575,29071
32096,39597,29039
32160,39645,29117
32212,39708,29007
32212,39735,29013
32172,39725,29066
32152,39697,29052
32117,39637,29064
32050,39585,29028
32092,39584,29016
32124,39576,29127
32212,39589,29013
32292,39671,29029
32352,39719,29104
32361,39708,29003
32328,39751,28999
32249,39707,29093
32228,39629,29020
32205,39621,28993
32200,39588,29049
32244,39599,29023
32304,39619,29110
32372,39669,29023
32405,39727,28989
32388,39724,29036
32372,39756,29055
32324,39724,29023
32268,39676,28976
32245,39623,29077
32284,39595,29015
32352,39604,28961
32452,39604,29071
32516,39692,28964
32536,39740,28975
32508,39761,29076
32524,39766,28972
32532,39720,28971
32468,39655,29082
32432,39631,28964
32456,39612,28956
32512,39612,29009
32556,39655,28988
32653,39712,28984
32732,39757,28967
32744,39781,28952
32740,39765,29058
32660,39741,28928
32528,39669,28978
32465,39633,29041
32500,39621,28935
32560,39623,28918
32584,39656,29023
32592,39716,28916
32568,39760,28924
32536,39773,29020
32484,39782,28922
32396,39756,28921
32300,39703,28914
32248,39625,28921
32236,39620,29024
32276,39623,28924
32360,39662,28985
32452,39707,28916
32528,39756,28912
32577,39776,28927
32564,39772,28889
32556,39727,28967
32520,39687,28892
32532,39644,28985
32600,39625,28901
32708,39621,28871
32777,39623,28901
32788,39704,28868
32796,39758,28987
32768,39775,28908
32684,39767,28993
32624,39729,28910
32488,39639,28935
32452,39636,28879
32440,39620,28857
32472,39620,28955
32508,39653,28903
32601,39711,28851
32693,39721,28976
32756,39775,28866
32736,39789,28873
32684,39731,28970
32616,39684,28886
32604,39627,28869
32612,39602,28996
32656,39613,28877
32708,39644,28862
32764,39702,28917
32821,39743,28869
32784,39748,28923
32748,39768,28902
32672,39732,28857
32605,39679,28948
32588,39622,28900
32556,39612,28982
32592,39584,28893
32632,39647,28949
32702,39700,28870
32773,39736,28948
32840,39768,28870
32880,39727,28978
32852,39735,28860
32828,39677,28852
32840,39628,28927
32832,39589,28893
32848,39615,28902
32924,39637,28868
32964,39684,28847
32944,39743,28951
32868,39775,28861
32924,39762,28956
33056,39718,28844
33252,39684,28905
33472,39623,28831
33900,39556,28807
34608,39607,28924
35592,39624,28801
36549,39672,28799
37320,39732,28855
37776,39761,28768
38192,39756,28768
38304,39725,28889
38384,39677,28794
38412,39636,28776
38996,39596,28829
40492,39605,28780
43168,39633,28767
44792,39677,28766
44629,39743,28735
42652,39789,28788
38968,39812,28730
34036,39816,28708
28716,39776,28820
24680,39757,28690
22708,39741,28679
22632,39724,28804
23766,39719,28677
25461,39796,28679
27188,39837,28720
28648,39853,28736
29830,39844,28679
30736,39758,28656
31344,39757,28780
31708,39697,28676
31969,39673,28686
32224,39675,28641
32432,39703,28687
32622,39752,28698
32780,39752,28652
32921,39823,28616
32952,39814,28726
32976,39775,28608
32996,39718,28636
32984,39684,28668
32996,39637,28607
33040,39623,28610
33140,39684,28703
33204,39737,28592
33268,39788,28609
33324,39793,28566
33349,39800,28596
33320,39765,28576
33237,39724,28526
33200,39669,28644
33236,39637,28494
33305,39619,28488
33328,39677,28609
33369,39729,28501
33409,39773,28512
33436,39783,28475
33440,39780,28423
33393,39758,28547
33317,39709,28409
33308,39658,28411
33318,39631,28484
33380,39631,28391
33464,39665,28362
33526,39703,28493
33568,39729,28346
33624,39784,28343
33612,39796,28451
33569,39749,28361
33536,39687,28388
33504,39636,28384
33468,39617,28332
33532,39572,28411
33624,39652,28295
33732,39698,28278
33824,39737,28396
33848,39773,28280
33872,39765,28279
33868,39696,28393
33828,39679,28326
33829,39625,28305
33864,39577,28240
33892,39604,28376
33981,39639,28236
34092,39652,28234
34172,39732,28351
34236,39765,28240
34284,39755,28184
34269,39720,28316
34256,39675,28224
34248,39620,28156
34360,39589,28270
34436,39596,28156
34496,39609,28148
34612,39677,28264
34700,39727,28145
34812,39757,28108
34880,39751,28225
34932,39703,28102
34973,39661,28093
35012,39596,28238
35117,39580,28098
35244,39587,28102
35424,39621,28217
35632,39663,28112
35816,39719,28079
35904,39733,28224
35972,39727,28085
36008,39708,28148
36060,39649,28102
36132,39597,28096
36213,39559,28167
36352,39580,28109
36512,39618,28067
36668,39660,28208
36800,39708,28108
36876,39743,28095
36892,39721,28147
36876,39695,28112
36895,39644,28127
36853,39613,28123
36840,39575,28105
36876,39583,28107
36896,39609,28122
36912,39660,28120
36916,39719,28129
36836,39741,28068
36720,39743,28177
36560,39705,28089
36368,39668,28225
36152,39620,28116
35936,39592,28081
35718,39570,28132
35504,39644,28118
35230,39686,28221
34884,39744,28103
34540,39775,28094
34180,39783,28241
33792,39748,28132
33376,39697,28143
33020,39653,28173
32696,39614,28116
32408,39600,28239
32152,39663,28164
31908,39708,28188
31696,39764,28178
31472,39783,28157
31265,39773,28134
31004,39756,28245
30744,39711,28177
30545,39653,28132
30368,39621,28188
30278,39625,28196
30212,39645,28236
30184,39709,28276
30148,39752,28197
30092,39781,28157
30036,39732,28269
29960,39751,28210
29882,39694,28256
29784,39647,28191
29718,39567,28188
29748,39605,28295
29796,39635,28229
29876,39700,28300
29944,39751,28246
29936,39773,28245
29924,39765,28242
29888,39717,28271
29884,39681,28324
29844,39623,28316
29848,39607,28265
29894,39596,28296
29992,39633,28260
30120,39673,28364
30188,39733,28317
30248,39756,28347
30282,39759,28370
30252,39710,28321
30185,39671,28455
30172,39617,28364
30220,39580,28336
30277,39542,28378
30350,39617,28390
30460,39663,28493
30548,39709,28414
30594,39736,28397
30612,39739,28505
30620,39690,28484
30560,39655,28423
30548,39607,28461
30584,39569,28441
30624,39572,28525
30684,39596,28478
30760,39645,28485
30840,39684,28528
30876,39719,28496
30904,39712,28472
30872,39668,28604
30876,39628,28500
30857,39575,28533
30910,39548,28519
30970,39541,28533
31046,39583,28539
31120,39624,28564
31184,39670,28532
31208,39684,28647
31236,39699,28528
31236,39660,28518
31197,39608,28551
31188,39559,28593
31204,39533,28600
31296,39527,28577
31372,39549,28532
31444,39612,28676
31540,39652,28579
31596,39687,28580
31600,39671,28572
31596,39649,28692
31548,39591,28604
31548,39524,28609
31576,39513,28573
31640,39509,28675
31685,39536,28585
31776,39585,28588
31796,39612,28714
31852,39668,28607
31820,39660,28638
31790,39645,28650
31752,39580,28679
31708,39527,28669
31700,39505,28631
31708,39500,28772
31760,39533,28661
31848,39589,28698
31932,39597,28671
31940,39649,28805
31940,39647,28685
31928,39628,28701
31877,39556,28687
31817,39516,28800
31788,39491,28780
31829,39489,28745
31890,39517,28740
31980,39559,28757
32057,39623,28822
32068,39647,28734
32048,39647,28765
32020,39572,28837
32005,39557,28860
32048,39500,28757
32053,39484,28751
32084,39479,28831
32088,39501,28769
32160,39559,28781
32224,39597,28780
32244,39597,28863
32236,39641,28820
32196,39607,28794
32152,39521,28903
32090,39508,28820
32105,39463,28820
32132,39476,28801
32148,39508,28911
32252,39525,28817
32344,39604,28842
32377,39629,28868
32332,39637,28903
32306,39600,28858
32244,39559,28852
32204,39509,28961
32169,39463,28888
32186,39475,28883
32284,39500,28897
32376,39548,29007
32438,39599,28911
32464,39628,28902
32508,39619,28999
32485,39566,28973
32468,39541,28964
32424,39503,29057
32404,39462,28993
32420,39462,29049
32476,39492,29005
32556,39542,29052
32624,39580,29008
32630,39616,29148
32621,39626,29084
32564,39597,29068
32536,39540,29172
32492,39492,29094
32472,39471,29109
32520,39459,29093
32573,39484,29215
32624,39532,29160
32688,39581,29175
32696,39597,29237
32684,39617,29200
32646,39583,29164
32600,39535,29288
32592,39479,29199
32600,39444,29213
32608,39452,29326
32686,39476,29226
32720,39521,29236
32777,39573,29309
32793,39597,29280
32788,39605,29314
32724,39556,29303
32668,39527,29307
32605,39484,29389
32589,39447,29332
32660,39447,29301
32780,39463,29420
32896,39516,29332
32982,39556,29368
33012,39595,29322
33040,39584,29433
33017,39532,29387
32966,39508,29351
32844,39476,29460
32808,39423,29377
32764,39430,29406
32764,39444,29381
32824,39493,29484
32900,39541,29496
32948,39545,29484
32908,39580,29432
32816,39549,29437
32720,39495,29497
32652,39461,29431
32600,39412,29439
32596,39404,29433
32556,39431,29536
32608,39479,29492
32668,39541,29485
32700,39559,29496
32716,39567,29571
32688,39539,29492
32680,39480,29497
32736,39405,29582
32748,39407,29504
32777,39398,29511
32864,39416,29597
32932,39431,29561
33024,39519,29543
33104,39545,29528
33104,39546,29596
33065,39526,29572
32960,39469,29540
32892,39423,29631
32908,39388,29565
32856,39383,29557
32816,39404,29639
32836,39449,29610
32878,39492,29668
32912,39504,29596
32920,39541,29620
32877,39509,29697
32844,39452,29642
32820,39378,29669
32848,39370,29631
32884,39367,29652
32948,39396,29644
33024,39431,29641
33092,39481,29732
33072,39516,29665
33076,39495,29641
33032,39503,29636
33000,39453,29638
32988,39407,29683
32960,39361,29664
32964,39341,29728
32980,39383,29668
33053,39431,29644
33088,39471,29668
33097,39482,29647
33084,39525,29685
33056,39491,29663
32997,39431,29703
32940,39366,29678
32916,39365,29645
32940,39348,29673
32992,39387,29668
33052,39431,29676
33132,39484,29694
33116,39501,29657
33108,39516,29660
33044,39493,29733
32952,39439,29661
32810,39383,29606
32812,39364,29736
32961,39344,29678
33248,39367,29639
33565,39418,29656
33968,39469,29662
34640,39483,29745
35520,39501,29678
36397,39468,29634
37092,39417,29688
37544,39361,29654
37940,39343,29684
38124,39329,29639
38312,39371,29722
38525,39420,29664
39212,39473,29703
40664,39496,29646
43422,39488,29629
45276,39453,29716
45192,39425,29671
43284,39388,29699
39604,39391,29665
34580,39419,29660
29124,39464,29632
24840,39524,29715
22668,39540,29644
22460,39613,29650
23557,39612,29725
25208,39585,29671
26908,39523,29733
28357,39430,29652
29540,39374,29653
30524,39401,29736
31264,39423,29687
31812,39461,29673
32156,39502,29765
32360,39540,29684
32517,39540,29685
32622,39517,29737
32684,39476,29709
32741,39425,29710
32808,39378,29685
32880,39369,29769
32956,39367,29692
33040,39431,29708
33092,39493,29748
33108,39511,29700
33144,39518,29703
33148,39503,29729
33092,39431,29681
33040,39392,29687
33030,39361,29653
33048,39343,29736
33104,39375,29684
33172,39421,29689
33221,39483,29645
33280,39491,29650
33260,39487,29732
33216,39472,29646
33128,39429,29631
33072,39373,29714
33104,39327,29684
33124,39329,29644
33160,39349,29682
33264,39393,29621
33352,39415,29628
33390,39484,29690
33362,39479,29637
33334,39438,29621
33288,39407,29599
33276,39356,29638
33244,39319,29620
33268,39303,29661
33354,39328,29657
33404,39368,29609
33492,39405,29585
33552,39462,29645
33548,39471,29613
33516,39431,29602
33482,39369,29621
33500,39344,29605
33533,39316,29596
33576,39294,29564
33633,39327,29622
33766,39365,29577
33902,39408,29583
33948,39429,29606
34017,39444,29556
34021,39431,29537
34032,39384,29582
34012,39332,29559
34036,39292,29565
34124,39277,29527
34232,39300,29519
34340,39356,29581
34492,39399,29511
34596,39431,29546
34680,39431,29465
34712,39413,29462
34708,39343,29541
34788,39328,29457
34884,39299,29445
35004,39275,29518
35116,39303,29426
35252,39342,29453
35384,39385,29424
35529,39423,29521
35628,39431,29440
35720,39405,29420
35812,39360,29511
35884,39309,29455
35964,39275,29456
36092,39268,29516
36264,39291,29433
36452,39332,29441
36636,39399,29519
36748,39423,29441
36832,39431,29460
36916,39416,29533
36972,39367,29476
36945,39323,29469
36956,39285,29545
37024,39268,29473
37082,39275,29456
37153,39337,29527
37236,39415,29477
37296,39428,29564
37294,39452,29510
37192,39420,29500
37116,39372,29505
36994,39334,29513
36880,39293,29567
36780,39295,29541
36720,39316,29489
36616,39367,29589
36460,39412,29525
36240,39431,29551
35952,39468,29632
35620,39447,29560
35224,39406,29574
34836,39357,29628
34449,39319,29564
34048,39317,29588
33732,39337,29564
33440,39388,29665
33148,39444,29584
32852,39473,29572
32558,39484,29636
32244,39430,29618
31920,39423,29580
31629,39364,29680
31369,39293,29614
31140,39320,29604
30980,39340,29695
30877,39389,29614
30752,39431,29607
30652,39478,29687
30517,39487,29649
30384,39420,29618
30216,39421,29695
30072,39359,29631
29968,39326,29646
29904,39313,29692
29846,39341,29692
29844,39381,29671
29844,39428,29660
29864,39467,29677
29825,39471,29687
29784,39447,29649
29760,39405,29722
29736,39348,29681
29748,39315,29664
29770,39303,29760
29816,39313,29700
29892,39372,29692
29944,39423,29690
30024,39452,29744
30040,39463,29757
30048,39431,29713
30024,39370,29737
29988,39334,29703
29992,39295,29799
30048,39269,29746
30148,39301,29730
30228,39349,29768
30289,39396,29762
30376,39423,29751
30452,39431,29830
30480,39417,29770
30468,39357,29764
30424,39303,29845
30428,39248,29793
30468,39258,29807
30544,39287,29799
30640,39324,29806
30713,39349,29804
30788,39414,29825
30804,39423,29816
30784,39399,29794
30752,39349,29888
30744,39302,29823
30764,39257,29807
30820,39245,29863
30896,39277,29852
30988,39316,29879
31076,39372,29834
31100,39396,29823
31108,39412,29863
31157,39388,29837
31137,39334,29903
31128,39285,29849
31108,39246,29839
31136,39231,29849
31200,39259,29895
31285,39277,29842
31352,39327,29849
31436,39348,29932
31492,39405,29844
31484,39372,29863
31428,39325,29901
31389,39270,29860
31408,39232,29862
31448,39194,29938
31524,39247,29879
31600,39297,29865
31692,39344,29926
31700,39377,29908
31720,39389,29894
31688,39348,29873
31640,39324,29934
31636,39276,29887
31612,39241,29880
31612,39229,29940
31673,39241,29948
31761,39282,29921
31820,39339,29918
31832,39375,29970
31824,39383,29925
31836,39357,29950
31790,39324,29932
31756,39263,30009
31716,39231,29942
31716,39227,29959
31816,39239,29937
31920,39297,30025
31996,39338,29960
32045,39372,29991
32064,39380,29959
32068,39372,30012
32056,39323,29979
32012,39261,29996
31980,39230,29996
31968,39220,29999
32004,39245,29993
32050,39287,30057
32136,39335,29989
32164,39340,30006
