ECG,EDA,RR
33204,25109,36406
33184,25108,36441
33096,25161,36564
33008,25245,36359
33064,25330,36456
33060,25376,36332
32956,25366,36484
32936,25317,36156
33052,25228,36350
33120,25157,36257
33184,25095,36249
33086,25111,36184
32916,25164,36250
32756,25244,36292
32744,25325,36287
32625,25369,36244
32592,25378,36119
32656,25318,36184
32789,25227,36127
32812,25149,36142
32829,25095,36156
32664,25115,36232
32520,25161,36124
32446,25249,36103
32352,25328,36161
32505,25375,36140
32428,25375,36220
32612,25308,36261
32505,25228,36221
32636,25145,36287
32676,25095,35975
32604,25103,36116
32452,25158,36100
32344,25246,36188
32128,25333,36217
32164,25373,36183
32296,25380,36218
32232,25319,36173
32468,25228,36217
32352,25159,36156
32320,25111,36204
32320,25107,36157
32372,25169,36207
32208,25250,36119
32112,25332,36182
31868,25382,36121
31948,25383,36199
31964,25319,36112
32364,25238,36164
32208,25156,36100
32356,25103,36063
32369,25104,36093
31860,25168,36164
31936,25253,35896
31932,25327,36145
31952,25383,35965
31881,25381,36080
31940,25323,36164
32036,25228,35884
32120,25152,36100
32130,25109,36135
32072,25117,36140
32084,25167,36219
32098,25252,35965
32085,25338,36185
32252,25388,35966
32076,25377,36103
32284,25324,36132
32448,25233,36164
32485,25148,36103
32416,25114,36228
32538,25109,36231
32344,25172,36231
32136,25258,36300
31968,25340,36001
32064,25380,36316
32216,25383,36049
32537,25329,36140
32461,25244,36111
32528,25156,36221
32508,25116,36274
32384,25108,36220
32720,25167,36164
32576,25248,36065
32434,25331,36127
32508,25380,36086
32733,25383,36180
32644,25331,36231
33156,25245,36164
33220,25161,36103
32960,25114,36108
32828,25112,36029
33044,25169,36108
32836,25253,36103
32842,25337,36102
32952,25385,36068
33033,25377,36095
32988,25317,35872
33328,25242,35949
33477,25165,35904
33196,25109,35935
33220,25114,35838
33292,25172,35913
32720,25253,35768
32676,25332,35940
33064,25383,35836
33288,25379,35860
33248,25326,35847
33388,25244,35925
33592,25156,35823
33660,25108,35768
33376,25116,35861
33324,25177,35777
33148,25250,35861
33240,25341,35926
33165,25381,35831
33248,25381,35868
33372,25328,35827
33524,25244,35857
33436,25159,35794
33332,25113,35782
33212,25113,35748
33244,25168,35708
33136,25250,35671
33110,25345,35600
33080,25386,35696
33112,25389,35719
33165,25328,35454
33336,25248,35561
33324,25166,35516
33217,25112,35540
33225,25112,35527
32972,25175,35610
32968,25261,35584
32944,25337,35588
32806,25385,35645
32901,25381,35351
33148,25340,35556
33012,25247,35344
33084,25161,35428
33064,25114,35397
32912,25113,35417
32692,25167,35365
32840,25253,35444
32569,25339,35296
32592,25387,35484
32745,25391,35428
32816,25332,35296
33016,25252,35472
32932,25169,35388
32881,25121,35275
32761,25124,35278
32656,25177,35160
32628,25252,35236
32556,25347,35127
32532,25389,35276
32636,25386,35060
32740,25324,35172
32816,25241,35078
33104,25162,35117
32936,25111,34990
32745,25112,35223
32564,25167,34961
32608,25255,35177
32493,25347,35028
32476,25391,34904
32620,25390,35045
32756,25329,34961
32904,25242,35060
32744,25159,35116
32736,25116,34819
32832,25117,34909
32726,25183,34853
32572,25253,34901
32884,25331,34815
32600,25393,34924
32652,25383,34951
32836,25327,34892
32844,25239,34935
32984,25156,34852
32792,25119,34743
32708,25113,34764
32590,25173,34789
32604,25252,34737
32588,25340,34785
32608,25371,34772
32676,25389,34541
32757,25333,34660
32950,25247,34628
32724,25167,34679
32644,25117,34720
32752,25113,34462
32632,25169,34715
32476,25258,34644
32516,25336,34623
32524,25380,34417
32381,25391,34632
32704,25328,34384
32828,25250,34493
32852,25165,34432
32752,25119,34544
32758,25123,34365
32764,25170,34442
32404,25261,34392
32544,25340,34463
32528,25389,34329
32505,25393,34375
32552,25340,34273
32748,25250,34436
32681,25158,34445
32636,25112,34301
32525,25113,34396
32440,25167,34404
32360,25256,34333
32380,25340,34281
32457,25387,34184
32460,25391,34276
32596,25328,34334
32732,25252,34382
32772,25162,34332
32760,25119,34222
32684,25105,34276
32480,25161,34164
32396,25252,34264
32292,25332,34268
32356,25382,34120
32408,25391,34154
32428,25329,34086
32668,25247,34275
32560,25157,34157
32436,25116,34193
32236,25114,34055
32288,25174,34159
32348,25250,34167
32332,25334,34193
32321,25380,34135
32396,25388,34063
32400,25333,34086
32468,25248,33980
32528,25164,34000
32528,25111,33945
32532,25108,34031
32420,25172,33876
32236,25255,34050
32068,25341,34012
32016,25388,33881
32064,25383,33903
32194,25328,33862
32312,25244,33879
32404,25159,33780
32420,25110,34001
32364,25110,33941
32336,25164,33936
32324,25247,33908
32348,25338,33869
32472,25383,33839
32652,25382,33681
32572,25325,33876
32769,25246,33836
32772,25160,33687
32742,25121,33788
32576,25115,33792
32413,25170,33647
32260,25255,33821
32206,25329,33670
32304,25381,33552
32404,25384,33757
32576,25326,33705
32712,25245,33542
32844,25164,33708
32780,25112,33585
32800,25105,33660
32842,25165,33615
32836,25245,33535
32685,25335,33580
32512,25380,33503
32416,25383,33492
32440,25327,33572
32608,25245,33476
32725,25159,33441
32645,25113,33351
32544,25108,33484
32390,25164,33446
32096,25247,33463
32104,25329,33316
32156,25384,33476
32233,25366,33428
32224,25322,33280
32479,25237,33420
32404,25156,33401
32284,25105,33236
31829,25111,33410
31133,25167,33351
29937,25252,33209
28596,25340,33374
27206,25403,33286
25765,25396,33313
24424,25363,33148
23360,25289,33321
22537,25199,33169
21821,25156,33255
21852,25148,33078
23764,25201,33088
27140,25260,33160
31161,25343,33182
35324,25382,33005
38608,25377,33177
40012,25324,33052
39960,25253,33022
39212,25167,33117
38184,25117,33009
36936,25112,32988
35808,25178,33057
34948,25257,32912
34264,25325,32980
33784,25382,32800
33504,25380,32820
33388,25325,32896
33572,25245,32734
33678,25156,32789
33620,25113,32809
33544,25104,32639
33436,25159,32738
33152,25249,32752
33108,25321,32639
33184,25372,32541
33172,25381,32541
33212,25319,32530
33256,25239,32596
33180,25156,32433
33088,25103,32600
33092,25104,32530
33056,25160,32356
33000,25244,32500
33021,25331,32477
32917,25366,32303
32944,25368,32334
33029,25317,32393
33108,25239,32226
33012,25156,32261
32976,25103,32180
33120,25095,32228
33116,25157,32220
32940,25237,32099
32784,25324,32193
32812,25366,32218
32744,25371,32162
32868,25313,32111
32892,25225,31981
32952,25154,32042
32964,25093,31957
32976,25094,32063
32916,25149,31869
32776,25229,31956
32636,25319,31820
32597,25370,31989
32640,25372,31892
32796,25316,31730
32960,25234,31870
33016,25154,31832
32944,25103,31744
32892,25093,31740
32804,25153,31743
32810,25239,31556
32848,25313,31638
32820,25369,31668
32781,25371,31481
32756,25310,31636
32768,25223,31587
32692,25140,31564
32644,25090,31502
32553,25095,31348
32344,25152,31445
32260,25244,31367
32268,25319,31435
32488,25372,31319
32528,25368,31313
32588,25317,31360
32640,25227,31180
32696,25141,31345
32733,25095,31295
32656,25103,31305
32564,25157,31253
32497,25232,31239
32444,25318,31205
32353,25373,31052
32265,25371,31140
32236,25316,31029
32312,25225,31072
32432,25141,30967
32436,25100,31127
32340,25095,30964
32236,25156,31087
32134,25236,31051
32040,25325,30990
32033,25368,31004
32072,25367,30878
32152,25313,30914
32377,25223,30836
32400,25140,30948
32365,25094,30967
32352,25094,30965
32416,25155,30925
32441,25233,30813
32492,25319,30903
32448,25369,30916
32380,25365,30742
32412,25305,30849
32369,25225,30747
32236,25142,30811
32120,25088,30677
32056,25095,30734
32080,25151,30670
32164,25231,30737
32196,25316,30636
32304,25365,30697
32372,25360,30621
32549,25310,30672
32624,25228,30620
32636,25139,30713
32613,25092,30666
32749,25090,30761
32823,25143,30614
32824,25225,30719
32749,25313,30696
32725,25365,30537
32752,25364,30599
32844,25305,30551
32904,25223,30556
32976,25134,30556
32942,25081,30645
32852,25091,30477
32789,25147,30617
32821,25225,30538
32816,25304,30452
32796,25351,30559
32860,25356,30474
33016,25300,30553
33145,25220,30377
33300,25142,30479
33384,25078,30530
33296,25085,30420
33212,25145,30493
33184,25229,30332
33148,25306,30375
33164,25351,30452
33320,25352,30367
33413,25300,30336
33516,25215,30413
33600,25129,30367
33636,25076,30367
33568,25084,30224
33424,25142,30268
33260,25225,30225
33169,25301,30234
33140,25351,30340
33220,25359,30284
33328,25301,30149
33316,25213,30286
33300,25130,30213
33285,25080,30092
33172,25079,30205
33092,25135,30186
33040,25211,30053
32964,25302,30172
32952,25345,30141
33112,25348,30026
33392,25301,30129
33576,25206,30080
33472,25130,30103
33372,25073,29929
33262,25076,30092
33232,25133,30009
33286,25216,29950
33204,25297,29886
33080,25342,29892
32996,25344,29831
32992,25287,29920
33104,25205,29949
33256,25122,29909
33288,25076,29897
33340,25069,29737
33344,25133,29836
33408,25217,29738
33366,25297,29831
33232,25343,29718
33056,25349,29768
32873,25291,29839
32740,25207,29680
32830,25124,29780
32844,25077,29697
32760,25077,29836
32624,25134,29820
32520,25205,29726
32434,25301,29761
32420,25340,29660
32436,25351,29820
32520,25284,29796
32641,25200,29688
32680,25124,29828
32662,25073,29819
32576,25070,29687
32588,25132,29818
32665,25214,29856
32840,25298,29710
32832,25343,29832
32808,25340,29780
32848,25285,29908
32860,25206,29897
32904,25119,29796
32944,25076,29868
32916,25070,29808
32872,25129,29992
32824,25210,29983
32784,25295,29878
32782,25334,29929
32844,25335,29885
32896,25287,30078
32921,25201,30051
32804,25132,29952
32808,25060,30125
32860,25062,30124
32784,25125,30040
32632,25215,30113
32608,25292,30025
32665,25341,30209
32604,25341,30196
32780,25285,30087
32840,25196,30246
32888,25113,30240
32872,25064,30132
32852,25069,30336
32720,25125,30308
32520,25210,30213
32377,25285,30335
32360,25340,30398
32513,25340,30300
32664,25287,30311
32764,25201,30444
32846,25118,30413
32760,25065,30396
32656,25064,30574
32584,25116,30601
32556,25204,30486
32460,25287,30692
32461,25340,30652
32533,25333,30580
32624,25283,30766
32656,25197,30774
32789,25108,30682
32932,25060,30860
32888,25064,30822
32840,25124,30801
32816,25197,31022
32848,25283,30977
32879,25335,30980
32876,25337,31093
32736,25284,31032
32620,25191,31157
32558,25108,31049
32637,25060,31137
32771,25062,31109
32781,25111,31201
32752,25196,31180
32760,25280,31380
32672,25332,31396
32536,25335,31300
32548,25274,31377
32736,25191,31358
32796,25111,31492
32708,25057,31430
32600,25057,31524
32548,25112,31494
32566,25199,31697
32500,25284,31732
32412,25324,31773
32344,25327,31796
32412,25277,31684
32404,25196,31849
32444,25111,31835
32436,25061,31953
32308,25060,31951
32228,25118,32023
32212,25198,31912
32256,25279,32089
32412,25326,32016
32508,25331,32151
32560,25276,32097
32620,25196,32205
32620,25114,32179
32576,25054,32270
32485,25060,32408
32440,25111,32444
32356,25190,32474
32228,25279,32381
32128,25327,32528
32144,25329,32628
32273,25273,32570
32448,25193,32696
32632,25100,32783
32672,25059,32764
32584,25055,32700
32520,25111,32792
32456,25189,32769
32476,25265,32941
32480,25324,32868
32524,25321,33068
32560,25268,33117
32524,25192,33012
32408,25106,33095
32337,25052,33092
32400,25053,33348
32520,25104,33343
32679,25188,33401
32816,25272,33439
32824,25316,33485
32736,25329,33340
32720,25271,33607
32728,25180,33602
32768,25095,33697
32736,25050,33508
32676,25048,33777
32592,25104,33613
32508,25181,33809
32508,25271,33836
32608,25316,33798
32644,25312,33852
32672,25263,33799
32772,25180,33985
32812,25100,33830
32676,25047,34107
32596,25049,34104
32504,25104,34196
32344,25188,34165
32072,25266,34116
31900,25319,34180
31828,25317,34087
31780,25263,34223
31716,25176,34234
31484,25095,34300
30880,25053,34240
29904,25052,34412
28524,25105,34392
26915,25199,34548
25240,25293,34636
23794,25351,34630
22668,25349,34716
21846,25289,34696
21125,25212,34804
21588,25151,34760
24272,25077,34837
28472,25058,34636
32916,25096,34932
37009,25173,34884
39520,25269,34873
40112,25309,34935
39548,25313,34882
38592,25257,35001
37564,25186,34957
36624,25094,35173
35808,25047,35136
34997,25047,34980
34364,25092,35281
33828,25175,35244
33480,25261,35208
33396,25313,35282
33416,25319,35239
33548,25261,35378
33560,25172,35351
33536,25095,35420
33464,25045,35290
33288,25042,35608
33172,25092,35360
33013,25176,35532
32932,25265,35668
32968,25313,35700
32980,25313,35741
32972,25255,35756
32960,25178,35865
32960,25087,35591
32996,25038,35900
32909,25033,35879
32656,25092,35876
32576,25176,35925
32756,25257,35986
32888,25307,35993
32804,25309,35956
32740,25253,35975
32912,25174,35833
33064,25089,36068
32996,25041,36078
32752,25037,36046
32552,25095,36040
32386,25183,36060
32377,25256,36119
32374,25297,35991
32448,25305,36320
32600,25246,36272
32701,25168,36320
32748,25077,36095
32676,25039,36430
32500,25037,36358
32256,25087,36432
32072,25173,36414
31956,25262,36350
32144,25309,36356
32415,25312,36266
32576,25255,36561
32644,25167,36527
32568,25085,36448
32680,25032,36645
32728,25034,36356
32570,25087,36713
32328,25146,36654
32132,25254,36620
32016,25312,36700
32040,25306,36652
32096,25247,36701
32224,25167,36692
32428,25085,36918
32424,25034,36904
32254,25029,36983
32040,25084,36771
31902,25164,37143
31872,25252,37092
31864,25303,37187
31992,25306,37165
32204,25245,37216
32248,25162,37237
32156,25080,37103
31909,25032,37399
31708,25037,37360
31781,25089,37470
31836,25164,37199
31868,25245,37413
31856,25301,37430
31828,25308,37462
31844,25252,37460
31940,25165,37647
31916,25082,37420
31860,25030,37670
31776,25024,37676
31688,25084,37692
31516,25167,37665
31444,25247,37812
31478,25300,37872
31588,25302,37923
31672,25247,37892
31756,25161,37940
31725,25083,38021
31664,25030,38078
31748,25018,38214
31736,25082,38176
31712,25164,38141
31720,25252,38189
31768,25305,38313
31784,25305,38455
31800,25249,38383
31874,25168,38516
31960,25085,38484
32040,25028,38628
31980,25013,38279
32124,25073,38644
32172,25161,38636
32152,25244,38583
32168,25301,38637
32149,25290,38663
32288,25244,38727
32388,25160,38780
32341,25072,38933
32290,25028,38919
32244,25026,38981
32212,25079,38914
32220,25165,38965
32332,25252,38905
32444,25301,39028
32566,25300,39093
32648,25242,39140
32736,25164,39156
32796,25076,39263
32848,25021,39423
32964,25025,39335
32860,25073,39478
32728,25159,39408
32696,25247,39532
32692,25297,39477
32772,25296,39621
32960,25237,39559
33068,25153,39617
33120,25068,39439
33096,25015,39604
33076,25013,39397
33060,25068,39783
33040,25149,39468
33032,25232,39700
33112,25286,39769
33256,25290,39852
33308,25236,39976
33344,25153,39943
33300,25078,39917
33268,25020,39736
33228,25016,39951
33260,25071,40040
33300,25157,40131
33324,25237,40276
33352,25289,40184
33312,25287,40340
33356,25228,40272
33408,25151,40408
33380,25065,40335
33388,25014,40492
33376,25012,40373
33324,25060,40524
33300,25146,40395
33252,25233,40485
33232,25285,40495
33304,25280,40432
33300,25233,40543
33260,25152,40652
33280,25065,40556
33332,25018,40727
33392,25007,40620
33280,25065,40700
33081,25140,40622
32956,25228,40661
32968,25280,40615
33048,25284,40588
33018,25234,40636
33036,25143,40596
33044,25060,40775
32984,25017,40596
32920,25015,40516
32856,25065,40855
32828,25142,40721
32836,25227,40653
32824,25283,40756
32832,25287,40737
32868,25229,40856
32892,25153,40752
32884,25063,40753
32924,25008,40721
32836,25015,40745
32732,25063,40664
32652,25148,40559
32628,25235,40826
32648,25283,40428
32736,25279,40791
32808,25231,40743
32965,25151,40744
33036,25063,40652
32972,25017,40510
32800,25010,40711
32676,25060,40484
32572,25149,40725
32586,25229,40758
32600,25281,40797
32612,25289,40711
32584,25229,40688
32592,25146,40737
32640,25061,40768
32712,25006,40752
32628,24999,40796
32548,25056,40749
32552,25146,40479
32624,25224,40906
32632,25282,40761
32684,25283,40641
32670,25233,40928
32778,25137,40772
32809,25052,40736
32800,25004,40687
32716,25005,40665
32656,25057,40784
32548,25143,40788
32524,25228,40807
32532,25277,40767
32552,25284,40665
32620,25231,40657
32712,25144,40543
32816,25054,40807
32844,25005,40750
32728,25003,40888
32612,25052,40749
32544,25127,40685
32592,25223,40673
32740,25276,40625
32844,25271,40710
32892,25222,40452
32869,25136,40652
32929,25052,40581
32904,24996,40615
32788,24997,40676
32669,25055,40606
32656,25132,40676
32712,25217,40532
32740,25274,40414
32740,25276,40497
32772,25229,40443
32892,25146,40468
32892,25051,40488
32920,24999,40404
32900,24999,40549
32824,25052,40396
32728,25134,40300
32648,25219,40470
32545,25271,40332
32512,25277,40260
32620,25222,40240
32684,25140,40288
32792,25051,40396
32832,25005,40248
32789,24988,40124
32620,25046,40134
32588,25135,40124
32584,25216,40096
32545,25268,40158
32624,25273,40140
32752,25220,40220
32833,25137,40108
32876,25049,40165
32816,25007,40017
32680,24997,39940
32524,25053,39957
32505,25143,39824
32508,25217,40085
32504,25273,39933
32496,25273,40061
32508,25217,39922
32560,25135,39972
32568,25057,39556
32504,24994,39831
32496,24995,39812
32400,25048,39716
32337,25123,39540
32388,25212,39839
32532,25265,39716
32700,25269,39608
32772,25212,39809
32769,25139,39646
32762,25053,39652
32668,25004,39679
32540,24996,39583
32428,25048,39564
32340,25130,39549
32296,25212,39537
32316,25268,39519
32440,25270,39431
32568,25209,39388
32792,25144,39211
32972,25054,39534
33024,24999,39424
32972,24992,39461
32858,25044,39351
32684,25124,39273
32552,25208,39290
32532,25262,39228
32644,25264,39260
32765,25214,39175
32880,25131,39222
32936,25047,39247
33012,24995,39172
32924,24991,39111
32924,25044,39122
32828,25129,39095
32824,25211,39032
32912,25265,38974
32996,25267,39012
32960,25213,38933
33004,25134,38919
32984,25040,38882
32940,24990,38852
32876,24992,38836
32734,25034,38887
32740,25113,38863
32756,25202,38956
32796,25253,38808
32848,25259,38788
32924,25207,38745
33000,25129,38572
33004,25037,38663
32948,24994,38421
32756,24990,38732
32506,25036,38641
32372,25125,38597
32324,25206,38492
32320,25263,38440
32120,25263,38456
31764,25217,38236
31188,25132,38592
30212,25046,38452
28901,25001,38520
27468,25004,38132
25840,25057,38348
24210,25146,38407
23025,25240,38328
22014,25296,38424
21124,25313,38280
21448,25252,38268
24044,25164,38143
28036,25046,38108
32414,24997,38101
36616,24977,38116
39544,25025,38216
40424,25109,38112
40016,25196,38185
39000,25250,38042
37996,25249,37997
37056,25220,37907
36288,25142,37929
35624,25053,37925
35088,24990,37892
34436,24991,37839
33900,25044,37767
33566,25124,37743
33492,25204,37788
33448,25252,37852
33480,25254,37721
33588,25205,37791
33580,25121,37676
33676,25037,37598
33520,24980,37540
33608,24989,37325
33424,25028,37441
33316,25116,37412
33272,25199,37484
33168,25246,37533
33220,25255,37408
33340,25205,37420
33372,25126,37189
33244,25038,37298
33256,24983,37112
33224,24981,37184
33164,25028,37244
33080,25117,37179
33024,25204,37176
32980,25248,37111
33036,25252,37149
33120,25199,37009
33236,25119,36990
33348,25035,36852
33332,24989,36818
33168,24981,36665
33056,25038,36831
32916,25120,36719
32837,25199,36709
32824,25251,36655
32940,25259,36732
33012,25212,36669
33154,25125,36724
33249,25032,36598
33244,24980,36500
33116,24972,36473
32904,25026,36532
32865,25111,36471
32780,25191,36468
32760,25245,36508
32828,25253,36429
32872,25205,36426
32894,25113,36380
32896,25029,36376
32822,24972,36089
32748,24968,36344
32596,25023,36050
32536,25107,36252
32533,25199,36031
32508,25247,36174
32528,25251,36038
32660,25196,36132
32752,25119,36072
32808,25002,36181
32632,24976,36164
32604,24975,36176
32520,25031,36236
32509,25104,36150
32344,25189,36176
32336,25245,36017
32264,25249,36080
32236,25191,36007
32452,25111,36108
32420,25035,36180
32404,24983,35856
32356,24967,36020
32212,25022,35845
32032,25117,36036
31980,25197,35865
31968,25247,36012
31973,25251,35847
32092,25204,36006
32244,25111,35967
32217,25027,35959
32172,24980,36070
32093,24967,36066
32061,25024,36053
31936,25109,35893
31872,25197,35972
31856,25241,36071
31940,25252,36071
32080,25199,36103
32172,25116,36063
32152,25033,35968
32268,24978,36000
32200,24979,35847
32116,25027,36069
32048,25105,35847
32080,25188,36133
32064,25247,35844
32064,25255,35968
32096,25197,35989
32220,25116,36060
32348,25030,36053
32440,24975,36052
32708,24965,36096
32468,25020,35847
32408,25095,36040
32332,25189,36018
32357,25237,36052
32504,25241,36006
32596,25186,36064
32700,25115,36000
32805,25022,36073
32897,24967,35756
32908,24967,35910
32876,25016,35852
32836,25109,35925
32636,25188,35820
32744,25242,35908
32888,25249,35811
33052,25197,35848
33256,25109,35778
33352,25030,35842
33316,24968,35652
33252,24967,35936
33438,25020,35847
33272,25095,35823
33261,25186,35820
33304,25237,35865
33312,25243,35785
33416,25185,35645
33601,25111,35815
33612,25023,35740
33732,24972,35769
33780,24961,35684
33652,25003,35564
33678,25103,35561
33560,25177,35532
33600,25231,35684
33824,25233,35605
33880,25184,35463
33952,25095,35456
33981,25013,35476
33852,24958,35508
33972,24953,35425
33916,25014,35466
33792,25095,35490
33832,25175,35452
33752,25229,35488
33736,25236,35392
33816,25181,35429
33956,25100,35132
33996,25013,35372
34077,24957,35292
34068,24955,35217
34038,25011,35153
33940,25087,35020
33768,25176,35172
33908,25229,35033
34028,25227,35044
33797,25173,35008
33808,25087,35085
34060,25018,35077
33912,24967,35028
33908,24958,35070
33872,25007,34974
33704,25083,34949
33486,25174,34913
33620,25220,34929
33636,25226,34864
33784,25182,34797
33916,25095,34764
33820,25013,34612
33796,24954,34772
33584,24951,34716
33576,25001,34561
33616,25087,34633
33488,25166,34439
33544,25227,34644
33576,25223,34561
33600,25181,34582
33552,25092,34521
33644,25007,34354
33548,24959,34529
33324,24949,34423
33280,24999,34298
33276,25088,34287
33252,25167,34169
33210,25224,34244
33280,25231,34209
33400,25185,34276
33408,25103,34228
33508,25012,34180
33436,24963,34005
33309,24950,34041
33412,24996,34092
33270,25084,34183
33037,25165,33981
33056,25223,34060
32997,25227,33909
33324,25176,33993
33232,25095,33841
33476,25012,33926
33296,24964,33926
33236,24944,33767
33188,25001,33873
33188,25079,33839
33056,25167,33665
33120,25217,33769
33244,25225,33753
33356,25169,33580
33520,25089,33759
33500,25007,33639
33400,24956,33446
33432,24945,33516
33332,24996,33543
33217,25082,33540
33160,25165,33385
33132,25223,33539
33232,25223,33429
33308,25175,33257
33456,25087,33455
33500,25007,33377
33644,24949,33188
33524,24949,33336
33340,24999,33244
33364,25080,33257
33344,25163,33084
33228,25213,33286
33340,25220,33215
33336,25165,33055
33404,25087,33140
33488,24999,33159
33440,24945,33202
33416,24943,33108
33344,25004,32976
33216,25079,33080
33296,25157,33085
33264,25215,32993
33181,25217,33025
33200,25172,32903
33476,25085,32958
33300,25004,32840
33389,24944,33003
33380,24941,32880
33268,24997,32799
33157,25075,32874
33228,25159,32783
33138,25208,32916
33164,25208,32903
33288,25172,32757
33416,25085,32950
33588,25001,32820
33588,24953,32876
33568,24943,32890
33364,24990,32860
33153,25077,32701
33172,25159,32870
33164,25212,32825
33136,25221,32757
33180,25164,32791
33384,25079,32782
33276,24993,32748
33358,24948,32575
33320,24944,32791
33268,24987,32689
33280,25067,32579
33184,25158,32673
33240,25204,32544
33296,25215,32692
33252,25166,32513
33216,25077,32636
33576,24996,32480
33497,24938,32677
33324,24933,32623
33036,24984,32478
33068,25081,32575
33144,25159,32533
33032,25204,32596
33104,25213,32625
33356,25160,32583
33382,25080,32519
33412,24993,32556
33388,24945,32572
33216,24934,32463
33088,24990,32380
33028,25072,32541
33000,25148,32536
32884,25205,32492
33061,25211,32513
33028,25164,32378
33208,25084,32519
33321,24997,32418
33328,24945,32375
33033,24941,32551
33336,24990,32507
33068,25060,32348
33040,25160,32534
33068,25213,32516
32996,25213,32431
33120,25165,32452
33404,25080,32504
33400,24997,32537
33312,24946,32511
33148,24939,32345
33104,24988,32433
33040,25065,32495
32846,25150,32432
32816,25200,32406
32976,25204,32484
33129,25160,32368
33260,25079,32375
33136,24996,32327
33148,24939,32519
32892,24929,32460
33072,24975,32332
33068,25063,32400
33160,25149,32324
32953,25199,32496
33100,25207,32473
33060,25146,32316
33332,25076,32503
33444,24988,32473
33334,24935,32470
33204,24932,32465
33060,24973,32487
32952,25063,32465
33040,25154,32484
32917,25201,32303
32981,25215,32448
32988,25161,32292
33380,25077,32487
33200,24992,32439
33268,24940,32288
33118,24932,32391
32788,24981,32437
32880,25061,32461
32866,25148,32417
32864,25198,32445
32806,25209,32421
32728,25155,32461
32960,25069,32258
33020,24988,32452
32980,24930,32228
33012,24924,32311
32933,24973,32226
32769,25061,32333
32852,25143,32229
32900,25205,32327
32968,25192,32237
32876,25151,32359
33096,25072,32217
33024,24981,32295
33014,24929,32222
32784,24929,32295
32732,24980,32198
32516,25061,32334
32728,25140,32365
32840,25200,32186
32852,25207,32288
33032,25159,32164
33144,25077,32244
33144,24981,32156
33286,24939,32218
33069,24920,32201
33192,24976,32263
33080,25058,32212
33036,25150,32222
33008,25199,32100
32928,25207,32308
32882,25152,32247
33048,25077,32108
32964,24992,32144
33156,24933,32068
33198,24935,32135
33160,24980,32068
33150,25053,32196
32889,25143,32058
32804,25199,32092
32972,25202,32015
33152,25144,32074
33214,25073,32020
33164,24981,32081
33204,24932,31990
33044,24922,32158
32932,24973,31972
32879,25055,32135
32700,25137,32084
32828,25191,31925
33032,25196,31991
32948,25151,31887
32900,25071,32029
33068,24981,32027
33024,24939,31860
32684,24921,31972
32693,24967,31977
32772,25053,31973
32584,25130,31971
32136,25191,31932
31552,25200,31892
30380,25157,31909
29088,25080,31853
27712,25000,31893
26216,24957,31884
24696,24952,31860
23528,25001,31785
22434,25095,31663
21488,25191,31812
21248,25233,31652
23072,25239,31776
26788,25165,31744
31008,25079,31621
35277,24989,31714
38620,24932,31615
40288,24926,31704
40252,24983,31713
39240,25045,31700
38096,25132,31656
37221,25189,31630
36248,25196,31518
35688,25150,31620
35364,25063,31516
34910,24985,31569
34272,24937,31508
33900,24924,31487
33932,24974,31584
33812,25050,31438
33616,25137,31561
33460,25178,31585
33404,25191,31535
33504,25148,31362
33804,25061,31516
33726,24980,31508
33637,24930,31423
33580,24923,31468
33436,24973,31472
33424,25045,31456
33548,25135,31469
33312,25191,31434
33252,25196,31460
33281,25149,31256
33356,25068,31377
33596,24976,31248
33444,24921,31344
33216,24924,31348
33156,24967,31364
33272,25053,31367
33248,25137,31343
33162,25196,31354
33192,25199,31305
33516,25145,31160
33128,25068,31319
33228,24980,31301
33212,24921,31144
33189,24914,31309
33118,24966,31239
33124,25045,31116
33024,25132,31196
32981,25191,31180
33016,25191,31118
33143,25146,31204
33216,25060,31191
33036,24982,31257
33216,24924,31110
33088,24919,31279
33044,24970,31237
32904,25051,31119
32900,25134,31200
32864,25189,31289
32912,25191,31205
32944,25137,31270
33101,25057,31163
33132,24976,31366
32981,24927,31332
32928,24920,31191
32824,24964,31285
32656,25045,31349
32712,25123,31373
32461,25180,31253
32588,25188,31440
32568,25135,31388
32876,25061,31300
32648,24983,31461
32744,24922,31417
32524,24910,31296
32456,24967,31428
32492,25053,31300
32288,25135,31437
32432,25188,31417
32348,25192,31319
32296,25143,31488
32488,25056,31460
32508,24982,31408
32460,24924,31461
32512,24917,31404
32328,24962,31477
32086,25044,31340
32232,25124,31404
32558,25188,31357
32200,25189,31429
32136,25138,31388
32192,25060,31452
32208,24977,31417
32081,24916,31615
32160,24909,31574
32165,24964,31468
31972,25044,31656
31809,25133,31652
31944,25185,31654
32168,25184,31686
32144,25133,31620
32252,25053,31711
32256,24981,31742
32084,24921,31768
32096,24919,31679
31968,24959,31647
31936,25039,31812
31916,25130,31805
31940,25181,31821
31776,25189,31709
32006,25140,31785
32236,25058,31743
32212,24971,31877
32288,24921,31920
32600,24912,31919
32341,24964,31928
32092,25040,31940
32048,25124,31980
32416,25172,31844
32424,25185,32005
32448,25135,31961
32556,25053,31831
32572,24962,31919
32628,24919,31833
32633,24907,31993
32624,24953,31991
32604,25029,31988
32608,25121,32004
32588,25180,31992
32736,25186,32004
32832,25132,31925
32904,25052,31865
33094,24968,32012
33228,24914,32016
33420,24909,32025
33184,24958,32052
33120,25037,31868
33125,25119,32023
33129,25170,32066
33360,25181,31908
33248,25128,32066
33536,25047,32060
33641,24969,32104
33680,24916,31912
33576,24909,31995
33572,24954,31919
33549,25041,31997
33525,25124,31920
33364,25180,32042
33580,25176,31936
33552,25124,32049
33768,25046,32108
33681,24957,32049
33785,24902,32039
33792,24905,31972
33764,24954,32103
33580,25029,32124
33604,25123,32156
33513,25169,32123
33660,25176,32175
33685,25130,31975
33824,25050,32039
33860,24959,32021
33868,24902,32125
33756,24900,32076
33620,24956,32151
33540,25037,32159
33424,25117,31984
33408,25172,32052
33512,25181,31981
33616,25135,32108
33706,25050,32140
33708,24966,32172
33620,24905,32002
33565,24903,32025
33489,24941,32059
33500,25023,32112
33544,25108,32096
33600,25170,31944
33624,25177,32092
33604,25126,32113
33660,25042,31916
33660,24959,32023
33654,24909,32026
33422,24901,32039
33260,24941,32005
33346,25024,31868
33236,25104,31922
33420,25160,31844
33372,25167,32007
33388,25121,31812
33344,25055,31825
33332,24961,31799
33372,24905,31885
33280,24903,31840
33104,24935,31690
32980,25021,31744
32984,25108,31644
33008,25168,31718
33156,25173,31588
33228,25121,31662
33348,25040,31646
33149,24952,31625
33081,24903,31561
33116,24889,31558
33000,24932,31440
32861,25029,31340
32808,25109,31413
32832,25159,31375
32864,25169,31364
33253,25126,31342
33240,25041,31317
33228,24949,31229
33284,24902,31230
33220,24895,31092
33112,24933,31164
32994,25020,31007
32948,25100,31100
32957,25156,31077
32932,25172,30900
33032,25120,30956
33108,25039,30832
33204,24945,30966
33252,24892,30916
33196,24887,30908
32924,24932,30821
32860,25013,30701
33001,25095,30735
32884,25152,30615
32976,25164,30686
33156,25127,30513
33260,25045,30572
33256,24953,30500
33220,24901,30568
32996,24890,30505
32776,24933,30508
32720,25013,30508
32820,25092,30452
32888,25159,30432
32932,25159,30273
33000,25113,30321
33100,25033,30205
33056,24947,30289
33184,24887,30109
33061,24890,30200
32956,24935,30068
32894,25012,30140
32856,25095,30039
32876,25152,30063
32908,25157,29912
33072,25111,29991
33252,25033,29823
33242,24945,29920
33244,24890,29760
33196,24877,29814
33234,24927,29700
33352,25013,29808
33296,25092,29740
33198,25154,29749
33056,25158,29701
32936,25104,29575
32952,25028,29599
32992,24945,29476
33020,24892,29592
32876,24881,29581
32736,24925,29373
32744,25001,29477
32780,25087,29442
32796,25144,29420
32812,25156,29397
33012,25117,29248
33112,25032,29344
33192,24944,29285
33197,24892,29141
33076,24885,29213
32920,24935,29048
32700,25008,29139
32604,25085,28999
32648,25153,29029
32804,25159,28942
33074,25105,29021
33160,25029,28972
33176,24943,28894
33090,24879,28948
33076,24868,28884
32756,24916,28836
32608,25002,28847
32564,25093,28709
32597,25143,28853
32680,25152,28793
32668,25115,28668
32848,25018,28748
32960,24932,28677
32940,24889,28743
32728,24873,28711
32784,24918,28589
32760,24989,28636
32736,25089,28577
32896,25140,28625
33100,25156,28561
33272,25100,28489
33332,25020,28484
33328,24933,28378
33236,24882,28519
33228,24874,28423
33116,24916,28331
32964,24984,28449
32796,25075,28438
32800,25138,28249
32773,25152,28372
32752,25095,28365
32768,25016,28193
32756,24932,28319
32800,24884,28300
32868,24865,28128
32833,24908,28218
32752,24995,28073
32592,25079,28189
32652,25131,28120
32756,25146,27999
32900,25095,28143
32866,25024,28136
32870,24935,27998
32980,24879,28022
32877,24871,27943
32868,24903,27976
32832,24994,28030
32817,25076,28023
32968,25132,27892
32902,25140,27976
32848,25089,27940
32760,25010,27991
32656,24921,27983
32736,24865,27865
32796,24863,27919
32752,24906,27772
32752,24985,27881
32716,25068,27788
32764,25133,27845
32836,25140,27758
32876,25089,27887
32872,25010,27832
32952,24932,27893
32880,24869,27847
32820,24855,27728
32800,24901,27861
32804,24980,27844
32804,25070,27886
32800,25121,27868
32868,25129,27713
33052,25085,27873
33228,25014,27858
33252,24930,27776
33088,24864,27799
32832,24853,27720
32604,24900,27860
32396,24973,27792
32260,25071,27724
32325,25120,27764
32409,25135,27836
32480,25084,27655
32582,24999,27807
32660,24929,27772
32672,24862,27640
32592,24852,27742
32544,24890,27629
32556,24971,27728
32604,25052,27661
32624,25125,27725
32620,25135,27712
32676,25087,27628
32832,25007,27694
32800,24918,27565
32648,24863,27620
32556,24849,27540
32496,24893,27628
32496,24966,27540
32456,25052,27655
32520,25113,27652
32516,25129,27640
32580,25085,27524
32592,25004,27543
32496,24916,27438
32545,24855,27589
32580,24836,27496
32508,24887,27552
32496,24972,27524
32421,25053,27393
32448,25115,27535
32497,25119,27541
32572,25073,27381
32736,24997,27497
32871,24919,27485
32940,24856,27389
32936,24836,27442
32772,24889,27346
32496,24964,27437
32300,25043,27313
32328,25111,27385
32464,25117,27342
32704,25072,27424
32852,25000,27432
32944,24908,27428
33024,24857,27416
33032,24838,27428
32872,24888,27335
32684,24962,27398
32528,25046,27231
32464,25104,27369
32576,25109,27373
32716,25070,27284
32864,24998,27302
32896,24904,27333
32918,24842,27250
32924,24831,27309
32864,24872,27276
32680,24958,27326
32612,25048,27332
32509,25104,27304
32594,25119,27310
32656,25068,27173
32628,24984,27249
32466,24911,27156
32288,24839,27232
32292,24829,27193
32336,24877,27280
32256,24966,27265
31936,25043,27168
31356,25095,27247
30568,25115,27205
29512,25076,27172
28278,25006,27180
26960,24924,27090
25365,24872,27185
23590,24870,27093
22248,24927,27200
21062,24996,27106
20020,25082,27185
20556,25146,27181
23466,25124,27191
27724,25084,27184
32416,24988,27060
36877,24894,27169
39676,24833,27093
40360,24844,27109
39764,24884,27024
38585,24944,27049
37448,25060,27070
36493,25109,26957
35756,25111,27115
35116,25063,27066
34568,24986,27008
34116,24900,27053
33900,24844,27081
33788,24828,27089
33664,24869,27068
33512,24945,26946
33412,25035,27041
33428,25089,26991
33456,25101,27073
33408,25060,26993
33336,24993,27047
33182,24900,27061
32977,24839,26998
32984,24829,26929
33068,24871,26989
33108,24943,26944
33064,25032,27028
33008,25085,26968
33032,25094,26992
33210,25060,26916
33364,24975,27012
33424,24900,26956
33284,24838,27047
33152,24830,27048
33064,24861,26908
33008,24940,27023
32965,25029,27028
32940,25091,26928
32888,25105,26988
32900,25061,26870
32912,24968,27044
32948,24886,26989
32976,24838,26880
32985,24812,26980
33012,24852,26993
32948,24934,26910
32728,25023,27047
32588,25087,27014
32556,25101,26938
32736,25059,27052
32820,24980,27054
32801,24895,27104
32664,24831,27080
32661,24813,26957
32748,24852,27047
32900,24937,27076
32916,25024,26988
32796,25082,27126
32662,25093,27124
32663,25055,27185
32684,24975,27104
32684,24886,27209
32621,24822,27233
32457,24809,27245
32356,24857,27260
32224,24932,27176
32092,25017,27232
32016,25079,27206
32064,25087,27261
32253,25055,27297
32448,24974,27277
32544,24891,27341
32520,24826,27252
32504,24796,27426
32412,24848,27437
32312,24937,27497
32224,25020,27468
32142,25074,27438
32060,25092,27520
32084,25048,27507
32096,24967,27642
31964,24885,27604
31870,24810,27556
31896,24805,27700
31964,24855,27605
31956,24933,27773
31988,25015,27684
32056,25071,27821
32080,25088,27748
32001,25058,27924
31993,24967,27993
31826,24881,27886
31684,24816,27973
31720,24805,27963
31758,24847,28052
31648,24934,28042
31508,25016,28197
31496,25076,28106
31636,25095,28197
31700,25048,28164
31742,24972,28359
31744,24892,28308
31712,24828,28417
31636,24805,28311
31500,24846,28442
31380,24927,28384
31312,25018,28551
31320,25073,28480
31396,25094,28667
31568,25052,28710
31816,24968,28644
32064,24879,28722
32164,24812,28692
32160,24805,28772
32176,24847,28732
32090,24924,28946
32048,25010,28892
31992,25071,29013
31985,25063,28962
32050,25042,29004
32137,24959,29029
32228,24873,29184
32325,24815,29199
32356,24799,29090
32396,24845,29190
32432,24920,29152
32608,25013,29320
32700,25071,29260
32660,25085,29412
32645,25038,29476
32764,24963,29327
32888,24883,29496
32844,24813,29485
32712,24804,29604
32762,24833,29572
32724,24922,29530
32740,25006,29668
32764,25064,29599
32896,25083,29776
33044,25039,29697
33204,24965,29856
33266,24868,29777
33373,24812,29903
33524,24799,29860
33568,24836,29980
33412,24920,29957
33260,24999,30152
33228,25063,30176
33440,25076,30225
33624,25037,30124
33640,24956,30237
33560,24869,30210
33408,24798,30315
33396,24788,30309
33414,24825,30408
33364,24917,30389
33304,24996,30575
33320,25060,30660
33312,25065,30564
33460,25028,30738
33604,24958,30761
33636,24868,30788
33608,24806,30823
33636,24787,30724
33590,24821,30829
33440,24900,30816
33336,24995,30908
33368,25053,30876
33488,25065,31018
33620,25023,31060
33676,24944,31147
33632,24875,31204
33536,24804,31087
33444,24785,31204
33304,24831,31133
33196,24905,31340
33208,24989,31326
33324,25045,31345
33512,25063,31226
33620,25031,31429
33452,24948,31418
33284,24858,31306
33344,24804,31494
33468,24788,31513
33516,24821,31412
33380,24901,31469
33192,24985,31426
33142,25045,31527
33156,25061,31508
33197,25021,31549
33352,24940,31588
33428,24856,31554
33368,24789,31657
33260,24786,31598
33156,24825,31799
33008,24900,31806
32917,24981,31852
32876,25044,31837
32924,25055,31815
33078,25024,31724
33216,24942,31838
33188,24855,31783
32976,24785,31924
32740,24776,31828
32720,24827,31943
32736,24900,32020
32725,24976,32080
32664,25040,32069
32717,25056,32101
32784,25021,31957
32948,24941,32164
33148,24861,31996
33132,24789,32093
33128,24767,32039
33165,24814,32258
33120,24895,32257
33016,24979,32235
32812,25032,32183
32708,25061,32313
32724,25018,32281
32916,24940,32360
33096,24847,32364
33188,24784,32423
33148,24769,32457
33060,24801,32480
32936,24890,32492
32812,24974,32365
32796,25031,32572
32848,25052,32544
32960,25013,32633
33120,24932,32497
33106,24857,32676
33060,24783,32729
32953,24775,32598
32836,24801,32694
32797,24889,32672
32844,24972,32844
32884,25032,32866
32884,25048,32799
32932,25014,32756
32968,24931,32948
33052,24848,32897
33162,24779,33039
33160,24772,32924
33040,24802,33092
32932,24881,33096
32876,24967,33060
32936,25026,33220
32984,25052,33136
33036,25004,33097
33188,24940,33213
33320,24851,33360
33308,24781,33340
33208,24769,33404
33108,24800,33345
32992,24879,33466
32912,24975,33325
32932,25035,33460
32920,25047,33461
32892,25004,33428
32900,24938,33601
32940,24851,33552
32996,24781,33732
32972,24768,33725
32852,24807,33772
32748,24881,33839
32804,24967,33934
32905,25033,33771
33036,25044,33935
33192,25013,34033
33268,24925,33876
33385,24849,34045
33296,24773,34100
33144,24762,33914
32980,24793,34140
32812,24887,34033
32756,24964,34158
32772,25028,34134
32804,25047,34289
32864,25009,34290
32952,24929,34273
33020,24844,34200
32968,24788,34337
32864,24757,34404
32764,24805,34384
32640,24881,34528
32536,24965,34471
32560,25024,34553
32816,25047,34473
33076,25004,34564
33212,24935,34704
33164,24848,34529
33064,24773,34687
33056,24758,34676
33009,24804,34829
32960,24874,34924
32928,24964,34676
32916,25026,34822
32832,25039,35005
32872,25008,34764
32972,24925,34967
33008,24837,34991
33080,24790,35086
33060,24760,35007
32868,24795,35093
32681,24869,35172
32614,24969,35270
32577,25028,35228
32680,25047,35316
32864,25012,35292
33044,24932,35392
33076,24849,35348
33076,24785,35350
33028,24753,35221
32896,24807,35349
32736,24880,35316
32656,24967,35453
32664,25018,35436
32729,25049,35534
32860,25009,35488
32940,24932,35455
33056,24852,35610
32960,24773,35700
32900,24760,35662
32816,24805,35629
32736,24874,35688
32744,24952,35769
32680,25018,35768
32624,25045,35860
32604,25006,35581
32669,24930,35833
32748,24854,35628
32852,24780,35960
32824,24757,35894
32740,24790,35981
32628,24878,35808
32596,24967,35976
32628,25020,36064
32640,25036,36015
32718,25003,36103
32754,24931,35860
32736,24839,36090
32688,24777,35952
32720,24770,36024
32749,24802,36012
32800,24871,36104
32760,24959,36068
32701,25024,36170
32680,25039,36180
32704,25007,36235
32764,24933,36286
32809,24849,36096
32760,24773,36253
32756,24764,36190
32736,24799,36287
32676,24869,36348
32688,24956,36335
32744,25019,36306
32816,25045,36309
32948,25007,36411
33136,24929,36479
33224,24839,36320
33372,24782,36439
33340,24763,36540
33125,24800,36314
32900,24868,36479
32752,24956,36556
32700,25027,36276
32760,25042,36517
32876,25001,36636
33048,24924,36460
33100,24848,36565
33020,24770,36508
32903,24749,36684
32792,24788,36479
32740,24863,36596
32751,24965,36724
32864,25028,36639
32940,25041,36698
32956,25005,36573
32968,24926,36652
32997,24852,36591
32928,24784,36689
32826,24757,36815
32708,24789,36615
32676,24871,36729
32616,24955,36629
32544,25018,36790
32464,25044,36743
32544,25006,36838
32860,24931,36663
32956,24838,36757
32700,24780,36829
32266,24762,36672
31350,24788,36788
30200,24877,36853
28908,24967,36772
27488,25037,36705
26040,25044,36736
24585,25028,36790
23428,24965,36871
22320,24885,36808
21177,24829,36845
20820,24790,36716
22632,24812,36814
26368,24881,36776
30720,24965,36812
35168,25032,36848
38777,25053,36836
40432,25007,36804
40440,24921,36825
39576,24836,36855
38496,24791,36788
37500,24769,36932
36560,24793,36840
35760,24863,36804
35088,24963,36756
34540,25031,36861
34112,25047,36940
33944,25007,36743
33812,24924,36775
33920,24839,36825
33980,24788,36868
33920,24759,36941
33788,24791,36629
33624,24867,36777
33544,24956,36852
33504,25031,36612
33484,25038,36764
33552,25006,36760
33664,24933,36779
33752,24839,36769
33729,24770,36789
33628,24752,36798
33520,24797,36863
33416,24866,36768
33321,24955,36840
33285,25022,36857
33380,25037,36896
33576,25008,36844
33708,24925,36895
33728,24845,36721
33652,24780,36790
33496,24748,36740
33338,24790,36780
33108,24865,36737
33064,24949,36769
33121,25020,36868
33200,25041,36527
33300,24999,36744
33404,24932,36648
33436,24844,36724
33388,24772,36732
33292,24751,36730
33292,24790,36805
33184,24871,36708
33100,24952,36712
33080,25017,36609
33112,25041,36600
33208,25006,36544
33344,24929,36649
33420,24836,36759
33397,24781,36541
33156,24753,36620
33081,24779,36631
32992,24861,36615
32848,24951,36585
32732,25012,36631
32870,25030,36613
33004,24996,36604
33002,24921,36527
33025,24847,36596
33052,24780,36645
33032,24753,36636
32992,24782,36645
32893,24852,36637
32780,24956,36605
32728,25014,36653
32706,25036,36692
32774,25001,36680
32876,24924,36768
32880,24840,36688
32876,24769,36778
32793,24753,36690
32728,24783,36743
32616,24863,36471
32602,24954,36767
32600,25025,36664
32644,25038,36560
32816,25007,36782
32801,24930,36573
32813,24838,36753
32713,24772,36870
32596,24759,36565
32440,24793,36712
32361,24864,36733
32340,24952,36804
32352,25015,36846
32372,25031,36852
32424,25009,36917
32424,24933,36904
32464,24845,37005
32528,24771,36670
32538,24758,36896
32452,24787,36871
32394,24859,36928
32244,24948,36917
32254,25014,36871
32356,25036,36724
32444,25007,37081
32548,24932,36991
32472,24836,37052
32500,24770,36999
32533,24756,37092
32472,24788,36742
32394,24857,36956
32392,24946,36813
32404,25012,37076
32473,25036,36975
32636,24996,37007
32768,24927,36878
32852,24845,36988
32901,24769,37048
32952,24745,36871
32952,24780,36986
32948,24861,36871
32916,24951,36860
32968,25017,36940
33069,25033,36982
33276,25001,36905
33396,24936,36784
33505,24844,36921
33520,24773,36855
33612,24745,36824
33572,24780,36893
33496,24865,36949
33544,24954,36858
33604,25016,36853
33672,25032,36735
33852,25007,36812
33938,24925,36807
34096,24849,36885
34196,24777,36540
34165,24743,36778
34088,24785,36836
34109,24857,36504
33984,24946,36815
33984,25013,36560
34020,25041,36750
34222,24996,36524
34332,24936,36686
34452,24842,36444
34592,24773,36598
34668,24743,36645
34632,24776,36615
34564,24861,36508
34512,24948,36501
34468,25017,36589
34404,25034,36670
34580,24996,36337
34600,24924,36456
34660,24837,36460
34632,24760,36541
34610,24756,36438
34484,24775,36474
34420,24849,36481
34284,24940,36534
34216,25000,36481
34372,25031,36425
34472,24997,36352
34613,24931,36448
34688,24834,36513
34805,24774,36318
34692,24745,36408
34464,24769,36466
34432,24860,36190
34504,24942,36296
34736,25001,36263
34576,25023,36360
34504,25000,36310
34541,24928,36212
34636,24830,36313
34628,24765,36359
34668,24743,36297
34644,24770,36343
34540,24854,36036
34362,24942,36228
34248,25005,36212
34256,25033,36220
34305,24996,36103
34394,24928,36077
34418,24832,36178
34484,24773,36100
34512,24744,36136
34348,24773,36127
34188,24848,36174
34168,24932,35848
34120,25004,35975
34220,25025,35834
34341,24998,36026
34413,24917,36086
34440,24845,35993
34300,24774,35937
34308,24740,36013
34288,24764,35741
34168,24854,35940
34121,24941,35946
34020,25004,35695
33940,25032,35892
34272,25001,35886
34208,24919,35737
34164,24844,35828
34088,24768,35748
34176,24741,35805
34020,24774,35764
33972,24846,35732
33977,24940,35743
33838,24997,35598
33836,25025,35684
33924,25007,35748
34052,24925,35436
34172,24836,35565
34020,24763,35541
34088,24746,35413
34008,24773,35548
33936,24842,35559
33756,24928,35310
33852,25004,35487
33868,25034,35561
33984,24993,35261
34088,24927,35373
34161,24839,35404
33988,24761,35388
34060,24742,35277
33888,24772,35288
33832,24843,35335
33808,24935,35217
34016,25005,35169
33925,25023,35247
33996,25001,35270
34072,24922,35108
34016,24836,35204
33916,24777,35156
33856,24743,35230
33884,24758,34929
33720,24846,35101
33680,24937,35140
33696,24992,34860
33892,25023,34948
33848,25009,34997
33984,24927,35015
34068,24836,35005
34058,24753,34848
33968,24744,34958
33780,24779,34847
33748,24846,34876
33584,24932,34873
33645,24998,34853
33692,25025,34649
33760,24997,34823
33896,24927,34764
33880,24837,34810
33900,24772,34767
33888,24738,34724
33888,24772,34559
33748,24847,34687
33628,24935,34772
33612,24999,34700
33692,25026,34609
33900,25001,34564
33716,24932,34660
33724,24829,34708
33925,24770,34434
33768,24744,34621
33592,24774,34480
33504,24848,34658
33504,24927,34373
33500,24997,34484
33500,25030,34439
33640,25000,34520
33752,24926,34444
33813,24836,34525
33802,24772,34428
33764,24744,34524
33504,24766,34277
33512,24839,34436
33432,24938,34479
33408,25001,34253
33485,25022,34500
33624,24997,34229
33704,24921,34484
33700,24836,34410
33692,24768,34358
33572,24740,34327
33444,24771,34239
33445,24833,34287
33444,24924,34143
33313,24997,34395
33220,25023,34317
33296,25007,34326
33526,24924,34167
33564,24843,34209
33632,24778,34077
33524,24745,34285
33484,24777,34108
33412,24846,34188
33356,24935,34183
33220,24996,34196
33282,25027,34168
33292,25000,34111
33372,24924,33965
33596,24840,34112
33636,24769,34095
33513,24740,33980
33552,24765,34069
33204,24839,34108
33124,24932,34048
32940,24996,34044
33096,25027,33866
33229,24997,33988
33297,24921,34029
33557,24834,33780
33373,24773,33933
33245,24745,34017
33308,24767,33807
33224,24836,33888
33064,24921,33853
32904,24999,33729
33096,25022,33856
33128,24988,33741
33192,24912,33831
33302,24839,33815
33274,24762,33639
33288,24743,33784
33184,24765,33756
33092,24839,33748
33156,24920,33746
33008,24991,33757
33116,25016,33806
33164,24997,33569
33204,24924,33717
33196,24836,33753
33184,24767,33516
33164,24738,33655
33004,24764,33724
32952,24839,33645
32768,24929,33689
32792,25001,33628
32784,25035,33640
32913,24999,33454
33056,24937,33585
32952,24839,33607
33012,24765,33412
32960,24743,33535
32800,24761,33585
32696,24844,33357
32640,24927,33452
32836,24999,33519
32928,25022,33309
33032,25004,33507
33080,24930,33431
33061,24841,33431
32941,24765,33220
32864,24732,33304
32696,24773,33316
32704,24839,33381
32784,24935,33273
32780,24994,33240
32797,25032,33356
32896,25001,33389
33040,24927,33141
33164,24832,33283
33188,24772,33348
33056,24735,33160
32996,24775,33301
32728,24836,33337
32792,24931,33135
32748,24992,33251
32753,25024,33315
32936,24998,33096
32809,24933,33220
33057,24837,33185
33196,24771,33240
33036,24747,33287
33056,24775,33228
33004,24830,33276
32772,24923,33023
32700,24988,33167
32772,25023,33080
32912,24991,33153
33088,24920,33104
33144,24844,33144
33012,24768,33158
32952,24732,33165
32820,24758,33204
32780,24839,32997
32668,24928,33125
32640,24981,33193
32713,25028,32940
32752,24999,33100
32704,24925,32927
32556,24839,33004
32553,24767,32976
32588,24735,33076
32529,24764,33127
32232,24836,32916
31848,24924,33053
31040,24993,33068
29896,25028,32908
28632,25004,33012
27304,24948,33079
25802,24857,32844
24316,24796,32908
23060,24780,32852
22244,24804,32880
21229,24890,32866
21000,24969,32967
23110,25026,33012
26968,25047,32788
31244,25004,32924
35516,24930,32957
38828,24832,32799
40172,24789,32913
39920,24746,32813
38940,24764,32773
37824,24836,32721
36816,24921,32823
35860,25012,32908
35156,25030,32702
34640,25010,32760
34288,24918,32782
33932,24850,32839
33668,24773,32823
33489,24742,32666
33420,24765,32742
33292,24839,32621
33361,24929,32753
33244,24997,32801
33204,25026,32604
33320,24999,32742
33396,24928,32596
33248,24839,32713
33300,24772,32613
33250,24743,32673
33076,24764,32540
33224,24832,32588
32997,24925,32631
33012,24999,32526
32992,25022,32572
32884,24993,32519
33128,24935,32645
33141,24839,32556
33220,24775,32505
33200,24741,32636
33188,24774,32668
32980,24834,32455
32804,24924,32541
32716,24991,32576
32504,25018,32457
32733,25004,32620
32996,24929,32449
32976,24837,32582
33052,24766,32616
32968,24742,32605
32833,24764,32592
32829,24837,32432
32668,24918,32484
32632,24988,32436
32644,25024,32578
32688,24999,32600
32768,24926,32436
32936,24847,32578
32832,24774,32612
32704,24741,32415
32656,24764,32513
32588,24836,32471
32532,24924,32593
32404,24989,32620
32448,25030,32452
32500,25005,32549
32672,24926,32454
32669,24841,32567
32637,24774,32487
32524,24735,32628
32320,24768,32671
32409,24836,32692
32184,24921,32736
32340,24989,32583
32264,25031,32745
32316,24999,32744
32400,24928,32774
32452,24845,32592
32376,24777,32684
32359,24741,32693
32260,24757,32810
32224,24829,32851
32052,24920,32647
31964,24999,32733
32032,25027,32693
32076,25004,32748
32151,24929,32729
32205,24844,32848
32068,24772,32876
31996,24742,32719
31932,24769,32872
31872,24838,32751
31993,24925,32852
31904,24997,32912
31800,25035,32984
31684,25006,33028
31816,24941,32829
31814,24847,32932
31772,24780,33028
31876,24743,32928
31824,24767,33093
31432,24833,33156
31552,24927,33151
31576,24992,33189
31552,25030,33204
31440,25008,33280
31700,24937,33255
31833,24849,33316
31892,24773,33129
31788,24743,33321
31516,24773,33234
31664,24838,33380
31560,24921,33366
31424,24998,33454
31560,25029,33508
31718,25013,33349
31810,24941,33588
31964,24859,33389
31960,24781,33640
31900,24743,33620
31749,24770,33503
31868,24834,33569
31680,24927,33560
31848,24997,33621
31836,25029,33729
32048,25010,33716
32132,24948,33769
32284,24844,33829
32388,24774,33807
32388,24750,33823
32448,24773,33847
32324,24834,33893
32240,24922,33743
32412,24991,33884
32624,25028,33868
32616,25007,33912
32848,24928,33945
32897,24861,34003
33065,24777,33829
32832,24743,33977
32736,24765,33988
32638,24833,33868
32761,24918,33988
32872,24999,33900
32964,25023,33941
33156,24986,33917
33210,24943,34073
33232,24848,33996
33124,24774,34089
33284,24745,34104
33228,24760,34109
33176,24833,33999
33188,24911,34044
33173,24996,33989
33276,25029,34190
33252,25006,34060
33428,24937,34254
33520,24848,34205
33504,24773,34284
33636,24747,34236
33372,24763,34284
33288,24832,34255
33184,24920,34297
33256,24988,34102
33312,25030,34285
33360,25005,34287
33373,24933,34348
33408,24840,34309
33596,24774,34311
33520,24739,34317
33440,24765,34261
33332,24839,34311
33157,24925,34277
33144,24997,34361
33238,25031,34425
33260,25007,34356
33252,24937,34281
33329,24844,34342
33388,24770,34259
33344,24736,34335
33232,24764,34353
33188,24839,34392
33244,24929,34261
33192,25000,34303
33164,25031,34196
33224,25009,34399
33328,24936,34452
33224,24852,34207
33180,24783,34442
33204,24745,34430
33196,24769,34373
33077,24838,34428
32968,24916,34420
32976,24991,34428
33040,25030,34437
33040,25017,34449
33088,24940,34532
33108,24855,34460
33110,24778,34472
33064,24747,34465
32968,24762,34348
32823,24836,34429
32704,24929,34425
32668,24998,34460
32762,25026,34533
32828,24999,34326
32884,24944,34447
32948,24857,34377
32932,24788,34455
32928,24749,34488
32888,24772,34244
32816,24839,34320
32752,24921,34238
32760,25001,34380
32792,25034,34276
32822,25008,34321
32888,24946,34232
32876,24856,34308
32849,24778,34229
32828,24743,34277
32792,24765,34188
32804,24825,34207
32836,24924,34254
32748,24999,34264
32712,25037,34325
32688,25012,34028
32836,24943,34173
33096,24853,34048
32952,24773,34117
33096,24748,34140
33096,24775,34055
32832,24837,33956
32704,24931,34063
32748,24996,33927
32746,25026,33990
32776,25008,33823
32800,24938,34055
32944,24853,33972
32956,24783,34004
32960,24750,33933
32981,24772,33764
32800,24834,33831
32744,24927,33669
32696,24999,33816
32824,25039,33640
32848,25009,33708
33000,24941,33620
33088,24849,33676
33120,24790,33596
33056,24746,33684
32900,24772,33620
32770,24836,33708
32708,24930,33501
32708,24984,33562
32728,25024,33511
32796,24996,33528
32896,24943,33497
32892,24860,33491
32916,24778,33377
32864,24748,33565
32776,24767,33533
32716,24828,33533
32700,24917,33292
32708,24996,33366
32736,25029,33245
32892,25016,33332
32992,24945,33237
32956,24854,33300
32896,24780,33295
32804,24741,33287
32700,24772,33260
32620,24836,33042
32586,24924,33084
32544,24996,32980
32562,25030,33031
32628,25014,32948
32728,24949,33036
32852,24849,32999
32844,24783,32800
32753,24740,32903
32676,24767,32932
32576,24836,32684
32545,24917,32726
32480,24991,32646
32580,25019,32724
32670,25012,32697
32796,24943,32525
32908,24860,32629
32996,24777,32484
33017,24745,32545
32972,24763,32351
32842,24836,32444
32777,24924,32472
32620,24988,32244
32566,25028,32287
32624,25004,32210
32768,24942,32298
32784,24858,32287
32800,24788,32255
32732,24751,32174
32645,24766,32068
32564,24831,32184
32544,24921,32148
32528,24989,31981
32600,25024,32108
32640,25010,31993
32728,24938,31988
32777,24853,31876
32824,24774,32000
32769,24746,31952
32684,24764,31855
32623,24831,31799
32520,24924,31830
32530,24998,31836
32632,25031,31868
32736,25007,31781
32869,24935,31661
32960,24861,31780
32864,24780,31712
32712,24740,31610
32624,24768,31593
32640,24834,31596
32656,24916,31509
32657,24997,31518
32612,25030,31588
32633,25013,31471
32708,24942,31580
32740,24858,31460
32820,24777,31495
32824,24744,31508
32728,24766,31495
32564,24833,31327
32470,24918,31412
32421,24994,31333
32536,25028,31405
32688,25017,31292
32824,24936,31388
32900,24852,31200
32892,24786,31332
32804,24743,31212
32672,24761,31188
32525,24834,31268
32360,24923,31156
32340,24991,31156
32417,25024,31057
32560,25012,31190
32680,24936,31185
32748,24860,31008
32692,24782,31051
32510,24743,31103
32386,24772,30948
32344,24829,30988
32276,24921,30911
32252,24991,31007
32360,25030,30905
32476,25009,31013
32612,24939,31017
32664,24863,30821
32608,24782,30910
32592,24742,30780
32616,24756,30884
32496,24832,30863
32381,24918,30855
32412,24990,30800
32489,25025,30645
32580,25015,30780
32592,24942,30660
32568,24860,30618
32576,24781,30711
32600,24742,30592
32576,24775,30587
32500,24837,30481
32348,24915,30589
32294,24991,30607
32324,25025,30400
32404,25017,30516
32496,24946,30503
32600,24860,30364
32760,24774,30349
32865,24750,30260
32816,24761,30396
32696,24825,30390
32604,24911,30236
32504,24991,30276
32464,25031,30150
32436,25010,30250
32500,24943,30262
32506,24863,30090
32512,24780,30204
32500,24740,30153
32384,24761,29998
32368,24818,30140
32448,24908,30061
32524,24992,29948
32688,25020,30030
32804,25002,29959
32832,24935,29940
32813,24852,29924
32773,24776,29804
32716,24747,29896
32600,24754,29786
32380,24820,29909
32308,24914,29903
32270,24985,29768
32300,25024,29774
32248,25005,29652
32176,24948,29692
32137,24857,29740
32144,24775,29749
32180,24748,29592
32160,24759,29700
32040,24829,29684
31732,24911,29525
31000,24996,29566
30044,25032,29543
28836,25021,29512
27560,24960,29501
26136,24868,29388
24564,24804,29528
23184,24785,29507
22260,24815,29359
21196,24868,29403
20480,24972,29290
21608,25047,29432
24889,25045,29357
29148,25028,29228
33644,24948,29356
37620,24860,29365
39728,24801,29332
39912,24752,29222
39116,24781,29208
37960,24828,29110
36780,24914,29210
35888,24984,29057
35169,25024,29130
34580,25012,29052
34088,24959,29156
33768,24856,29136
33488,24789,28968
33294,24748,29104
33196,24775,29080
33144,24827,29079
33092,24910,29064
32997,24991,28889
33012,25025,28997
33136,25012,28906
33204,24948,28993
33144,24864,29003
33072,24791,28972
33072,24740,28885
33120,24757,28844
33069,24823,28943
32900,24922,28810
32676,24985,28839
32652,25026,28773
32705,25008,28841
32880,24950,28725
32996,24853,28816
32980,24782,28692
32905,24748,28821
32820,24764,28712
32768,24823,28803
32660,24913,28779
32496,24986,28773
32420,25030,28684
32424,25012,28733
32492,24951,28655
32528,24855,28703
32485,24783,28660
32405,24753,28668
32344,24762,28676
32382,24828,28642
32340,24919,28628
32376,24986,28509
32416,25029,28525
32409,25008,28479
32428,24948,28573
32388,24869,28520
32396,24793,28540
32432,24753,28402
32352,24764,28533
32218,24827,28463
32100,24918,28487
32084,24992,28360
32156,25023,28484
32224,25012,28367
32232,24944,28413
32232,24868,28352
32220,24791,28412
32188,24753,28316
32164,24767,28464
32092,24821,28469
31944,24920,28495
31824,24993,28508
31846,25030,28505
31936,25014,28420
32072,24943,28333
32165,24855,28473
32136,24789,28347
32021,24746,28514
31846,24764,28529
31760,24824,28528
31661,24909,28559
31728,24995,28413
31880,25029,28558
31924,25012,28498
31888,24955,28408
31828,24864,28592
31752,24784,28535
31604,24756,28492
31452,24766,28636
31284,24825,28626
31136,24918,28507
31100,24992,28679
31172,25031,28593
31385,25017,28706
31564,24954,28684
31612,24863,28748
31584,24791,28626
31488,24747,28789
31354,24769,28833
31304,24820,28711
31302,24908,28815
31373,24996,28901
31472,25029,28794
31493,25022,28904
31496,24952,28805
31476,24869,28944
31488,24790,28847
31548,24750,28969
31572,24765,28842
31496,24831,28916
31408,24924,28943
31228,24989,28864
31072,25037,29032
30920,25018,29061
30984,24952,28938
31140,24864,28973
31292,24790,28956
31496,24748,29064
31618,24760,29050
31593,24831,29068
31492,24918,29046
31477,24992,28918
31621,25025,29029
31732,25023,29071
31725,24957,28956
31844,24864,29024
31844,24785,29070
31904,24758,28903
32084,24764,29053
32180,24820,28972
32175,24916,29007
32140,24986,28884
32042,25030,29040
31974,25015,28980
32164,24953,28885
32320,24871,29028
32376,24796,29012
32392,24752,28871
32420,24753,29015
32497,24823,28935
32576,24916,28860
32684,24989,29005
32740,25026,29024
32808,25017,28842
32876,24951,28997
32908,24865,29012
32948,24785,28853
32952,24748,28978
32877,24757,28898
32720,24817,28870
32704,24908,28992
32776,24986,28967
32764,25028,28844
32840,25010,29009
32964,24956,28974
33168,24861,29015
33244,24781,28877
33184,24740,29028
33116,24754,28948
32976,24823,28905
32928,24905,29036
32892,24978,29038
32792,25021,28911
32884,25010,29055
33032,24943,28984
33132,24844,28892
33220,24789,29056
33244,24743,29084
33148,24748,28943
33064,24823,29039
33020,24908,29092
32992,24976,28949
33024,25020,29073
33140,25007,29049
33248,24941,28945
33220,24853,29092
33184,24787,28992
33260,24740,29081
33244,24756,29028
33164,24810,29103
32908,24900,29040
32696,24971,29044
32608,25023,28978
32644,25004,29071
32748,24946,29028
32816,24849,28957
32816,24789,29000
32816,24741,28927
32840,24748,29063
32800,24815,29004
32744,24903,28966
32704,24972,28998
32774,25011,28903
32896,25007,28933
33036,24936,29031
33084,24848,29012
33045,24777,28898
32904,24732,28973
32724,24737,28981
32530,24812,28932
32400,24897,28928
32408,24976,28843
32508,25014,28959
32680,24994,28884
32772,24936,28964
32872,24855,28964
32892,24783,28856
32881,24733,28884
32772,24746,28813
32696,24802,28902
32729,24890,28797
32732,24976,28935
32868,25010,28924
32874,25000,28855
32804,24941,28970
32761,24852,28884
32720,24772,28974
32602,24725,28836
32580,24749,28892
32640,24811,28871
32724,24887,28879
32652,24971,28964
32592,25009,28807
32504,24999,28957
32548,24928,28943
32700,24857,28840
32708,24777,28988
32756,24733,28993
32772,24745,28903
32660,24800,28956
32480,24893,28984
32428,24964,28898
32468,25013,29007
32701,25007,28961
32920,24940,29063
33060,24844,29060
33044,24769,28924
32953,24743,29069
32788,24741,29094
32540,24806,28949
32368,24885,29047
32257,24977,29038
32220,25004,29023
32392,24996,29152
32704,24931,29108
32972,24857,29068
33072,24777,29186
33012,24735,29168
32860,24741,29052
32708,24803,29231
32572,24893,29224
32520,24965,29236
32606,25008,29156
32601,24996,29173
32600,24928,29285
32588,24860,29326
32564,24775,29166
32576,24734,29252
32592,24735,29306
32588,24807,29381
32557,24889,29241
32512,24943,29272
32564,25005,29428
32540,24988,29404
32620,24937,29333
32832,24854,29476
32900,24764,29480
32832,24721,29529
32592,24740,29360
32384,24799,29549
32336,24877,29551
32496,24967,29476
32820,25000,29501
32996,24988,29570
33100,24942,29586
33112,24853,29566
32944,24769,29607
32684,24733,29536
32552,24740,29667
32464,24791,29590
32396,24878,29687
32448,24967,29767
32512,25004,29780
32588,24997,29836
32588,24932,29764
32580,24845,29742
32572,24772,29906
32588,24727,29943
32578,24735,29810
32512,24797,29929
32460,24885,30016
32392,24958,29876
32533,25006,29982
32720,24999,29951
32824,24934,30002
32804,24847,29966
32853,24773,30116
32852,24726,30038
32688,24737,30165
32484,24799,30210
32344,24883,30128
32212,24964,30214
32276,25007,30172
32464,24996,30201
32612,24925,30287
32736,24849,30202
32856,24775,30388
32884,24733,30368
32792,24743,30300
32656,24792,30468
32572,24881,30497
32593,24957,30383
32632,24996,30551
32708,24986,30513
32728,24927,30447
32688,24849,30630
32600,24775,30557
32584,24724,30543
32572,24725,30606
32524,24804,30660
32512,24880,30724
32457,24960,30648
32328,25008,30799
32438,24996,30880
32612,24933,30727
32688,24846,30912
32760,24762,30898
32654,24725,30977
32484,24731,30844
32400,24793,30900
32348,24884,31024
32452,24959,31008
32612,25002,31097
32760,24997,30983
32832,24929,31040
32772,24846,31182
32800,24767,31120
32765,24724,31133
32692,24732,31171
32532,24800,31287
32428,24873,31239
32384,24952,31316
32340,24999,31224
32388,24995,31345
32404,24936,31329
32396,24847,31325
32320,24764,31404
32288,24729,31540
32328,24735,31419
32336,24792,31604
32340,24883,31609
32396,24959,31645
32504,25000,31577
32526,24986,31575
32671,24935,31769
32821,24844,31775
32756,24773,31816
32584,24724,31764
32460,24726,31913
32349,24789,31893
32288,24879,32007
32372,24956,31952
32412,24997,31911
32504,24993,32100
32572,24928,32037
32676,24852,32188
32701,24760,32072
32686,24718,32263
32648,24729,32222
32632,24791,32358
32668,24873,32233
32644,24953,32420
32704,24993,32434
32856,24996,32392
32880,24926,32537
32852,24851,32552
32798,24760,32460
32664,24731,32644
32580,24733,32607
32448,24786,32663
32348,24878,32662
32308,24956,32636
32288,24992,32837
32304,24993,32838
32388,24940,32854
32520,24847,32788
32456,24765,32877
32064,24721,32876
31372,24733,33045
30536,24793,33125
29416,24881,32959
28056,24974,33060
26644,25012,33167
25268,25019,33068
24012,24972,33252
23080,24884,33169
22116,24815,33295
21004,24772,33218
20976,24777,33260
23129,24832,33349
27024,24893,33438
31400,24961,33516
35732,25000,33380
38900,24982,33516
40048,24934,33671
39768,24850,33508
38909,24764,33721
37888,24719,33572
37024,24743,33736
36232,24791,33765
35545,24868,33845
34908,24949,33943
34316,24997,33713
33906,25001,33903
33692,24936,34036
33652,24846,33844
33568,24779,34048
33424,24729,34101
33256,24731,34013
33120,24781,34151
32998,24876,34240
32980,24953,34275
33116,24993,34207
33364,24996,34327
33508,24935,34239
33500,24846,34393
33480,24772,34485
33388,24729,34271
33260,24727,34477
33117,24793,34452
33048,24868,34596
33012,24958,34453
33013,24996,34619
33032,24997,34713
33036,24930,34460
33060,24857,34679
33128,24765,34764
33074,24724,34604
32952,24739,34749
32852,24783,34762
32732,24867,34812
32645,24950,34635
32672,24993,34839
32796,24984,34823
32892,24935,34791
32960,24851,34916
32940,24770,34840
32900,24716,35020
32844,24725,34917
32824,24785,34884
32732,24853,34833
32580,24941,35048
32560,24988,35028
32544,24996,35144
32628,24940,35009
32688,24848,35127
32676,24764,35041
32632,24727,35125
32608,24724,35180
32548,24775,35200
32424,24865,35174
32438,24945,35204
32488,24991,35040
32540,24996,35286
32609,24931,35233
32649,24848,35406
32640,24767,35161
32552,24719,35420
32512,24729,35404
32392,24777,35438
32332,24863,35519
32332,24950,35497
32296,24999,35620
32273,24991,35661
32309,24937,35571
32396,24851,35719
32468,24758,35657
32540,24725,35877
32428,24716,35780
32272,24751,35768
32104,24866,35714
32008,24945,35972
31968,24991,35972
32024,24989,36124
32072,24932,35982
32016,24852,36140
32044,24767,36077
32072,24725,36295
32004,24727,36158
31884,24783,36288
31780,24863,36332
31832,24949,36418
31846,24989,36487
31824,24987,36359
31912,24930,36520
31924,24848,36461
31969,24766,36564
31936,24727,36400
31829,24719,36679
31836,24784,36620
31620,24869,36844
31588,24945,36764
31640,25003,36578
31704,24990,36816
31784,24935,36996
31930,24844,36833
31976,24773,36724
31940,24717,37004
31856,24720,36999
31776,24780,37112
31660,24871,37046
31616,24948,36888
31572,24993,37151
31904,24994,37154
32169,24937,37181
32352,24853,37236
32356,24773,37005
32300,24724,37255
32140,24724,37255
32176,24780,37268
32168,24868,37228
32208,24945,37089
32236,24989,37338
32316,24997,37464
32424,24935,37321
32484,24848,37140
32544,24772,37423
32648,24725,37351
32821,24725,37398
32733,24774,37461
32704,24864,37548
32704,24949,37471
32728,24988,37233
32888,24989,37509
33108,24938,37586
33188,24852,37368
33228,24775,37532
33244,24721,37531
33264,24719,37415
33252,24772,37480
33304,24852,37677
33400,24945,37540
33492,24993,37556
33560,24985,37487
33536,24933,37604
33542,24844,37644
33588,24764,37500
33552,24716,37615
33505,24718,37663
33408,24775,37556
33344,24861,37353
33356,24935,37621
33425,24983,37613
33508,24985,37668
33528,24933,37540
33644,24849,37639
33648,24759,37569
33584,24724,37621
33628,24718,37621
33612,24764,37637
33548,24860,37576
33472,24938,37756
33512,24977,37595
33576,24983,37577
33616,24924,37585
33688,24847,37511
33788,24761,37684
33624,24716,37688
33576,24711,37757
33416,24775,37690
33204,24853,37633
33372,24934,37607
33352,24981,37607
33473,24986,37713
33604,24922,37701
33654,24853,37699
33560,24764,37607
33404,24717,37805
33384,24705,37732
33268,24779,37700
33148,24847,37621
33040,24930,37716
33089,24986,37676
33176,24981,37618
33256,24935,37820
33368,24839,37698
33384,24768,37623
33349,24717,37461
33276,24717,37484
33141,24774,37708
33069,24853,37780
33052,24935,37600
33012,24976,37691
33108,24989,37767
33236,24929,37580
33377,24859,37676
33404,24766,37661
33308,24721,37629
33220,24711,37588
33113,24773,37668
33056,24858,37639
33092,24948,37690
33036,24996,37508
32900,24989,37592
33100,24937,37543
33236,24848,37461
33208,24765,37564
33161,24724,37557
33080,24717,37535
33120,24769,37420
33021,24849,37229
32964,24941,37221
33012,24981,37455
33020,24994,37440
33200,24933,37332
33196,24855,37487
33244,24765,37412
33364,24717,37321
33016,24711,37110
32976,24764,37332
32964,24849,37235
32953,24901,37296
33036,24984,37378
33082,24993,37287
33122,24933,37284
33180,24855,37165
33244,24764,37085
33260,24720,36953
33200,24714,37153
33144,24768,37080
33068,24853,37147
33012,24937,37132
33000,24990,37006
33056,24980,36936
33044,24936,37004
33188,24855,36999
33168,24773,36938
33184,24721,36948
33214,24710,37008
33013,24768,36871
33036,24843,36809
32980,24940,36615
33064,24983,36838
33076,24978,36780
33144,24940,36828
33200,24855,36748
33364,24776,36512
33324,24724,36692
33404,24708,36669
33024,24764,36695
32980,24842,36599
32968,24935,36672
32900,24980,36645
32924,24989,36503
33000,24940,36332
33240,24856,36516
33220,24766,36494
33124,24731,36416
32952,24711,36517
32974,24770,36469
32936,24843,36312
32988,24924,36156
33008,24990,36360
33049,24982,36332
33128,24933,36372
33228,24849,36205
33292,24768,36303
33260,24711,36257
33180,24711,36224
33057,24759,36129
32908,24852,36296
32856,24927,36164
32832,24985,35956
32984,24980,36069
33044,24933,36231
33094,24859,36016
33168,24766,36113
33088,24715,36012
33056,24709,36144
33016,24768,35852
33024,24844,36048
32888,24932,36103
32996,24975,35836
33052,24977,35993
33028,24935,36038
33216,24856,35996
33228,24768,35898
33116,24709,36060
33036,24716,35933
33104,24758,35861
32896,24847,35773
32824,24925,35935
32864,24978,35821
32932,24985,35980
33060,24932,35791
33256,24849,35876
33264,24772,35769
33229,24718,35842
33156,24709,35828
33080,24757,35860
33060,24849,35696
32908,24935,35789
32804,24977,35692
32772,24983,35824
32920,24930,35637
33113,24852,35523
33102,24770,35711
33056,24713,35600
32996,24708,35610
32784,24768,35684
32704,24844,35680
32704,24925,35612
32724,24974,35624
32736,24991,35580
32896,24933,35662
32920,24845,35572
33025,24771,35396
32956,24713,35582
32824,24704,35505
32768,24757,35456
32736,24823,35428
32708,24927,35525
32844,24971,35555
32822,24975,35504
32812,24930,35408
32960,24844,35302
33104,24770,35496
33008,24717,35501
32892,24700,35423
32764,24759,35534
32772,24839,35516
32652,24929,35463
32644,24981,35297
32768,24978,35463
32788,24935,35365
32808,24849,35525
32988,24770,35312
33045,24704,35424
32896,24704,35415
32840,24748,35301
32876,24835,35297
32840,24917,35445
32876,24978,35380
33100,24972,35335
33164,24930,35372
33036,24856,35365
33021,24758,35231
33092,24714,35129
32994,24697,35353
32877,24749,35236
32856,24839,35324
32752,24912,35247
32832,24980,35184
32932,24972,35077
33264,24928,35297
33152,24854,35260
33236,24764,35220
33288,24704,35220
33196,24701,35252
33074,24746,35201
32966,24836,35296
32820,24916,35100
32804,24979,35205
32892,24972,35140
32976,24923,35056
32992,24839,35188
33048,24756,35089
33054,24711,35205
32932,24703,35057
32778,24753,34987
32592,24831,35108
32456,24920,34997
32532,24953,35096
32508,24983,35020
32564,24935,34830
32316,24843,34999
31754,24769,35085
30604,24716,34996
29292,24708,35055
27912,24764,34836
26400,24848,34956
24868,24933,34942
23720,25016,34852
22856,25022,34689
22038,24988,34855
21764,24876,34801
23464,24788,34862
26834,24730,34796
30844,24712,34852
34968,24756,34608
38484,24820,34768
39976,24937,34804
39992,24979,34702
39328,24964,34549
38294,24948,34640
37332,24861,34644
36484,24774,34724
35916,24710,34640
35168,24716,34767
34632,24751,34539
34092,24827,34663
33565,24921,34561
33588,24975,34564
33460,24991,34619
33604,24937,34618
33876,24857,34580
33864,24767,34596
33740,24704,34392
33676,24704,34561
33628,24749,34449
33576,24827,34573
33324,24918,34559
33336,24980,34511
33416,24982,34546
33432,24936,34564
33568,24850,34465
33624,24770,34380
33568,24711,34333
33444,24706,34298
33416,24747,34481
33484,24836,34375
33288,24914,34500
33384,24964,34396
33244,24975,34301
33252,24928,34279
33440,24855,34421
33356,24768,34420
33264,24711,34357
33292,24696,34391
33130,24757,34196
33152,24827,34356
33150,24911,34439
33134,24972,34237
33136,24979,34365
33204,24927,34258
33212,24849,34389
33220,24758,34208
33245,24710,34145
33140,24700,34334
32984,24756,34305
32852,24828,34223
32980,24911,34192
33032,24966,34324
32900,24982,34287
32972,24928,34192
32980,24844,34328
33112,24774,34245
33021,24711,34376
32884,24694,34192
32696,24750,34136
32580,24820,34356
32752,24915,34273
32580,24967,34263
32608,24976,34205
32852,24927,34352
32964,24850,34428
32952,24765,34297
33124,24696,34264
32908,24698,34238
32736,24741,34383
32456,24821,34484
32436,24912,34281
32606,24959,34429
32576,24982,34402
32548,24929,34488
32526,24853,34239
32592,24761,34444
32556,24708,34396
32560,24703,34407
32432,24740,34461
32244,24826,34407
32156,24916,34386
32116,24965,34311
32304,24982,34492
32428,24928,34484
32548,24860,34524
32444,24765,34527
32317,24704,34402
32240,24708,34540
32025,24743,34541
31972,24819,34460
32108,24911,34569
32140,24970,34660
32098,24977,34591
32058,24935,34451
32032,24853,34648
32336,24767,34591
32462,24707,34717
32224,24706,34630
32121,24745,34535
32073,24822,34745
31928,24906,34782
32089,24971,34664
32137,24982,34805
32280,24930,34804
32108,24865,34822
32320,24765,34822
32368,24717,34817
32184,24700,34773
32220,24755,34796
32180,24823,34780
32262,24908,34744
32188,24967,34983
32232,24979,34969
32384,24933,34967
32596,24856,35004
32736,24762,35020
32677,24712,34926
32712,24701,34919
32736,24752,34853
32536,24821,35079
32604,24911,35092
32596,24967,34993
32636,24967,35015
32832,24943,35183
33016,24850,35140
33025,24780,35008
33020,24712,34929
33048,24695,35151
33016,24744,35149
32964,24819,35092
33076,24917,35236
33036,24967,35127
33048,24969,34997
33272,24941,35180
33336,24857,35196
33422,24764,35074
33444,24711,34977
33569,24705,35206
33400,24743,35201
33468,24818,35192
33376,24909,35183
33580,24958,35245
33568,24983,35101
33688,24932,35058
33728,24859,35006
33832,24765,35191
34008,24694,35279
33784,24693,35156
33628,24733,35101
33624,24820,35021
33592,24901,35209
33628,24962,35200
33728,24967,35137
33813,24934,35164
33892,24852,35229
33868,24758,35157
33840,24708,35097
33704,24690,35072
33656,24741,34981
33553,24804,35202
33724,24897,35162
33684,24959,35159
33640,24972,35140
33768,24927,35240
33870,24857,35078
33960,24766,35171
33844,24703,35140
33708,24698,35124
33722,24735,35206
33624,24817,35079
33661,24900,35008
33748,24956,35148
33548,24965,35200
33512,24930,34997
33624,24853,34929
33757,24765,35125
33785,24705,35024
33896,24697,35144
33660,24733,34960
33648,24809,35100
33449,24906,34999
33508,24964,35154
33380,24970,34964
33432,24934,35084
33544,24850,34980
33544,24763,35076
33576,24714,34932
33480,24694,35039
33396,24727,35092
33252,24809,34972
33196,24900,34871
33241,24958,35007
33328,24972,34903
33384,24929,35026
33424,24851,34840
33525,24775,34744
33352,24711,34932
33416,24692,34893
33572,24732,34950
33236,24810,34869
33152,24895,34756
33060,24957,34852
33212,24968,34817
33328,24933,34823
33352,24847,34812
33492,24758,34641
33304,24704,34792
33440,24690,34791
33204,24735,34665
33062,24808,34535
33108,24895,34724
33104,24961,34713
33148,24968,34644
33168,24924,34693
33244,24847,34473
33284,24771,34598
33332,24709,34694
33200,24694,34493
33162,24732,34634
33100,24801,34551
33156,24903,34665
33116,24955,34578
33196,24967,34425
33208,24924,34524
33352,24852,34535
33597,24770,34396
33484,24702,34551
33296,24698,34519
33252,24729,34583
33148,24805,34521
33012,24893,34519
33216,24946,34384
33388,24974,34472
33460,24924,34553
33340,24846,34383
33256,24763,34273
33308,24711,34445
33229,24689,34432
32788,24741,34421
33092,24804,34310
33169,24893,34439
33204,24961,34380
33132,24975,34468
33280,24929,34429
33232,24846,34287
33145,24769,34232
33432,24704,34404
33252,24676,34364
33120,24729,34298
33100,24813,34420
32952,24896,34439
32980,24950,34252
33012,24978,34204
33228,24924,34176
33588,24848,34339
33216,24767,34352
33272,24703,34340
33245,24682,34284
33097,24729,34100
33100,24807,34296
33177,24893,34220
33008,24949,34333
32984,24972,34248
33148,24924,34077
33204,24839,34234
33104,24767,34264
33120,24699,34136
33420,24695,34236
33056,24724,34204
32976,24796,34272
32952,24892,34069
32944,24952,34196
33036,24959,34223
33076,24925,34054
33028,24839,34183
33129,24768,34079
33128,24701,34212
33264,24688,34037
33384,24724,33974
32984,24801,34062
32888,24884,34044
32996,24952,34151
32780,24968,34023
33100,24918,34060
33104,24847,33925
33164,24755,34106
33248,24704,34001
33220,24682,34113
33150,24718,33916
32918,24801,34069
32952,24880,34084
32793,24945,34055
32864,24958,33836
32885,24932,34014
33028,24845,33948
33108,24773,34052
33065,24700,33860
33030,24677,33788
33036,24725,33964
32904,24796,33952
32860,24888,33831
32944,24951,33956
32960,24964,33812
32976,24927,33884
33070,24838,33785
33104,24760,33900
33092,24699,33824
33008,24679,33720
32908,24717,33756
32833,24795,33828
32884,24884,33617
32816,24949,33740
32800,24967,33705
32900,24924,33757
32980,24839,33796
33090,24754,33543
33024,24702,33725
32948,24676,33532
32856,24716,33692
32824,24802,33727
32600,24884,33519
32564,24946,33663
32668,24966,33557
32701,24920,33496
32724,24844,33626
32892,24758,33654
32952,24700,33448
32952,24685,33446
32896,24723,33576
32764,24795,33486
32652,24879,33580
32552,24947,33540
32524,24961,33377
32628,24931,33343
32800,24844,33318
32849,24768,33472
32817,24696,33429
32876,24676,33343
32872,24727,33473
32829,24800,33276
32828,24876,33393
32896,24955,33289
33016,24967,33304
33068,24932,33332
33068,24850,33269
33005,24757,33184
32904,24705,33319
32829,24676,33223
32768,24721,33316
32668,24793,33230
32628,24882,33124
32680,24941,33064
32820,24964,33221
32836,24928,33272
32950,24855,33105
33012,24759,33028
32952,24703,33196
32908,24675,33084
32806,24719,33124
32772,24796,32996
32640,24877,33140
32676,24944,33124
32752,24959,32973
32812,24932,33090
32856,24852,33078
32820,24759,32964
32681,24700,33026
32617,24679,32969
32472,24723,32969
32308,24795,32801
32356,24879,32927
32489,24939,32927
32464,24966,32720
32548,24918,32681
32400,24839,32796
32621,24767,32743
32484,24700,32593
31892,24679,32702
31100,24716,32759
29940,24800,32519
28572,24877,32642
27220,24953,32630
25780,24991,32440
24342,24945,32453
23412,24884,32377
22584,24815,32501
21752,24735,32398
22028,24718,32316
24318,24743,32420
27976,24815,32304
32100,24880,32208
36264,24946,32304
39204,24959,32200
40220,24922,32244
39856,24841,32303
38760,24772,32085
37612,24694,32192
36552,24692,32200
35576,24724,32005
34864,24792,32124
34222,24881,32165
33769,24948,31959
33552,24966,32084
33512,24926,31966
33216,24848,31888
33380,24767,32007
33396,24696,31911
33309,24684,31966
33272,24717,31956
33140,24786,31837
33056,24879,31916
32976,24937,31822
33140,24961,31717
33100,24929,31846
33212,24850,31788
33304,24756,31741
33356,24696,31652
33249,24677,31793
33120,24711,31681
33033,24791,31713
32950,24873,31572
32948,24935,31669
32972,24959,31745
33100,24922,31552
33150,24839,31669
33100,24764,31653
33056,24698,31513
32988,24673,31616
32885,24702,31577
32820,24789,31448
32796,24873,31454
32908,24940,31560
33036,24959,31460
33172,24917,31513
33248,24842,31375
33316,24756,31521
33344,24691,31412
33324,24678,31492
33200,24710,31348
33104,24775,31312
33008,24884,31476
32836,24940,31400
32634,24953,31489
32652,24923,31343
32704,24848,31291
32728,24761,31425
32706,24696,31401
32680,24673,31404
32625,24704,31259
32552,24782,31389
32508,24868,31441
32493,24933,31239
32532,24957,31234
32533,24917,31391
32552,24848,31292
32524,24753,31332
32492,24692,31212
32416,24665,31380
32372,24701,31349
32264,24788,31281
32132,24868,31407
32152,24933,31208
32324,24958,31349
32496,24918,31281
32552,24852,31369
32596,24753,31193
32517,24684,31342
32404,24677,31321
32368,24697,31239
32372,24773,31344
32320,24869,31305
32276,24925,31264
32388,24952,31220
32496,24916,31322
32540,24840,31376
32510,24755,31222
32421,24684,31298
32213,24665,31221
32128,24702,31311
31976,24773,31301
31860,24865,31396
31872,24935,31350
31912,24952,31326
31936,24914,31415
31966,24839,31449
32002,24756,31279
32076,24681,31438
32068,24671,31397
32000,24697,31469
31884,24777,31285
31785,24861,31446
31780,24933,31420
31824,24949,31402
31904,24916,31350
32048,24839,31455
32092,24757,31362
32036,24693,31482
31965,24665,31297
31944,24696,31457
32036,24779,31364
32052,24859,31487
32044,24928,31309
32077,24949,31453
32148,24913,31328
32248,24844,31281
32316,24752,31432
32256,24699,31321
32184,24665,31408
32196,24697,31236
32169,24774,31381
32230,24860,31399
32360,24932,31264
32500,24948,31196
32644,24919,31351
32738,24836,31268
32716,24749,31196
32685,24693,31132
32668,24662,31284
32676,24700,31229
32688,24766,31279
32672,24854,31078
32705,24919,31074
32820,24944,31177
32956,24900,31192
33113,24828,31017
33173,24753,31158
33188,24685,31180
33216,24652,30994
33156,24687,30976
33140,24759,31067
33136,24854,31094
33065,24922,30951
33086,24938,31034
33184,24917,30969
33445,24825,31020
33620,24735,31021
33616,24681,31030
33513,24645,30929
33432,24692,30861
33452,24759,30980
33624,24852,30888
33754,24912,30967
33800,24943,30814
33736,24901,30934
33657,24819,30964
33696,24748,30772
33689,24676,30927
33648,24651,30861
33568,24679,30925
33488,24750,30745
33416,24848,30885
33388,24910,30892
33416,24937,30709
33472,24897,30855
33620,24829,30808
33672,24733,30796
33644,24675,30660
33566,24651,30813
33369,24679,30774
33260,24754,30720
33181,24836,30613
33164,24907,30764
33181,24933,30672
33276,24892,30774
33216,24830,30581
33253,24736,30712
33377,24665,30684
33438,24641,30528
33340,24672,30513
33284,24750,30620
33181,24839,30567
33148,24903,30456
33240,24933,30576
33328,24901,30500
33376,24815,30511
33444,24740,30400
33564,24675,30348
33568,24637,30450
33396,24672,30349
33140,24743,30357
33020,24837,30253
33100,24895,30340
33236,24928,30372
33268,24893,30168
33285,24816,30308
33302,24735,30222
33302,24656,30260
33324,24651,30092
33354,24675,30188
33276,24741,30174
33084,24827,30060
33048,24903,30185
33076,24924,30097
33034,24894,30160
33076,24813,29983
33140,24735,30024
33252,24662,30061
33232,24647,30119
33200,24667,29995
33060,24735,29972
32868,24832,30071
32760,24897,29980
32828,24918,30009
32920,24892,29943
33048,24822,30007
33234,24735,29981
33268,24669,29873
33288,24633,29889
33216,24669,29997
33124,24740,30036
32929,24824,29892
32808,24892,30017
32772,24917,29991
32788,24893,29990
33032,24815,29815
33248,24717,29959
33304,24666,29940
33268,24639,29792
33136,24662,29930
33072,24741,29847
33104,24823,29916
33088,24889,29761
33076,24916,29881
33142,24893,29885
33184,24820,29771
33086,24719,29885
32956,24662,29807
32768,24635,29830
32670,24668,29745
32736,24741,29793
32820,24818,29793
32852,24888,29865
33004,24919,29788
33152,24884,29736
33192,24804,29769
33176,24732,29812
33172,24654,29854
33112,24623,29734
33008,24665,29701
32916,24735,29807
32804,24812,29744
32732,24888,29836
32728,24915,29680
32788,24875,29826
32928,24808,29765
33084,24726,29831
33092,24654,29658
32912,24623,29804
32841,24660,29725
32816,24721,29736
32781,24823,29686
32820,24888,29797
32973,24907,29727
33072,24885,29817
33232,24801,29770
33292,24720,29626
33140,24655,29641
33018,24621,29780
32900,24658,29694
32676,24719,29788
32612,24807,29620
32608,24888,29631
32704,24903,29772
32884,24884,29689
32998,24804,29665
33018,24712,29638
33076,24654,29757
32944,24626,29674
32768,24647,29766
32736,24727,29637
32800,24812,29617
32904,24873,29756
33008,24907,29700
33004,24873,29748
33041,24805,29653
33132,24712,29612
33148,24655,29748
33092,24623,29733
32864,24661,29689
32608,24724,29741
32498,24809,29713
32472,24881,29580
32481,24900,29732
32672,24876,29718
32798,24805,29636
32856,24720,29700
32776,24647,29733
32616,24624,29625
32548,24655,29711
32632,24716,29620
32672,24806,29663
32640,24872,29551
32780,24901,29664
32976,24873,29700
33000,24797,29519
32861,24716,29686
32640,24644,29628
32461,24612,29516
32366,24648,29681
32364,24714,29636
32484,24804,29649
32576,24863,29609
32676,24900,29543
32660,24868,29684
32548,24805,29599
32368,24721,29697
32332,24640,29540
32464,24621,29682
32549,24643,29703
32528,24711,29552
32448,24804,29685
32430,24879,29664
32476,24901,29711
32544,24870,29629
32616,24804,29700
32729,24705,29684
32916,24653,29591
33058,24614,29749
33006,24644,29676
32884,24719,29703
32720,24798,29791
32744,24862,29630
32852,24902,29661
32900,24861,29796
32856,24806,29724
32756,24711,29815
32604,24652,29657
32424,24607,29837
32300,24632,29789
32336,24715,29742
32356,24793,29877
32468,24866,29869
32652,24898,29880
32884,24861,29745
32992,24801,29918
32988,24711,29900
32896,24636,29881
32748,24614,29784
32624,24637,29964
32516,24711,29949
32388,24793,29828
32308,24865,29999
32484,24901,30042
32736,24868,29900
32944,24789,30050
33024,24704,30006
33017,24640,29990
32924,24612,30100
32724,24643,30117
32472,24716,29984
32353,24793,30156
32332,24860,30094
32305,24893,30084
32408,24860,30052
32520,24793,30202
32500,24709,30162
32192,24641,30205
31604,24612,30107
30768,24637,30268
29748,24711,30192
28524,24796,30263
27184,24877,30168
25796,24905,30310
24492,24909,30324
23436,24826,30213
22316,24756,30337
21142,24680,30407
20974,24639,30258
23076,24681,30392
26948,24714,30453
31280,24798,30300
35576,24868,30346
38741,24900,30444
39904,24894,30480
39628,24797,30528
38878,24700,30372
37864,24653,30544
36976,24612,30505
36148,24625,30437
35368,24697,30596
34628,24789,30532
34044,24857,30565
33764,24900,30674
33720,24861,30679
33660,24798,30703
33596,24706,30616
33342,24633,30621
33200,24615,30755
33068,24631,30829
33120,24692,30805
33224,24789,30709
33324,24857,30790
33329,24892,30845
33408,24860,30932
33520,24798,30814
33464,24703,30996
33240,24641,30973
32992,24607,31056
32720,24622,30916
32564,24705,30997
32528,24788,31054
32624,24854,30983
32832,24889,31156
33020,24877,31119
33028,24785,31140
33120,24705,31111
33165,24634,31228
33012,24593,31181
32844,24629,31103
32608,24697,31260
32440,24780,31184
32396,24861,31301
32492,24880,31319
32660,24863,31359
32824,24794,31399
32920,24703,31401
32888,24638,31453
32844,24604,31295
32764,24625,31364
32577,24697,31456
32404,24786,31367
32246,24855,31424
32364,24884,31400
32585,24862,31556
32808,24788,31612
32917,24695,31446
32788,24636,31633
32576,24604,31661
32456,24620,31529
32333,24688,31607
32218,24776,31572
32149,24860,31748
32176,24886,31750
32348,24852,31653
32496,24797,31793
32612,24703,31816
32620,24624,31914
32516,24593,31988
32324,24626,32005
32204,24699,31948
32184,24772,31934
32164,24852,32113
32236,24883,32196
32364,24859,32221
32484,24783,32207
32474,24697,32351
32357,24628,32208
32109,24598,32408
31968,24620,32438
31940,24692,32411
31897,24774,32590
31928,24844,32497
31904,24878,32486
31840,24860,32669
31837,24789,32799
31784,24703,32661
31804,24633,32860
31860,24596,32958
31857,24619,32804
31840,24692,32993
31837,24786,32967
31796,24850,33129
31772,24885,33130
31792,24855,33295
31868,24791,33170
31904,24697,33188
31889,24631,33375
31816,24605,33509
31740,24628,33407
31752,24692,33600
31692,24769,33716
31640,24844,33529
31605,24880,33765
31608,24856,33724
31692,24783,33847
31812,24701,33749
31892,24632,34002
31973,24596,33996
32000,24624,34000
31900,24689,34181
31824,24772,34124
31876,24855,34180
31972,24885,34346
32016,24861,34373
32068,24785,34503
32160,24711,34384
32320,24634,34548
32356,24600,34663
32396,24616,34524
32336,24693,34636
32328,24777,34669
32404,24851,34744
32550,24876,34785
32576,24860,34887
32632,24781,34904
32640,24693,35031
32672,24636,34981
32640,24598,35016
32592,24615,35148
32572,24691,35181
32534,24773,35065
32608,24845,35185
32760,24876,35330
32984,24859,35151
33180,24789,35318
33293,24698,35332
33309,24620,35481
33264,24583,35544
33156,24614,35344
33016,24684,35564
33036,24765,35687
33200,24848,35506
33264,24879,35685
33344,24844,35788
33496,24785,35588
33605,24701,35724
33660,24621,35764
33604,24583,35879
33512,24619,35902
33404,24676,35967
33380,24770,35880
33407,24839,36024
33413,24867,35960
33516,24858,36064
33632,24780,35894
33744,24699,36137
33868,24618,36092
33868,24583,36133
33780,24601,36037
33652,24672,36236
33580,24763,36229
33572,24836,36337
33528,24868,36284
33592,24841,36423
33660,24782,36262
33680,24694,36416
33696,24624,36388
33676,24593,36431
33624,24603,36516
33492,24676,36481
33308,24762,36534
33208,24831,36352
33265,24869,36534
33348,24845,36508
33437,24785,36551
33544,24694,36556
33604,24614,36692
33558,24583,36709
33512,24605,36621
33404,24677,36740
33316,24760,36660
33327,24838,36678
33406,24868,36788
33484,24833,36927
33532,24776,36749
33525,24699,36836
33444,24620,36849
33364,24580,36647
33348,24599,36900
33332,24668,37017
33312,24764,36847
33292,24836,36956
33296,24862,36942
33437,24836,37029
33476,24772,37021
33432,24684,36904
33364,24616,37004
33328,24583,36985
33324,24600,37121
33240,24668,36893
33100,24757,37031
33128,24834,37125
33208,24863,36974
33208,24839,37085
33352,24775,37156
33508,24692,36989
33528,24615,37127
33524,24576,37188
33468,24601,37047
33361,24671,37140
33289,24749,37230
33324,24836,36919
33424,24865,37172
33396,24813,37100
33338,24781,37260
33484,24684,37012
33508,24621,37223
33448,24583,37127
33337,24604,37225
33316,24665,37220
33276,24760,37145
33276,24833,37156
33336,24869,37260
33412,24839,37222
33424,24773,37167
33404,24688,37357
33408,24616,37096
33392,24576,37279
33408,24596,37355
33376,24676,37169
33300,24759,37276
33332,24825,37373
33340,24856,37068
33420,24845,37284
33556,24776,37316
33664,24685,37172
33648,24612,37288
33618,24583,37261
33596,24597,37276
33464,24662,37013
33360,24750,37271
33276,24834,37221
33368,24861,37237
33500,24837,37279
33628,24767,37348
33716,24695,37076
33796,24622,37196
33752,24583,37277
33668,24597,37014
33568,24663,37156
33572,24736,37346
33572,24818,37188
33604,24861,37111
33524,24845,37225
33580,24777,37262
33596,24684,37247
33725,24614,37156
33692,24581,37308
33569,24604,37143
33480,24665,36988
33480,24751,37247
33473,24829,37156
33533,24861,37351
33585,24847,37308
33669,24774,37217
33824,24686,37061
33740,24623,37268
33724,24582,37220
33612,24598,37305
33544,24668,37284
33488,24741,37255
33452,24831,37168
33504,24867,37273
33564,24855,37282
33657,24769,37277
33812,24700,37257
33804,24612,37204
33774,24580,37372
33760,24605,37236
33589,24668,37025
33476,24748,37263
33592,24827,37296
33716,24865,37175
33709,24839,37268
33701,24788,37202
33732,24695,37227
33732,24609,37001
33676,24594,37239
33600,24604,37345
33528,24662,37039
33464,24759,37247
33484,24826,37313
33548,24860,36999
33732,24844,37140
33788,24784,37228
33896,24699,37232
33924,24625,37280
33848,24583,36969
33716,24601,37133
33548,24673,37214
33400,24752,37205
33384,24820,37103
33488,24864,37277
33584,24841,37108
33760,24789,37196
33904,24689,37093
33920,24635,37088
33952,24594,37108
33944,24600,37069
34076,24676,37087
34020,24759,37079
34008,24820,37157
33948,24871,37143
33892,24847,37188
33944,24778,37244
33880,24701,36991
33937,24621,37164
33921,24596,37071
33836,24608,37221
33880,24664,37125
33961,24759,36982
33972,24834,37117
33948,24879,37060
34060,24855,37181
34128,24781,36999
34184,24702,37096
34356,24624,37007
34424,24600,37080
34232,24609,36933
34145,24663,37016
34064,24761,36932
34016,24839,37079
33990,24868,36887
34084,24855,36941
34172,24787,36855
34204,24697,36900
33956,24621,36648
34060,24583,36772
34032,24612,36743
33816,24679,36809
33686,24764,36844
33676,24832,36540
33712,24874,36716
33848,24861,36592
33788,24788,36684
33428,24710,36644
32712,24633,36428
31740,24597,36568
30372,24612,36612
28956,24685,36557
27493,24780,36604
26076,24865,36304
25013,24900,36368
24056,24887,36325
23060,24836,36409
23036,24755,36380
25060,24652,36240
28744,24612,36308
33220,24622,36352
37196,24684,36053
40252,24761,36166
41552,24829,36113
41220,24894,36188
40532,24869,36236
39520,24784,36044
38630,24718,36132
37780,24620,36069
36910,24601,36088
36144,24604,36086
35670,24689,35900
35280,24757,36000
35096,24845,35893
34976,24883,36040
34960,24852,35719
35069,24804,35894
35156,24709,35956
35104,24630,35756
34948,24605,35717
35012,24631,35612
35020,24681,35820
34806,24749,35772
34692,24839,35726
34620,24871,35785
34652,24866,35776
34744,24791,35616
34836,24716,35705
34800,24637,35689
34734,24595,35718
34669,24621,35617
34636,24672,35542
34484,24768,35412
34476,24839,35609
34548,24871,35559
34532,24869,35604
34608,24800,35450
34660,24717,35327
34732,24642,35532
34672,24594,35428
34600,24620,35556
34444,24675,35353
34340,24773,35471
34148,24845,35428
34280,24885,35324
34296,24860,35389
34332,24807,35425
34420,24710,35264
34496,24640,35353
34352,24596,35329
34208,24620,35384
34084,24677,35294
33924,24774,35154
33900,24844,35292
33980,24877,35335
34044,24881,35152
34136,24811,35180
34240,24716,35164
34240,24644,35259
34096,24607,35301
33960,24613,35095
33832,24688,35206
33716,24771,35224
33636,24839,35268
33660,24891,35180
33714,24876,34988
33720,24802,35204
33908,24719,35160
33844,24642,35268
33932,24613,35136
33772,24628,35039
33544,24684,35190
33448,24774,35181
33404,24853,35153
33381,24878,35247
33492,24880,35069
33724,24804,35191
33665,24724,35161
33665,24662,35040
33492,24612,35153
33425,24626,35137
33260,24693,35116
33232,24776,35047
33197,24855,35175
33216,24893,35110
33244,24879,34901
33224,24818,35125
33288,24732,35049
33298,24652,35156
33252,24617,34989
33184,24629,34884
33036,24700,35105
32928,24780,35066
32868,24858,35020
32941,24905,35146
32893,24887,34988
33008,24820,34895
33096,24736,35108
33268,24652,35088
33128,24626,35004
32996,24633,35164
32828,24703,35069
32856,24776,34884
32845,24857,35101
32836,24896,35069
32944,24890,35068
32900,24825,34973
32980,24734,35112
32960,24665,35108
33012,24615,35020
33032,24638,34980
32996,24711,35119
32808,24786,35092
32816,24864,35202
32872,24901,35012
33100,24896,35133
33156,24830,35033
33188,24741,35181
33236,24668,35023
33180,24627,35151
33152,24636,35124
33040,24708,35005
32972,24793,35157
32984,24879,35060
33016,24909,35177
33109,24893,34949
33452,24832,35117
33432,24749,35092
33488,24670,35193
33500,24628,34936
33528,24644,35120
33488,24702,35199
33472,24789,35039
33330,24875,34928
33376,24904,35055
33528,24895,35121
33600,24836,34949
33772,24745,35157
33808,24682,35108
33932,24632,35193
33740,24644,35044
33692,24704,35172
33776,24799,35172
33586,24871,35136
33632,24910,35200
33736,24900,35078
33856,24838,34989
33908,24748,35144
33884,24677,35136
33844,24637,35204
33740,24652,35191
33736,24708,35120
33676,24790,35036
33724,24876,34941
33868,24911,35152
33872,24909,35132
33948,24839,35124
34124,24764,35106
34020,24684,35207
33940,24631,35038
33952,24646,35148
33822,24709,35101
33740,24788,35040
33710,24876,35208
33784,24908,35068
33852,24913,35023
33644,24841,34933
33760,24757,34928
33900,24679,35132
33872,24646,35132
33716,24655,35050
33600,24707,35097
33476,24800,34916
33441,24872,35118
33476,24904,35151
33628,24914,35068
33698,24850,34893
33720,24760,35105
33580,24687,35079
33448,24641,35061
33452,24655,35132
33288,24711,34951
33216,24805,34868
33148,24885,35039
33134,24918,35124
33232,24917,34973
33264,24853,34917
33324,24771,35052
33364,24694,34955
33288,24657,35116
33241,24664,35077
33113,24724,34941
33032,24797,34838
32940,24889,35012
32764,24930,34909
33028,24912,35045
33030,24860,35005
33132,24766,34915
33208,24705,34748
33120,24641,34919
33026,24669,34817
32864,24720,34919
32676,24802,34759
32985,24880,34669
32816,24925,34644
32824,24924,34816
32789,24874,34816
33040,24780,34788
33128,24711,34788
32972,24656,34785
32884,24671,34745
32800,24721,34738
32812,24813,34628
32656,24886,34724
32664,24941,34734
32688,24924,34641
32820,24873,34680
32784,24785,34684
32688,24710,34606
32840,24660,34731
32724,24672,34529
32623,24735,34641
32540,24819,34540
32540,24889,34557
32596,24939,34609
32644,24935,34495
32426,24871,34608
32712,24788,34500
32804,24702,34412
32665,24670,34552
32588,24672,34501
32508,24732,34436
32420,24817,34476
32484,24893,34365
32604,24940,34268
32612,24936,34463
32532,24876,34354
32736,24789,34459
32728,24711,34292
32770,24671,34213
32520,24672,34348
32468,24741,34381
32400,24825,34366
32404,24901,34192
32356,24953,34343
32412,24943,34308
32448,24878,34254
32481,24799,34300
32620,24716,34252
32756,24670,34205
32745,24687,34145
32564,24745,34082
32420,24804,34252
32444,24901,34236
32417,24951,34183
32544,24948,34108
32616,24889,34185
32800,24797,34093
32564,24729,34173
32564,24681,34070
32529,24686,34125
32496,24741,34012
32340,24827,34127
32540,24909,34101
32496,24959,34012
32604,24948,34097
32420,24887,33894
32624,24806,34013
32640,24727,34070
32628,24684,34060
32572,24696,33886
32436,24753,34031
32388,24832,33984
32148,24921,34000
32248,24965,33872
32132,24956,33984
32232,24901,33873
32360,24808,33994
32404,24733,33805
32296,24691,33745
32222,24694,33919
32084,24756,33814
32092,24839,33916
32068,24920,33748
31912,24966,33687
31984,24967,33873
32061,24899,33766
32144,24820,33839
32004,24742,33780
31988,24692,33629
31840,24711,33790
31673,24759,33703
31520,24851,33725
31584,24933,33775
31712,24970,33728
31780,24967,33780
31844,24919,33600
31853,24824,33553
31945,24751,33709
31756,24701,33668
31660,24711,33716
31608,24768,33533
31364,24855,33668
31412,24935,33625
31429,24982,33685
31484,24978,33517
31436,24924,33441
31609,24836,33614
31786,24757,33559
31597,24709,33580
31764,24715,33589
31508,24777,33405
31397,24865,33477
31464,24936,33559
31501,24983,33380
31532,24981,33549
31724,24925,33604
31916,24844,33394
32085,24761,33540
31876,24719,33525
31828,24720,33374
31952,24773,33524
31804,24863,33420
31648,24945,33508
31698,24988,33318
31776,24982,33508
31912,24929,33389
32074,24855,33477
32048,24767,33355
31960,24721,33497
32076,24722,33487
31752,24783,33381
32041,24868,33488
31892,24946,33324
32065,24991,33319
32308,24997,33458
32238,24932,33455
32311,24858,33524
32288,24776,33335
32264,24727,33465
32152,24729,33367
32176,24782,33341
32200,24868,33454
31992,24951,33373
32160,24998,33492
32252,24996,33325
32277,24934,33460
32422,24854,33516
32476,24777,33273
32316,24732,33413
32384,24725,33456
32248,24796,33316
31928,24870,33452
31908,24955,33425
32032,24994,33453
32096,24997,33500
32060,24945,33265
31908,24864,33414
31452,24786,33486
30484,24740,33280
29456,24744,33353
28000,24804,33464
26621,24895,33264
24981,24985,33425
23604,25051,33488
22752,25056,33252
21981,24988,33336
21185,24896,33422
21540,24836,33247
23724,24775,33308
27364,24769,33331
31512,24804,33225
35621,24893,33377
38368,24970,33442
39416,25005,33205
39040,25024,33312
38120,24959,33389
37040,24873,33193
36172,24793,33304
35264,24742,33356
34452,24756,33204
33716,24814,33340
33196,24883,33303
32788,24971,33332
32557,25018,33212
32852,25023,33137
32586,24965,33317
32512,24879,33194
32588,24802,33270
32557,24754,33296
32520,24745,33188
32376,24812,33333
32252,24899,33112
32188,24972,33264
32056,25023,33221
32132,25023,33183
32100,24973,33319
32172,24881,33306
32216,24798,33300
32164,24754,33170
32025,24759,33077
32024,24817,33260
31968,24887,33197
31860,24974,33273
31849,25026,33117
31888,25020,33084
32085,24972,33136
32078,24891,33197
32168,24804,33071
32020,24760,33245
32000,24762,33212
31872,24823,33300
31969,24900,33127
31956,24980,33065
31981,25034,33241
32028,25028,33269
32068,24977,33253
32144,24897,33097
32200,24807,33255
32236,24764,33228
32192,24762,33278
32124,24817,33133
31956,24901,33274
31908,24982,33318
32088,25020,33162
32044,25033,33159
32140,24975,33334
32240,24899,33287
32276,24815,33378
32252,24765,33220
32202,24767,33197
32088,24821,33381
32004,24903,33304
31988,24989,33489
31916,25032,33369
31940,25031,33281
32060,24980,33460
32200,24900,33441
32240,24821,33424
32110,24768,33348
32008,24765,33508
31904,24821,33610
31864,24907,33490
31862,24991,33437
31944,25034,33577
32056,25035,33500
32136,24993,33638
32188,24900,33437
32176,24824,33580
32108,24777,33648
32072,24775,33421
32022,24825,33548
31972,24909,33639
31936,24988,33445
31940,25043,33601
32008,25044,33540
31952,24992,33564
32008,24908,33438
32020,24820,33536
31984,24781,33465
31836,24773,33617
31834,24823,33583
31624,24912,33679
31664,24996,33448
31712,25042,33608
31729,25038,33679
31837,24997,33508
31972,24916,33488
31980,24832,33655
31960,24784,33628
31892,24780,33713
31796,24829,33499
31792,24918,33650
31717,24996,33740
31648,25050,33651
31668,25045,33567
31756,24997,33708
31876,24916,33629
32001,24831,33613
32060,24788,33730
32073,24782,33655
32065,24831,33781
32094,24919,33574
32056,25000,33740
32136,25050,33776
32216,25056,33604
32276,24997,33602
32397,24925,33704
32538,24839,33760
32629,24782,33683
32620,24789,33724
32524,24838,33699
32432,24923,33748
32412,25009,33524
32472,25053,33647
32604,25053,33751
32716,24996,33501
32736,24923,33634
32789,24833,33661
32799,24783,33526
32788,24791,33633
32768,24841,33603
32814,24928,33564
32896,24997,33632
33052,25046,33460
33224,25068,33582
33332,25001,33597
33472,24916,33415
33573,24845,33432
33604,24791,33441
33633,24780,33467
33644,24837,33492
33680,24927,33367
33692,25002,33469
33689,25052,33257
33692,25056,33412
33832,25002,33452
34028,24923,33197
34181,24845,33276
34228,24784,33237
34180,24789,33337
34032,24844,33373
33812,24926,33154
33752,25005,33285
33888,25067,33204
34045,25060,33295
34168,25013,33078
34196,24932,33197
34208,24841,33093
34144,24791,33116
34128,24788,33137
34144,24849,33009
34208,24922,33135
34316,25015,32916
34388,25060,33045
34340,25058,32987
34353,24989,33046
34436,24939,32805
34396,24839,32932
34293,24799,32844
34212,24786,32912
34104,24847,32724
34012,24917,32673
33984,25017,32796
34013,25062,32686
34120,25062,32749
34264,25018,32630
34368,24931,32539
34368,24869,32689
34308,24796,32623
34288,24789,32669
34280,24845,32544
34232,24925,32425
34120,25021,32550
34004,25071,32503
34016,25065,32489
34196,25027,32360
34304,24941,32289
34388,24859,32417
34476,24802,32289
34564,24804,32204
34429,24845,32325
34237,24933,32205
34072,25015,32260
34024,25061,32085
34100,25072,32213
34208,25024,32156
34252,24939,32134
34344,24855,31948
34404,24815,32068
34412,24807,31973
34292,24850,32041
34196,24943,31940
34222,25020,31781
34224,25060,31728
34288,25073,31865
34276,25031,31740
34316,24946,31821
34356,24869,31623
34312,24805,31603
34304,24812,31532
34302,24853,31657
34260,24940,31623
34236,25024,31525
34240,25070,31592
34312,25079,31361
34448,25025,31341
34610,24956,31310
34752,24861,31265
34892,24814,31397
34888,24802,31335
34772,24869,31230
34620,24933,31327
34544,25021,31135
34552,25083,31094
34636,25081,31180
34764,25030,31143
34914,24959,31084
34992,24858,30953
35064,24823,31068
35052,24809,30954
34804,24857,30956
34488,24948,30959
34234,25030,30879
34192,25076,30889
34448,25079,30839
34704,25035,30682
34792,24962,30772
34896,24881,30772
34968,24832,30650
34984,24812,30540
35044,24865,30663
34976,24941,30608
34860,25040,30485
34672,25084,30582
34445,25087,30348
34357,25039,30356
34372,24961,30433
34380,24886,30311
34364,24825,30340
34256,24814,30185
34165,24877,30309
34152,24952,30240
34244,25034,30265
34324,25082,30076
34432,25095,30073
34596,25047,30112
34740,24967,30108
34764,24881,29995
34648,24824,29916
34452,24833,30036
34084,24873,29937
33936,24952,30000
34196,25039,29829
34504,25094,29796
34604,25095,29894
34568,25055,29890
34533,24972,29783
34392,24877,29693
34248,24838,29793
34216,24829,29760
34188,24871,29633
34224,24957,29620
34240,25041,29726
34216,25095,29628
34208,25108,29702
34159,25048,29520
34060,24981,29515
33932,24898,29572
34009,24834,29620
34192,24834,29432
34242,24880,29580
34128,24956,29544
33964,25049,29488
33836,25095,29466
33712,25108,29516
33656,25055,29329
33732,24988,29340
33908,24897,29447
34028,24839,29412
34110,24838,29348
34204,24879,29281
34144,24965,29376
34033,25051,29317
34036,25095,29356
34144,25103,29365
34164,25069,29248
34052,24988,29312
34028,24892,29356
34112,24852,29157
34144,24847,29205
34104,24883,29304
34028,24972,29260
33966,25057,29253
34000,25095,29252
34056,25115,29085
34148,25069,29108
34176,24997,29240
34028,24905,29204
33768,24858,29136
33572,24847,29173
33440,24898,29048
33392,24967,29120
33404,25055,29116
33416,25112,29206
33440,25116,29052
33504,25084,29029
33624,24996,29175
33688,24913,29144
33616,24868,29140
33603,24848,29049
33600,24893,29029
33548,24980,29148
33412,25067,29172
33288,25108,29008
33248,25135,29052
33280,25081,29132
33248,25004,29189
33324,24923,29041
33468,24861,29149
33463,24858,29095
33308,24903,29040
33144,24994,29185
33108,25068,29141
33268,25133,29213
33512,25135,29063
33648,25087,29216
33620,25012,29210
33548,24924,29198
33424,24868,29154
33348,24863,29255
33308,24916,29124
33242,24993,29135
33356,25081,29188
33372,25127,29292
33312,25145,29271
33356,25089,29244
33468,25022,29362
33585,24932,29230
33596,24878,29268
33480,24875,29352
33292,24918,29385
33196,24996,29286
33188,25086,29444
33240,25135,29453
33312,25148,29334
33349,25095,29492
33352,25031,29452
33216,24947,29517
33096,24889,29490
33072,24881,29457
33036,24920,29548
32960,25008,29566
32916,25090,29548
32940,25149,29559
33064,25156,29525
33125,25117,29677
33152,25038,29629
33100,24961,29753
32976,24901,29609
32648,24888,29778
32165,24940,29712
31400,25021,29846
30400,25103,29697
29320,25158,29872
28124,25180,29840
26766,25140,29756
25332,25085,29958
24028,24996,29959
22980,24961,29908
21897,24948,29892
21196,24985,30066
22332,25079,29996
25656,25128,30024
29860,25179,30144
34284,25180,30136
38156,25156,30200
40262,25068,30113
40516,24976,30180
39900,24922,30129
38848,24905,30324
37848,24943,30312
37024,25044,30243
36320,25125,30412
35784,25175,30420
35316,25186,30304
34852,25130,30487
34601,25068,30532
34534,24979,30408
34504,24932,30471
34428,24919,30616
34244,24959,30593
34180,25030,30670
34300,25126,30564
34476,25179,30749
34452,25185,30708
34388,25150,30684
34288,25060,30692
34230,24978,30839
34196,24927,30880
34152,24908,30738
34232,24960,30930
34241,25038,30904
34172,25119,30805
34152,25180,30983
34208,25193,30948
34300,25143,31044
34477,25070,30877
34616,24983,30949
34436,24917,31097
34246,24925,30931
34168,24961,30968
34220,25045,31101
34280,25127,31051
34356,25183,31176
34344,25196,31016
34404,25148,31060
34624,25076,31220
34772,24988,31173
34700,24930,31269
34696,24919,31118
34720,24953,31263
34728,25048,31333
34494,25126,31213
34088,25182,31289
33828,25189,31332
33956,25165,31236
34273,25075,31396
34416,24980,31396
34364,24933,31252
34200,24921,31428
33876,24964,31476
33708,25043,31296
33764,25132,31421
33925,25191,31400
34052,25196,31481
34188,25153,31488
34220,25077,31527
34184,24991,31586
34100,24942,31414
33846,24925,31573
33600,24961,31593
33448,25043,31646
33496,25135,31588
33632,25189,31556
33768,25196,31648
33884,25156,31621
33869,25076,31780
33840,24997,31845
33726,24933,31708
33532,24932,31866
33436,24969,31886
33300,25049,31866
33268,25135,31953
33284,25188,32030
33236,25204,32023
33180,25165,31939
33224,25079,32036
33300,24992,32093
33404,24947,32182
33472,24928,32231
33328,24979,32208
33068,25049,32324
32813,25136,32164
32605,25188,32343
32540,25214,32361
32528,25173,32251
32612,25089,32408
32572,24996,32442
32532,24951,32348
32488,24934,32519
32448,24972,32626
32380,25058,32456
32448,25134,32658
32540,25204,32577
32576,25212,32716
32592,25164,32585
32532,25087,32726
32400,24998,32840
32348,24932,32824
32288,24934,32808
32328,24978,32892
32316,25057,32908
32204,25140,32919
32042,25204,32837
31956,25212,32992
31988,25165,33071
32208,25095,32895
32340,25009,33005
32264,24953,33081
32264,24935,32949
32280,24980,33104
32328,25059,33048
32476,25138,33175
32664,25199,33210
32684,25207,33265
32620,25168,33260
32576,25089,33332
32568,25012,33376
32560,24950,33204
32560,24940,33352
32509,24981,33400
32396,25054,33293
32288,25146,33380
32264,25204,33461
32288,25213,33347
32424,25160,33525
32480,25095,33582
32548,25004,33436
32516,24948,33604
32400,24932,33676
32264,24988,33575
32168,25057,33493
32268,25137,33678
32380,25204,33788
32493,25213,33578
32605,25174,33772
32700,25095,33751
32768,25004,33789
32737,24944,33850
32628,24933,33777
32541,24980,33796
32360,25045,33913
32254,25142,33992
32302,25203,33960
32320,25215,33895
32320,25168,33952
32376,25085,34054
32461,25005,34110
32556,24945,33937
32492,24929,34101
32368,24975,34205
32268,25060,34029
32240,25143,34193
32272,25196,34113
32320,25211,34105
32384,25174,34273
32448,25095,34277
32466,25004,34301
32429,24944,34332
32212,24935,34235
32056,24980,34381
31932,25056,34471
31960,25141,34437
31996,25197,34516
32080,25213,34275
32148,25172,34414
32184,25092,34389
32104,25012,34520
32048,24950,34624
31944,24936,34504
31904,24985,34582
31832,25060,34565
31768,25143,34445
31781,25202,34552
31840,25212,34716
31948,25173,34685
31976,25092,34632
31896,25010,34628
31804,24956,34727
31773,24940,34767
31792,24976,34567
31756,25052,34768
31741,25142,34852
31713,25207,34616
31725,25208,34744
31708,25173,34857
31720,25095,34871
31764,25012,34900
31808,24955,34896
31808,24940,34820
31692,24982,34878
31525,25063,34732
31396,25146,34925
31316,25205,34996
31336,25220,34874
31415,25175,34980
31400,25095,35080
31268,25018,34901
31276,24953,35047
31216,24943,35053
31088,24981,34969
31036,25060,35087
31084,25143,35077
31168,25207,35027
31280,25223,34951
31412,25180,35087
31552,25103,35180
31588,25012,35052
31548,24958,35184
31500,24941,35248
31417,24989,34990
31272,25065,35132
31137,25151,35154
31173,25210,35252
31316,25223,35148
31442,25173,35268
31608,25111,35048
31722,25013,35248
31684,24957,35356
31568,24946,35168
31460,24991,35310
31276,25060,35232
31228,25149,35316
31225,25211,35113
31253,25223,35308
31356,25180,35424
31480,25111,35149
31469,25021,35292
31444,24956,35255
31440,24948,35376
31300,24987,35360
31196,25069,35481
31148,25148,35286
31120,25214,35416
31168,25223,35397
31268,25183,35495
31340,25103,35228
31276,25027,35453
31284,24956,35438
31352,24943,35529
31362,24988,35375
31424,25068,35282
31300,25149,35489
31214,25209,35600
31236,25223,35321
31228,25188,35490
31228,25109,35613
31308,25019,35457
31420,24966,35365
31434,24948,35609
31348,24986,35569
31172,25064,35692
31116,25159,35452
31128,25217,35591
31064,25224,35652
31093,25188,35708
31252,25117,35775
31408,25031,35630
31452,24965,35748
31418,24948,35847
31272,24986,35775
31073,25062,35797
31044,25153,35779
31077,25215,35607
31144,25230,35736
31252,25188,35748
31344,25116,35852
31336,25026,35840
31280,24964,35888
31192,24949,35798
31100,24985,35805
31052,25071,35933
30940,25149,35961
30972,25213,35823
31108,25231,35940
31194,25186,36012
31228,25116,35968
31104,25030,36002
31193,24966,35880
31249,24956,35996
31140,24996,35948
31060,25068,35904
31048,25152,36012
31072,25220,35973
31124,25231,36032
31244,25196,35796
31356,25110,35941
31392,25026,35974
31312,24966,36036
31168,24954,35996
31028,24989,36004
31000,25072,35815
30928,25153,36045
30974,25223,36143
31062,25238,35957
31276,25193,36077
31340,25119,36085
31352,25032,36068
31244,24975,36125
31008,24953,36063
30836,25004,35863
30688,25083,36069
30553,25164,36060
30612,25216,36117
30792,25238,36020
30888,25199,36185
31048,25120,36016
31172,25039,35956
31312,24973,36132
31364,24956,36084
31268,24998,36095
31272,25076,36081
31108,25163,35937
30965,25220,36156
30916,25239,36152
30844,25199,36113
30908,25124,36233
30988,25033,36037
31004,24975,35925
31044,24958,36163
31092,25001,36130
31105,25076,36221
31024,25164,36152
30933,25221,36031
31072,25237,36149
31092,25196,36103
31392,25123,36221
31432,25039,36020
31296,24972,35892
31260,24959,36124
31232,24997,36096
31160,25071,36196
31080,25161,36008
31110,25223,35892
31104,25236,36061
31012,25200,36156
31244,25125,35961
31288,25028,35890
31216,24974,36092
30980,24965,36044
30948,24996,36058
30856,25076,35945
30756,25161,35992
30614,25223,36143
30604,25239,35983
30688,25207,36069
30616,25124,36024
30288,25045,36103
29632,24988,35939
28596,24942,36057
27261,25006,35975
25764,25095,35956
24254,25177,36053
22800,25255,36080
21744,25263,35957
20984,25243,35876
20128,25152,35991
19790,25097,35960
21512,25020,35863
25172,24996,36016
29412,25008,35838
33517,25079,35904
36988,25150,35872
38540,25237,35941
38440,25252,35854
37724,25202,35636
36772,25140,35724
35808,25040,35804
34917,24986,35836
34128,24964,35755
33294,24997,35612
32588,25080,35512
32112,25163,35716
31884,25225,35603
31858,25241,35700
31940,25216,35612
31836,25135,35436
31920,25041,35613
31916,24990,35527
31912,24967,35604
31828,24998,35541
31712,25081,35522
31680,25165,35477
31716,25225,35517
31704,25245,35386
31727,25210,35449
31788,25130,35381
31856,25045,35481
31952,24978,35289
31656,24961,35389
31484,24967,35348
31344,25074,35239
31296,25159,35384
31480,25223,35182
31712,25237,35102
31796,25205,35261
31893,25125,35246
31744,25046,35193
31752,24989,35116
31584,24960,35244
31397,24992,35052
31304,25076,34928
31300,25156,35127
31212,25222,35013
31276,25237,35111
31406,25207,34861
31469,25123,35044
31524,25039,34958
31504,24981,34896
31488,24956,34999
31404,24999,35055
31328,25071,34756
31276,25157,34927
31364,25216,35005
31348,25241,34796
31412,25204,34895
31556,25129,34903
31596,25041,34685
31376,24976,34836
31232,24959,34932
31228,24997,34781
31149,25071,34696
31160,25159,34838
31312,25220,34805
31214,25237,34748
31232,25204,34832
31252,25127,34633
31268,25041,34807
31292,24972,34869
31373,24959,34708
31149,24992,34847
31140,25073,34797
31084,25156,34736
31212,25188,34852
31093,25241,34812
31094,25204,34900
31160,25125,34864
31248,25042,34737
31292,24981,34852
31208,24962,34832
31128,24999,34943
30904,25074,34870
30756,25156,34732
30789,25220,34892
30729,25239,34861
30844,25207,34941
30688,25128,34957
30640,25044,34932
30808,24981,34841
30836,24958,34713
30588,24996,34924
30408,25073,34818
30305,25161,34890
30345,25223,34980
30396,25246,34809
30468,25207,34740
30560,25135,34956
30529,25042,34950
30496,24980,34948
30405,24955,34843
30464,24997,35008
30464,25076,34941
30408,25167,35060
30364,25223,34924
30556,25240,35060
30652,25206,35023
30672,25133,35065
30792,25051,34913
30689,24984,35065
30652,24964,34997
30524,24996,35180
30436,25071,34997
30516,25158,35126
30504,25223,35036
30542,25246,35053
30656,25206,35124
30924,25132,35212
30804,25046,35024
30861,24985,35152
30957,24959,35212
31004,24996,34996
30857,25068,35133
30906,25156,35230
30960,25220,35043
31192,25243,35162
31284,25204,35173
31400,25133,35045
31476,25050,35144
31492,24974,35113
31464,24956,34980
31428,24996,35143
31360,25070,35220
31316,25159,35030
31268,25223,35141
31428,25242,35053
31584,25204,35032
31728,25129,35156
31797,25044,35197
31896,24974,35031
31945,24948,35048
31865,24985,35117
31632,25069,35144
31660,25149,35052
31840,25215,35078
32096,25239,35134
31957,25204,35200
32072,25125,34969
32240,25038,35087
32124,24976,35168
32202,24952,34932
31997,24985,35143
31976,25061,35117
32016,25148,35183
32044,25212,34933
32088,25233,35132
32192,25199,35223
32312,25131,35052
32300,25039,35160
32116,24971,35062
32384,24952,35085
32337,24988,34968
32216,25061,35192
32296,25148,35093
32333,25207,35260
32164,25230,35128
32264,25204,35151
32448,25125,35094
32528,25039,35017
32397,24969,35198
32424,24940,35116
32268,24991,35173
32226,25055,35205
32164,25144,35216
32160,25215,35296
32264,25230,35097
32292,25189,35223
32420,25125,35125
32484,25033,35264
32412,24969,34981
32368,24946,35085
32224,24986,35008
32089,25056,35175
31984,25145,35225
32052,25213,34973
32081,25232,35136
32144,25201,35225
32224,25124,34991
32128,25036,35134
32256,24973,35093
32004,24948,35007
32128,24988,35124
32125,25060,35052
31868,25141,35109
32032,25208,35079
32061,25236,35006
32028,25199,34892
32372,25119,35029
32292,25040,35104
32216,24966,35017
32189,24949,35039
32092,24980,34876
32008,25063,34975
31944,25143,34940
31937,25209,35017
32060,25229,34815
32060,25199,34703
32200,25125,34874
32346,25028,34949
32256,24968,34742
32180,24951,34648
32001,24974,34795
31964,25060,34881
31916,25144,34700
32036,25210,34772
31964,25228,34684
32240,25199,34759
32324,25119,34724
32333,25039,34638
32324,24968,34636
32244,24943,34514
32228,24977,34437
32092,25053,34596
32024,25142,34652
32169,25204,34455
32308,25230,34565
32193,25193,34501
32517,25124,34471
32640,25031,34360
32532,24973,34460
32520,24945,34406
32408,24972,34441
32340,25049,34252
32320,25135,34380
32284,25209,34308
32288,25223,34206
32384,25194,34325
32532,25124,34356
32533,25032,34150
32720,24966,34256
32704,24938,34237
32484,24980,34117
32364,25045,33996
32572,25137,34165
32556,25202,34054
32460,25223,34116
32520,25197,33932
32553,25119,34061
32569,25031,34128
32620,24957,33942
32628,24944,34045
32524,24971,34095
32400,25044,33922
32356,25131,34024
32440,25204,33901
32420,25223,34030
32576,25189,33812
32720,25125,33972
32724,25029,33920
32656,24961,33996
32844,24946,33912
32485,24970,33780
32480,25044,33918
32424,25140,33964
32444,25205,33795
32632,25215,33734
32641,25191,33799
32792,25119,33816
32752,25028,33897
32797,24960,33840
32900,24948,33836
32860,24975,33880
32684,25045,33777
32384,25130,33730
32485,25197,33856
32624,25223,33908
32644,25189,33730
32756,25124,33733
32816,25040,33868
32836,24965,33817
32792,24937,33901
32712,24968,33758
32624,25042,33688
32612,25134,33824
32672,25198,33893
32608,25220,33903
32840,25189,33880
32820,25124,33750
32808,25035,33693
32960,24966,33831
32828,24932,33788
32904,24967,33877
32532,25053,33628
32613,25125,33757
32596,25197,33833
32636,25223,33650
32704,25190,33580
32896,25120,33737
32792,25030,33636
32860,24960,33780
32816,24943,33588
32799,24966,33532
32736,25043,33681
32716,25133,33637
32720,25198,33693
32796,25221,33616
32944,25192,33534
32900,25113,33473
33044,25031,33604
33020,24965,33609
32932,24929,33447
32768,24964,33575
32754,25037,33598
32596,25125,33388
32656,25202,33561
32816,25219,33465
32913,25187,33449
32869,25115,33524
32936,25024,33410
32820,24959,33567
32844,24930,33361
32942,24966,33486
32940,25028,33373
32644,25131,33436
32808,25199,33282
32800,25215,33340
32676,25188,33431
32732,25114,33292
32892,25028,33228
32776,24953,33404
32640,24935,33390
32864,24965,33328
32692,25041,33421
32714,25124,33360
32828,25196,33223
32672,25217,33352
32764,25185,33305
32712,25117,33268
32809,25031,33268
32888,24953,33129
32952,24941,33308
32736,24962,33292
32652,25032,33220
32668,25122,33284
32737,25193,33189
32724,25217,33264
32960,25184,33090
33029,25108,33177
33232,25027,33295
33301,24958,33093
33208,24935,33231
32929,24964,33264
32869,25032,33054
32712,25119,33205
32576,25185,33257
32657,25220,33041
32900,25185,33173
33100,25106,33205
33220,25024,32996
33225,24956,33073
33220,24932,33188
33054,24954,32984
32804,25031,33149
32672,25116,32964
32940,25182,33025
33008,25214,33141
33092,25188,32933
33256,25115,33072
33176,25020,33008
33228,24949,32929
33176,24927,33038
33056,24965,33029
32944,25026,32949
32750,25119,32844
33028,25188,32988
32900,25209,32997
33020,25175,32921
32952,25112,32784
33056,25022,32932
33024,24966,32825
32809,24927,32944
32898,24948,32738
32760,25031,32709
32560,25119,32820
32352,25183,32845
31820,25221,32673
30812,25183,32815
29614,25113,32702
28256,25032,32797
26636,24972,32656
25228,24957,32568
23946,24997,32728
22920,25079,32692
21808,25161,32720
21306,25224,32669
22533,25255,32541
25616,25210,32680
29813,25117,32576
33908,25025,32536
37601,24952,32655
39893,24914,32652
40280,24975,32489
39536,25031,32612
38500,25103,32574
37536,25193,32600
36600,25204,32420
35884,25189,32533
35080,25111,32437
34702,25020,32561
34468,24948,32541
34080,24925,32389
33882,24958,32525
33780,25021,32552
33556,25109,32500
33705,25174,32521
33764,25216,32479
33789,25183,32504
33792,25113,32453
33806,25028,32493
33824,24944,32263
33736,24920,32375
33702,24955,32359
33536,25028,32396
33416,25111,32365
33544,25175,32376
33600,25208,32274
33540,25177,32253
33596,25100,32345
33645,25015,32373
33704,24948,32317
33541,24921,32341
33400,24943,32284
33360,25026,32141
33228,25105,32254
33229,25177,32272
33288,25203,32244
33328,25181,32069
33392,25097,32134
33276,25012,32036
33204,24947,32244
33284,24916,32169
33308,24951,32025
33253,25018,32150
33152,25106,32136
33308,25173,32007
33096,25204,32140
33064,25172,32137
33184,25095,31997
33325,25016,32128
33472,24946,32134
33216,24909,32064
33056,24942,32093
32988,25020,31968
32953,25095,32172
32972,25183,32140
33032,25202,32112
33124,25173,32128
33132,25094,32007
33120,25001,32207
33120,24940,32188
32992,24913,32070
32964,24932,32204
32756,25011,32255
32741,25103,32129
32784,25177,32197
32832,25199,32142
32864,25175,32239
32889,25092,32204
32952,25004,32291
32846,24938,32385
32935,24914,32423
32744,24947,32402
32709,25016,32344
32704,25102,32284
32648,25174,32432
32692,25190,32398
32724,25168,32477
32788,25095,32516
32818,25003,32512
32688,24943,32513
32608,24911,32536
32536,24946,32553
32404,25014,32589
32248,25096,32429
32224,25173,32574
32328,25199,32492
32356,25167,32628
32372,25087,32637
32464,24997,32652
32492,24948,32536
32384,24914,32661
32328,24932,32533
32328,25012,32684
32176,25099,32572
32132,25173,32793
32096,25199,32772
32277,25163,32837
32228,25095,32642
32309,25013,32796
32376,24939,32663
32324,24908,32812
32200,24937,32733
32036,24989,32868
32036,25079,32753
32036,25157,32862
32105,25201,32762
32156,25168,32988
32216,25095,32967
32316,25009,33015
32452,24944,32831
32464,24918,32932
32448,24939,32840
32448,25021,32940
32332,25105,32876
32420,25164,32924
32540,25190,32909
32608,25164,33031
32876,25081,33097
32804,25014,32861
32714,24942,32950
32672,24909,32967
32664,24943,33040
32696,25011,33041
32716,25089,32899
32816,25167,33030
32948,25192,33080
33076,25162,32877
33236,25087,33020
33349,25007,32884
33436,24937,33018
33480,24911,33016
33493,24933,32849
33484,25006,33053
