ECG,EDA,RR
32636,4834,37007
32656,4819,36831
32692,4800,36439
32736,4805,36882
32768,4809,36882
32798,4832,36813
32780,4857,36885
32708,4863,36796
32644,4857,36980
32644,4850,36852
32700,4861,36824
32762,4839,36833
32836,4819,36759
32876,4834,36936
32852,4811,36988
32860,4830,36804
32824,4871,36857
32780,4882,36679
32705,4892,36904
32684,4932,36828
32689,4894,36672
32740,4867,36853
32776,4854,36809
32784,4858,36752
32796,4946,36897
32780,4895,36388
32704,4899,36821
32615,4895,36878
32588,4894,36743
32576,4879,36813
32584,4885,36676
32644,4842,36912
32716,4830,36893
32716,4834,36725
32762,4838,36796
32764,4857,36753
32714,4877,36893
32652,4877,36759
32612,4866,36752
32560,4880,36764
32560,4841,36933
32604,4826,36686
32684,4820,36780
32712,4821,36628
32692,4826,36884
32700,4854,36665
32660,4879,36724
32608,4890,36928
32540,4872,36733
32488,4865,36780
32496,4845,36759
32544,4820,36703
32616,4817,36882
32657,4821,36372
32661,4851,36668
32672,4883,36857
32664,4942,36540
32596,4865,36784
32544,4924,36764
32504,4843,36649
32456,4859,36772
32440,4818,36932
32372,4838,36524
32220,4871,36781
32080,4812,36929
31953,4828,36509
31808,4851,36636
31624,4881,36871
31481,4887,36531
31484,4863,36717
31552,4844,36925
31680,4820,36356
31920,4834,36709
32328,4856,36717
32801,4869,36759
33324,4890,36742
34092,4924,36773
34913,4925,36572
35776,4987,36718
36432,4861,36842
36584,4841,36732
36720,4818,36582
37152,4850,36807
37660,4835,36310
37948,4852,36641
38176,4905,36679
38516,4872,36664
38700,4871,36814
38540,4885,36436
38060,4879,36527
37348,4877,36722
36790,4884,36610
36388,4809,36444
35748,4829,36568
35116,4832,36552
34581,4853,36434
34116,4880,36495
33676,4897,36478
33316,4893,36400
33080,4913,36187
32848,4833,36277
32620,4802,36481
32428,4800,35975
32232,4811,36389
32064,4905,36359
31904,4897,36455
31752,4861,35990
31592,4856,36276
31502,4846,36396
31448,4846,35870
31424,4833,36183
31448,4801,36364
31484,4801,36165
31525,4819,36188
31568,4825,36276
31564,4877,36164
31524,4914,36068
31476,4861,36087
31440,4852,36079
31432,4845,35885
31432,4831,36125
31484,4799,36014
31548,4796,35581
31581,4821,35908
31628,4841,35812
31664,4859,35982
31648,4892,35796
31620,4872,35704
31576,4860,35695
31581,4873,35589
31552,4837,35448
31596,4813,35634
31682,4795,35421
31704,4805,35132
31704,4893,35317
31732,4832,35260
31704,4857,35044
31652,4856,35167
31681,4863,35076
31644,4860,35031
31668,4850,35069
31734,4827,34956
31784,4834,34533
31852,4864,34872
31892,4920,34774
31900,4828,34884
31872,4916,34760
31792,4920,34392
31772,4910,34761
31757,4847,34814
31737,4832,34756
31781,4805,34561
31876,4796,34676
31916,4802,34639
31941,4806,34565
31964,4820,34761
31936,4851,34689
31880,4868,34628
31820,4871,34468
31824,4868,34757
31824,4866,34632
31888,4846,34574
31940,4818,34557
31936,4823,34810
31956,4833,34653
31988,4855,34740
31944,4893,34599
31894,4879,34901
31854,4891,34557
31832,4890,34794
31816,4887,34651
31868,4860,34926
31928,4857,34845
31956,4933,34521
31985,4818,34880
31984,4829,34777
31940,4859,35012
31896,4868,34857
31862,4852,34943
31852,4932,34944
31840,4836,35108
31872,4803,34917
31953,4831,35021
32004,4821,34884
32012,4862,35022
32044,4972,34732
32020,4854,35063
31976,4869,34897
31980,4874,35168
31960,4868,34783
31952,4851,35079
31992,4827,35144
32076,4836,35017
32092,4862,35017
32164,4878,35151
32184,4831,35158
32192,4852,35277
32116,4867,34764
32088,4892,35086
32072,4884,35219
32080,4859,35093
32159,4865,35032
32248,4799,35152
32317,4811,35150
32388,4834,35253
32456,4839,35197
32480,4874,35114
32448,4899,35300
32440,4873,35132
32440,4864,35207
32468,4869,35329
32534,4857,35079
32660,4803,35077
32750,4806,35212
32816,4809,35189
32868,4833,35045
32860,4881,35235
32841,4900,35158
32840,4895,35097
32836,4870,35164
32844,4892,35141
32916,4804,35276
32976,4807,35154
33017,4822,35252
33026,4853,35140
33020,4876,35004
33004,4856,35156
32964,4862,35132
32924,4849,35238
32902,4847,35007
32892,4836,34685
32916,4866,35088
32980,4801,34986
33032,4806,35153
33052,4808,35057
33028,4823,35144
32956,4869,34692
32908,4874,34932
32880,4866,35143
32912,4861,34956
32904,4849,35016
32944,4818,34942
33001,4818,35095
33021,4857,34988
33040,4811,35012
33072,4825,34933
33044,4884,34937
33008,4906,35076
32940,4895,34622
32944,4840,34847
32940,4854,34916
32960,4872,34934
33000,4790,35048
33037,4804,35006
33032,4835,35032
33048,4904,34900
32984,4848,34911
32910,4875,35069
32904,4865,34628
32880,4860,34964
32868,4858,34996
32924,4839,35001
32976,4871,34943
33020,4802,34757
33044,4801,34950
33069,4822,34916
33016,4871,34750
32958,4883,35029
32908,4876,34839
32869,4858,34883
32866,4865,34718
32924,4839,34876
32968,4937,34881
32968,4801,34948
32968,4826,34742
32968,4833,34848
32928,4873,34991
32852,4889,34791
32784,4901,34853
32780,4948,34837
32760,4832,34775
32800,4886,34615
32816,4905,34823
32852,4854,34785
32856,4867,34621
32860,4818,34860
32821,4850,34468
32740,4852,34749
32700,4850,34612
32706,4837,34858
32720,4827,34648
32772,4799,34695
32832,4789,34581
32856,4806,34797
32888,4842,34617
32876,4852,34248
32852,4854,34597
32804,4870,34604
32776,4860,34567
32780,4858,34522
32778,4844,34167
32824,4831,34567
32898,4823,34504
32944,4839,34332
32960,4831,34548
32997,4852,34559
32932,4865,34252
32896,4892,34430
32852,4856,34431
32828,4861,34420
32824,4850,34239
32844,4802,34445
32880,4787,34477
32916,4799,34493
32944,4808,34481
32968,4815,34296
32948,4950,34167
32900,4856,34311
32828,4845,34109
32772,4838,34346
32774,4853,34210
32820,4818,34136
32864,4817,34342
32869,4844,34119
32862,4905,34183
32892,4820,34039
32877,4850,34164
32804,4874,33757
32745,4866,34102
32733,4869,34071
32716,4881,34063
32744,4860,33825
32816,4792,34053
32852,4798,33916
32846,4811,34100
32848,4840,33685
32832,4871,33935
32830,4892,33941
32782,4879,34013
32744,4866,33712
32720,4855,33889
32772,4811,33826
32836,4829,33868
32849,4835,33799
32892,4821,33812
32940,4841,33721
32932,4864,33847
32848,4887,33409
32776,4899,33732
32764,4877,33592
32768,4864,33772
32832,4856,33391
32873,4844,33649
32901,4844,33590
32893,4853,33703
32901,4870,33577
32884,4981,33584
32837,4857,33383
32780,4850,33538
32736,4840,33485
32748,4828,33415
32840,4798,33493
32892,4794,33375
32896,4814,33415
32952,4839,33484
32976,4829,33469
32936,4865,33332
32868,4877,33172
32844,4884,33393
32796,4865,33100
32804,4849,33068
32878,4813,33175
32924,4805,33349
32948,4834,33095
32980,4860,33167
32984,4818,33308
32932,4845,33028
32896,4853,33132
32852,4863,33237
32848,4875,32806
32868,4846,33108
32904,4813,32992
32968,4811,33204
32990,4826,32962
33000,4837,33061
32996,4858,33135
32940,4903,32959
32872,4909,33039
32772,4903,32850
32745,4848,32964
32780,4827,33031
32866,4799,32953
32920,4791,33011
32932,4795,32916
32953,4806,33008
32924,4819,32903
32840,4844,33112
32764,4887,32738
32752,4881,32996
32768,4854,33004
32784,4850,32916
32860,4857,32993
32924,4790,33092
32872,4801,33014
32828,4817,32921
32832,4840,33005
32775,4893,33028
32692,4857,33092
32632,4846,33013
32668,4836,32884
32708,4836,33057
32754,4830,33063
32796,4807,33175
32860,4834,33044
32870,4853,32879
32893,4870,33103
32864,4991,33076
32856,4851,33208
32900,4854,32740
32872,4872,33008
32840,4857,33196
32856,4841,32775
32908,4847,33038
32913,4801,33192
32902,4810,33149
32900,4836,33167
32856,4862,33231
32801,4921,33118
32752,4846,33151
32780,4851,33245
32812,4863,33238
32780,4907,33344
32832,4784,33084
32884,4801,33188
32873,4822,33257
32928,4868,33308
32930,4848,33471
32884,4858,33364
32864,4860,33477
32836,4869,33024
32873,4881,33270
32904,4802,33340
32937,4807,33332
32941,4811,33386
32992,4865,33415
32944,4809,33404
32856,4856,33460
32801,4892,33508
32714,4912,33549
32680,4839,33641
32736,4859,33204
32852,4816,33552
32932,4823,33709
32968,4885,33653
33060,4801,33754
33104,4827,33422
33127,4906,33541
33040,4853,33735
32942,4860,33772
32836,4895,33916
32832,4828,33799
32850,4811,33743
32896,4816,33480
33005,4910,33945
33057,4800,33588
33104,4846,33958
33088,4870,33600
33056,4913,33917
33020,4842,33969
33000,4842,33972
32916,4868,34067
32900,4818,34071
32952,4832,34150
33010,4852,33888
33021,4802,34007
33040,4829,34055
32989,4862,34118
32956,4880,34178
32990,4851,34079
32968,4838,34151
32884,4844,34165
32933,4844,34180
32956,4786,34151
32988,4832,34076
33060,4842,34332
33088,4811,34319
33104,4843,34303
33040,4871,34012
33037,4879,34205
32984,4882,34370
32960,4836,34407
33012,4813,34463
33092,4812,34428
33088,4843,34516
33092,4948,34439
33112,4809,34335
33112,4873,34393
33040,4900,34463
32940,4846,34581
32925,4853,34068
32924,4884,34390
32936,4877,34595
32908,4783,34332
32980,4808,34382
32998,4835,34324
32996,4808,34275
33048,4850,34377
33036,4886,34308
32996,4977,34394
32944,4839,34439
32925,4871,34500
32948,4826,34279
32972,4846,34335
33000,4798,34463
33053,4804,34388
33100,4809,34340
33044,4839,34477
32976,4851,34297
32916,4852,34336
32887,4875,34273
32880,4855,34256
32925,4835,34324
32960,4831,34244
33020,4854,34382
33020,4934,34077
32964,4809,34150
32916,4853,34281
32900,4868,33903
32862,4861,34201
32876,4873,34333
32888,4877,34109
32821,4805,34148
32836,4795,34268
32884,4792,34073
32928,4820,34127
32916,4825,34200
32916,4869,34028
32868,4889,34071
32760,4902,33991
32804,4843,34132
32812,4827,34011
32892,4807,33880
32928,4804,34009
32944,4827,33959
32976,4857,33783
33016,4810,33860
32984,4845,33869
32976,4877,34031
32992,4864,33820
32940,4854,33885
32916,4861,33786
32956,4850,33884
33054,4853,33460
32972,4798,33750
32949,4798,33909
32886,4809,33700
32864,4841,33400
32904,4854,33732
32968,4850,33605
33012,4871,33636
32968,4866,33316
32960,4816,33604
33052,4834,33780
33088,4855,33637
33096,4922,33268
33076,4814,33607
33004,4841,33415
32981,4850,33634
32928,4848,33183
32908,4838,33542
32892,4847,33601
32910,4820,33453
32988,4821,33521
33036,4852,33324
33032,4909,33503
32996,4810,33457
32912,4839,33344
32845,4855,33524
32804,4840,33365
32796,4836,33385
32796,4867,33367
32841,4837,33188
32936,4861,33232
32996,4799,33188
33009,4818,33287
33016,4853,33413
32972,4886,33248
32920,4918,33321
32844,4919,33157
32800,4837,33319
32772,4833,33052
32820,4796,33232
32888,4804,33316
32924,4811,33223
32888,4818,33198
32916,4834,33154
32893,4867,33228
32828,4903,33295
32791,4851,32889
32760,4839,33081
32752,4836,33101
32752,4826,33068
32768,4805,33218
32744,4821,33111
32724,4835,32940
32608,4860,33116
32406,4901,33110
32204,4852,33208
31988,4867,33079
31836,4856,33141
31704,4881,33061
31704,4798,33140
31796,4792,32688
31908,4810,32903
32044,4835,32775
32280,4814,32833
32584,4839,32994
32980,4860,32943
33476,4868,33044
34148,4884,32903
34980,4900,32892
35925,4955,32799
36520,4800,32877
36768,4814,32991
37204,4830,32481
37936,4869,32646
38464,4964,32716
38660,4869,32751
38896,4866,32895
39264,4875,32542
39508,4897,32662
39468,4890,32788
39008,4802,32677
38396,4835,32768
37916,4813,32631
37492,4835,32570
36624,4961,32519
35632,4895,32442
34848,4901,32413
34256,4980,32502
33632,4839,32110
33184,4818,32333
32892,4846,32367
32592,4799,32365
32244,4836,32476
31984,4839,32105
31764,4903,32206
31568,4852,32169
31364,4852,32241
31292,4867,32246
31196,4850,32069
31172,4827,32148
31216,4839,32247
31261,4798,32117
31292,4813,32183
31265,4840,32060
31232,4875,32135
31176,4916,31809
31116,4847,32041
31089,4844,31597
31092,4863,31796
31120,4815,31936
31197,4804,31843
31268,4832,31637
31272,4851,31820
31257,4867,31719
31268,4845,31596
31208,4856,31589
31200,4856,31612
31204,4851,31655
31230,4861,31562
31290,4806,31568
31384,4788,31487
31424,4831,31551
31472,4819,31077
31510,4850,31263
31508,4877,31415
31464,4901,31081
31416,4899,31244
31404,4902,31140
31440,4836,31191
31508,4858,31023
31592,4864,31077
31648,4796,31123
31668,4819,30784
31684,4843,30924
31677,4916,31052
31661,4854,30639
31647,4848,30902
31640,4846,30813
31612,4852,30760
31641,4833,30828
31721,4814,30786
31784,4849,30691
31832,4803,30725
31848,4808,30839
31840,4866,30614
31804,4867,30703
31748,4871,30679
31725,4888,30590
31732,4837,30640
31776,4823,30609
31836,4830,30617
31828,4847,30745
31808,4860,30516
31804,4865,30601
31792,4932,30416
31752,4912,30679
31740,4908,30505
31704,4844,30586
31677,4836,30524
31676,4816,30692
31724,4831,30319
31756,4818,30620
31736,4818,30438
31744,4825,30757
31712,4856,30560
31605,4871,30662
31520,4871,30599
31445,4863,30785
31405,4866,30643
31412,4849,30753
31484,4834,30609
31480,4838,30848
31452,4851,30581
31432,4867,30834
31420,4844,30994
31360,4861,30604
31312,4847,30808
31304,4848,30972
31317,4852,31036
31400,4830,31207
31481,4830,31042
31516,4851,31155
31569,4809,31356
31588,4814,30981
31552,4840,31235
31516,4857,31456
31512,4851,31095
31472,4855,31458
31484,4857,31182
31556,4858,31612
31608,4796,31485
31616,4800,31672
31674,4806,31873
31737,4831,31781
31736,4878,31676
31716,4895,31897
31708,4893,31953
31700,4888,31869
31752,4965,32000
31844,4811,32143
31968,4793,32303
32064,4803,31908
32149,4812,32246
32220,4824,32485
32269,4875,32322
32262,4880,32310
32280,4909,32463
32252,4847,32588
32253,4870,32759
32288,4823,32611
32364,4836,32719
32392,4802,32767
32421,4820,32871
32412,4846,33065
32412,4848,32971
32412,4893,33149
32416,4886,32719
32436,4906,32997
32420,4902,33203
32464,4804,33237
32520,4802,33361
32580,4808,33319
32588,4829,33337
32592,4858,33344
32572,4901,33459
32540,4857,33397
32504,4850,33490
32472,4877,33583
32442,4878,33708
32464,4869,33573
32514,4795,33700
32556,4799,33777
32620,4841,33685
32684,4850,33761
32706,4837,33865
32621,4876,33887
32548,4899,34028
32524,4843,33572
32544,4839,33816
32592,4817,34066
32648,4817,34047
32720,4832,34020
32764,4858,34196
32797,4809,34181
32796,4870,34256
32725,4878,34212
32692,4869,33889
32644,4902,34123
32640,4839,34309
32684,4804,34350
32720,4812,34469
32740,4841,34384
32740,4803,34527
32772,4824,34380
32737,4867,34404
32676,4899,34391
32601,4855,34441
32568,4847,34289
32540,4862,34300
32532,4807,34279
32588,4805,34176
32644,4834,34439
32613,4804,34445
32589,4845,34565
32516,4860,34416
32480,4899,34438
32413,4903,34551
32392,4842,34497
32369,4837,34614
32432,4841,34480
32492,4829,34372
32540,4802,34512
32588,4804,34449
32621,4824,34396
32585,4892,34376
32520,5002,34419
32500,4853,34429
32481,4882,34396
32452,4862,34398
32472,4852,34295
32513,4795,34326
32544,4814,34437
32536,4834,34270
32516,4868,34086
32504,4841,34197
32484,4875,34204
32458,4991,34156
32432,4850,34151
32372,4855,34228
32404,4855,34109
32444,4791,34133
32488,4805,33986
32508,4841,33867
32532,4807,33695
32524,4858,33854
32468,4890,33869
32392,4853,33774
32352,4869,33625
32364,4869,33719
32397,4875,33823
32408,4791,33829
32384,4834,33934
32424,4838,33781
32495,4810,33867
32488,4881,33756
32440,4914,33789
32388,4847,33703
32400,4857,33735
32408,4888,33626
32410,4807,33618
32424,4789,33612
32450,4823,33596
32486,4831,33585
32536,4865,33698
32540,4838,33309
32518,4870,33361
32448,4886,33437
32440,4842,33445
32421,4856,33447
32424,4841,33461
32516,4793,33513
32516,4798,33434
32496,4819,33565
32492,4873,33432
32492,4845,33504
32448,4868,33391
32400,4880,33310
32412,4887,33374
32440,4895,33375
32500,4808,33374
32592,4828,33012
32628,4842,33366
32600,4799,33324
32603,4815,33168
32592,4860,33213
32516,4908,33237
32412,4852,33271
32404,4880,33236
32396,4864,33346
32420,4852,33205
32470,4789,33315
32492,4824,33177
32508,4828,33273
32540,4882,33145
32504,4855,33159
32442,4892,33092
32432,4870,33148
32448,4895,33031
32413,4937,33096
32424,4808,32974
32492,4814,32903
32524,4825,32881
32552,4949,32924
32586,4807,33031
32560,4842,32887
32488,4877,32965
32425,4865,32836
32396,4887,32791
32376,4911,32752
32404,4804,32753
32446,4790,32725
32500,4796,32589
32564,4800,32639
32544,4823,32609
32568,4864,32562
32490,4932,32492
32441,4849,32417
32421,4856,32506
32408,4880,32152
32480,4809,32553
32516,4790,32303
32538,4800,32372
32569,4825,32500
32572,4837,32359
32550,4924,32447
32510,4859,31949
32476,4868,32346
32432,4895,31908
32428,4880,32193
32492,4865,32241
32556,4796,32144
32623,4796,32120
32644,4827,31964
32686,4834,32071
32669,4892,31996
32608,4862,32021
32600,4852,32074
32572,4855,32007
32581,4854,32076
32560,4853,31952
32636,4868,32047
32692,4799,31687
32780,4809,31719
32804,4844,31812
32805,4874,31788
32725,4909,31879
32677,4973,31781
32680,4844,31880
32705,4851,31741
32736,4900,31844
32800,4794,31423
32846,4812,31556
32892,4848,31412
32884,4814,31590
32857,4844,31529
32820,4864,31605
32772,4865,31463
32720,4891,31393
32712,4900,31525
32761,4807,31593
32840,4793,31436
32888,4823,31451
32925,4861,31512
32968,4814,31449
32985,4842,31521
32936,4887,31391
32908,4868,31308
32872,4874,31277
32868,4896,31366
32924,4870,31259
32988,4796,31320
33066,4797,31296
33104,4809,31343
33096,4830,30957
33068,4862,31204
33028,4897,31071
32982,4854,31215
32953,4844,30836
32896,4839,31095
32936,4836,31127
32976,4814,31031
33048,4852,31076
33092,4937,30876
33100,4806,30945
33056,4875,30978
32977,4899,31060
32912,4872,30956
32880,4900,31052
32893,4932,30821
32904,4811,30887
32940,4831,30805
32980,4820,30727
32974,4840,30808
32982,4869,30873
32986,4849,30661
32944,4857,30733
32920,4853,30775
32929,4884,30365
32944,4864,30480
32957,4868,30551
33016,4799,30591
33074,4803,30629
33124,4804,30471
33156,4820,30542
33184,4862,30368
33188,4874,30476
33172,4876,30485
33124,4862,30532
33108,4849,30437
33132,4825,30500
33184,4832,30293
33180,4898,30276
33200,4809,30396
33228,4855,30259
33204,4847,30350
33204,4898,30305
33208,4888,30396
33200,4851,30240
33184,4845,30222
33181,4825,30150
33168,4817,30237
33181,4849,30357
33210,4869,29903
33276,4813,30045
33276,4847,30204
33176,4874,30213
33120,4896,30290
33109,4850,30053
33120,4845,30194
33210,4826,30276
33324,4822,30223
33364,4858,30221
33380,4803,30226
33381,4844,30359
33336,4883,30076
33260,4879,30260
33188,4887,30364
33156,4903,30194
33132,4845,30244
33152,4814,30437
33168,4804,30224
33252,4806,30391
33384,4819,30357
33464,4822,30464
33500,4862,30193
33448,4898,30463
33388,4875,30647
33364,4872,30469
33381,4885,30583
33392,4816,30660
33444,4799,30659
33472,4817,30824
33488,4862,30444
33469,4815,30680
33428,4874,30516
33376,4863,30729
33286,4854,30809
33248,4865,30923
33188,4887,31056
33152,4817,31028
33201,4820,31164
33116,4830,31087
32948,4898,31044
32761,4821,31093
32568,4863,31228
32336,4900,31396
32140,4853,31319
31952,4864,31367
31836,4893,31392
31872,4818,31546
32024,4802,31455
32132,4833,31606
32296,4819,31520
32714,4827,31541
33144,4857,31609
33628,4894,31633
34428,4914,31809
35416,4854,31388
36312,4872,31773
37032,4860,31705
37328,4817,31685
37432,4819,31888
37780,4864,31903
38252,4849,32053
38560,4899,31625
38860,4952,31814
39268,4875,32037
39492,4902,32064
39364,4899,32212
38820,4908,31751
38160,4813,31993
37654,4850,32034
37076,4868,32068
36212,4822,32066
35588,4890,32007
34880,4923,32039
34296,4867,32119
33856,4850,32263
33696,4850,31834
33544,4836,32116
33457,4822,32220
33380,4846,32221
33212,4817,32362
33088,4826,32263
32912,4871,32329
32644,4920,32344
32344,4858,32489
32233,4885,32391
32104,4878,32564
32100,4871,32428
32065,4799,32509
32056,4831,32166
32060,4862,32639
32066,4813,32588
31992,4884,32709
31896,4901,32661
31832,4914,32796
31784,4849,32492
31776,4882,32829
31832,4869,32751
31892,4802,32517
31920,4821,32869
31976,4856,32802
32052,4816,32944
32125,4866,32839
32124,4891,32918
32085,4899,32836
32068,4857,32933
32055,4852,32836
32086,4835,32870
32173,4840,32791
32220,4855,32889
32228,4866,32652
32264,4811,32566
32264,4884,32550
32216,4909,32452
32182,4863,32564
32180,4852,32505
32192,4873,32452
32220,4841,32444
32248,4848,32495
32317,4850,32053
32305,4882,32452
32264,4816,32335
32240,4874,32417
32104,4892,32262
32068,4913,32364
32074,4857,31897
32164,4846,32059
32192,4815,32097
32222,4800,32162
32240,4812,31999
32236,4827,32072
32257,4873,32104
32264,4852,32239
32212,4874,32169
32136,4884,32165
32116,4873,32047
32102,4877,32145
32156,4860,32203
32186,4843,32223
32264,4847,32209
32263,4867,32175
32184,4901,32295
32060,4852,32425
31888,4869,31991
31840,4860,32185
31876,4870,32126
31996,4905,32389
32065,4819,32420
32068,4813,32604
32108,4841,32530
32164,4885,32650
32264,4817,32591
32304,4857,32639
32256,4882,32310
32192,4896,32676
32176,4925,32383
32192,4851,32664
32180,4830,32734
32184,4823,32813
32180,4837,32993
32121,4852,32820
32088,4849,32590
32108,4887,32933
32100,4913,33121
32214,4868,33007
32261,4858,32964
32348,4854,33216
32384,4824,32992
32416,4806,33103
32393,4810,33299
32367,4844,32873
32380,4835,33192
32396,4892,33357
32344,4927,33139
32308,4863,33253
32319,4879,33409
32350,4877,33317
32400,4861,33196
32480,4860,33513
32572,4815,33385
32660,4837,33401
32684,4857,33456
32664,4893,33380
32732,4892,33500
32712,4927,33567
32672,4866,33445
32668,4858,33534
32745,4842,33618
32886,4825,33420
32940,4839,33517
32976,4858,33679
33012,4883,33407
33050,4854,33527
33084,4874,33559
33076,4903,33585
33129,4903,33620
33100,5004,33383
33066,4819,33440
33125,4818,33679
33228,4833,33572
33232,4863,33437
33256,4823,33579
33216,4852,33601
33140,4894,33693
33052,4896,33586
32936,4921,33641
32920,4847,33489
32944,4852,33561
33030,4834,33540
33112,4866,33520
33184,4819,33536
33232,4817,33360
33236,4859,33561
33164,4890,33519
33112,4915,33511
33052,4856,33173
33050,4860,33367
33050,4846,33388
33096,4861,33471
33121,4805,33550
33164,4835,33449
33184,4837,33135
33148,4878,33415
33092,4900,33413
33048,4925,33356
33000,4855,33429
32964,4894,33543
33000,4867,33407
33049,4806,33408
33086,4820,33325
33096,4834,33412
33088,4869,33533
33044,4851,33092
32976,4879,33369
32929,4882,33318
32904,4900,33373
32864,4911,33278
32864,4821,33460
32924,4809,33254
32972,4846,33298
33028,4852,33188
33024,4821,33167
32996,4886,33077
32944,4910,33132
32884,4861,33119
32844,4886,33091
32804,4893,33031
32813,4912,33223
32888,4804,33092
32936,4832,33044
32980,4869,33008
32974,4822,33020
32956,4877,33061
32916,4869,33029
32856,4885,33102
32830,4920,32654
32804,4970,32932
32856,4826,32997
32884,4809,32825
32944,4846,32906
32960,4843,32911
32936,4862,32775
32912,4854,32831
32861,4871,32853
32812,4878,32719
32800,4890,32775
32768,4862,32869
32800,4824,32616
32916,4819,32661
32980,4821,32625
32972,4850,32606
32942,4861,32615
32897,4855,32567
32816,4899,32518
32776,4891,32535
32736,4909,32635
32724,4858,32468
32788,4826,32294
32856,4804,32425
32896,4832,32409
32913,4874,32428
32919,4825,32372
32858,4851,32174
32769,4877,32263
32673,4898,32300
32684,4883,32372
32668,4912,32248
32612,4829,32064
32624,4817,32177
32656,4826,32198
32688,4851,32167
32728,4955,31838
32780,4855,31967
32753,4892,32025
32693,4914,32057
32645,4865,32165
32652,4871,32055
32629,4836,31995
32660,4834,32149
32676,4863,32028
32684,4816,32054
32676,4817,32059
32712,4858,32031
32661,4901,31946
32620,4884,32132
32616,4906,31827
32628,4912,31965
32645,4877,32079
32712,4807,31999
32748,4834,32135
32825,4857,31929
32840,4880,32012
32784,4854,32105
32680,4885,31706
32632,4904,31852
32608,4908,32135
32588,4916,31686
32604,4880,32032
32632,4868,32031
32644,4808,31797
32728,4817,31998
32784,4828,32116
32701,4874,32069
32602,4908,32072
32512,4892,31997
32420,4890,32143
32366,4887,32007
32492,4851,32144
32681,4844,31985
32828,4852,32244
32872,4871,31836
32844,4864,32165
32816,4877,32020
32752,4907,32213
32652,4889,32263
32576,4859,32111
32616,4858,32244
32704,4900,32153
32821,4864,32268
32872,4857,32007
32944,4871,32213
32940,4877,32359
32904,4909,31990
32852,4920,32254
32789,4908,32413
32732,4893,32276
32708,4876,31961
32732,4861,32318
32776,4816,32298
32736,4829,32344
32720,4832,32365
32712,4847,32476
32676,4884,32246
32705,4928,32365
32716,4918,32514
32668,4918,32413
32662,4937,32325
32732,4887,32543
32800,4962,32292
32892,4865,32452
32984,4878,32573
32988,4823,32156
32952,4858,32345
32940,4871,32407
32880,4868,32508
32816,4856,32387
32780,4856,32477
32824,4825,32517
32869,4825,32558
32908,4838,32455
32906,4837,32534
32878,4838,32635
32858,4877,32237
32777,4901,32511
32648,4930,32514
32628,4866,32581
32642,4857,32576
32704,4827,32508
32772,4809,32605
32832,4809,32583
32872,4824,32524
32920,4844,32589
32921,4869,32720
32900,4896,32590
32861,4905,32612
32824,4914,32632
32836,4857,32462
32852,4824,32598
32908,4812,32718
32928,4807,32535
32918,4818,32628
32912,4847,32725
32880,4877,32615
32796,4910,32574
32672,4892,32460
32600,4901,32504
32584,4860,32453
32585,4830,32497
32644,4813,32587
32654,4852,32594
32672,4841,32478
32676,4871,32541
32664,4947,32639
32556,4878,32198
32508,4872,32463
32492,4861,32631
32488,4861,32436
32608,4830,32503
32690,4810,32596
32733,4812,32164
32772,4850,32333
32800,4856,32421
32725,4877,32406
32660,4887,32230
32572,4897,32417
32540,4906,32378
32540,4911,32301
32608,4863,32465
32736,4836,32237
32812,4839,32286
32876,4851,32244
32864,4869,32375
32832,4914,31870
32796,4877,32089
32744,4867,32100
32720,4860,32119
32692,4872,32134
32752,4864,32088
32824,4836,32141
32892,4840,31944
32928,4874,31966
32896,4829,32004
32864,4850,31917
32800,4894,31983
32668,4869,31844
32620,4866,31472
32624,4857,31751
32696,4828,31822
32792,4817,31597
32864,4813,31648
32908,4834,31541
32920,4863,31503
32910,4866,31490
32840,4897,31569
32782,4900,31459
32769,4890,31379
32728,4904,31396
32775,4873,31372
32868,4850,31207
32921,4857,31356
33001,4868,31265
33040,4871,31052
33044,4889,31260
32960,4901,30928
32912,4892,31127
32856,4887,31182
32820,4919,30740
32812,4898,30983
32856,4810,31109
32920,4812,30790
32928,4823,30774
32920,4835,30836
32940,4872,30905
32904,4909,30996
32840,4927,30524
32816,4866,30829
32796,4858,30629
32736,4847,30671
32794,4844,30773
32832,4837,30669
32836,4864,30624
32852,4879,30663
32804,4940,30681
32640,4877,30652
32360,4865,30759
32168,4871,30577
32036,4868,30480
31960,4849,30476
31904,4838,30525
31812,4855,30581
31796,4900,30502
31812,4825,30453
31837,4852,30389
31928,4880,30430
32168,4891,30564
32576,4902,30425
33160,4882,30436
33940,4891,30095
34924,4937,30213
35996,4978,30461
36666,4921,30351
36998,4899,30295
37488,4929,30470
38284,4952,30244
38828,4951,30317
39180,4939,30281
39616,4946,30178
40260,4909,30252
40696,4893,30368
40664,4996,29913
40200,4836,30045
39620,4836,30086
39176,4867,30142
38612,4885,29998
37548,4948,30135
36416,4925,29923
35516,4927,29935
34812,4886,30017
34160,4865,29772
33642,4855,29860
33228,4857,29959
32852,4878,29807
32492,4911,29745
32193,4946,29679
31876,4930,29756
31684,4955,29821
31556,4922,29434
31440,4884,29602
31396,4876,29561
31372,4820,29555
31356,4826,29518
31304,4825,29466
31320,4919,29703
31296,4929,29469
31300,4915,29556
31212,4892,29461
31196,4878,29660
31220,4870,29431
31282,4845,29517
31364,4841,29520
31401,4844,29376
31416,4841,29479
31364,4883,29556
31348,4911,29178
31304,4894,29381
31288,4867,29273
31310,4863,29420
31316,4839,29052
31382,4963,29292
31464,4860,29309
31553,4846,29240
31600,4860,29230
31604,4869,29132
31572,4877,29284
31556,4874,28951
31564,4869,29055
31564,4983,29165
31580,4894,28713
31636,4869,28790
31662,4856,28901
31648,4872,28894
31628,4873,28972
31640,4879,28720
31640,4896,28789
31627,4895,28846
31624,4889,28638
31596,4902,28737
31616,4859,28537
31664,4819,28800
31712,4817,28466
31764,4823,28660
31740,4827,28760
31698,4865,28709
31692,4902,28686
31648,4888,28436
31616,4901,28692
31624,4900,28869
31644,4835,28661
31668,4816,28790
31688,4822,28644
31692,4833,28736
31688,4833,28848
31656,4860,28985
31625,5028,28887
31568,4915,28953
31519,4891,28948
31480,4900,28933
31509,4874,29071
31584,4819,29090
31628,4819,29122
31647,4867,29045
31690,4868,29236
31684,4860,29145
31626,4882,29446
31557,4935,29348
31504,4894,29190
31524,4887,29480
31544,4852,29541
31620,4822,29397
31656,4829,29494
31674,4826,29815
31672,4909,29663
31670,4907,29811
31592,4909,29785
31512,4895,29878
31464,4898,29943
31454,4871,29927
31508,4845,30151
31588,4874,30020
31668,4853,30160
31716,4864,30054
31752,4873,30232
31784,4878,30323
31796,4917,30487
31752,4906,30260
31726,4907,30450
31733,4873,30513
31808,4844,30521
31936,4895,30532
32024,4879,30591
32060,4884,30771
32092,4883,30764
32130,4910,30887
32144,4924,30743
32180,4916,30900
32189,4924,30941
32240,5020,30938
32292,4845,30980
32385,4822,31071
32476,4831,31037
32564,4849,31087
32632,4851,31169
32740,4895,31227
32772,4925,31334
32800,4916,31355
32816,4897,31484
32805,4888,31429
32828,4866,31486
32912,4853,31435
33008,4838,31533
33072,4865,31588
33093,4859,31604
33088,4887,31572
33066,4919,31684
33028,4936,31780
32992,5029,31764
32968,4875,31900
33000,4902,31679
33072,4879,31809
33104,4829,31781
33120,4832,31793
33152,4837,31831
33133,4877,31773
33128,4899,31781
33064,4900,31942
33036,4924,31996
32974,4924,32028
32956,4883,32173
33056,4852,31817
33132,4840,32066
33161,4853,32182
33178,4847,31931
33168,4882,32104
33100,4910,32263
33052,4891,31837
33024,4872,32140
32984,4925,32148
33012,4865,32215
33085,4841,31894
33128,4822,32157
33176,4945,32295
33200,4892,32044
33184,4883,32228
33112,4886,32086
33052,4949,32374
33015,4895,32227
33005,4908,31919
33017,4845,32249
33016,4817,32304
33088,4822,32183
33113,4833,32248
33120,4898,32353
33116,4886,32247
33060,4922,32013
32976,4882,32193
32932,4930,32031
32900,4914,32229
32893,4855,31863
32956,4853,32080
33008,4828,32221
33024,4827,32062
33056,4836,32119
33060,4914,32215
32996,4910,31916
32956,4905,31973
32908,4889,32162
32932,4879,31832
32956,4846,32035
32952,4821,32165
33048,4871,31953
33100,4852,31987
33104,4863,31948
33127,4863,32068
33072,4890,31892
33016,4880,31932
32989,4874,31823
32968,4877,31929
32960,4849,31525
32997,4821,31813
33052,4823,31895
33104,4833,31757
33113,4837,31773
33077,4866,31664
33008,4945,31741
32952,4942,31623
32944,4901,31663
32929,4895,31672
32876,4867,31783
32892,4831,31554
32965,4828,31621
33041,4832,31541
33100,4989,31674
33084,4917,31325
33015,4927,31555
33000,4925,31511
32972,4880,31333
32940,4874,31439
32956,4845,31485
32986,4831,31583
33033,4829,31111
33056,4842,31328
33059,4873,31340
33025,4888,31415
32981,4899,31362
32900,4902,31508
32856,4874,31305
32845,4872,31391
32896,4845,31269
32964,4823,31494
33020,4829,31284
33055,4891,31355
33116,4839,31201
33128,4863,31493
33124,4891,31222
33104,5025,31383
33096,4883,31236
33088,4878,31350
33108,4846,31426
33140,4821,31266
33180,4823,31468
33208,4834,31220
33252,4956,31442
33273,4865,31317
33216,4981,31525
33168,4962,31158
33152,5002,31385
33148,4931,31484
33124,4898,31521
33180,4875,31236
33200,4855,31558
33200,4851,31523
33181,4862,31483
33144,4866,31727
33076,4888,31535
33036,4887,31618
32964,4885,31647
32938,4947,31488
32936,4924,31717
32960,4962,31351
32976,4875,31703
32984,4864,31538
32985,4860,31824
32960,4882,31588
32832,4924,31772
32744,4908,31782
32732,4900,31732
32696,4898,31472
32684,4870,31809
32704,4856,31916
32744,4869,31710
32760,4881,31824
32764,4883,31889
32764,4915,31804
32694,4946,31855
32629,4949,32014
32576,4939,31604
32496,4937,31918
32476,4914,31636
32556,4915,31797
32584,4903,32002
32568,4884,31652
32580,4870,32022
32568,4901,32032
32536,4894,32063
32509,4894,31719
32484,4985,32052
32456,5026,32196
32464,4921,31759
32504,4889,32092
32552,4894,32221
32545,4887,32029
32589,4873,32100
32612,4885,32100
32588,4914,32102
32548,4897,32085
32540,4917,32136
32552,4917,32028
32560,4896,32181
32586,4840,31814
32617,4847,32004
32616,4857,32061
32636,4881,32148
32624,4900,31958
32624,4928,32165
32577,4924,32153
32568,4902,32061
32560,4903,32108
32544,4882,32095
32576,4863,32129
32608,4861,32135
32618,4855,32074
32602,4864,32188
32596,4886,32089
32574,4929,32139
32484,4911,31989
32400,4922,32080
32302,4882,32161
32237,4858,31735
32292,4855,32141
32334,4886,32020
32376,4850,32018
32400,4849,31934
32384,4909,31854
32336,4919,31940
32257,4942,32005
32232,4958,32112
32228,4887,31769
32228,4860,31879
32232,4845,31878
32310,4875,31952
32372,4862,32079
32428,4878,31602
32412,4916,31768
32421,4902,31578
32386,4902,31776
32320,4885,32029
32320,4886,31804
32376,4862,31863
32512,4836,31684
32584,4871,31801
32684,4899,31895
32752,4901,31836
32768,4922,31654
32679,4949,31862
32594,4957,31780
32562,4985,31760
32549,4887,31564
32572,4864,31580
32665,4876,31665
32724,4853,31665
32748,4860,31836
32752,4862,31421
32752,4899,31620
32698,4953,31437
32656,4903,31647
32644,4889,31586
32636,4885,31672
32586,4857,31676
32585,4837,31507
32652,4833,31608
32708,4841,31724
32708,4844,31340
32709,4873,31469
32684,4907,31565
32640,4900,31599
32576,4887,31425
32580,4888,31508
32585,4877,31566
32644,4841,31452
32736,4837,31584
32752,4847,31540
32740,4880,31663
32780,4894,31511
32756,4907,31361
32692,4915,31431
32632,4904,31478
32592,4904,31508
32644,4886,31186
32656,4861,31294
32685,4860,31551
32676,4877,31468
32644,4881,31321
32654,4907,31372
32592,4925,31460
32576,4925,31455
32532,4925,31461
32476,4922,31172
32480,4897,31415
32576,4868,31537
32676,4874,31325
32700,4858,31415
32680,4870,31412
32652,4890,31388
32548,4942,31412
32432,4964,31541
32292,4894,31081
32072,4884,31238
31892,4892,31123
31800,4865,31261
31710,4865,31459
31608,4880,31127
31496,4899,31337
31509,4969,31500
31580,4895,31137
31600,4906,31317
31664,4895,31421
31988,4918,31256
32404,4889,31325
32904,4882,31423
33680,4898,31316
34574,4895,31303
35440,4919,31332
36076,4948,31281
36272,4998,31221
36192,4997,31423
36384,4906,30983
36748,4924,31357
37096,4926,31252
37416,4859,31270
37872,4861,31112
38136,4866,31157
38028,4864,31231
37604,4893,31350
36856,4947,30983
36288,4929,31015
35821,4932,31140
35204,4945,31140
34661,4923,31236
34224,4906,31068
33844,4912,31041
33504,4920,30937
33300,4859,31004
33122,4876,31101
32884,4901,30870
32576,4904,30961
32304,4899,30884
32097,4890,30839
31922,4868,30918
31870,4839,30990
31840,4843,30790
31822,4849,30837
31764,4856,30877
31736,4878,30799
31660,4916,30641
31584,4929,30836
31508,4913,30769
31452,4928,30831
31428,4919,30540
31496,4943,30605
31557,4897,30785
31616,4923,30349
31632,4859,30461
31640,4880,30657
31636,4905,30308
31592,4909,30691
31562,4929,30327
31569,4909,30500
31588,4912,30455
31664,4985,30401
31716,4842,30393
31742,4847,30438
31796,4886,30376
31813,4902,30377
31840,4953,30364
31806,4903,30279
31788,4901,30312
31816,4912,30233
31796,4941,29953
31852,4842,30197
31912,4859,29926
31940,4869,29949
31908,4891,29931
31925,4964,29955
31920,4905,29996
31904,4941,29902
31920,4929,29973
31928,4962,29775
31948,4872,29857
32005,4859,29685
32052,4856,29493
32084,4885,29640
32084,4874,29581
32113,4897,29607
32092,4930,29222
32049,4933,29332
32036,4933,29493
32037,4932,29415
32028,4914,29214
32052,4880,29349
32080,4878,29079
32084,4882,29310
32120,4881,29237
32128,4921,29191
32080,5057,29218
31992,4911,29388
31960,4911,29165
31944,4912,29277
31937,4916,29381
31972,4938,29244
32004,4967,29141
32044,4856,29238
32076,4875,29267
32092,4900,29118
32068,4948,29164
32017,5060,29272
32000,4914,29402
31980,4913,29293
31984,4900,29141
32033,4901,29200
32113,4944,29314
32132,4859,29454
32112,4868,29352
32144,4940,29261
32108,4918,29385
32068,4919,29488
32052,4939,29303
32060,4916,29420
32072,4921,29380
32144,4904,29359
32217,4910,29453
32284,4916,29437
32320,4937,29558
32328,4892,29447
32260,4919,29241
32260,4916,29482
32276,4906,29653
32316,4919,29256
32364,4921,29420
32425,4883,29652
32512,4873,29295
32596,4890,29536
32648,4916,29713
32692,4949,29524
32668,4916,29644
32660,4927,29749
32660,4936,29652
32664,4912,29788
32700,4897,29677
32776,4896,29783
32872,4870,29586
32920,4882,29710
32954,4889,29709
33000,4914,29661
33012,4965,29736
32997,4981,29728
32976,4913,29623
32932,4905,29763
32944,4918,29868
32968,4883,29774
33012,4892,29703
33056,4912,29726
33068,4937,29785
33044,4893,29909
32989,4918,29548
32928,4927,29626
32868,4948,29772
32816,4923,29807
32800,4931,29911
32873,4862,29514
32952,4857,29747
32965,4863,29873
32960,4876,29791
32984,4910,29728
32936,4958,29550
32876,4967,29748
32848,4914,29885
32837,4910,29580
32844,5041,29807
32928,4923,29703
32942,4922,29729
32969,4927,29799
33016,4921,29695
33034,4915,29763
32968,4961,29614
32928,4974,29764
32901,4919,29895
32848,4907,29492
32832,4892,29756
32896,4855,29897
32966,4863,29823
33004,4885,29894
33016,4922,29829
33000,4893,29910
32976,4945,29819
32884,4938,29750
32856,4967,29758
32856,4907,29703
32812,4903,29724
32897,4884,29688
32982,4903,29720
32984,4867,29505
33004,4897,29617
32970,4913,29615
32916,4966,29571
32884,4922,29581
32856,4920,29508
32809,4921,29545
32841,4901,29637
32888,4881,29725
32948,4887,29634
32956,4926,29732
32984,4877,29620
32948,4893,29736
32912,4940,29575
32856,4954,29488
32804,4947,29660
32832,4931,29530
32865,4927,29361
32900,4869,29429
32938,4862,29481
32933,4871,29628
32956,4889,29234
32980,4910,29454
32948,4933,29449
32900,4953,29340
32864,4977,29381
32868,4909,29310
32864,4891,29381
32938,4861,29164
33012,4868,29372
33036,4908,29007
33032,4896,29219
33036,4916,29142
33028,4923,29201
33000,4936,29134
33008,4942,29206
33028,4928,29319
33053,4932,28878
33088,4922,28980
33128,4866,29036
33132,4876,29110
33168,4909,29127
33168,4926,29078
33104,4971,29191
33008,4927,29036
32956,4916,28917
32952,4943,28902
32969,4920,28964
33000,4918,29099
33004,4992,28956
33044,4871,29023
33048,4890,28679
33072,4911,28743
33020,4950,28805
32944,4969,28910
32936,4924,29004
32880,4916,28644
32920,4894,28796
32969,4871,28869
33040,4882,28823
33064,4914,28930
33045,4943,28589
33044,4899,28820
33016,4940,28550
32970,4949,28829
32973,4958,28940
32976,4978,28792
32968,4899,28823
33032,4874,28718
33088,4896,28804
33108,4918,28798
33136,4883,28765
33148,4913,28900
33100,4965,28512
33024,4952,28641
32976,4959,28709
32952,4981,28772
32968,4904,28853
32998,4873,28785
33017,4886,28871
33056,4906,28773
33028,4984,28895
33060,4912,28780
33044,4951,28849
32968,4983,28770
32896,4921,28812
32848,4948,28747
32848,4936,28646
32913,4882,28641
32992,4870,28639
33008,4897,28580
33012,4921,28656
33000,5037,28701
32988,4932,28620
32950,4963,28556
32900,4932,28688
32884,4924,28788
32868,4927,28699
32892,4943,28797
32941,4869,28405
32972,4901,28656
32996,4906,28423
32948,4945,28495
32909,4976,28693
32852,4995,28669
32812,4988,28503
32804,4931,28610
32808,4907,28660
32868,4879,28517
32960,4896,28608
33016,4898,28645
33018,4934,28768
33040,5054,28430
32972,4934,28605
32908,4936,28740
32868,4949,28591
32848,4965,28493
32849,4988,28371
32908,4888,28455
32976,4893,28505
33024,4903,28561
33052,4928,28639
33052,4911,28621
33000,4937,28706
32968,4977,28388
32912,4955,28528
32897,4979,28692
32920,4916,28626
32936,4891,28564
32964,4913,28651
32996,4907,28580
33024,4923,28506
33056,4954,28641
32998,4991,28637
32940,5001,28500
32884,4933,28656
32844,4933,28648
32816,4922,28525
32857,4919,28724
32928,4902,28396
32940,4936,28579
32936,4901,28636
32908,4915,28708
32840,4950,28810
32748,4963,28610
32700,4980,28702
32696,4967,28708
32676,4977,28735
32692,4975,28870
32736,5027,28484
32740,5037,28725
32736,4901,28769
32712,4933,28756
32720,4988,28737
32628,5008,28773
32572,5020,28881
32568,4938,28764
32640,4919,28600
32704,4895,28820
32748,4905,28807
32801,4924,28797
32852,4939,28722
32932,4931,28806
32900,4966,28656
32864,4973,28951
32858,4963,28727
32901,4977,28733
32936,4966,28935
32988,4940,28741
33024,4931,28551
33020,4956,28807
33012,4955,28976
32992,4978,28764
32926,5008,28848
32892,5015,28791
32933,5012,28999
32952,5059,28613
32936,4921,28702
32952,4894,28863
33012,4893,28890
33004,4932,28916
33036,4920,28807
33012,4943,28909
32972,4976,28867
32900,4998,28786
32824,5026,28764
32804,5063,28816
32804,4930,28893
32872,4917,28999
32886,4903,28797
32924,4903,28953
32980,4915,29070
32984,4951,28721
32946,4973,28774
32860,4983,28988
32832,4983,28688
32816,4965,28972
32850,4946,28974
32898,4931,28860
32921,4925,28980
32968,4947,29063
32996,4963,29007
32988,4964,28968
32964,4995,29079
32920,5001,29036
32884,5009,29156
32852,5002,28894
32828,5000,28996
32892,4901,28964
32964,4935,28996
32982,4924,29089
32972,4943,29108
32928,4986,29018
32876,4959,29066
32840,4963,29225
32820,4954,29156
32792,4948,29114
32809,4936,29282
32832,4914,28891
32880,4924,29116
32897,4934,29223
32836,4961,29213
32728,4935,29256
32524,4962,29093
32276,4982,29089
32080,4996,29176
31932,4957,29178
31784,4972,29001
31772,4956,29337
31856,4903,29318
31906,4952,29433
31936,4970,29332
32108,4934,29278
32388,4996,29321
32756,5003,29377
33381,4969,29366
34232,4969,29404
35188,4981,29421
36220,4944,29537
36840,4981,29196
37060,4929,29332
37508,4969,29453
38228,4976,29460
38680,5039,29437
38948,5074,29423
39380,4980,29510
39896,4994,29584
40160,4984,29393
39936,4980,29403
39488,4924,29399
38902,4962,29416
38524,4950,29600
37740,4983,29290
36686,5034,29402
35744,4981,29472
35002,4975,29130
34360,4987,29286
33848,5003,29253
33488,4920,29316
33164,4909,29416
32836,4924,29148
32528,4942,29294
32240,4979,29305
32008,5030,29372
31824,5050,29428
31648,4965,29255
31504,4990,29315
31452,4960,29483
31460,4935,29220
31504,4932,29350
31536,4963,29447
31524,4976,29258
31496,5016,29354
31433,4972,29294
31396,4975,29256
31356,4972,29365
31317,4979,29484
31364,4982,29076
31404,4938,29222
31463,4957,29316
31476,4963,29396
31488,4927,29496
31490,4949,29392
31468,5002,29508
31409,4990,29256
31389,5000,29356
31396,5048,29353
31404,4950,29407
31452,4919,29420
31524,4926,29277
31568,4928,29139
31536,4935,29161
31556,4947,29405
31564,4975,29105
31484,4979,29200
31428,4972,29020
31388,4969,29015
31400,4973,29057
31480,4940,28888
31536,4933,28902
31541,4938,28905
31544,4964,28678
31584,5002,28748
31544,4975,28754
31508,4979,28820
31484,4981,28447
31468,4994,28639
31453,4980,28739
31488,4939,28534
31576,4933,28625
31580,4960,28730
31613,4987,28360
31616,4999,28580
31568,5017,28689
31488,5037,28332
31404,5058,28541
31352,4972,28607
31340,4957,28647
31376,4929,28628
31425,4925,28812
31444,4931,28469
31472,4960,28726
31504,4967,28866
31520,4996,28540
31512,5011,28739
31528,4991,28981
31538,4990,28679
31544,4989,28919
31593,4955,29132
31624,4939,29156
31628,4945,29001
31636,4964,29185
31668,4978,29159
31652,5001,29367
31596,5015,29351
31540,5017,29205
31532,4989,29440
31500,4984,29300
31596,4959,29662
31648,4938,29446
31680,4949,29652
31712,4953,29615
31756,4983,29879
31740,5013,29759
31684,5001,29689
31632,5008,29811
31620,5012,29901
31618,4994,30020
31676,4975,29936
31710,4985,30148
31800,4967,30084
31808,4964,30236
31868,4994,30277
31845,4992,30422
31810,4997,30296
31808,5020,30404
31824,4994,30528
31860,4984,30566
31952,4982,30740
32020,4974,30432
32092,4988,30681
32144,4983,30764
32202,4989,30761
32148,5003,30860
32120,5009,30930
32136,5020,30913
32176,5006,31116
32248,4988,31006
32360,4945,31118
32484,4939,31128
32552,4966,31293
32612,4983,31045
32652,4978,31276
32652,5004,31515
32593,5009,31412
32573,5004,31310
32544,5018,31589
32608,5002,31577
32690,4967,31505
32793,4933,31803
32876,4937,31692
32924,5012,31476
32928,5011,31751
32932,5042,31876
32896,5032,31863
32856,5039,31887
32856,5039,31877
32856,5005,32002
32888,4953,32017
32929,4946,32196
32948,4967,32006
33004,4958,32127
33020,4973,32284
33024,4989,31964
32996,4988,32256
32948,4986,32390
32952,4978,32260
32948,4966,32380
33008,4940,32255
33072,4994,32445
33076,4989,32129
33040,4970,32514
33056,4973,32393
33024,5015,32694
32980,5009,32261
32892,4987,32652
32857,5041,32653
32852,4995,32525
32905,4960,32844
32960,4947,32668
32984,4945,32468
33044,4949,32790
33100,4959,32955
33080,5011,32862
33029,5013,32857
32984,5012,32844
32960,5023,32660
32932,4997,32945
32984,4947,32897
33008,4934,33087
33040,4941,33037
33044,4952,32912
33064,5016,32780
33037,5020,33021
33000,5028,33042
32972,4999,33040
32964,4982,32892
32929,4975,33020
32964,4946,33168
33020,4939,32863
33058,5024,33061
33056,4983,33047
33056,4975,33199
33040,4995,32806
32960,4997,33135
32940,5072,32984
32928,5044,33278
32944,5036,32964
32980,4999,33159
33000,4980,33103
32997,4980,33137
33018,4981,32796
33052,4991,33123
33050,5009,33268
33020,5036,32935
32993,5017,33135
32972,4994,33031
32964,4979,33137
33028,4949,32762
33076,5034,33111
33100,4999,32989
33108,4977,33202
33120,5004,33159
33105,5007,32786
33060,4999,33060
33024,5056,32956
33013,5039,33133
33037,5019,32962
33020,4983,33005
33054,4958,32964
33073,4973,33108
33100,4980,32692
33092,4991,32966
33072,5032,32903
33018,5014,32877
32980,4996,32957
32989,4991,32895
33012,4987,32885
33034,5013,32865
33132,4968,33012
33172,4967,32871
33152,4974,32591
33117,4972,32509
33037,4997,32754
32932,5009,32974
32900,5053,32854
32892,5021,32734
32912,5013,32796
32968,4969,32827
33036,4979,32898
33060,4951,32615
33076,4959,32832
33061,4977,32709
33040,5032,32852
32960,5028,32959
32926,5014,32825
32924,4996,32687
32954,5032,32705
33016,4996,32871
33104,4964,32805
33128,4988,32820
33097,4986,32832
33116,4997,32881
33120,5005,32800
33108,5015,32888
33048,5004,32549
33016,4998,32743
33010,5082,32798
33008,4982,32949
33116,4964,33029
33192,4957,32909
33160,4960,32624
33160,5027,32903
33144,5036,32919
33048,5029,32804
33008,5045,32924
32910,5027,33044
32868,4987,32993
32928,4957,32865
33024,4949,32944
33116,5102,32954
33152,4961,33058
33184,4979,32901
33185,5063,32604
33145,5038,32961
33060,5022,32988
32992,5026,32804
32908,4997,33015
32992,4960,33036
33072,5004,33042
33124,4991,32901
33121,4981,32751
33140,5005,32984
33120,5013,32824
33068,5018,33077
33020,5008,32888
33001,5122,32608
32956,5029,32940
32990,4986,32979
33040,4969,32884
33068,4988,32981
33068,4962,33093
33076,5054,33096
33048,5055,33042
33008,5059,32892
32996,5031,32877
32968,5039,32956
32972,5034,32989
33017,5001,32862
33033,4964,32988
32978,5028,32998
32906,5035,32975
32900,5014,32988
32916,5046,33013
32879,5027,32998
32872,5080,33022
32864,5028,33028
32848,5005,33031
32885,4969,33005
32956,5097,32894
32996,5029,33144
32988,5002,33189
32952,5006,33191
32900,5011,33108
32844,5020,33016
32788,5017,33012
32776,5075,32965
32776,5042,32817
32820,4991,33115
32876,4975,33068
32912,4969,32974
32932,4978,33197
32946,5031,33280
32948,5045,33228
32924,5051,33093
32836,5034,32804
32798,5029,33180
32776,5040,33028
32792,4977,33324
32868,4959,33150
32928,4966,32887
32945,5028,33216
32940,5020,33216
32924,5029,33248
32848,5025,33260
32780,5078,33255
32758,5040,33230
32696,5040,33223
32721,4975,33108
32812,4961,33415
32857,4973,33427
32876,5008,33445
32871,5003,33427
32884,5039,33355
32868,5029,33268
32858,5141,33192
32832,5042,33287
32800,5029,33012
32826,5009,33388
32840,4964,33399
32800,5093,33413
32752,5021,33369
32740,5019,33237
32728,5037,33413
32644,5031,33350
32573,5026,33471
32560,5074,33524
32580,5058,33270
32608,5032,33456
32668,5015,33396
32680,5053,33510
32732,4987,33092
32744,4993,33480
32724,5055,33475
32701,5036,33391
32696,5174,33126
32716,5076,33474
32741,5069,33502
32788,5030,33475
32832,4992,33308
32928,4982,33260
33001,4989,33505
33016,5075,33428
32992,5084,33372
32920,5072,33421
32832,5052,33623
32804,5019,33631
32788,5017,33538
32800,4987,33277
32876,5029,33156
32957,5031,33512
32993,5026,33409
33008,5030,33592
32973,5051,33644
32916,5060,33500
32848,5063,33479
32818,5057,33509
32772,5043,33476
32784,5001,33605
32812,4987,33453
32844,5018,33485
32872,5027,33482
32904,5014,33632
32920,5053,33166
32864,5074,33340
32812,5102,33447
32746,5151,33525
32724,5020,33472
32760,5139,33576
32828,5033,33159
32884,5015,33537
32904,5025,33368
32916,5044,33519
32969,5087,33541
32948,5043,33463
32900,5032,33577
32872,5025,33169
32832,5022,33457
32858,5003,33519
32926,5011,33556
32940,5021,33490
32985,5004,33449
33016,5014,33577
32986,5063,33640
32896,5082,33500
32860,5062,33573
32792,5045,33540
32777,5036,33703
32812,5023,33607
32888,4978,33524
32972,4982,33596
32988,4999,33625
33016,5109,33550
33004,5034,33697
32917,5112,33681
32840,5090,33535
32748,5072,33649
32616,5064,33671
32444,5011,33760
32314,5005,33365
32156,5008,33687
32028,5033,33617
31916,5029,33786
31740,5048,33652
31620,5086,33716
31596,5067,33543
31600,5071,33758
31668,5054,33565
31904,4999,33717
32336,4991,33719
32928,4998,33565
33690,5069,33846
34648,5010,33461
35660,5039,33748
36548,5223,33689
36928,5118,33832
37160,5105,33799
37856,5098,33424
38676,5054,33753
39192,5023,33728
39653,5016,33577
40308,5094,33590
40884,5082,33850
40944,5098,33693
40516,5125,33704
39832,5113,33668
39284,5108,33700
38796,5092,33660
37884,5071,33575
36804,5058,33529
35796,5091,33634
34988,5053,33495
34244,5033,33369
33612,5061,33436
33121,5076,33218
32644,5062,33493
32232,5068,33286
31912,5036,33256
31656,5006,33337
31533,4997,33230
31396,4995,33428
31296,5003,33312
31228,5131,33181
31148,5124,33244
31116,5103,33170
31012,5078,33325
30956,5060,33108
30929,5068,33160
30912,5024,33100
30920,4992,32975
31012,5005,33252
31088,5005,33004
31076,5013,33110
31056,5046,32925
31000,5058,33157
30941,5142,33112
30896,5082,33017
30916,5058,32933
30996,5032,32839
31072,4997,32868
31140,5076,32916
31169,5047,32926
31232,5034,32855
31228,5079,32831
31200,5083,32805
31160,5076,32460
31184,5045,32708
31188,5050,32668
31196,5011,32488
31256,4999,32525
31302,5005,32431
31301,5064,32255
31328,5070,32351
31317,5077,32169
31252,5077,31980
31228,5073,32135
31248,5083,32025
31280,5051,31828
31288,5014,31773
31388,5099,31973
31464,5052,31871
31469,5062,31516
31496,5041,31815
31521,5068,31709
31452,5081,31873
31372,5090,31762
31360,5057,31572
31348,5046,31727
31380,5016,31735
31456,5090,31652
31480,5125,31876
31492,5132,31665
31524,5068,31772
31524,5072,31775
31492,5082,31884
31432,5076,31747
31396,5074,31860
31404,5052,31892
31420,5016,31831
31498,5007,31884
31528,5011,31999
31544,5020,32013
31532,5090,32146
31528,5104,32034
31488,5166,32148
31448,5127,32180
31388,5106,32294
31376,5090,32197
31380,5051,32330
31408,5053,32308
31424,5064,32355
31492,5073,32476
31556,5133,32639
31584,5061,32233
31564,5130,32593
31509,5118,32701
31456,5094,32660
31472,5084,32762
31500,5047,32683
31576,5030,32903
31626,5033,32790
31640,5060,32933
31648,5046,32949
31636,5059,33013
31544,5071,33002
31517,5080,32979
31509,5111,32975
31498,5082,33287
31516,5029,33065
31588,5017,33357
31664,5018,33389
31696,5135,33349
31736,5074,33327
31797,5111,33456
31780,5139,33397
31776,5077,33567
31776,5068,33383
31794,5126,33607
31844,5151,33524
31960,5078,33817
32072,5047,33841
32140,5049,33879
32236,5043,33756
32272,5063,33740
32296,5133,33508
32324,5118,33911
32376,5085,33926
32448,5098,33961
32496,5069,33849
32622,5026,34127
32709,5024,34021
32744,5028,34063
32732,5161,34103
32704,5122,33969
32688,5133,34233
32644,5125,33918
32632,5099,34217
32636,5103,34205
32696,5032,34113
32760,5023,34264
32840,5063,34412
32900,5048,34285
32924,5068,34270
32926,5099,34268
32888,5085,34298
32858,5137,34444
32804,5095,34489
32810,5100,34359
32841,5036,34342
32892,5017,34028
32916,5082,34439
32916,5089,34415
32876,5089,34460
32896,5102,34297
32880,5096,34141
32788,5074,34455
32800,5071,34504
32816,5112,34511
32868,5055,34529
32972,5022,34535
33030,5025,34519
33060,5076,34519
33060,5052,34484
33058,5064,34524
32996,5143,34553
32896,5106,34504
32860,5107,34516
32830,5086,34711
32836,5040,34643
32872,5022,34528
32951,5021,34578
33006,5035,34535
33008,5159,34536
33016,5183,34706
32985,5174,34605
32912,5135,34469
32880,5110,34173
32879,5084,34228
32888,5078,34544
32960,5028,34551
32976,5028,34535
33024,5111,34501
33012,5078,34492
33032,5095,34620
32960,5124,34612
32932,5127,34452
32940,5148,34512
32956,5176,34377
32968,5127,34607
33052,5079,34447
33098,5061,34081
33168,5055,34448
33120,5070,34266
33120,5066,34273
33092,5095,34423
33020,5142,34460
32984,5131,34300
32948,5118,33977
32888,5087,34336
32932,5060,34183
32956,5062,34292
33017,5064,34358
33020,5041,34262
33028,5162,34213
32982,5152,33884
32948,5133,34204
32920,5105,34181
32917,5106,34116
32953,5078,34254
32993,5053,34061
33036,5069,33914
33072,5043,34055
33096,5041,34055
33072,5141,33972
33004,5148,34054
32956,5119,34101
32917,5107,33940
32892,5109,33791
32900,5059,33908
32948,5034,33903
33016,5031,33731
33021,5042,33996
33061,5048,33940
33064,5133,33777
33024,5126,33697
32988,5106,33823
32962,5105,33791
32940,5083,33621
32960,5057,33894
33024,5041,33686
33064,5036,33764
33092,5045,33644
33140,5043,33820
33135,5081,33692
33085,5182,33616
32988,5149,33393
32904,5132,33712
32884,5125,33716
32912,5076,33685
33036,5048,33628
33100,5072,33568
33084,5086,33758
33092,5076,33484
33112,5093,33678
33096,5101,33669
33012,5097,33481
32985,5091,33772
33000,5083,33652
33036,5060,33580
33072,5092,33454
33092,5069,33668
33108,5085,33633
33108,5066,33564
33076,5085,33727
32972,5098,33482
32916,5095,33652
32877,5091,33560
32900,5114,33760
32940,5084,33580
32984,5061,33637
33076,5043,33576
33104,5058,33760
33132,5056,33577
33128,5098,33641
33064,5139,33597
32984,5108,33639
32900,5091,33492
32932,5091,33624
32960,5060,33445
32981,5056,33551
33008,5062,33614
33028,5059,33532
33096,5058,33543
33086,5091,33733
33036,5241,33636
32996,5167,33513
32968,5148,33548
32922,5139,33581
32932,5082,33540
32984,5061,33452
33008,5045,33455
32982,5060,33524
32984,5106,33508
33000,5106,33403
32988,5149,33653
32964,5108,33652
32941,5150,33607
32904,5143,33681
32924,5111,33558
32924,5061,33535
32950,5076,33472
32997,5060,33428
33024,5168,33368
33010,5139,33545
32941,5177,33493
32884,5166,33585
32900,5159,33482
32892,5157,33185
32940,5124,33567
32992,5100,33471
33044,5102,33629
33056,5115,33486
33080,5118,33562
33077,5152,33511
33056,5170,33567
32976,5190,33508
32928,5169,33542
32897,5158,33553
32912,5113,33513
32964,5092,33664
33016,5086,33449
33056,5078,33596
33088,5097,33437
33080,5107,33684
33004,5117,33623
32872,5115,33454
32844,5104,33617
32820,5104,33619
32820,5166,33559
32886,5109,33628
32918,5106,33581
32924,5105,33627
32960,5096,33678
32984,5130,33636
32920,5138,33654
32865,5129,33639
32817,5115,33722
32776,5106,33559
32780,5084,33688
32868,5102,33639
32972,5092,33826
32969,5095,33674
32957,5093,33369
32892,5136,33678
32812,5165,33821
32700,5154,33724
32688,5147,33743
32704,5138,33602
32732,5111,33821
32799,5081,33661
32884,5079,33774
32889,5077,33677
32904,5077,33893
32920,5105,33704
32888,5125,33763
32857,5120,33749
32844,5113,33728
32876,5114,33901
32852,5216,33837
32904,5061,33588
32956,5064,33832
32968,5203,33799
32990,5135,33692
32956,5141,33807
32904,5156,33829
32876,5149,33478
32877,5134,33860
32858,5129,33679
32856,5088,33867
32908,5064,33893
32992,5066,33509
32988,5074,33837
33008,5079,33766
33036,5107,33964
32976,5133,33731
32929,5127,33892
32920,5119,33719
32912,5116,34031
32928,5136,34016
32993,5097,34021
33012,5117,33852
32992,5142,33904
32972,5121,33895
33018,5144,33791
33016,5154,34004
32996,5151,33623
32992,5141,33918
32972,5149,33797
32984,5092,33812
33068,5076,33799
33125,5115,33777
33156,5108,34020
33160,5110,33985
33132,5157,33705
33088,5197,33939
33016,5134,33833
32972,5122,33996
32940,5123,33841
32940,5094,33924
32972,5076,33826
33024,5076,33988
33044,5083,33844
33060,5091,33898
33076,5115,33889
33020,5140,34033
32977,5175,33538
32984,5166,33896
32948,5144,34038
32960,5129,33583
33006,5132,33904
33032,5206,33763
33040,5241,33892
33036,5092,34017
32961,5120,33817
32900,5149,33902
32812,5219,33768
32758,5173,33829
32733,5179,33964
32732,5160,33534
32748,5132,33831
32748,5131,33949
32744,5111,33984
32772,5117,33820
32808,5143,33497
32776,5150,33849
32722,5146,33764
32684,5195,33849
32673,5177,33940
32652,5132,33799
32704,5117,33842
32766,5094,33817
32812,5094,33857
32768,5097,33796
32760,5134,33853
32724,5153,33687
32700,5172,33871
32684,5156,33844
32702,5170,33799
32736,5158,33849
32808,5158,33839
32904,5091,33729
32948,5095,33759
32876,5098,33826
32816,5133,33671
32768,5157,33913
32716,5157,33721
32684,5151,33804
32724,5178,33678
32756,5120,33852
32840,5111,33759
32920,5105,33679
32957,5111,33799
32948,5115,33647
32892,5141,33914
32765,5153,33727
32696,5153,33774
32628,5146,33602
32580,5140,33861
32556,5116,33719
32620,5200,33678
32736,5157,33767
32776,5155,33671
32804,5151,33885
32852,5185,33722
32804,5260,33756
32704,5156,33578
32692,5147,33895
32670,5149,33652
32688,5159,33756
32744,5140,33882
32808,5163,33761
32848,5253,33765
32921,5114,33584
32932,5140,33741
32912,5163,33589
32848,5164,33871
32796,5156,33663
32740,5151,33788
32756,5127,33735
32808,5100,33798
32844,5104,33850
32860,5111,33422
32820,5114,33749
32844,5141,33924
32784,5169,33488
32718,5169,33799
32657,5179,33735
32680,5171,33912
32733,5144,33468
32796,5133,33796
32824,5121,33707
32833,5127,33988
32864,5132,33933
32800,5159,33612
32648,5179,33873
32516,5185,33900
32344,5177,33936
32200,5176,33589
32065,5163,33879
31917,5153,33972
31820,5142,33952
31720,5157,33941
31596,5163,33898
31580,5185,33799
31580,5193,34085
31572,5201,34118
31776,5160,34086
32160,5166,33945
32672,5141,33831
33401,5117,34023
34320,5117,33969
35292,5126,33856
36280,5135,34167
36872,5231,34085
36960,5244,33823
37212,5252,34079
37810,5248,33941
38396,5240,34148
38772,5198,33999
39160,5171,34050
39652,5171,34054
39896,5173,34063
39652,5161,34156
39092,5185,33991
38296,5208,34048
37772,5228,34017
37076,5213,33961
36144,5204,34041
35264,5181,33607
34597,5127,33908
34112,5124,33734
33656,5139,33769
33296,5213,33909
32976,5305,33588
32564,5192,33831
32192,5187,33918
31878,5194,33732
31649,5204,33820
31500,5167,33943
31408,5141,33493
31336,5141,33736
31288,5152,33908
31240,5159,33630
31176,5186,33785
31162,5201,33701
31104,5199,33724
31096,5196,33737
31072,5209,33780
31092,5203,33821
31152,5165,33845
31208,5156,33682
31261,5162,33756
31264,5166,33703
31264,5191,33693
31208,5205,33847
31132,5220,33735
31060,5198,33681
31016,5199,33558
31040,5173,33597
31164,5155,33743
31296,5141,33724
31380,5144,33490
31450,5143,33189
31464,5171,33518
31456,5239,33495
31424,5236,33287
31404,5236,33479
31392,5261,33027
31350,5292,33276
31432,5130,33222
31549,5134,33181
31616,5154,33121
31610,5171,33052
31612,5168,32871
31580,5197,33086
31492,5192,32932
31460,5188,32714
31422,5182,32923
31472,5160,32713
31548,5136,33012
31612,5198,32925
31668,5179,32840
31668,5164,32764
31712,5195,32869
31680,5237,32701
31660,5237,32940
31632,5223,32641
31580,5221,32921
31549,5197,32826
31564,5161,32924
31616,5151,33040
31636,5151,33084
31696,5162,32935
31708,5237,33022
31648,5245,33092
31608,5233,32967
31616,5213,33239
31652,5221,33156
31676,5208,33217
31752,5191,33175
31820,5186,33426
31789,5185,33287
31776,5199,33415
31730,5223,33455
31664,5211,33452
31604,5213,33545
31532,5204,33520
31508,5195,33713
31564,5235,33652
31620,5202,33359
31680,5191,33764
31705,5188,33713
31744,5173,33940
31785,5215,33777
31769,5212,33965
31688,5224,33982
31615,5219,34047
31520,5217,34088
31516,5188,34114
31591,5158,34129
31653,5149,33952
31672,5158,34260
31709,5284,34159
31709,5234,34472
31728,5261,34271
31736,5272,34383
31736,5212,34614
31762,5244,34530
31796,5214,34335
31824,5190,34589
31892,5189,34755
31932,5203,34500
31944,5190,34695
31968,5211,34906
31977,5245,34780
32000,5246,34847
31988,5226,34769
32028,5205,34999
32088,5185,34676
32212,5209,35023
32272,5190,34987
32376,5182,35093
32448,5181,35236
32508,5192,35196
32560,5283,34823
32576,5272,35228
32580,5243,35242
32600,5226,35400
32641,5188,35355
32712,5162,34993
32728,5225,35444
32714,5221,35367
32792,5201,35642
32864,5218,35529
32831,5238,35564
32721,5225,35626
32652,5215,35516
32688,5216,35786
32700,5247,35737
32804,5218,35733
32944,5186,35783
32988,5198,35743
33039,5171,35969
33092,5198,35836
33040,5226,35925
32986,5320,35916
32921,5254,35833
32919,5227,36119
32892,5188,36077
33000,5239,36221
33068,5198,36097
33080,5203,36072
33032,5175,36135
32960,5201,36131
32932,5270,35809
32880,5265,36268
32896,5266,36224
32932,5259,36308
32970,5241,36469
33056,5227,36471
33152,5210,36495
33216,5196,36447
33232,5193,36370
33216,5213,36480
33189,5253,36516
33064,5225,36517
32998,5221,36516
32960,5215,36657
32956,5194,36573
32988,5214,36552
32992,5220,36210
32996,5222,36615
33009,5220,36532
33037,5220,36449
33064,5248,36709
33060,5249,36577
33052,5237,36483
33076,5255,36639
33064,5235,36637
33116,5178,36482
33168,5171,36791
33196,5177,36674
33148,5185,36259
33158,5208,36668
33124,5382,36573
33014,5307,36709
32944,5275,36773
32912,5262,36621
32908,5228,36416
32960,5193,36631
33057,5195,36444
33081,5205,36565
33114,5192,36705
33132,5207,36664
33061,5340,36527
33012,5279,36453
32972,5256,36327
32936,5247,36452
32919,5220,36396
32916,5199,36532
32964,5188,36359
32996,5223,35921
33004,5199,36332
33044,5212,36156
33036,5236,36396
33000,5375,36225
33008,5236,35767
32993,5289,36143
32996,5242,36086
33033,5204,36160
33136,5212,36190
33092,5189,36092
33128,5191,36124
33136,5212,35902
33118,5235,35556
33092,5238,35899
33068,5232,35797
33000,5233,35730
32960,5214,35879
33052,5259,35703
33116,5237,35485
33164,5221,35693
33164,5245,35505
33144,5271,35733
33101,5309,35425
33008,5347,35604
33024,5294,35561
32984,5290,35445
32940,5292,35565
33000,5334,35584
33044,5182,35170
33088,5194,35452
33100,5290,35373
33132,5269,35217
33189,5273,35324
33168,5271,35444
33164,5273,35268
33068,5235,35034
33068,5218,35261
33100,5244,35273
33136,5219,35199
33144,5231,35349
33194,5242,35132
33220,5249,34927
33177,5264,35166
33148,5266,35101
33072,5258,34996
32994,5269,35169
32968,5242,35135
33036,5221,35038
33065,5191,35037
33080,5197,34983
33048,5199,35033
33008,5279,35113
32943,5274,34869
32928,5251,34965
32925,5249,35049
32948,5299,34853
33012,5266,34503
33090,5221,34875
33156,5207,34844
33148,5199,34788
33156,5301,34944
33144,5258,34882
33096,5281,34695
33016,5280,34780
33004,5271,34713
32996,5243,34724
32972,5229,34647
33000,5211,34372
33028,5190,34663
33024,5207,34636
33020,5208,34652
33042,5281,34695
32996,5309,34242
33001,5258,34428
33005,5346,34686
32972,5296,34492
32980,5268,34543
33022,5239,34356
33092,5231,34550
33140,5229,34117
33104,5228,34460
33100,5247,34288
33048,5269,34417
32990,5278,34417
32984,5284,34423
32968,5242,34351
32960,5320,34460
33004,5251,34392
33004,5222,34279
33008,5235,34332
33016,5215,34348
33064,5227,34159
33048,5253,34414
32961,5259,34292
32952,5253,34167
32958,5292,34213
32952,5246,34247
32972,5221,34071
33020,5198,34324
33068,5204,34126
33047,5267,34189
32999,5274,34144
32944,5293,34242
32837,5287,34114
32792,5291,33807
32756,5253,34054
32744,5255,34076
32808,5224,34098
32884,5194,34012
32933,5206,33733
32940,5250,34064
32992,5261,34058
32973,5256,34076
32933,5381,34009
32858,5286,33868
32740,5277,33865
32736,5235,34141
32796,5201,34068
32829,5201,33668
32888,5247,34004
32880,5225,34022
32908,5233,33972
32868,5255,34086
32792,5267,34025
32752,5311,33749
32732,5267,33956
32778,5256,33988
32856,5212,33808
32924,5198,33861
32920,5262,34099
32869,5266,33961
32872,5286,33958
32836,5332,33805
32772,5325,34077
32749,5300,33912
32724,5282,33655
32737,5266,33933
32781,5228,34013
32820,5215,33932
32812,5239,33596
32776,5215,33948
32752,5343,33943
32692,5305,33767
32624,5281,33924
32612,5256,34029
32584,5310,34055
32616,5276,34031
32694,5228,33866
32778,5231,33636
32852,5207,33924
32888,5295,33895
32908,5272,33759
32892,5293,34043
32844,5302,33859
32777,5277,33927
32740,5281,33917
32680,5236,33796
32732,5211,34005
32688,5257,33999
32628,5234,33863
32672,5235,33553
32692,5232,33933
32696,5264,33785
32672,5318,34025
32660,5311,33851
32636,5284,33937
32632,5270,33935
32670,5218,33842
32720,5207,33890
32768,5271,33752
32764,5251,33989
32812,5263,33989
32776,5279,33817
32692,5301,33545
32696,5267,33903
32704,5257,33940
32736,5241,33992
32724,5219,33927
32733,5253,33841
32698,5240,33758
32677,5233,33895
32680,5238,33919
32636,5258,33784
32584,5271,34021
32548,5315,34005
32528,5271,33976
32492,5240,33927
32468,5221,33736
32512,5262,33901
32540,5254,33866
32540,5261,33793
32556,5265,33988
32548,5289,33953
32524,5273,33821
32480,5263,33888
32468,5260,33766
32496,5312,33989
32605,5265,33804
32716,5254,33511
32732,5259,33861
32712,5252,33717
32736,5276,33960
32724,5293,33871
32721,5286,33761
32700,5284,33860
32672,5295,33843
32628,5254,33705
32604,5237,33950
32677,5209,33860
32724,5219,33655
32760,5228,33826
32769,5238,33768
32708,5263,33734
32672,5271,33788
32664,5271,33881
32692,5319,33820
32696,5299,33472
32704,5247,33764
32740,5245,33678
32780,5257,33824
32789,5246,33687
32740,5249,33676
32720,5270,33655
32637,5272,33746
32625,5268,33549
32624,5337,33838
32580,5301,33631
32640,5245,33340
32714,5236,33644
32773,5238,33820
32768,5252,33671
32740,5261,33655
32688,5285,33695
32608,5313,33684
32548,5291,33652
32536,5286,33566
32501,5278,33581
32520,5243,33619
32600,5234,33453
32616,5253,33628
32617,5271,33562
32624,5273,33584
32644,5311,33707
32618,5306,33501
32560,5306,33591
32548,5316,33604
32576,5303,33533
32624,5279,33177
32652,5261,33539
32608,5267,33357
32556,5248,33460
32540,5270,33505
32572,5295,33513
32588,5295,33511
32604,5288,33468
32572,5271,33481
32588,5253,33564
32692,5226,33316
32780,5214,33478
32789,5223,33333
32832,5228,33444
32864,5243,33473
32892,5271,33100
32916,5280,33445
32864,5343,33394
32820,5328,33327
32800,5306,33506
32832,5277,33358
32936,5247,33092
32932,5243,33421
32913,5246,33359
32912,5273,33236
32900,5292,33522
32943,5297,33348
32876,5305,33150
32840,5276,33370
32832,5276,33316
32860,5231,33415
32900,5215,33494
32904,5223,33255
32876,5325,33356
32892,5302,33344
32868,5311,33258
32824,5309,33319
32836,5290,33465
32800,5268,33468
32764,5295,33183
32813,5254,33455
32821,5235,33313
32844,5242,33311
32844,5252,33202
32856,5264,33439
32848,5290,33316
32808,5312,33270
32829,5289,33292
32820,5292,33128
32796,5291,33341
32820,5277,32929
32872,5279,33263
32908,5229,33280
32929,5233,33313
32960,5243,33127
32964,5276,33259
32892,5285,33226
32860,5281,33170
32836,5332,33365
32780,5316,33277
32780,5294,33211
32812,5283,33229
32836,5283,33146
32888,5274,33157
32924,5271,33302
32932,5300,33110
32864,5301,33205
32756,5293,33205
32680,5286,33164
32593,5254,33149
32464,5229,33294
32332,5223,33186
32268,5231,32879
32192,5326,33189
32116,5308,33092
32040,5338,33260
31984,5283,33081
31968,5282,33148
31972,5416,33077
32072,5262,33251
32432,5236,32904
32984,5225,33127
33524,5228,32976
34256,5236,33164
35132,5252,32966
36032,5287,33072
36736,5298,33040
36952,5289,33152
37016,5287,32909
37372,5280,33044
37984,5251,32876
38464,5238,33145
38740,5248,32897
39108,5252,32981
39432,5267,32785
39428,5290,32950
38996,5307,32936
38336,5316,32840
37653,5327,32799
37236,5290,32859
36620,5270,32772
35948,5256,32796
35284,5266,32513
34712,5272,32743
34256,5283,32546
33876,5315,32757
33564,5329,32556
33192,5331,32628
32848,5329,32596
32560,5305,32590
32340,5262,32262
32280,5251,32565
32244,5259,32546
32188,5268,32452
32116,5283,32503
32006,5314,32413
31872,5327,32588
31768,5334,32374
31732,5331,32448
31684,5271,32246
31720,5237,32452
31792,5230,32349
31800,5253,32226
31816,5254,32392
31884,5272,32035
31870,5298,32292
31813,5338,32417
31768,5342,32178
31720,5333,32253
31764,5323,32205
31796,5302,32316
31856,5228,31900
31857,5236,32167
31901,5237,32230
31908,5250,32124
31892,5284,32079
31828,5290,31869
31760,5285,32133
31756,5281,31892
31764,5268,31957
31868,5245,31884
31982,5259,31804
32068,5253,31829
32136,5276,31807
32178,5266,31900
32168,5297,31740
32097,5309,31485
32028,5312,31783
32038,5292,31770
32044,5292,31820
32102,5260,31788
32180,5253,31790
32220,5273,31746
32208,5298,31836
32184,5370,31932
32156,5338,31872
32064,5339,31871
32028,5287,31799
31978,5314,32015
31956,5291,31892
31968,5269,32032
32012,5238,31876
31976,5248,32204
31973,5260,31999
31989,5254,32168
31952,5290,32192
31888,5398,32375
31828,5362,32287
31800,5431,32400
31772,5370,32299
31808,5286,32625
31858,5285,32566
31876,5285,32597
31892,5325,32719
31933,5342,32780
31920,5340,32708
31860,5351,32999
31836,5366,32988
31840,5338,32973
31832,5317,33252
31856,5266,33116
31912,5259,33271
31916,5273,33430
31940,5284,33325
31972,5294,33450
31984,5312,33675
31918,5316,33516
31876,5308,33687
31833,5321,33860
31845,5299,33465
31900,5265,33764
31996,5259,33863
32044,5263,33976
32072,5268,34176
32068,5292,33985
32052,5324,34175
32032,5321,34149
32014,5328,34218
32032,5335,34351
32060,5315,34372
32094,5277,34500
32152,5259,34480
32192,5263,34388
32248,5264,34705
32336,5285,34549
32357,5297,34706
32332,5302,34644
32288,5312,34747
32260,5304,34804
32256,5279,34856
32288,5251,34754
32408,5315,35052
32452,5298,34933
32468,5290,34805
32480,5278,34663
32464,5318,35084
32448,5337,34948
32444,5305,35140
32440,5293,35247
32436,5340,35289
32468,5316,34899
32508,5306,35265
32520,5299,35112
32543,5294,35423
32570,5304,35256
32560,5325,35367
32540,5328,35370
32456,5319,35292
32404,5310,35452
32398,5302,35470
32448,5257,35567
32548,5238,35135
32592,5252,35500
32564,5309,35383
32544,5288,35478
32541,5307,35644
32504,5318,35529
32521,5296,35492
32474,5290,35329
32464,5286,35588
32454,5318,35528
32512,5279,35490
32524,5256,35700
32548,5257,35749
32548,5257,35607
32488,5289,35335
32464,5438,35668
32436,5303,35620
32404,5349,35695
32425,5335,35772
32488,5309,35655
32572,5269,35716
32612,5261,35703
32629,5273,35884
32633,5271,35732
32608,5306,35761
32516,5303,35785
32460,5296,35732
32436,5293,35856
32437,5289,35732
32485,5285,35811
32545,5274,35821
32560,5264,35831
32558,5264,35403
32568,5268,35762
32524,5287,35746
32449,5307,35571
32413,5361,35847
32416,5338,35731
32422,5315,35322
32440,5265,35707
32541,5249,35559
32584,5245,35812
32580,5249,35638
32556,5259,35692
32488,5289,35516
32484,5305,35753
32492,5350,35492
32465,5337,35661
32440,5332,35782
32440,5305,35388
32412,5289,35612
32380,5282,35482
32416,5272,35729
32512,5263,35640
32520,5291,35505
32472,5309,35549
32452,5432,35605
32425,5295,35125
32406,5288,35401
32464,5254,35524
32532,5303,35092
32612,5303,35340
32608,5300,35489
32610,5295,35172
32584,5312,35327
32541,5321,35432
32484,5298,35392
32492,5285,35290
32488,5340,35150
32566,5293,35207
32648,5281,35301
32704,5285,34772
32756,5287,35065
32756,5287,35205
32764,5334,35089
32724,5355,35037
32669,5370,34951
32628,5349,35013
32544,5322,34849
32576,5290,35077
32668,5259,34885
32712,5246,34881
32756,5253,34695
32784,5259,34888
32793,5292,34796
32756,5365,34817
32696,5351,34880
32648,5336,34767
32620,5334,34766
32640,5312,34567
32676,5307,34746
32692,5249,34687
32700,5253,34670
32716,5256,34663
32728,5288,34633
32689,5302,34575
32669,5310,34745
32676,5308,34607
32676,5331,34727
32684,5316,34215
32744,5242,34436
32772,5249,34687
32800,5253,34158
32800,5256,34452
32738,5292,34460
32708,5304,34505
32664,5299,34308
32653,5296,34479
32644,5358,34432
32664,5314,34448
32748,5294,34488
32796,5393,34183
32812,5253,34287
32836,5260,34452
32776,5342,34283
32686,5327,33991
32652,5318,34288
32644,5312,34384
32612,5330,34199
32672,5327,34268
32712,5244,34329
32768,5244,34063
32788,5253,34169
32820,5271,34305
32836,5309,34088
32777,5340,34148
32772,5313,33932
32724,5312,34139
32664,5310,33701
32686,5270,34060
32716,5261,33951
32740,5269,34116
32762,5262,33927
32784,5281,33977
32784,5332,33814
32725,5343,34055
32688,5317,33649
32676,5319,33860
32680,5321,33969
32720,5297,33858
32836,5300,33846
32880,5341,33727
32908,5396,33799
32896,5256,33823
32900,5295,33668
32812,5323,33704
32704,5317,33767
32648,5311,33439
32648,5322,33525
32672,5310,33686
32776,5332,33632
32892,5250,33647
32904,5255,33409
32860,5260,33583
32820,5294,33396
32748,5324,33631
32716,5333,33188
32692,5310,33509
32656,5322,33325
32686,5278,33381
32748,5279,33430
32821,5297,33550
32840,5255,33100
32880,5259,33305
32870,5297,33407
32768,5322,33369
32705,5335,33479
32652,5333,33188
32654,5334,33292
32692,5315,33388
32784,5295,33031
32800,5291,33265
32804,5305,33364
32832,5313,33100
32812,5349,33211
32726,5364,33213
32656,5361,33121
32600,5369,33157
32620,5295,32975
32672,5260,33185
32756,5251,33060
32846,5273,32952
32880,5289,33089
32924,5282,33015
32912,5337,32894
32855,5355,33052
32828,5434,32623
32789,5303,32955
32760,5299,32997
32828,5267,32910
32916,5249,32551
32936,5249,32857
32956,5258,32972
32928,5258,32547
32920,5293,32770
32864,5317,32916
32855,5318,32772
32876,5340,32835
32900,5367,32608
32929,5267,32566
32985,5269,32533
33048,5307,32585
33064,5343,32761
33076,5263,32613
33048,5301,32622
33016,5326,32372
32972,5347,32503
32934,5357,32653
32900,5443,32181
32932,5259,32333
33008,5264,32413
33024,5284,32489
33036,5277,32449
33048,5305,32429
33004,5367,32433
32913,5387,32317
32856,5447,32501
32864,5403,32167
32868,5297,32191
32864,5262,32373
32940,5247,32069
32968,5251,32320
33012,5258,32422
33048,5263,32189
33078,5307,32279
33024,5323,32233
32992,5337,32167
32972,5313,32229
32936,5334,32353
32960,5307,32121
33072,5297,32205
33104,5303,32046
33076,5322,32197
33068,5320,31857
33056,5353,32060
33016,5313,32208
33022,5311,31959
33004,5394,32128
32992,5435,31933
32960,5266,32111
33008,5244,32102
33041,5251,31908
33040,5265,32082
33016,5263,31984
33008,5293,32074
32964,5312,32000
32910,5306,31988
32852,5313,32069
32844,5312,32066
32893,5285,32021
32968,5270,32052
33012,5280,32047
33013,5258,32029
33024,5271,32117
33004,5312,31972
32920,5336,32053
32836,5316,31983
32820,5334,32118
32844,5331,31810
32924,5283,32040
33037,5265,31913
33152,5267,32133
33184,5285,32084
33216,5316,32175
33216,5348,31880
33140,5362,32076
33082,5345,32007
33016,5345,32047
32997,5351,32114
33024,5399,31921
33096,5252,32069
33152,5255,32084
33156,5258,31957
33192,5261,32140
33204,5303,32116
33156,5350,32164
33092,5333,32160
33064,5326,31845
33036,5310,32137
33025,5284,32006
33073,5268,32184
33120,5262,32063
33088,5297,32140
33108,5293,32173
33104,5317,32176
33072,5351,32064
33029,5317,32164
32988,5319,32020
32981,5309,32288
32989,5272,32251
33064,5253,32116
33124,5402,32081
33156,5327,32196
33124,5321,32051
33136,5351,32333
33112,5338,32340
33020,5335,32207
32997,5304,32124
32986,5297,32197
32996,5264,32224
33076,5308,32145
33120,5270,32097
33144,5289,32206
33084,5267,32389
33041,5300,32144
33032,5353,32279
32988,5346,32112
32928,5319,32256
32916,5317,31972
32976,5305,32300
33089,5289,32317
33148,5292,32407
33174,5282,32302
33156,5294,32231
33152,5314,32373
33092,5331,32276
33012,5333,32325
32876,5325,32367
32772,5316,32397
32644,5291,32314
32516,5268,32541
32352,5260,32346
32244,5263,32425
32108,5267,32416
31964,5355,32263
31864,5360,32514
31872,5356,32511
31924,5334,32253
32024,5322,32477
32324,5303,32418
32860,5257,32374
33400,5260,32450
34080,5369,32589
35008,5277,32317
35900,5359,32485
36628,5359,32434
37052,5340,32534
37092,5330,32460
37192,5332,32254
37548,5286,32481
38033,5270,32312
38428,5274,32565
38872,5311,32589
39148,5319,32300
39120,5340,32484
38712,5350,32388
38004,5342,32541
37344,5333,32198
36788,5330,32390
36073,5306,32488
35460,5300,32292
34916,5299,31983
34396,5289,32236
33985,5303,32381
33764,5311,32134
33512,5322,32182
33200,5315,32144
32920,5308,32153
32672,5379,32285
32480,5367,31916
32388,5353,32135
32257,5262,32325
32160,5269,32090
32095,5270,32209
31972,5297,32068
31844,5375,32289
31704,5367,32127
31624,5348,32229
31616,5329,32063
31664,5319,32263
31702,5310,32249
31744,5354,32368
31764,5266,32045
31784,5340,32223
31804,5441,32388
31768,5315,32302
31748,5308,32164
31780,5313,32261
31772,5318,32354
31764,5292,32479
31800,5297,32202
31872,5257,32359
31936,5268,32020
31972,5290,32342
31992,5324,32255
31948,5354,32323
31877,5327,32344
31829,5320,32196
31824,5328,32249
31824,5299,32327
31896,5305,32203
31964,5316,32244
32000,5348,31936
32052,5358,32053
32068,5301,32037
32078,5317,32028
32044,5314,32089
31968,5304,31623
31930,5304,31877
31952,5275,31935
32032,5255,31871
32116,5272,31695
32100,5269,31798
32136,5271,31840
32136,5300,31685
32112,5321,31889
32080,5316,31503
32060,5305,31764
32013,5311,31975
32041,5383,31662
32128,5356,31792
32178,5263,31963
32194,5266,31675
32176,5273,31948
32140,5296,32085
32092,5327,31855
32016,5327,32037
31960,5324,32022
31952,5316,32178
31944,5275,32057
32005,5258,32164
32068,5260,32074
32108,5266,32396
32108,5265,32391
32120,5299,32220
32076,5319,32420
31992,5314,32605
31928,5306,32245
31924,5306,32564
31957,5285,32575
32052,5260,32646
32109,5263,32382
32152,5268,32785
32160,5266,32816
32109,5297,32804
32040,5318,32927
31980,5317,33045
31981,5308,32997
31964,5307,33111
31996,5271,33101
32084,5256,33165
32136,5259,33255
32140,5267,33207
32172,5268,33397
32157,5327,33355
32152,5346,33356
32093,5370,33381
32096,5360,33511
32100,5372,33671
32140,5284,33604
32244,5282,33788
32316,5284,33457
32364,5314,33759
32396,5356,33401
32400,5362,33820
32396,5381,33924
32336,5399,33692
32344,5391,33910
32364,5368,34055
32420,5286,33690
32532,5262,33940
32604,5270,34014
32676,5303,34069
32717,5295,34167
32737,5335,34214
32705,5353,34184
32701,5365,34228
32692,5373,34295
32696,5454,34159
32744,5285,34005
32833,5273,34400
32912,5283,34340
32972,5310,34448
32998,5286,34594
32988,5335,34115
32946,5356,34449
32892,5387,34497
32858,5415,34561
32840,5411,34572
32860,5287,34551
32924,5260,34623
32952,5262,34781
32952,5268,34508
32972,5271,34676
32977,5303,34801
32933,5353,34745
32896,5338,34886
32808,5353,34741
32780,5359,34612
32776,5325,34847
32812,5315,34823
32876,5260,34927
32908,5264,34787
32920,5272,34853
32885,5333,34948
32828,5348,34905
32788,5354,35066
32774,5363,34582
32756,5356,34924
32768,5281,35065
32833,5255,34628
32948,5284,34942
32997,5286,35020
33020,5294,35070
32976,5328,34916
32900,5364,35042
32836,5364,35127
32792,5368,35092
32728,5313,35143
32746,5282,35137
32824,5263,35005
32876,5318,35235
32900,5316,35217
32956,5315,34903
32941,5348,34969
32912,5375,35172
32864,5320,35108
32840,5315,34944
32816,5452,35145
32828,5374,34704
32868,5309,35079
32944,5299,35160
33001,5336,34783
33008,5271,34951
32972,5302,35109
32880,5320,34717
32769,5326,35036
32712,5326,35017
32748,5311,35103
32792,5292,34680
32884,5263,35004
32965,5261,34821
33016,5268,35078
32992,5284,34889
32973,5337,34964
32928,5339,34756
32869,5347,35034
32846,5331,34866
32844,5325,34799
32824,5308,34840
32908,5274,34769
32968,5280,34837
32996,5292,34796
33000,5290,34400
32976,5313,34733
32934,5333,34536
32901,5331,34709
32880,5331,34668
32844,5335,34469
32868,5303,34637
32961,5282,34241
33028,5287,34471
33020,5308,34455
33040,5301,34516
33036,5327,34092
32984,5326,34444
32932,5319,34305
32864,5315,34439
32864,5313,34369
32916,5283,34183
32949,5261,34307
33020,5261,34295
33068,5266,34149
33084,5270,34247
33104,5302,33891
33072,5326,34173
33012,5317,34297
32992,5317,34013
32980,5345,34004
33004,5309,34093
33084,5293,34055
33128,5292,34012
33152,5289,33975
33145,5292,34135
33128,5337,33997
33041,5329,33918
32948,5321,33967
32908,5312,33918
32916,5309,34064
32952,5283,33842
33028,5260,33921
33148,5280,34021
33188,5308,33654
33189,5307,33871
33205,5314,33852
33176,5359,33936
33110,5349,33773
33072,5339,33831
33044,5348,33711
33008,5316,33940
33056,5266,33830
33109,5263,33676
33128,5268,33755
33165,5277,33787
33188,5406,33730
33148,5323,33706
33092,5348,33677
33063,5335,33745
33074,5326,33561
33060,5341,33636
33120,5321,33471
33157,5310,33699
33180,5338,33662
33200,5409,33669
33186,5302,33478
33154,5325,33663
33108,5323,33605
33076,5316,33536
33020,5313,33615
33029,5306,33559
33088,5288,33455
33196,5317,33439
33220,5353,33553
33234,5277,33519
33228,5324,33564
33197,5362,33521
33188,5335,33567
33096,5325,33407
33096,5327,33481
33124,5304,33543
33132,5291,33287
33167,5304,33388
33176,5317,33503
33180,5328,33416
33156,5305,33516
33120,5323,33377
33056,5316,33309
33004,5315,33287
32956,5327,33234
32961,5324,33309
33036,5289,33296
33116,5284,33457
33156,5316,32976
33168,5419,33214
33140,5303,33224
33080,5327,33295
32992,5339,33359
32940,5323,33189
32892,5341,33237
32873,5301,33111
32896,5295,33172
32956,5309,33214
32976,5323,33220
32988,5314,33173
33000,5330,32837
32964,5354,33158
32908,5365,33306
32892,5359,33095
32884,5369,33068
32912,5339,33287
32933,5315,33063
32960,5321,33133
32956,5348,32975
32928,5281,33146
32916,5299,33093
32893,5324,33049
32844,5328,33119
32812,5317,33040
32829,5437,33079
32840,5376,32895
32908,5266,33085
32965,5269,33055
32976,5275,32980
32982,5276,32949
32984,5299,33006
32916,5325,33137
32848,5325,32901
32801,5340,32967
32776,5351,33093
32752,5307,32759
32800,5297,32916
32872,5303,33073
32900,5284,32765
32936,5305,32898
32932,5348,32986
32911,5379,32902
32860,5387,32757
32829,5384,32856
32856,5410,32908
32816,5293,32979
32853,5299,32844
32896,5286,32940
32924,5295,32519
32916,5311,32708
32912,5347,32796
32873,5407,32852
32828,5331,32670
32778,5323,32903
32760,5459,32621
32760,5290,32801
32840,5269,32743
32884,5280,32780
32856,5306,32847
32868,5303,32781
32884,5338,32804
32820,5363,32588
32748,5340,32775
32694,5332,32862
32690,5352,32476
32696,5311,32612
32720,5290,32657
32757,5298,32732
32720,5311,32847
32704,5324,32689
32704,5452,32791
32665,5326,32688
32624,5340,32807
32548,5352,32687
32544,5334,32764
32613,5352,32671
32700,5274,32679
32764,5270,32661
32812,5289,32581
32800,5305,32574
32812,5349,32598
32756,5391,32601
32716,5331,32610
32709,5324,32588
32776,5343,32709
32784,5295,32533
32804,5297,32519
32846,5294,32628
32864,5289,32549
32904,5295,32481
32900,5337,32445
32841,5358,32526
32788,5331,32647
32756,5329,32422
32724,5322,32486
32724,5347,32468
32788,5326,32121
32840,5328,32372
32880,5335,32364
32900,5323,32443
32880,5362,32556
32821,5384,32404
32766,5383,32336
32736,5364,32335
32705,5351,32423
32688,5329,32520
32728,5320,32415
32728,5301,32487
32744,5306,32180
32796,5297,32335
32809,5324,32458
32772,5346,32353
32724,5357,32318
32688,5320,32512
32672,5318,32089
32689,5301,32445
32744,5271,32293
32777,5268,32349
32774,5284,32462
32736,5342,32031
32748,5350,32260
32724,5357,32443
32688,5348,32353
32676,5349,32332
32644,5346,32300
32639,5312,32372
32672,5284,32476
32721,5306,32125
32752,5290,32329
32760,5293,32461
32758,5315,32298
32772,5335,32391
32736,5403,32205
32716,5332,32367
32708,5383,32412
32693,5353,32467
32728,5327,32172
32768,5316,32408
32740,5303,32239
32668,5322,32502
32564,5310,32093
32376,5332,32404
32120,5333,32546
31912,5389,32175
31744,5363,32417
31600,5335,32389
31584,5331,32427
31652,5299,32332
31768,5300,32423
31866,5301,32443
31984,5342,32581
32268,5365,32144
32640,5343,32430
33080,5325,32586
33780,5331,32374
34616,5367,32458
35576,5340,32324
36376,5336,32604
36692,5334,32285
36812,5328,32476
37220,5340,32583
37816,5372,32383
38140,5354,32476
38368,5501,32369
38796,5403,32416
39144,5348,32455
39196,5338,32372
38880,5288,32525
38245,5299,32353
37704,5411,32391
37312,5319,32434
36548,5343,32397
35632,5347,32407
34876,5396,32336
34272,5381,32157
33788,5323,32444
33375,5314,31965
33122,5288,32289
32842,5291,32420
32569,5291,32138
32321,5379,32313
32016,5387,32159
31772,5371,32401
31572,5361,32078
31416,5344,32244
31380,5308,32209
31414,5415,32396
31440,5327,32180
31444,5327,32260
31432,5309,32154
31437,5336,32257
31392,5335,32225
31333,5341,32135
31272,5387,32372
31246,5366,32165
31272,5328,32247
31304,5318,32067
31362,5282,32348
31332,5288,32064
31320,5294,32208
31364,5380,32021
31368,5374,32303
31364,5356,32069
31369,5369,32156
31348,5371,32017
31352,5328,32200
31408,5294,31787
31500,5289,32100
31532,5307,32042
31552,5310,32144
31564,5319,31908
31560,5338,32041
31524,5399,32017
31488,5391,31956
31488,5381,31908
31492,5343,31606
31584,5314,31933
31690,5314,31996
31692,5313,31864
31736,5308,31902
31764,5347,31840
31720,5345,31969
31648,5352,31801
31621,5349,31898
31636,5331,31855
31646,5314,31894
31678,5289,31927
31752,5287,31772
31764,5353,31928
31740,5354,31940
31732,5365,32076
31688,5399,31885
31648,5374,31682
31608,5350,31712
31556,5339,32081
31524,5314,32035
31524,5286,32244
31572,5287,32158
31568,5364,31911
31576,5349,32239
31556,5358,32271
31516,5372,32334
31488,5364,32136
31428,5356,32359
31372,5357,32533
31412,5331,32151
31452,5317,32493
31513,5287,32431
31568,5294,32780
31584,5305,32699
31636,5377,32737
31608,5386,32796
31540,5394,32770
31488,5376,32903
31476,5367,32639
31472,5337,33023
31537,5311,32896
31613,5298,33183
31668,5300,33157
31693,5416,33192
31736,5361,33252
31693,5364,33188
31672,5390,33500
31632,5348,33369
31633,5343,33407
31632,5375,33513
31700,5327,33596
31812,5305,33578
31904,5315,33804
31960,5341,33655
32008,5319,33756
32026,5356,33734
32008,5397,33971
32000,5381,33860
32013,5359,33965
32042,5341,33900
32164,5313,34132
32200,5291,33742
32224,5308,34021
32244,5317,34132
32233,5363,34180
32239,5361,34412
32200,5358,34233
32192,5348,34365
32208,5415,34389
32228,5378,34339
32310,5355,34407
32384,5328,34496
32458,5330,34549
32468,5322,34557
32513,5341,34559
32496,5394,34580
32452,5363,34708
32432,5348,34607
32440,5414,34334
32428,5371,34709
32444,5335,34677
32468,5304,34688
32524,5301,34862
32552,5308,34463
32564,5395,34823
32560,5411,34744
32504,5403,34975
32448,5380,34822
32420,5361,34873
32400,5339,34894
32449,5303,34820
32520,5301,35061
32552,5346,34909
32568,5337,34583
32556,5342,34984
32529,5355,34944
32488,5353,34967
32480,5348,35037
32468,5349,35039
32457,5406,35034
32500,5306,35066
32556,5399,34946
32556,5381,35175
32612,5304,35073
32590,5326,35047
32540,5355,35223
32540,5357,35067
32501,5354,35113
32448,5393,35109
32453,5371,35276
32496,5337,35100
32580,5339,35164
32616,5359,35284
32632,5360,34880
32624,5350,35169
32604,5389,35180
32556,5359,35142
32529,5400,35049
32468,5362,35282
32480,5351,35216
32581,5305,34754
32632,5292,35079
32648,5307,35212
32644,5365,35120
32664,5347,34716
32664,5376,35097
32636,5358,34956
32612,5350,35015
32584,5348,35060
32621,5330,34974
32648,5306,34951
32704,5299,34999
32724,5388,35109
32780,5365,34908
32817,5375,34991
32783,5401,34796
32740,5427,34881
32748,5411,34935
32737,5403,34893
32720,5416,34834
32729,5412,34892
32832,5367,34813
32884,5366,34844
32901,5368,34801
32896,5382,34743
32876,5389,34679
32816,5382,34817
32780,5371,34501
32740,5380,34664
32756,5367,34780
32824,5333,34550
32902,5315,34588
32944,5338,34668
32964,5328,34476
32964,5363,34507
32932,5376,34311
32908,5369,34473
32896,5352,34116
32904,5346,34407
32908,5333,34338
32948,5316,34296
32988,5321,34332
33000,5322,34373
32996,5343,34129
32984,5337,34250
32965,5359,34127
32898,5365,34311
32856,5495,34012
32868,5423,34149
32897,5335,34216
32904,5348,33999
32924,5321,34109
32920,5328,34063
32928,5354,33989
32876,5337,34058
32808,5372,34118
32744,5386,33927
32700,5371,34002
32684,5357,34108
32650,5357,33820
32737,5345,33829
32836,5315,33907
32868,5341,33935
32896,5360,34073
32868,5420,33583
32836,5503,33836
32784,5367,34012
32724,5357,33915
32750,5354,34036
32792,5338,33772
32812,5309,33863
32854,5304,34012
32897,5312,33888
32884,5313,33808
32884,5336,33605
32836,5398,33948
32796,5390,33532
32764,5395,33765
32720,5387,33967
32720,5397,33463
32764,5357,33713
32828,5385,33727
32853,5314,33668
32828,5318,33831
32856,5336,33813
32820,5373,33918
32768,5368,33661
32740,5359,33721
32704,5362,33716
32672,5359,33684
32684,5335,33763
32760,5342,33719
32784,5332,33844
32809,5356,33701
32800,5357,33338
32758,5380,33535
32732,5388,33744
32712,5381,33669
32721,5385,33508
32740,5376,33703
32804,5368,33668
32868,5347,33518
32932,5348,33741
32908,5344,33543
32896,5363,33628
32864,5382,33639
32792,5408,33569
32708,5378,33604
32636,5378,33669
32596,5385,33508
32660,5347,33589
32709,5348,33697
32768,5332,33540
32800,5345,33543
32828,5351,33509
32785,5391,33556
32765,5369,33519
32728,5368,33457
32744,5361,33486
32756,5348,33535
32800,5316,33452
32876,5311,33617
32917,5321,33287
32928,5331,33449
32960,5342,33632
32917,5368,33432
32860,5377,33508
32768,5374,33356
32756,5391,33436
32772,5350,33121
32848,5321,33465
32889,5317,33302
32916,5322,33408
32928,5337,33486
32956,5365,33604
32956,5392,33452
32836,5435,33494
32800,5373,33284
32832,5362,33427
32824,5348,33589
32884,5319,33105
32944,5320,33333
32932,5359,33460
32956,5342,33444
32976,5375,33420
32928,5377,33481
32880,5372,33485
32841,5373,33445
32840,5367,33285
32836,5358,33518
32887,5330,33367
32897,5314,33447
32920,5324,33255
32888,5398,33558
32856,5411,33068
32841,5426,33415
32792,5416,33396
32752,5418,33351
32766,5411,33423
32766,5409,33287
32801,5377,33508
32852,5363,33311
32844,5357,33386
32840,5361,33389
32876,5361,33311
32825,5387,33353
32772,5413,33371
32732,5413,33376
32716,5401,33340
32672,5357,33205
32728,5329,33479
32772,5323,33268
32746,5336,33340
32756,5333,33455
32752,5351,32957
32640,5385,33132
32532,5401,33294
32452,5410,33294
32444,5375,33157
32448,5361,33377
32460,5326,33159
32544,5325,33268
32584,5333,33246
32612,5336,33317
32652,5353,33201
32672,5379,33149
32660,5413,33125
32668,5400,33188
32676,5401,33279
32720,5385,32828
32776,5381,33125
32861,5388,33078
32868,5450,33132
32864,5333,33214
32805,5347,33112
32764,5377,32945
32688,5390,33104
32676,5379,32757
32692,5430,33077
32697,5432,33045
32772,5385,33084
32832,5388,33045
32848,5375,33028
32884,5361,32871
32888,5377,33132
32836,5400,33014
32749,5416,32988
32694,5420,32976
32622,5399,33079
32584,5391,33047
32624,5393,32618
32684,5381,32923
32708,5385,33049
32708,5394,32871
32725,5357,32949
32700,5384,32748
32632,5492,32998
32560,5439,32820
32520,5415,32895
32528,5403,32743
32584,5387,32903
32661,5373,32519
32700,5389,32856
32673,5382,32668
32704,5387,32956
32696,5414,32508
32660,5446,32748
32620,5443,32925
32596,5439,32671
32565,5370,32788
32572,5340,32871
32624,5365,32730
32660,5354,32575
32688,5360,32826
32684,5381,32379
32624,5420,32719
32580,5410,32534
32564,5423,32813
32528,5423,32589
32532,5417,32663
32584,5388,32599
32669,5378,32631
32688,5393,32550
32716,5478,32624
32712,5462,32620
32652,5441,32569
32537,5474,32580
32413,5396,32397
32224,5383,32472
32024,5380,32477
31901,5380,32599
31820,5367,32164
31716,5355,32495
31613,5383,32510
31572,5377,32389
31560,5433,32448
31568,5441,32388
31640,5428,32511
31832,5420,32319
32292,5404,32379
32776,5377,32329
33404,5383,32452
34317,5395,32257
35268,5388,31975
36024,5423,32298
36474,5460,32125
36512,5465,32345
36369,5466,32191
36404,5468,31905
36632,5396,32079
36944,5364,32236
37432,5358,31879
37856,5359,32133
37908,5368,32015
37584,5381,32197
36968,5412,31957
36252,5414,32013
35752,5407,32097
35176,5403,31860
34656,5388,31925
34272,5364,31892
34020,5371,31729
33716,5393,31790
33476,5396,31580
33350,5403,31817
33192,5401,31801
32960,5409,31342
32712,5401,31620
32464,5407,31777
32264,5406,31540
32168,5372,31615
32084,5370,31462
32004,5386,31597
31914,5375,31458
31880,5389,31533
31808,5417,31367
31732,5444,31412
31652,5459,31429
31593,5401,31372
31578,5393,31462
31572,5358,31274
31610,5345,31367
31652,5390,31396
31696,5386,31532
31732,5399,31324
31710,5445,31396
31686,5442,31207
31684,5444,31486
31728,5463,31088
31776,5392,31306
31820,5361,31428
31888,5349,30999
31956,5356,31224
31944,5359,31349
31936,5372,31121
31912,5405,31161
31901,5418,31252
31884,5413,30997
31857,5403,31055
31816,5394,30904
31880,5358,30981
31954,5354,30798
31950,5396,30852
31960,5379,30697
32000,5394,30672
31961,5424,30717
31900,5431,30590
31868,5427,30545
31880,5415,30698
31862,5431,30422
31901,5405,30503
31988,5375,30432
31996,5387,30368
32000,5400,30400
32036,5396,30398
32012,5432,30369
31984,5422,30324
31948,5409,30252
31924,5404,30393
31928,5395,30228
31982,5363,30304
32064,5369,30193
32098,5359,30285
32124,5375,30346
32133,5395,30031
32124,5431,30210
32116,5456,30498
32052,5463,30293
31972,5442,30404
31961,5439,30271
31974,5373,30419
32008,5374,30509
32048,5394,30606
32078,5393,30541
32116,5413,30291
32104,5449,30593
32060,5468,30797
32008,5463,30629
31958,5464,30736
31926,5407,30749
31908,5373,30850
31952,5367,30992
31956,5509,30942
32001,5379,30925
32056,5387,30850
32068,5418,31132
32028,5427,31034
31977,5423,30895
31964,5415,31140
31988,5411,31168
32058,5379,31199
32128,5367,31161
32152,5384,31302
32132,5404,31239
32146,5433,31328
32124,5477,31066
32036,5491,31428
31992,5467,31399
31988,5448,31432
32020,5427,31655
32068,5405,31415
32216,5393,31614
32309,5404,31520
32336,5409,31689
32356,5411,31716
32342,5446,31401
32312,5464,31700
32288,5468,31916
32297,5457,31675
32344,5446,31852
32416,5433,31812
32536,5423,32013
32639,5411,31864
32684,5417,31949
32712,5419,31967
32716,5447,32043
32726,5457,32018
32700,5457,32074
32701,5463,32044
32724,5475,32017
32744,5382,32036
32816,5394,32103
32844,5402,32164
32881,5440,32263
32885,5513,31903
32828,5426,32046
32750,5446,32166
32697,5450,32231
32676,5451,32374
32672,5450,32201
32700,5419,32302
32696,5411,32127
32724,5412,32433
32776,5415,32245
32806,5422,32317
32828,5440,32348
32748,5457,32239
32695,5429,32390
32656,5421,32302
32656,5419,32045
32716,5492,32412
32752,5377,32458
32797,5485,32489
32772,5468,32172
32767,5455,32465
32785,5430,32463
32720,5437,32487
32668,5432,32519
32633,5428,32364
32616,5438,32666
32621,5426,32477
32689,5396,32588
32756,5385,32422
32784,5388,32711
32788,5397,32580
32781,5430,32292
32718,5441,32606
32724,5506,32713
32688,5473,32715
32709,5444,32462
32720,5412,32620
32796,5414,32665
32820,5433,32464
32873,5426,32609
32901,5416,32540
32889,5462,32568
32816,5473,32615
32748,5449,32212
32744,5429,32556
32744,5425,32514
32796,5390,32533
32884,5379,32537
32920,5420,32564
32936,5430,32360
32960,5415,32554
32900,5463,32208
32880,5457,32509
32849,5455,32472
32840,5440,32489
32853,5436,32542
32876,5408,32547
32889,5389,32561
32894,5393,32337
32900,5394,32513
32900,5405,32391
32876,5438,32588
32845,5450,32390
32796,5455,32406
32792,5476,32581
32768,5465,32364
32744,5428,32419
32832,5402,32383
32864,5424,32519
32912,5423,32340
32945,5404,32105
32988,5441,32381
32980,5516,32301
32960,5502,32477
32928,5492,32249
32912,5432,32345
32976,5403,32255
32988,5389,32231
33020,5509,32287
33060,5401,32269
33081,5407,32296
33088,5445,32300
33008,5452,32239
32964,5443,32103
32940,5437,32333
32904,5432,32069
32933,5400,32086
33036,5404,32309
33076,5408,32088
33101,5416,32196
33132,5423,32090
33076,5449,32212
33032,5463,32148
32976,5482,32020
32937,5457,32202
32924,5461,32121
32972,5417,32129
33044,5390,31967
33089,5454,32135
33090,5442,32118
33112,5433,31945
33105,5481,32132
33057,5476,32041
33020,5495,32047
32984,5448,32092
32980,5437,32222
33025,5408,31943
33092,5388,32100
33132,5401,32223
33140,5406,32005
33168,5413,32153
33144,5442,32045
33072,5462,32263
33005,5510,32076
32961,5498,32157
32988,5487,32151
33048,5431,32168
33125,5413,31828
33164,5412,32071
33164,5418,32257
33120,5413,32109
33060,5444,32199
32996,5455,32092
32952,5449,32198
32942,5446,32173
32974,5456,32039
32984,5443,32143
33036,5430,32210
33120,5415,32282
33120,5441,32197
33133,5415,31913
33110,5445,32192
33076,5459,32093
33054,5452,32270
33004,5454,32164
32952,5511,31837
32984,5451,32186
33056,5425,32007
33078,5428,32293
33080,5428,32058
33088,5438,32062
33088,5447,31820
33060,5461,32116
33012,5530,31975
32952,5497,32222
32944,5483,32079
32973,5447,31824
33009,5422,32087
33045,5426,32100
33044,5448,32159
33064,5436,32087
33066,5474,31981
33004,5511,32028
32956,5503,32103
32960,5493,32041
32928,5490,32206
32961,5467,31757
33020,5454,32073
33048,5475,32212
33016,5476,32012
33032,5490,32109
33020,5504,31927
32988,5517,32187
32957,5513,31799
32929,5490,32126
32913,5485,31960
32968,5453,32197
33052,5444,31785
33068,5463,31954
33092,5463,32263
33112,5437,32197
33084,5470,32130
33005,5491,31957
32944,5463,31814
32900,5457,32152
32888,5509,31993
32952,5463,32285
33032,5452,32069
33084,5445,32185
33088,5455,32213
33052,5473,32046
33008,5505,32165
32992,5519,32292
32969,5513,32102
32980,5516,32199
32980,5525,32223
33016,5477,32232
33092,5461,32032
33088,5468,32188
33152,5475,32228
33164,5476,32271
33161,5513,32145
33132,5506,31902
33088,5486,32236
33092,5470,32215
33112,5470,32278
33117,5433,31922
33156,5437,32224
33224,5423,32263
33216,5426,32263
33228,5426,32173
33140,5455,32231
33052,5470,32407
32992,5468,32039
32992,5462,32269
32988,5554,32100
33032,5475,32372
33064,5436,32189
33089,5436,32297
33068,5444,32123
33016,5442,32257
32989,5481,32263
32928,5481,31944
32908,5470,32284
32864,5463,32263
32876,5558,32213
32900,5537,32268
32940,5551,32293
32992,5417,32123
33040,5499,32424
33096,5464,32382
33117,5477,32241
33065,5502,32316
33060,5527,32412
33088,5511,32324
33152,5489,32240
33157,5448,32219
33204,5446,32300
33245,5416,32330
33296,5426,32145
33318,5433,32436
33305,5468,32052
33242,5481,32310
33152,5473,32452
33160,5468,32109
33160,5461,32338
33180,5433,32226
33248,5415,32356
33268,5418,32311
33296,5424,32198
33332,5431,32441
33336,5463,32029
33312,5476,32341
33253,5497,32355
33256,5503,32285
33196,5497,31988
33173,5436,32349
33216,5422,32190
33264,5421,32365
33312,5438,32348
33312,5447,32342
33248,5478,32206
33180,5509,32383
33124,5542,32330
33100,5471,32160
33104,5466,32437
33144,5440,32173
33176,5435,32346
33184,5439,32172
33168,5445,32416
33164,5480,32007
33172,5509,32335
33092,5528,32245
33044,5597,32429
33004,5472,32150
32957,5468,32359
32988,5444,32375
33024,5449,32271
33071,5443,32348
33068,5440,32340
33060,5477,32493
33044,5481,32066
32964,5497,32364
32832,5492,32270
32716,5492,32507
32696,5481,32383
32744,5451,32086
32804,5432,32386
32808,5462,32215
32805,5464,32493
32837,5475,32409
32828,5481,32083
32832,5514,32399
32820,5482,32367
32708,5476,32209
32528,5471,32512
32408,5434,32365
32288,5420,32357
32140,5429,32364
31992,5450,32513
31870,5452,32044
31768,5508,32320
31740,5493,32436
31756,5487,32190
31797,5472,32324
31985,5492,32422
32328,5464,32081
32820,5444,32353
33524,5455,32348
34424,5468,32290
35452,5470,32368
36436,5500,32244
36924,5516,32437
37072,5516,32391
37620,5511,32062
38436,5509,32295
38988,5483,32158
39404,5450,32417
39916,5448,32309
40464,5457,31960
40596,5462,32287
40334,5596,32186
39756,5573,32297
39128,5566,31914
38740,5537,32201
38044,5536,32032
36982,5532,32164
36052,5501,31863
35320,5493,32044
34644,5493,31993
34020,5497,31933
33540,5528,31941
33084,5551,31924
32612,5542,31735
32268,5538,32004
32009,5538,31655
31841,5493,31860
31776,5481,31821
31724,5481,31751
31681,5467,31606
31628,5472,31773
31598,5510,31580
31528,5519,31824
31448,5521,31671
31360,5489,31511
31336,5478,31648
31388,5446,31612
31464,5435,31649
31492,5512,31646
31488,5443,31396
31484,5443,31553
31516,5542,31530
31460,5572,31424
31468,5536,31473
31472,5509,31549
31468,5497,31500
31456,5456,31289
31528,5432,31029
31614,5434,31313
31629,5441,31173
31641,5442,31264
31609,5473,30865
31598,5501,31072
31572,5509,31069
31590,5516,30984
31596,5507,30778
31576,5478,30884
31588,5460,30791
31672,5458,30583
31748,5442,30645
31788,5444,30486
31756,5483,30710
31720,5498,30466
31708,5489,30248
31692,5487,30480
31700,5540,30430
31737,5504,30253
31872,5491,30510
31948,5494,30290
31984,5491,30044
32017,5476,30343
32024,5508,30188
31964,5528,30398
31888,5526,30174
31868,5503,30158
31828,5499,30014
31800,5453,30343
31840,5495,30212
31900,5487,30401
31916,5485,30421
31937,5464,30359
31936,5497,30284
31904,5500,30397
31832,5495,30438
31777,5508,30549
31768,5499,30245
31768,5490,30535
31828,5451,30658
31872,5457,30489
31905,5474,30298
31877,5464,30652
31855,5477,30637
31818,5494,30661
31761,5587,30825
31760,5546,30693
31824,5526,30607
31848,5469,30855
31880,5469,30825
31901,5447,30848
31857,5446,31076
31836,5454,30980
31830,5487,30840
31750,5503,31024
31664,5501,31234
31661,5493,31084
31624,5557,30868
31644,5518,31157
31708,5474,31176
31776,5469,31385
31821,5476,31129
31856,5493,31350
31884,5495,31367
31884,5508,31249
31876,5599,31581
31860,5542,31415
31864,5515,31255
31908,5499,31546
32020,5442,31423
32108,5445,31703
32176,5571,31540
32196,5505,31708
32228,5519,31712
32233,5532,31887
32196,5516,31655
32184,5537,31847
32182,5495,31751
32220,5460,32014
32348,5583,31908
32461,5503,31932
32536,5497,31969
32584,5486,31954
32636,5503,32097
32653,5521,31762
32676,5541,32110
32678,5509,31940
32676,5497,32263
32700,5473,32197
32820,5515,32108
32828,5517,32185
32842,5505,32244
32904,5492,32092
32909,5511,32380
32880,5522,32235
32852,5518,31964
32840,5519,32317
32884,5529,32273
32912,5468,32480
32961,5442,32371
33016,5444,32108
33012,5450,32415
33000,5460,32249
33016,5534,32300
32960,5529,32544
32924,5527,32452
32896,5500,32116
32896,5496,32471
32900,5468,32442
33000,5588,32573
33060,5506,32383
33052,5514,32505
33052,5508,32351
33044,5545,32469
33041,5555,32538
33004,5594,32572
33009,5569,32621
33010,5635,32416
33056,5531,32567
33116,5501,32560
33160,5497,32462
33148,5481,32605
33132,5480,32705
33108,5526,32464
33072,5556,32628
33008,5528,32576
32968,5510,32542
32950,5508,32735
32936,5462,32656
32996,5495,32621
33068,5488,32332
33096,5476,32617
33092,5490,32591
33089,5489,32584
33036,5503,32247
33042,5579,32592
33048,5549,32449
32992,5548,32620
32972,5516,32381
33020,5476,32559
33060,5462,32377
33089,5470,32476
33097,5476,32525
33092,5496,32359
33064,5506,32640
33052,5502,32354
32996,5501,32513
32996,5545,32465
32956,5507,32578
32993,5469,32519
33045,5482,32404
33056,5455,32468
33064,5459,32428
33016,5545,32428
32973,5562,32408
32912,5549,32420
32896,5527,32393
32868,5522,32353
32900,5490,32388
32956,5463,32033
33004,5475,32295
33020,5484,32319
32992,5471,32455
32992,5520,32357
32972,5513,32180
32904,5506,32269
32876,5501,32351
32876,5507,32036
32876,5473,32221
32932,5444,32137
33004,5452,32189
33104,5509,32209
33116,5489,31935
33100,5515,32140
33053,5536,31959
33008,5524,32212
32948,5539,32005
32897,5534,32069
32878,5473,32029
32864,5594,31940
32890,5498,32133
32954,5494,32034
33020,5474,31903
33004,5504,31652
32944,5509,31984
32884,5632,31964
32832,5547,31781
32798,5511,32007
32829,5491,32021
32912,5454,31861
32944,5492,31604
32956,5495,31909
32990,5486,31793
33008,5488,32012
32970,5513,31697
32892,5535,31744
32872,5535,31836
32832,5538,31880
32864,5506,31697
32888,5478,31816
32937,5455,31859
32950,5458,31709
32885,5467,31794
32910,5505,31860
32912,5538,31932
32864,5517,31751
32864,5508,31844
32833,5498,31907
32824,5473,31764
32896,5448,31849
32985,5449,31931
33014,5459,31503
33022,5466,31805
32994,5547,31852
32968,5569,31765
32889,5569,31831
32836,5545,31772
32816,5528,31954
32808,5496,31732
32862,5491,31838
32936,5493,31720
32932,5518,31732
32945,5505,31820
32988,5519,31630
32918,5533,31841
32876,5532,31797
32852,5520,31628
32892,5519,31732
32904,5495,31799
33000,5486,31903
33010,5452,31791
33004,5462,31815
33017,5476,31771
33025,5497,31615
33020,5537,31679
32980,5529,31751
32952,5522,31876
32920,5530,31638
32920,5510,31684
32956,5499,31743
32984,5513,31703
33012,5468,31700
33061,5464,31706
33044,5506,31439
32992,5545,31677
32956,5569,31713
32928,5508,31847
32913,5506,31726
32960,5486,31709
32988,5489,31415
33040,5490,31624
33032,5500,31634
33016,5482,31700
33031,5508,31855
33024,5532,31545
32976,5531,31676
32932,5530,31709
32921,5521,31748
32944,5493,31805
33006,5481,31536
33017,5503,31837
33060,5527,31748
33088,5526,31772
33088,5597,31409
33056,5667,31634
32984,5571,31889
32952,5566,31453
32945,5509,31766
32948,5481,31503
32989,5461,31675
33080,5468,31684
33148,5498,31650
33212,5508,31818
33196,5511,31817
33168,5543,31941
33129,5571,31724
33081,5505,31892
33028,5504,31712
32996,5501,31689
33052,5476,31821
33124,5478,31860
33137,5497,31827
33148,5493,31860
33133,5537,31888
33116,5567,31989
33068,5572,31835
33016,5509,31919
33013,5505,31802
33056,5483,32032
33136,5467,31719
33192,5459,31802
33216,5481,31778
33232,5487,31844
33269,5532,31930
33208,5561,32103
33116,5555,31911
33088,5571,31991
33052,5576,31884
33030,5540,32055
33096,5507,31892
33136,5517,31995
33164,5547,32149
33168,5533,31956
33188,5496,32054
33132,5516,31879
33056,5516,32130
33080,5512,31937
33028,5512,32095
33020,5481,32140
33084,5462,32000
33132,5481,31936
33144,5507,32164
33180,5500,32141
33192,5535,32228
33132,5578,31882
33044,5524,31997
33012,5512,32078
32965,5516,32135
32980,5483,32312
33045,5462,31920
33096,5460,32173
33160,5468,32247
33181,5471,32135
33181,5502,32063
33144,5548,32229
33073,5559,32229
32984,5545,32092
32854,5524,32341
32824,5511,32301
32896,5476,32391
33000,5498,32325
33040,5478,31986
33030,5506,32231
32992,5532,32257
32960,5542,32372
32896,5554,32479
32868,5547,32386
32824,5539,32334
32788,5529,32292
32832,5544,32303
32916,5466,32273
32944,5466,32364
32952,5509,32294
32972,5528,32393
32940,5580,32420
32900,5578,32580
32860,5580,32510
32844,5516,32368
32824,5485,32475
32876,5463,32562
32944,5471,32655
33000,5485,32604
33012,5491,32733
33048,5516,32396
33036,5559,32656
33008,5604,32662
33016,5517,32791
33000,5511,32700
33024,5495,32826
33034,5475,32712
33096,5479,32804
33136,5507,32483
33165,5491,32647
33172,5536,32687
33096,5565,32741
33024,5574,32807
32950,5572,32836
32920,5577,32852
32944,5487,32860
32993,5477,32965
33012,5482,32911
33024,5517,32911
33072,5521,32940
33044,5540,33038
32980,5557,32648
32912,5568,32830
32900,5573,32661
32904,5567,32965
32904,5549,33082
32928,5518,33071
32964,5465,33102
32944,5470,33071
32928,5511,33119
32932,5515,33148
32897,5540,33295
32872,5561,32885
32814,5516,33208
32780,5510,33278
32805,5490,32967
32832,5463,33251
32892,5461,33420
32928,5471,33004
32948,5471,33300
32900,5502,33469
32864,5523,33380
32788,5537,33383
32740,5554,33300
32729,5531,33309
32732,5520,33388
32762,5508,33400
32788,5465,33148
32780,5485,33554
32773,5496,33260
32756,5528,33462
32688,5577,33514
32552,5524,33561
32388,5521,33620
32194,5518,33679
31976,5508,33773
31908,5521,33671
31836,5471,33652
31721,5474,33579
31664,5497,33644
31666,5526,33671
31712,5562,33872
31764,5579,33799
31932,5519,33935
32338,5521,33549
32796,5507,33808
33392,5486,33927
34208,5492,33908
35080,5508,33757
35976,5534,33860
36596,5579,33905
36676,5643,34071
36704,5547,33975
37140,5534,34092
37690,5536,33916
38016,5513,34001
38324,5494,34004
38792,5545,34156
39076,5554,33956
38932,5572,34051
38496,5571,34008
37788,5596,33964
37292,5569,34025
36752,5550,33902
35912,5548,33995
35110,5521,34036
34532,5496,34061
34080,5519,34023
33672,5543,34119
33376,5614,34015
33216,5509,34021
32816,5534,33682
32397,5531,34023
32096,5529,34036
31880,5549,34037
31744,5525,34168
31712,5482,33857
31660,5493,34012
31596,5495,34126
31580,5506,34063
31544,5546,34183
31476,5578,33757
31445,5600,33915
31428,5522,33973
31360,5538,33961
31316,5523,33905
31328,5511,33983
31352,5603,33988
31368,5479,34001
31368,5514,34088
31376,5521,34044
31396,5581,34038
31333,5608,34041
31288,5529,33972
31294,5519,33935
31340,5499,33975
31432,5501,34043
31508,5493,33966
31504,5512,33913
31489,5533,33856
31441,5572,33889
31376,5531,33927
31468,5551,33829
31452,5556,33633
31453,5552,33777
31456,5510,33697
31532,5492,33604
31596,5499,33794
31632,5507,33351
31704,5507,33615
31704,5543,33709
31716,5557,33509
31716,5548,33556
31704,5537,33386
31700,5543,33385
31726,5525,33524
31782,5515,33620
31849,5480,33535
31832,5481,33539
31828,5479,33466
31788,5510,33527
31736,5549,33685
31692,5551,33487
31620,5541,33582
31620,5534,33533
31620,5504,33732
31654,5475,33654
31677,5473,33435
31724,5481,33634
31738,5504,33619
31772,5530,33709
31733,5558,33680
31672,5570,33844
31604,5572,33608
31572,5575,33869
31580,5545,33735
31600,5531,33986
31704,5530,33596
31724,5526,33998
31772,5544,34081
31772,5509,33900
31708,5534,34116
31641,5551,34301
31616,5562,34173
31569,5547,34128
31521,5554,34247
31568,5477,34339
31628,5477,34492
31632,5500,34418
31616,5508,34436
31624,5527,34494
31589,5555,34550
31504,5557,34510
31432,5557,34492
31396,5562,34605
31422,5543,34789
31508,5504,34648
31572,5500,34772
31624,5532,34815
31578,5555,34863
31580,5510,34988
31580,5540,34870
31608,5540,34999
31572,5644,34857
31556,5534,35061
31580,5508,35104
31640,5480,34991
31712,5491,35044
31768,5516,35221
31804,5521,35236
31844,5541,35232
31862,5569,35316
31800,5555,35317
31812,5550,35460
31857,5546,35052
31892,5525,35452
31976,5516,35312
32060,5491,35607
32130,5513,35380
32202,5495,35589
32300,5519,35447
32285,5563,35646
32225,5563,35660
32236,5539,35716
32253,5533,35556
32293,5530,35829
32360,5516,35409
32444,5508,35768
32488,5499,35941
32536,5509,35636
32564,5533,35855
32556,5571,35967
32496,5596,35660
32452,5650,35869
32460,5528,36070
32468,5506,35865
32580,5476,35991
32644,5475,35975
32656,5487,35943
32645,5501,36014
32637,5544,36063
32584,5553,35877
32529,5587,36032
32496,5627,36167
32496,5526,36076
32477,5501,35936
32552,5491,36097
32600,5489,36135
32608,5505,35970
32620,5506,36176
32661,5527,36133
32657,5553,36015
32600,5588,36137
32577,5580,36204
32560,5578,36129
32544,5556,36333
32576,5529,36228
32609,5517,36076
32632,5516,36269
32669,5540,36316
32680,5504,36202
32624,5534,36269
32576,5535,36180
32553,5532,36402
32528,5533,35906
32521,5525,36289
32600,5513,36210
32652,5487,36421
32696,5502,36231
32676,5502,36204
32702,5526,36259
32664,5570,36207
32560,5537,36077
32553,5530,36348
32528,5525,36212
32536,5506,36194
32624,5477,36093
32669,5471,36316
32680,5481,36140
32728,5488,35782
32740,5512,36156
32728,5533,36196
32704,5535,36209
32648,5526,35798
32636,5556,36103
32584,5538,35953
32652,5503,36156
32684,5489,36037
32732,5502,35975
32780,5502,36080
32821,5540,36119
32736,5563,35892
32640,5537,35927
32568,5530,35924
32572,5523,35883
32552,5509,35967
32620,5481,35829
32704,5600,35439
32736,5531,35418
32713,5518,35781
32676,5528,35708
32644,5556,35791
32586,5554,35844
32544,5559,35799
32560,5530,35755
32564,5524,35504
32628,5481,35569
32733,5541,35584
32780,5552,35500
32764,5538,35498
32733,5536,35629
32660,5553,35519
32576,5557,35225
32520,5557,35421
32532,5542,35292
32560,5550,35478
32577,5513,35327
32638,5493,35040
32724,5507,35357
32756,5524,35260
32784,5519,35378
32736,5549,35349
32692,5561,35292
32664,5549,35101
32676,5563,35225
32696,5552,35231
32753,5482,35335
32804,5476,35142
32820,5484,35192
32812,5484,35334
32816,5507,34908
32736,5535,35172
32712,5569,35288
32676,5562,35028
32680,5583,35093
32672,5507,35212
32696,5476,35044
32748,5476,35072
32768,5486,35037
32792,5629,35045
32808,5510,35039
32808,5533,35042
32732,5535,34942
32708,5537,35161
32704,5536,34950
32700,5529,35004
32764,5497,35109
32840,5506,34693
32830,5514,34956
32804,5513,34877
32816,5533,34991
32774,5577,34885
32692,5604,34857
32676,5678,34862
32604,5532,34672
32592,5512,34880
32668,5479,34605
32744,5474,34756
32768,5523,34892
32764,5500,34695
32812,5523,34336
32772,5547,34704
32744,5550,34649
32700,5564,34620
32672,5543,34573
32668,5525,34638
32692,5509,34476
32744,5511,34541
32756,5525,34565
32781,5539,34673
32804,5564,34230
32780,5597,34437
32712,5540,34591
32696,5532,34460
32680,5524,34287
32688,5508,34447
32704,5483,34381
32704,5472,34265
32744,5487,34365
32777,5502,34001
32804,5508,34321
32750,5547,34450
32688,5557,34145
32676,5552,34284
32676,5540,34175
32676,5510,34375
32740,5479,34148
32836,5472,34227
32848,5487,34175
32894,5535,34076
32933,5547,34191
32876,5561,33914
32788,5562,34092
32704,5564,34105
32648,5559,34133
32652,5513,33869
32752,5486,34085
32761,5552,33905
32776,5536,34161
32824,5541,33961
32832,5565,34029
32852,5590,33989
32816,5598,34011
32781,5574,33841
32792,5572,33957
32794,5567,34004
32800,5532,33944
32825,5502,33860
32856,5507,33922
32840,5535,33927
32844,5508,33496
32812,5536,33868
32725,5543,33984
32652,5534,33644
32620,5528,33845
32589,5519,33700
32672,5541,33860
32768,5533,33858
32816,5545,33777
32865,5491,33765
32886,5507,33692
32849,5535,33752
32808,5540,33575
32736,5532,33799
32700,5528,33319
32705,5509,33648
32724,5484,33738
32776,5479,33567
32780,5488,33636
32816,5513,33724
32798,5508,33660
32756,5558,33554
32704,5559,33641
32700,5548,33532
32617,5545,33533
32596,5525,33477
32632,5500,33581
32708,5492,33407
32758,5503,33479
32804,5508,33335
32800,5533,33486
32780,5574,33422
32704,5592,33245
32670,5631,33321
32636,5529,33400
32584,5510,33233
32576,5504,33332
32644,5488,33359
32680,5509,33300
32660,5513,33306
32684,5527,32958
32664,5564,33260
32596,5568,33279
32586,5548,33342
32556,5568,33028
32532,5550,33230
32612,5512,33263
32660,5516,33204
32696,5504,32903
32716,5527,33089
32744,5565,33181
32712,5573,33021
32672,5590,33161
32620,5583,33084
32620,5564,32940
32584,5544,33191
32620,5525,33113
32692,5523,32989
32704,5517,32868
32720,5516,33074
32708,5540,33067
32672,5556,32964
32609,5578,33156
32548,5579,32956
32500,5594,33040
32476,5523,32835
32524,5626,33121
32616,5482,32917
32689,5489,32977
32797,5492,32927
32868,5509,32877
32869,5536,33047
32792,5548,32903
32655,5539,32922
32572,5533,32934
32586,5514,32953
32648,5491,32877
32724,5521,32881
32804,5501,32773
32840,5525,32924
32840,5550,32541
32820,5603,32809
32828,5635,32943
32840,5582,32967
32849,5589,32818
32880,5518,32479
32943,5491,32826
32988,5480,32758
33036,5489,32903
33064,5494,32660
33088,5509,32792
33040,5564,32833
32984,5575,32682
32940,5577,32736
32868,5576,32665
32840,5559,32637
32854,5527,32775
32900,5530,32696
32952,5540,32687
32980,5540,32610
32953,5557,32813
32902,5592,32652
32840,5600,32424
32800,5595,32660
32809,5587,32612
32832,5520,32756
32892,5485,32305
32956,5479,32562
32986,5526,32693
33028,5525,32617
33041,5560,32519
32989,5597,32661
32936,5627,32415
32908,5540,32594
32873,5531,32401
32868,5516,32535
32893,5503,32583
32910,5502,32486
32924,5540,32474
32944,5571,32536
32960,5501,32673
32912,5546,32193
32864,5556,32397
32836,5553,32621
32821,5570,32497
32833,5568,32448
32868,5562,32603
32924,5476,32505
32948,5493,32440
32968,5512,32417
32968,5557,32465
32936,5626,32468
32820,5543,32391
32690,5541,32464
32560,5533,32415
32396,5517,32360
32278,5488,32389
32200,5481,32439
32100,5491,32388
31937,5531,32473
31813,5534,32423
31744,5572,32372
31752,5587,32397
31832,5574,32215
31900,5567,32383
32086,5539,32327
32548,5508,32407
33040,5506,32263
33624,5516,32340
34496,5516,32260
35425,5533,32415
36112,5569,32212
36561,5596,32293
36656,5609,32226
36548,5612,32365
36600,5532,32151
36848,5508,31916
37168,5495,32204
37568,5501,32057
37860,5510,32164
37884,5523,32183
37604,5568,31821
37008,5593,32070
36300,5570,31924
35768,5547,32140
35165,5529,31928
34716,5501,31924
34444,5494,31878
34184,5532,31985
33856,5515,31550
33640,5551,31630
33468,5591,31740
33248,5623,31761
33048,5543,31700
32849,5534,31638
32612,5524,31452
32472,5496,31703
32416,5485,31519
32320,5489,31708
32232,5510,31652
32132,5540,31445
32029,5563,31660
31928,5590,31268
31869,5580,31517
31818,5614,31692
31812,5520,31487
31852,5493,31512
31936,5478,31465
31953,5486,31636
31980,5497,31424
31968,5508,31517
31928,5549,31352
31865,5571,31555
31804,5573,31148
31828,5558,31277
31846,5575,31508
31888,5544,31340
31952,5531,31406
32000,5531,31333
32032,5553,31402
32040,5512,31284
32036,5540,31239
32004,5548,31359
31952,5538,31095
31960,5535,31141
31972,5520,30903
31992,5492,31007
32036,5481,30978
32056,5486,30820
32092,5490,30912
32132,5509,30671
32093,5536,30782
32030,5542,30820
31988,5540,30618
31976,5532,30348
31968,5521,30589
32028,5496,30597
32088,5551,30625
32128,5540,30372
32100,5533,30500
32072,5551,30350
32044,5582,30464
32020,5585,30214
31980,5578,30413
31988,5574,30445
32044,5581,30320
32104,5638,30407
32198,5485,30497
32212,5496,30097
32262,5512,30247
32285,5533,30497
32226,5546,30136
32165,5546,30463
32106,5542,30433
32112,5538,30399
32108,5577,30525
32148,5561,30372
32216,5577,30664
32252,5564,30481
32276,5617,30635
32245,5512,30663
32212,5537,30592
32161,5552,30727
32096,5542,30581
32098,5539,30792
32036,5596,30908
32053,5558,30755
32128,5488,30876
32165,5548,30752
32172,5561,30959
32184,5648,30949
32136,5544,30823
32088,5546,30999
32040,5539,31063
32034,5538,30918
32028,5523,31175
32064,5497,31137
32089,5489,31136
32140,5494,31325
32184,5497,31212
32248,5510,31265
32244,5540,31193
32192,5557,31328
32192,5551,31170
32180,5556,31399
32212,5555,31239
32284,5513,31564
32376,5510,31333
32432,5519,31523
32424,5538,31568
32404,5601,31533
32400,5539,31573
32380,5559,31517
32400,5560,31694
32428,5567,31373
32436,5549,31691
32512,5550,31813
32640,5547,31433
32712,5502,31783
32788,5502,31779
32848,5521,31760
32868,5554,31870
32812,5577,31900
32824,5604,31608
32840,5540,31847
32897,5529,32022
32992,5495,31855
33086,5486,32000
33144,5494,31853
33148,5499,32109
33145,5512,31733
33132,5556,32012
33088,5572,32160
33061,5595,31791
33021,5544,32056
33024,5527,32050
33084,5499,32213
33156,5486,32068
33216,5491,32164
33192,5497,32132
33204,5532,32309
33196,5566,31885
33128,5564,32199
33064,5564,32166
33060,5569,32330
33068,5540,31992
33120,5515,32208
33164,5528,32367
33133,5599,31961
33172,5502,32279
33196,5506,32296
33196,5540,32353
33124,5547,31986
33052,5572,32299
33012,5551,32482
33013,5561,32287
33040,5578,32345
33072,5487,32519
33112,5491,32325
33140,5495,32391
33154,5514,32319
33116,5574,32487
33033,5562,32161
32918,5572,32429
32920,5588,32404
32892,5612,32437
32924,5494,32402
32976,5481,32340
32992,5493,32543
33012,5494,32448
33033,5510,32400
33024,5541,32388
32956,5543,32220
32908,5546,32492
32828,5534,32206
32852,5525,32391
32920,5499,32309
33000,5481,32221
33040,5490,32472
33052,5502,32367
33012,5506,32084
32932,5652,32383
32917,5629,32334
32865,5542,32351
32820,5536,32432
32788,5673,32259
32856,5495,32303
32964,5488,32244
32984,5510,32431
32968,5534,32032
32988,5522,32245
32932,5551,32391
32861,5562,31981
32840,5539,32217
32820,5533,32157
32828,5524,32318
32856,5496,31977
32948,5484,32201
32964,5495,32301
32960,5523,32167
32984,5535,32148
32972,5583,32039
32920,5554,32007
32846,5541,32152
32808,5563,31905
32800,5550,31940
32837,5544,31964
32908,5483,31975
32973,5499,32000
32986,5536,31988
32996,5534,31999
32988,5594,31645
32916,5659,31829
32872,5545,31911
32864,5536,31893
32904,5530,31735
32916,5498,31852
32980,5494,31852
33012,5504,31860
33057,5531,31805
33092,5553,31793
33044,5604,31647
33004,5552,31738
32952,5607,31756
32952,5594,31688
32946,5529,31860
32948,5527,31406
33000,5502,31655
33076,5508,31744
33058,5511,31760
33062,5522,31670
33056,5568,31645
32984,5581,31721
32960,5603,31665
32976,5636,31512
33004,5589,31769
33028,5578,31556
33080,5563,31639
33052,5641,31511
33040,5500,31597
33096,5521,31556
33104,5551,31604
33076,5594,31596
33032,5548,31647
32984,5537,31562
32984,5524,31404
32996,5499,31556
33024,5511,31541
33076,5508,31500
33068,5543,31293
33080,5583,31487
33088,5537,31589
33028,5565,31332
32980,5564,31495
32933,5573,31320
32936,5550,31521
32980,5512,31205
33052,5516,31412
33072,5533,31495
33080,5588,31438
33080,5507,31495
33072,5538,31109
33024,5550,31410
32956,5556,31359
32948,5559,31207
32944,5589,31205
32976,5498,31326
33049,5496,31357
33116,5510,31363
33124,5535,31335
33149,5552,31234
33092,5593,31434
32992,5572,31300
32944,5574,31321
32900,5619,31404
32912,5532,31220
32972,5499,31318
32960,5487,31160
32972,5487,31327
33028,5497,31198
33028,5507,31111
33012,5537,31287
32981,5550,31348
32933,5544,31279
32916,5561,31112
32892,5549,31293
32936,5540,31367
32988,5550,31315
33028,5491,31264
33032,5530,31267
33052,5527,31343
33016,5572,31172
32924,5602,31397
32876,5644,31031
32860,5537,31257
32856,5539,31381
32902,5528,31049
32948,5509,31239
32949,5558,31296
32948,5502,31404
32972,5511,31239
32960,5545,31212
32920,5574,31305
32900,5591,31353
32892,5666,31463
32872,5531,31554
32892,5535,31468
32940,5517,31314
33008,5536,31556
33021,5578,31510
33048,5505,31415
33036,5546,31463
32952,5577,31572
32904,5580,31404
32892,5554,31582
32880,5580,31613
32909,5555,31674
32960,5560,31536
33008,5487,31641
32988,5499,31772
33000,5539,31423
32992,5572,31662
32916,5573,31806
32864,5571,31612
32832,5583,31693
32832,5534,31847
32844,5498,31429
32948,5508,31705
33034,5512,31863
33066,5544,31570
33136,5549,31791
33129,5589,31781
33080,5607,31724
33024,5636,31821
33000,5535,31908
32964,5528,31759
32996,5498,31516
33044,5486,31855
33028,5494,31775
33012,5496,31845
33052,5503,31863
33037,5538,31761
33012,5548,31983
32936,5543,31812
32937,5540,31924
32944,5534,32052
32990,5499,31684
33036,5484,31911
33072,5493,31957
33068,5497,31845
33116,5505,31977
33092,5532,31804
33028,5547,32101
33036,5547,31670
33012,5551,31951
32972,5558,32111
33024,5519,31877
33044,5510,32025
33059,5518,31967
33072,5530,32076
33088,5528,31702
33033,5558,31968
33000,5583,32181
32944,5594,31970
32929,5575,32054
32876,5577,32031
32912,5556,32213
32988,5543,32056
33056,5541,31823
33052,5559,32092
33000,5565,31959
32932,5631,32187
32860,5547,32096
32796,5542,31788
32776,5539,32142
32764,5533,31952
32724,5499,32247
32788,5492,31879
32846,5526,32121
32932,5535,32212
32968,5527,32079
33020,5580,32102
32948,5607,32293
32856,5540,32182
32772,5560,32172
32744,5546,32116
32812,5538,32185
32916,5537,32340
32960,5610,31863
32968,5498,32156
33052,5535,32251
33088,5558,32207
33056,5550,32320
33028,5540,32043
33005,5552,32133
32994,5570,32351
33021,5520,32119
33036,5507,32263
33094,5517,32073
33072,5529,32350
33054,5568,31912
33064,5639,32226
33020,5550,32261
32958,5542,32220
32896,5543,32287
32868,5533,32284
32916,5525,32418
32936,5503,32116
32940,5504,32276
32933,5545,32431
32976,5555,32306
32981,5576,31973
32950,5604,32255
32896,5547,32420
32892,5533,32220
32912,5555,32313
32956,5523,32420
33044,5543,32340
33080,5489,32263
33077,5499,32397
33066,5525,32165
33044,5572,32317
33012,5569,32478
32956,5565,32381
32876,5563,32411
32812,5576,32285
32852,5562,32334
32924,5481,32408
32976,5489,32565
32997,5500,32372
33004,5539,32423
32960,5580,32476
32924,5550,32489
32868,5543,32486
32804,5546,32433
32784,5536,32252
32820,5509,32546
32868,5522,32439
32864,5511,32681
