ECG,EDA,RR
31636,15297,33268
31664,15279,33268
31648,15270,33057
31604,15297,33156
31576,15289,33077
31612,15316,32980
31592,15347,33199
31540,15347,33081
31488,15343,32848
31452,15365,33047
31440,15303,33047
31488,15275,32895
31546,15277,33047
31552,15294,32713
31540,15299,32933
31561,15336,32932
31550,15348,32805
31524,15340,32895
31529,15334,32807
31528,15332,32860
31552,15322,32696
31612,15299,32460
31673,15285,32684
31732,15298,32510
31728,15317,32607
31678,15325,32353
31588,15351,32506
31509,15362,32286
31492,15349,32508
31492,15356,32199
31466,15339,32324
31524,15314,32156
31584,15277,32263
31632,15285,32000
31680,15298,32216
31664,15340,32174
31604,15359,32134
31560,15363,31919
31564,15357,32155
31565,15381,32244
31520,15309,32057
31566,15279,32159
31640,15280,32002
31720,15301,32215
31724,15306,32039
31718,15348,32159
31670,15364,32093
31660,15383,32236
31660,15343,32000
31684,15340,32204
31688,15311,32184
31760,15289,32263
31796,15286,32237
31820,15298,32044
31808,15300,32095
31840,15326,32354
31848,15357,32319
31796,15357,32513
31720,15357,32401
31716,15367,32476
31680,15322,32517
31704,15300,32536
31737,15311,32492
31748,15314,32372
31712,15325,32673
31712,15361,32700
31664,15364,32815
31600,15376,32714
31572,15372,32544
31586,15356,32855
31604,15333,32730
31677,15311,32996
31776,15301,32896
31796,15313,33031
31794,15322,32903
31798,15353,33025
31789,15383,32960
31758,15385,33121
31752,15378,33088
31760,15373,33039
31800,15343,32902
31892,15321,33132
32014,15324,33268
32058,15333,33231
32085,15336,33119
32100,15364,33262
32052,15394,33287
32021,15399,33183
32000,15389,33410
32017,15380,33316
32052,15357,33228
32128,15306,33383
32204,15300,33506
32224,15317,33326
32296,15333,33437
32328,15353,33405
32332,15386,33562
32316,15384,33415
32300,15385,33208
32320,15390,33444
32364,15357,33511
32464,15320,33538
32564,15327,33496
32600,15343,33506
32638,15367,33511
32616,15348,33516
32592,15370,33565
32554,15374,33317
32548,15390,33543
32528,15367,33482
32552,15354,33481
32608,15341,33549
32668,15300,33415
32689,15315,33628
32700,15327,33281
32724,15375,33567
32670,15392,33445
32609,15378,33465
32604,15364,33548
32588,15359,33476
32548,15333,33647
32623,15304,33493
32688,15308,33522
32716,15339,33398
32736,15327,33605
32752,15361,33408
32720,15398,33511
32654,15413,33543
32608,15398,33396
32640,15397,33469
32640,15381,33473
32720,15335,33385
32748,15332,33469
32788,15341,33543
32820,15345,33409
32804,15380,33213
32736,15380,33391
32676,15383,33468
32624,15397,33128
32668,15368,33396
32684,15346,33391
32709,15326,33446
32764,15323,33276
32820,15330,33071
32836,15343,33308
32864,15375,33213
32801,15404,33281
32760,15412,32963
32736,15375,33042
32704,15367,33220
32692,15351,32969
32736,15320,33102
32781,15327,33105
32816,15339,33064
32820,15357,32789
32804,15361,32975
32770,15384,32823
32752,15406,32844
32728,15391,32866
32741,15380,32823
32753,15367,32818
32788,15373,32676
32820,15311,32748
32840,15323,32668
32848,15341,32759
32881,15365,32396
32828,15411,32535
32792,15403,32631
32756,15378,32560
32706,15389,32397
32704,15346,32589
32796,15341,32372
32876,15338,32198
32912,15335,32284
32920,15349,32420
32917,15391,32316
32844,15391,32135
32797,15391,32194
32742,15388,32228
32728,15396,32247
32724,15386,31992
32780,15319,32064
32852,15316,32207
32870,15355,31846
32901,15343,31986
32892,15374,32076
32836,15401,31893
32789,15402,31950
32792,15394,31927
32780,15389,31798
32776,15369,31924
32812,15347,31601
32844,15351,31829
32836,15355,31664
32840,15391,31848
32820,15362,31517
32736,15395,31612
32716,15397,31679
32718,15387,31476
32685,15390,31652
32712,15366,31757
32820,15341,31647
32860,15333,31461
32872,15360,31619
32889,15341,31692
32864,15382,31621
32840,15415,31589
32800,15415,31509
32744,15419,31615
32740,15428,31626
32749,15365,31445
32796,15330,31604
32812,15328,31689
32812,15345,31517
32808,15365,31635
32804,15398,31505
32816,15419,31732
32768,15407,31656
32741,15412,31413
32709,15391,31675
32732,15360,31655
32781,15337,31652
32830,15332,31628
32836,15341,31748
32808,15353,31493
32776,15386,31766
32750,15423,31634
32672,15415,31799
32636,15422,31837
32668,15421,31714
32672,15391,31591
32734,15346,31855
32773,15350,31741
32804,15372,31919
32804,15376,31801
32824,15405,31703
32769,15432,31934
32704,15412,31810
32688,15418,31908
32684,15406,31735
32680,15383,31988
32740,15360,31904
32777,15356,32044
32816,15378,32021
32820,15420,31812
32832,15379,32055
32774,15414,31957
32693,15412,32172
32660,15418,32046
32640,15407,31863
32672,15370,31900
32698,15342,32146
32736,15340,32128
32780,15351,32097
32789,15361,32216
32797,15396,32084
32764,15437,32181
32725,15435,32023
32684,15460,32239
32640,15403,32039
32660,15393,32158
32724,15350,32231
32777,15361,32153
32804,15370,32048
32826,15378,32222
32850,15426,32109
32820,15441,32124
32768,15433,32164
32748,15430,32300
32704,15447,32016
32660,15378,32207
32720,15351,32329
32760,15369,32131
32820,15373,32090
32840,15373,32247
32876,15405,32181
32824,15431,32284
32768,15434,32293
32752,15420,32240
32720,15429,32183
32736,15388,32007
32798,15375,32213
32868,15374,32202
32932,15385,32100
32940,15389,32261
32960,15417,32300
32920,15452,32172
32884,15423,32268
32849,15412,32104
32824,15409,32360
32844,15387,32286
32896,15371,32252
32968,15359,32152
33036,15367,32031
33064,15373,32260
33068,15401,32228
33060,15432,32105
33004,15431,32316
32969,15424,32319
32961,15420,32055
32976,15399,32223
33004,15380,32108
33062,15374,32312
33049,15392,32103
33068,15372,32207
33080,15404,32153
33069,15428,32279
33008,15431,32160
32960,15417,31909
32940,15412,32140
32936,15388,31987
32968,15380,32225
32988,15366,32007
32996,15377,31841
32994,15387,31837
33020,15408,32061
32964,15444,32073
32864,15436,32074
32784,15430,31900
32725,15429,31990
32725,15414,31844
32825,15388,31860
32877,15403,31945
32906,15373,31717
32916,15378,31876
32940,15427,31959
32889,15460,31761
32852,15448,31726
32836,15428,31706
32826,15421,31769
32832,15401,31709
32900,15381,31714
32917,15376,31797
32950,15385,31732
32988,15389,31588
33008,15422,31679
33004,15462,31548
32960,15436,31628
32972,15425,31384
32980,15426,31520
33016,15405,31714
33036,15396,31492
33080,15375,31588
33084,15391,31528
33109,15403,31593
33108,15436,31440
33041,15469,31296
32997,15481,31527
33012,15429,31376
33040,15424,31549
33064,15408,31357
33100,15397,31493
33137,15389,31408
33110,15391,31414
33112,15391,31545
33100,15432,31351
33044,15457,31433
33016,15465,31405
32993,15456,31463
33024,15457,31364
33032,15433,31303
33084,15377,31405
33144,15372,31283
33168,15378,31492
33184,15386,31427
33192,15413,31291
33156,15444,31140
33104,15445,31345
33064,15437,31407
33048,15439,31272
33070,15401,31248
33144,15379,31383
33220,15381,31251
33192,15390,31463
33200,15412,31271
33216,15433,31359
33181,15471,31471
33132,15474,31320
33096,15466,31144
33065,15476,31375
33061,15407,31394
33132,15376,31440
33136,15391,31276
33124,15408,31372
33145,15425,31512
33157,15423,31235
33088,15449,31400
33012,15470,31537
32952,15455,31360
32952,15468,31465
32944,15476,31344
33008,15383,31425
33068,15397,31493
33060,15397,31565
32940,15408,31412
32800,15447,31514
32580,15493,31414
32372,15455,31609
32164,15446,31442
31964,15444,31561
31856,15413,31511
31852,15396,31655
31900,15399,31468
31916,15422,31599
31964,15440,31553
32132,15479,31630
32396,15527,31609
32788,15467,31375
33392,15461,31635
34228,15453,31588
35192,15500,31637
36268,15442,31731
36852,15438,31589
37085,15452,31401
37568,15486,31633
38324,15514,31716
38832,15483,31560
39148,15492,31655
39512,15491,31607
40048,15495,31620
40320,15484,31559
40148,15458,31676
39640,15455,31644
38936,15459,31513
38508,15458,31698
37860,15478,31612
36804,15506,31476
35792,15505,31548
34972,15491,31552
34328,15479,31503
33716,15454,31470
33361,15421,31452
33056,15425,31580
32653,15433,31453
32304,15438,31311
32016,15463,31503
31776,15489,31516
31548,15501,31470
31384,15468,31457
31268,15468,31511
31184,15445,31361
31184,15423,31541
31180,15423,31284
31165,15439,31460
31128,15476,31604
31136,15450,31397
31096,15483,31506
31052,15487,31486
31052,15498,31617
31047,15492,31574
31052,15448,31549
31108,15414,31429
31168,15414,31517
31180,15430,31488
31193,15436,31429
31196,15473,31572
31172,15499,31446
31128,15505,31273
31112,15479,31495
31120,15473,31443
31156,15449,31428
31216,15421,31365
31276,15420,31188
31317,15428,31361
31340,15439,31260
31301,15461,31166
31304,15500,31292
31300,15505,31105
31290,15485,30982
31288,15482,30832
31300,15455,30961
31328,15424,30908
31401,15422,30870
31444,15430,30703
31442,15435,30858
31464,15468,30663
31440,15492,30478
31417,15499,30617
31404,15499,30636
31388,15497,30624
31376,15480,30501
31420,15435,30484
31457,15441,30601
31456,15449,30447
31500,15458,30650
31512,15479,30599
31484,15508,30513
31432,15509,30437
31384,15503,30632
31393,15499,30654
31408,15477,30586
31448,15455,30692
31522,15453,30825
31576,15463,30725
31572,15477,30610
31584,15477,30836
31576,15557,30727
31532,15505,30927
31470,15496,30819
31412,15490,30951
31412,15470,30929
31500,15441,31050
31608,15446,31071
31652,15469,31024
31684,15473,31215
31660,15487,31071
31609,15513,30996
31562,15519,31250
31528,15508,31164
31526,15508,31375
31572,15489,31111
31644,15468,31359
31692,15464,31519
31712,15487,31351
31720,15459,31497
31724,15483,31495
31738,15517,31516
31737,15533,31362
31692,15512,31534
31716,15524,31543
31768,15501,31667
31856,15481,31605
31924,15471,31837
31976,15483,31573
32004,15514,31786
32012,15516,31751
32032,15541,31823
32016,15537,31914
32033,15533,31687
32076,15533,31916
32117,15501,31876
32188,15477,32064
32256,15469,31966
32328,15469,31801
32360,15472,32053
32412,15503,32004
32423,15530,32209
32424,15529,32175
32436,15527,32156
32464,15534,32068
32504,15527,32288
32604,15453,31981
32716,15455,32253
32808,15460,32135
32916,15482,32319
32944,15503,32113
32916,15529,32348
32884,15539,32357
32884,15541,32313
32896,15519,32412
32944,15495,32332
33005,15484,32433
33060,15484,32356
33104,15484,32511
33148,15488,32387
33112,15519,32470
33092,15551,32449
33040,15554,32602
32996,15540,32423
32976,15511,32519
32981,15547,32544
33048,15497,32517
33150,15487,32440
33180,15488,32419
33188,15500,32668
33200,15523,32668
33156,15548,32635
33140,15547,32507
33076,15546,32615
33058,15537,32572
33050,15492,32709
33108,15454,32513
33144,15460,32628
33152,15471,32526
33156,15485,32705
33169,15495,32775
33140,15526,32767
33100,15527,32709
33056,15524,32621
33028,15510,32499
33068,15490,32768
33088,15470,32612
33129,15467,32886
33129,15477,32727
33156,15480,32804
33152,15506,32812
33133,15544,32701
33088,15549,32879
33056,15542,32717
33016,15532,32879
33006,15508,32821
33024,15467,32864
33068,15465,32883
33092,15485,32800
33112,15479,32629
33112,15526,32885
33060,15545,32823
33012,15537,32755
32992,15531,33009
32984,15521,32919
32984,15488,32839
33028,15463,32937
33076,15465,32923
33125,15479,32935
33132,15484,33047
33124,15534,33029
33080,15553,32935
33025,15552,32886
32984,15537,32927
32952,15529,32772
32956,15503,33061
33012,15480,32978
33028,15481,33065
33032,15491,32985
33032,15493,33095
33054,15519,33060
33040,15545,33206
33012,15548,32977
32980,15540,33104
32932,15540,33070
32916,15528,33053
32976,15493,33132
33052,15498,33100
33072,15519,33089
33052,15507,33140
33044,15537,32935
32988,15567,33125
32928,15574,33127
32904,15578,33078
32918,15578,33181
32916,15521,33266
32976,15488,32919
33040,15489,33183
33072,15503,33116
33064,15511,33222
33052,15529,33185
33009,15559,33150
32940,15566,33297
32928,15555,33252
32893,15549,33113
32925,15524,33216
32976,15494,33172
32997,15497,33312
33011,15530,33142
33004,15524,33245
32992,15546,33212
32976,15567,33105
32949,15569,33353
32913,15556,33303
32920,15553,33006
32904,15527,33261
32988,15502,33381
33010,15499,33203
33002,15508,33076
33008,15516,33306
33052,15534,33360
33040,15570,33247
32944,15579,33364
32884,15612,33308
32888,15583,33380
32868,15566,33343
32920,15516,33309
32957,15511,33153
33012,15519,33413
33020,15524,33377
33028,15557,33487
32952,15577,33365
32913,15577,33460
32877,15565,33468
32876,15602,33476
32924,15569,33412
32984,15517,33453
33028,15532,33617
33040,15518,33540
33060,15524,33624
33112,15550,33462
33072,15583,33324
33004,15603,33565
32988,15585,33583
32988,15596,33535
33021,15577,33487
33094,15524,33567
33144,15516,33701
33165,15522,33596
33168,15529,33503
33144,15556,33346
33124,15639,33598
33076,15613,33443
33044,15599,33681
33012,15600,33500
33000,15567,33403
33064,15527,33432
33112,15586,33481
33165,15561,33356
33208,15568,33580
33228,15585,33572
33152,15605,33534
33100,15613,33496
33084,15607,33548
33044,15611,33399
33032,15585,33593
33084,15556,33431
33141,15562,33529
33148,15571,33345
33157,15575,33573
33172,15591,33431
33156,15617,33294
33084,15615,33477
32993,15598,33487
32988,15601,33325
32976,15577,33550
32980,15540,33372
33044,15604,33304
33064,15551,33461
33064,15607,33391
33072,15611,33407
33060,15627,33469
32986,15623,33340
32964,15620,33445
32928,15607,33285
32888,15586,33521
32916,15561,33373
33021,15543,33153
33064,15561,33421
33092,15567,33410
33044,15601,33328
32993,15622,33389
32928,15615,33416
32868,15601,33343
32868,15596,33474
32888,15566,33328
32964,15540,33439
33018,15535,33340
33024,15543,33524
33032,15550,33329
33073,15612,33148
33064,15631,33428
32984,15625,33386
32960,15607,33337
32945,15602,33499
32921,15573,33364
32950,15557,33452
32966,15537,33441
33004,15545,33302
33032,15549,33567
33022,15583,33380
32976,15623,33488
32960,15628,33436
32928,15604,33333
32925,15593,33436
32909,15576,33613
32968,15604,33486
33036,15566,33428
33064,15575,33558
33089,15562,33534
33060,15585,33496
33000,15616,33657
32943,15636,33543
32924,15599,33572
32920,15597,33519
32888,15627,33362
32964,15573,33656
32992,15571,33596
32957,15579,33518
32972,15579,33660
32952,15601,33783
32924,15636,33663
32880,15640,33432
32812,15627,33735
32804,15614,33682
32834,15589,33847
32876,15573,33653
32888,15575,33775
32912,15561,33850
32885,15557,33687
32838,15588,33777
32796,15613,33813
32736,15623,33748
32536,15612,33775
32536,15606,33728
32601,15581,33888
32644,15558,33694
32684,15556,33805
32644,15574,33812
32613,15587,33697
32684,15617,33553
32688,15631,33777
32641,15634,33865
32624,15630,33702
32592,15626,33792
32633,15611,33724
32664,15556,33879
32764,15557,33697
32804,15562,33560
32807,15570,33749
32788,15595,33719
32793,15621,33580
32829,15623,33787
32860,15618,33652
32876,15608,33677
32877,15591,33658
32976,15561,33772
32984,15575,33556
33032,15584,33599
33050,15604,33700
33093,15622,33623
33076,15659,33380
33024,15635,33601
32996,15623,33543
33000,15621,33670
32984,15593,33525
33045,15588,33552
33110,15568,33492
33061,15584,33652
33017,15593,33444
33032,15631,33529
32992,15637,33639
32948,15639,33442
32900,15629,33542
32848,15629,33472
32878,15615,33476
32925,15591,33300
32980,15587,33565
33008,15604,33403
33038,15605,33644
33036,15647,33297
32988,15638,33540
32936,15639,33671
32884,15630,33509
32876,15629,33605
32872,15618,33584
32940,15591,33751
33005,15604,33559
33032,15589,33685
33020,15589,33612
33048,15613,33799
33032,15646,33730
32960,15647,33681
32900,15636,33796
32887,15635,33735
32872,15616,33767
32908,15588,33860
32944,15606,33745
32952,15587,33953
32936,15593,33829
32964,15620,33951
32964,15671,34075
32943,15660,34025
32916,15668,34052
32868,15641,34046
32828,15615,34229
32840,15580,34079
32800,15595,34196
32744,15612,34092
32636,15602,34271
32448,15639,33996
32229,15670,34207
32072,15693,34342
31916,15687,34277
31788,15645,34384
31736,15620,34439
31844,15601,34353
31908,15601,34450
31996,15601,34468
32225,15623,34593
32634,15665,34286
33156,15661,34557
33785,15679,34695
34648,15676,34481
35652,15691,34668
36576,15642,34528
37080,15617,34817
37384,15612,34447
37960,15641,34847
38770,15663,34660
39280,15652,34649
39552,15721,34718
39996,15703,34524
40452,15711,34812
40564,15680,34950
40264,15652,34768
39664,15627,34853
39041,15643,34812
38612,15637,34887
37780,15657,34789
36706,15648,34526
35740,15677,34793
34940,15685,34772
34284,15679,34692
33697,15689,34781
33332,15668,34628
33012,15615,34672
32660,15609,34789
32380,15619,34709
32124,15628,34756
31941,15670,34745
31784,15695,34749
31584,15711,34679
31396,15670,34847
31296,15684,34641
31224,15657,34696
31253,15652,34733
31264,15611,34669
31296,15628,34689
31332,15644,34596
31334,15659,34764
31280,15703,34509
31209,15733,34649
31161,15671,34621
31168,15677,34528
31196,15659,34598
31284,15630,34556
31352,15644,34660
31396,15627,34383
31365,15629,34516
31388,15676,34345
31428,15692,34533
31404,15701,34311
31420,15705,34364
31476,15670,34167
31527,15653,34383
31588,15623,34281
31652,15634,33885
31684,15641,34092
31700,15652,34167
31712,15705,33854
31684,15688,33906
31648,15710,33969
31578,15698,33577
31560,15719,33721
31560,15659,33703
31652,15630,33655
31736,15622,33472
31761,15641,33543
31796,15660,33379
31776,15699,33467
31744,15693,33159
31688,15700,33380
31632,15701,33369
31624,15691,33269
31640,15671,33196
31704,15663,33393
31732,15628,33277
31752,15660,33233
31760,15662,33280
31749,15695,33256
31733,15737,33176
31680,15710,33274
31604,15698,33276
31564,15689,33244
31548,15676,33301
31612,15657,33116
31680,15690,33305
31744,15647,33188
31813,15653,33400
31812,15679,33477
31756,15712,33384
31680,15715,33347
31640,15698,33357
31652,15691,33192
31636,15678,33489
31684,15657,33389
31721,15660,33656
31728,15679,33546
31732,15662,33341
31764,15683,33647
31748,15737,33628
31664,15724,33632
31628,15716,33812
31640,15719,33671
31628,15695,33680
31672,15681,33821
31736,15652,33708
31765,15671,33933
31772,15706,33713
31800,15692,33983
31776,15727,33953
31732,15729,34145
31724,15719,34172
31736,15726,33927
31764,15706,34130
31856,15674,34203
31904,15683,34257
31940,15684,34172
31976,15676,34292
32020,15711,34328
32004,15741,34247
31992,15746,34520
31960,15741,34438
31944,15743,34421
31956,15713,34412
32076,15686,34447
32148,15684,34663
32220,15699,34660
32276,15706,34567
32292,15728,34876
32284,15731,34776
32292,15741,34657
32292,15725,34603
32324,15719,34900
32368,15706,35053
32432,15677,35013
32492,15684,34807
32560,15703,35092
32616,15682,35065
32712,15704,35033
32718,15740,35093
32712,15766,35153
32686,15763,35392
32680,15761,35429
32685,15739,35300
32756,15697,35327
32804,15691,35292
32833,15700,35440
32848,15710,35469
32892,15729,35473
32876,15766,35422
32808,15767,35652
32804,15752,35620
32800,15751,35522
32812,15732,35631
32876,15733,35622
32908,15668,35620
32964,15682,35792
32997,15693,35656
33024,15709,35639
32992,15741,35720
32916,15753,35649
32880,15746,35787
32904,15743,35889
32916,15735,35738
32936,15741,35839
32952,15678,35843
32968,15684,35762
33020,15693,35909
33044,15736,36012
33037,15753,36002
32984,15764,35858
32944,15780,35941
32944,15735,35941
32916,15717,35821
32953,15692,36103
33009,15701,35937
33028,15704,35701
33060,15733,35998
33060,15727,36008
33004,15751,36156
32924,15779,35950
32897,15765,36044
32880,15765,35988
32912,15751,36036
32968,15754,35994
32988,15687,35858
33016,15699,35972
33060,15703,35988
33044,15732,35910
33028,15761,35786
32972,15771,36037
32952,15779,35920
32945,15762,35583
32924,15751,35879
32964,15735,35998
33052,15727,35941
33088,15766,35749
33060,15716,35812
33044,15751,35909
33032,15785,35884
32968,15781,35713
32944,15781,35780
32912,15788,35727
32904,15733,35832
32992,15743,35625
33089,15722,35687
33152,15749,35544
33167,15729,35628
33124,15751,35277
33073,15804,35553
33016,15798,35449
33016,15788,35565
33012,15798,35231
33020,15755,35404
33086,15721,35455
33136,15726,35320
33120,15748,35214
33164,15762,35367
33172,15791,35260
33156,15831,34935
33092,15805,35124
33076,15789,34950
33068,15781,35141
33024,15765,34991
33074,15735,34676
33080,15733,34927
33094,15749,34823
33128,15764,34896
33164,15790,34892
33176,15815,34765
33113,15827,34628
33072,15831,34676
33092,15799,34564
33112,15776,34553
33128,15767,34607
33196,15758,34325
33252,15781,34468
33244,15783,34429
33220,15842,34336
33184,15857,34180
33128,15848,34266
33072,15847,34324
33060,15805,34134
33058,15786,33951
33104,15759,34130
33176,15757,34084
33188,15764,33913
33188,15796,34138
33188,15815,33927
33172,15836,33716
33150,15855,33880
33120,15853,33988
33070,15820,33837
33056,15801,33565
33100,15779,33767
33117,15797,33802
33126,15782,33460
33172,15784,33645
33196,15837,33765
33172,15853,33429
33174,15878,33639
33126,15841,33508
33156,15829,33623
33164,15836,33524
33232,15796,33500
33264,15807,33437
33316,15817,33571
33360,15819,33543
33372,15847,33453
33364,15875,33372
33328,15876,33282
33281,15863,33260
33247,15849,33284
33205,15822,33268
33256,15795,33200
33308,15794,33093
33310,15834,32985
33311,15840,33228
33324,15833,33188
33284,15863,33258
33258,15867,33125
33214,15860,32911
33208,15869,33151
33216,15857,33151
33316,15820,33241
33400,15815,33039
33424,15824,32865
33388,15844,33119
33384,15876,32965
33356,15918,33189
33316,15879,32980
33260,15873,33084
33212,15866,33084
33148,15849,33029
33196,15818,33073
33221,15823,33030
33240,15839,32845
33270,15844,33055
33300,15877,32935
33288,15910,33132
33208,15915,32984
33124,15909,32781
33148,15912,33021
33152,15866,33148
33208,15836,32957
33256,15827,33060
33296,15837,32916
33296,15857,33127
33256,15887,32988
33209,15919,33077
33184,15915,33079
33176,15911,33057
33144,15916,33059
33168,15936,32990
33212,15851,33159
33268,15840,33153
33288,15852,33086
33284,15878,33274
33300,15909,33225
33288,15938,33139
33236,15940,32956
33220,15927,33255
33184,15935,33268
33189,15924,33252
33288,15858,33311
33372,15869,33175
33374,15877,33415
33372,15889,33252
33400,15925,33351
33356,15990,33501
33284,15941,33351
33241,15933,33421
33208,15929,33466
33248,15910,33503
33236,15887,33397
33292,15891,33524
33321,15917,33543
33325,15887,33485
33292,15941,33595
33236,15965,33511
33200,15989,33584
33137,15948,33372
33180,15956,33609
33220,15932,33738
33288,15909,33467
33300,15909,33713
33282,15898,33841
33228,15903,33668
33241,15950,33763
33233,15973,33902
33140,15988,33720
33064,15991,33836
32992,15953,33828
33012,15928,33974
33072,15903,33800
33112,15909,33895
33125,15926,33912
33108,15924,33776
33068,15943,34015
33021,15989,33808
33024,15996,33991
33020,16023,34077
33032,15956,33937
33032,15941,33737
33072,15912,34036
33124,15909,33991
33140,15914,34015
33188,15924,34106
33136,15950,33984
33088,16001,34097
33006,15993,34028
32892,15997,34031
32852,15981,34103
32860,15982,34120
32892,15939,34007
32924,15913,34242
32892,15925,33856
32896,15939,34151
32820,15979,34065
32760,16001,34125
32696,16013,34151
32640,16007,34155
32624,16012,34264
32640,15965,33935
32672,15939,34183
32697,15934,34122
32632,15943,34279
32597,15949,33969
32652,15980,34096
32604,16015,34257
32545,16037,34025
32520,16003,34151
32469,16001,34304
32464,15980,34231
32480,15942,33940
32520,15941,34237
32576,15969,34194
32604,15982,34249
32612,15993,34220
32576,16028,34207
32472,16041,34254
32432,16025,34311
32421,16021,34181
32392,16005,33957
32442,15991,34206
32480,15975,34087
32493,15991,34264
32524,15992,34296
32516,16021,34003
32456,16065,34248
32405,16039,34095
32336,16026,34335
32285,16023,34183
32268,16057,34128
32344,16009,33940
32448,15970,34231
32553,15981,34124
32556,15985,34281
32548,16014,33973
32508,16052,34214
32536,16046,34204
32568,16043,34088
32516,16036,34129
32468,16060,34140
32488,16007,34269
32588,16007,34174
32668,16025,33941
32724,16000,34172
32728,16020,34020
32716,16050,33988
32700,16056,34222
32664,16049,34047
32637,16046,34135
32638,16038,33961
32688,16018,34183
32740,16005,34012
32812,16025,34089
32808,16014,33948
32820,16098,34175
32784,16069,34023
32676,16073,33777
32609,16066,34033
32576,16062,33893
32586,16047,34104
32628,16011,33927
32656,16010,33876
32671,16015,33821
32648,16033,33737
32631,16084,33988
32590,16109,33927
32536,16148,34054
32513,16079,33863
32510,16080,33957
32536,16068,33874
32609,16035,33897
32680,16032,33985
32705,16049,33924
32685,16055,33791
32668,16086,33607
32664,16124,33850
32636,16108,33929
32576,16126,33911
32560,16089,33725
32594,16070,33828
32660,16039,33798
32770,16057,33881
32790,16058,33701
32784,16076,33764
32840,16101,33709
32832,16137,33600
32780,16117,33773
32708,16109,33439
32704,16107,33679
32673,16100,33693
32704,16082,33597
32732,16046,33637
32784,16059,33612
32804,16071,33661
32816,16111,33663
32804,16145,33509
32728,16125,33593
32669,16118,33647
32640,16113,33589
32572,16119,33287
32452,16086,33501
32361,16061,33613
32244,16070,33255
32096,16097,33503
31977,16110,33501
31824,16161,33389
31688,16189,33478
31668,16135,33367
31713,16129,33503
31810,16127,33319
31988,16099,33425
32389,16095,33396
32880,16098,33348
33388,16113,33338
34152,16122,33357
35065,16155,33451
35840,16170,33238
36384,16175,33334
36624,16187,33257
36560,16142,33257
36561,16111,33133
36740,16111,33245
36940,16124,33183
37196,16133,33172
37576,16165,33191
37652,16220,33078
37333,16184,33243
36856,16197,32858
36120,16197,32998
35600,16140,32980
35208,16112,32951
34788,16108,32999
34516,16132,32908
34316,16137,33027
34072,16170,32802
33808,16209,32668
33636,16177,32831
33468,16173,32655
33300,16178,32740
33160,16165,32749
32984,16124,32599
32852,16111,32805
32716,16127,32596
32588,16147,32673
32504,16164,32647
32373,16229,32364
32244,16194,32437
32156,16196,32455
32108,16195,32284
32064,16187,32464
32080,16125,32572
32120,16122,32341
32140,16141,32431
32176,16159,32378
32208,16175,32423
32180,16213,32284
32086,16225,32180
32045,16197,32311
32032,16192,32263
32032,16178,32263
32076,16157,31995
32144,16137,32073
32180,16145,32076
32150,16167,32144
32184,16196,32044
32170,16209,32135
32124,16215,32008
32082,16209,31847
32056,16207,31647
32044,16196,31823
32104,16179,31869
32192,16144,31605
32239,16159,31663
32256,16195,31532
32268,16199,31459
32225,16253,31476
32180,16228,31420
32132,16221,31237
32148,16233,31292
32173,16214,31182
32221,16165,31268
32276,16169,30983
32293,16193,31093
32320,16172,30953
32305,16214,30911
32256,16247,30740
32200,16232,30819
32196,16239,30964
32208,16231,30756
32232,16221,30852
32244,16203,30715
32288,16170,30884
32337,16180,30670
32352,16196,30774
32328,16215,30752
32300,16254,30638
32297,16268,30769
32244,16268,30786
32196,16230,30641
32196,16212,30560
32264,16193,30784
32360,16188,30680
32404,16210,30889
32464,16215,30860
32468,16233,30719
32408,16271,30622
32360,16303,30845
32320,16249,30940
32325,16249,30693
32350,16231,30907
32380,16215,30872
32428,16225,30998
32472,16200,30879
32464,16206,31031
32488,16237,30952
32485,16266,31100
32453,16277,30960
32428,16279,31094
32425,16255,30983
32432,16235,31173
32454,16213,30952
32500,16208,31189
32496,16229,31137
32532,16221,31188
32572,16244,31263
32574,16279,31131
32532,16295,31271
32504,16289,31140
32468,16312,31348
32480,16249,31401
32548,16233,31156
32613,16210,31367
32646,16225,31519
32684,16236,31349
32700,16279,31444
32706,16283,31580
32684,16292,31468
32644,16285,31547
32672,16297,31637
32704,16252,31336
32788,16236,31514
32860,16245,31670
32933,16279,31483
32960,16237,31664
33020,16270,31660
33048,16307,31588
33048,16294,31711
33029,16297,31736
33004,16302,31721
33045,16303,31573
33112,16231,31788
33198,16235,31902
33248,16249,31767
33236,16267,31712
33236,16283,31856
33160,16341,31839
33144,16306,31780
33112,16325,31899
33084,16311,31809
33088,16317,31890
33140,16240,31687
33184,16236,31932
33208,16262,31945
33180,16268,31916
33168,16294,32058
33140,16353,31895
33118,16314,31816
33108,16303,32007
33132,16313,32116
33116,16308,31939
33165,16250,32054
33224,16243,32060
33264,16264,31943
33274,16274,32184
33292,16304,32007
33268,16342,31891
33220,16324,32140
33192,16320,32212
33156,16314,32177
33144,16318,32214
33181,16263,32196
33228,16272,32165
33272,16311,32277
33276,16269,32148
33268,16316,32342
33249,16346,32103
33166,16331,32327
33125,16324,32209
33120,16343,32381
33132,16322,32110
33172,16294,32361
33208,16297,32305
33280,16269,32375
33245,16282,32326
33220,16303,32239
33192,16349,32084
33157,16348,32351
33120,16353,32292
33124,16355,32340
33120,16339,32327
33128,16281,32239
33148,16269,32231
33204,16303,32333
33273,16300,32300
33280,16333,32340
33256,16343,32214
33184,16345,32309
33154,16340,32317
33124,16357,32220
33128,16328,32412
33142,16303,32366
33182,16292,32233
33216,16311,32046
33236,16321,32279
33216,16347,32351
33212,16349,32190
33181,16350,32144
33151,16343,32239
33132,16335,32237
33124,16316,32184
33184,16288,32238
33232,16295,32229
33252,16303,32076
33288,16322,32167
33320,16353,32148
33328,16387,31982
33260,16364,32202
33200,16353,31862
33196,16367,32087
33172,16332,31989
33220,16309,32162
33284,16313,31970
33324,16303,32058
33346,16305,31980
33344,16353,32101
33309,16373,32082
33268,16389,31993
33248,16385,31900
33228,16357,31748
33240,16335,31989
33276,16305,31940
33312,16318,32058
33325,16316,31991
33300,16334,31784
33308,16332,31823
33288,16389,31949
33240,16385,31824
33184,16393,31925
33152,16357,31765
33156,16342,31998
33192,16334,31799
33234,16316,31887
33252,16337,31828
33261,16375,31975
33236,16348,31866
33208,16385,31791
33173,16402,31762
33108,16395,31856
33100,16391,31837
33092,16375,31783
33120,16361,31911
33164,16308,31705
33172,16321,31845
33176,16338,31693
33184,16357,31893
33188,16388,31892
33143,16389,31735
33108,16394,31817
33056,16377,31813
33068,16363,31789
33097,16346,31748
33158,16339,31692
33148,16354,31636
33200,16359,31589
33182,16405,31791
33156,16442,31664
33076,16395,31844
33064,16384,31556
33076,16403,31671
33068,16364,31892
33108,16341,31679
33140,16346,31593
33172,16356,31797
33187,16379,31657
33208,16412,31704
33216,16444,31748
33150,16404,31792
33136,16386,31748
33078,16384,31551
33057,16369,31764
33104,16335,31617
33132,16327,31792
33160,16342,31639
33188,16357,31751
33204,16374,31617
33168,16412,31792
33072,16425,31484
33033,16420,31734
33012,16417,31599
33012,16427,31812
33060,16345,31589
33120,16334,31716
33144,16343,31684
33160,16357,31637
33148,16380,31565
33068,16417,31676
33010,16439,31775
32964,16432,31544
32956,16421,31661
32976,16421,31639
32992,16399,31645
33037,16342,31617
33068,16350,31671
33084,16379,31614
33097,16397,31396
33077,16440,31567
33016,16439,31636
32941,16434,31540
32928,16422,31415
32944,16408,31604
32992,16395,31680
33076,16350,31600
33088,16359,31414
33084,16403,31613
33044,16407,31639
33044,16438,31603
33000,16452,31622
32949,16452,31664
32952,16414,31524
32960,16389,31616
33000,16363,31524
33032,16366,31507
33040,16384,31612
33052,16401,31616
33052,16392,31535
33008,16422,31412
32976,16431,31383
32932,16421,31628
32916,16413,31562
32916,16407,31564
32948,16388,31480
33024,16355,31611
33060,16369,31554
33040,16372,31716
33038,16401,31519
33012,16447,31397
32944,16453,31644
32884,16445,31523
32876,16453,31710
32868,16436,31531
32936,16373,31399
32992,16365,31620
32977,16377,31508
32992,16387,31701
33008,16429,31522
32956,16449,31428
32904,16452,31638
32879,16443,31489
32852,16430,31538
32852,16427,31663
32876,16388,31561
32902,16397,31626
32869,16375,31711
32896,16394,31506
32925,16411,31530
32916,16441,31701
32877,16451,31601
32812,16439,31508
32788,16444,31369
32780,16420,31615
32828,16397,31537
32877,16407,31599
32908,16390,31369
32912,16390,31608
32933,16415,31556
32917,16448,31458
32912,16452,31653
32884,16468,31564
32868,16463,31456
32848,16444,31373
32864,16394,31569
32888,16391,31432
32932,16413,31444
32936,16429,31442
32928,16435,31637
32896,16468,31345
32848,16486,31575
32768,16492,31441
32764,16445,31496
32744,16446,31567
32804,16407,31493
32880,16409,31512
32900,16434,31560
32916,16407,31412
32904,16435,31536
32844,16477,31425
32780,16484,31303
32732,16477,31540
32688,16461,31615
32680,16440,31424
32740,16420,31538
32786,16421,31383
32824,16454,31533
32844,16416,31286
32844,16429,31525
32800,16483,31556
32712,16489,31328
32664,16491,31506
32632,16483,31362
32568,16482,31591
32592,16412,31405
32616,16407,31261
32632,16419,31477
32645,16421,31427
32668,16440,31572
32673,16472,31408
32662,16476,31260
32648,16478,31432
32618,16486,31572
32606,16459,31333
32672,16425,31490
32732,16425,31389
32736,16442,31565
32728,16451,31361
32716,16476,31275
32688,16507,31442
32660,16491,31524
32684,16476,31358
32679,16472,31479
32720,16458,31465
32788,16432,31317
32840,16436,31449
32892,16464,31546
32912,16461,31358
32928,16511,31452
32908,16493,31415
32856,16492,31552
32800,16485,31367
32736,16484,31453
32724,16472,31556
32736,16431,31236
32760,16423,31456
32752,16434,31552
32748,16439,31355
32736,16484,31468
32696,16503,31332
32644,16518,31348
32608,16541,31440
32624,16483,31514
32628,16474,31250
32656,16452,31339
32752,16429,31363
32772,16443,31490
32788,16455,31343
32820,16495,31393
32760,16494,31500
32712,16512,31521
32680,16504,31462
32660,16510,31524
32621,16472,31445
32660,16454,31506
32652,16443,31293
32677,16460,31548
32704,16474,31409
32740,16471,31527
32692,16511,31581
32628,16519,31601
32548,16524,31492
32512,16498,31601
32496,16478,31700
32549,16474,31460
32584,16455,31604
32592,16471,31725
32616,16484,31560
32604,16508,31684
32624,16517,31616
32578,16519,31641
32492,16517,31719
32481,16522,31817
32432,16525,31639
32396,16507,31513
32352,16446,31655
32200,16484,31703
32028,16486,31792
31880,16508,31659
31712,16521,31798
31496,16527,31578
31336,16520,31841
31288,16513,31701
31328,16507,31932
31436,16484,31734
31584,16481,31879
31881,16521,31798
32264,16481,31773
32748,16519,31897
33392,16548,31777
34237,16584,31870
35160,16537,31686
35989,16538,31776
36308,16525,31879
36472,16516,31953
36952,16484,32038
37588,16519,31953
37968,16519,31813
38229,16547,31863
38640,16597,31969
38945,16565,31912
38968,16551,31868
38584,16549,31737
37972,16545,31905
37396,16495,31974
37096,16514,31671
36389,16485,31817
35548,16518,31751
34820,16527,31851
34234,16566,31692
33704,16573,31908
33238,16559,31695
32909,16565,31807
32593,16521,31833
32276,16484,31762
32044,16487,31796
31812,16513,31733
31616,16499,31693
31480,16519,31804
31317,16555,31724
31172,16567,31796
31060,16564,31572
31000,16557,31751
30960,16564,31847
30977,16527,31666
31024,16480,31751
31018,16491,31775
31040,16501,31669
31028,16533,31751
30972,16558,31606
30936,16572,31689
30885,16553,31758
30864,16549,31830
30913,16533,31484
30960,16519,31605
31018,16508,31793
31058,16496,31534
31060,16503,31701
31100,16522,31559
31108,16554,31700
31076,16580,31385
31060,16560,31572
31012,16567,31629
31040,16524,31331
31124,16491,31439
31192,16491,31430
31228,16505,31239
31264,16519,31272
31276,16548,31113
31269,16581,31188
31240,16591,30941
31200,16579,31055
31169,16579,30952
31178,16530,31027
31236,16507,30666
31316,16507,30832
31380,16532,30846
31384,16513,30690
31396,16532,30757
31364,16573,30641
31312,16583,30717
31272,16581,30489
31280,16579,30556
31276,16536,30627
31312,16507,30677
31392,16506,30540
31421,16518,30607
31472,16533,30500
31508,16558,30606
31456,16583,30701
31400,16591,30608
31376,16581,30740
31360,16575,30653
31344,16565,30788
31392,16527,30815
31436,16506,30802
31470,16525,30788
31492,16535,30903
31484,16562,30798
31424,16595,31058
31364,16617,30902
31356,16568,31051
31332,16556,31087
31318,16540,30997
31360,16513,31239
31398,16513,31061
31432,16529,31266
31444,16525,31368
31432,16549,31129
31420,16585,31256
31400,16604,31440
31364,16609,31236
31352,16572,31477
31356,16549,31636
31376,16537,31481
31448,16531,31613
31492,16533,31633
31525,16533,31733
31552,16555,31664
31516,16592,31811
31486,16618,31932
31464,16582,31762
31477,16575,31925
31508,16556,31937
31604,16534,32099
31681,16531,31955
31709,16549,32101
31749,16564,32133
31812,16559,32134
31797,16588,32291
31760,16595,32169
31736,16614,32324
31752,16589,32316
31776,16580,32382
31820,16527,32436
31916,16520,32355
32012,16550,32574
32084,16563,32473
32128,16568,32374
32165,16599,32645
32160,16615,32587
32208,16611,32820
32238,16612,32677
32264,16569,32796
32348,16535,32724
32469,16539,32961
32516,16545,32797
32560,16556,32935
32608,16578,32957
32592,16610,32866
32552,16621,33013
32520,16622,32852
32548,16583,33081
32574,16565,32943
32640,16532,33216
32711,16553,32964
32792,16556,33124
32800,16565,33031
32840,16605,33244
32784,16600,32961
32700,16615,33133
32662,16616,33206
32636,16586,33276
32652,16569,33169
32692,16534,33384
32776,16540,33217
32820,16548,33334
32824,16557,33286
32820,16595,33432
32785,16597,33145
32736,16613,33287
32688,16621,33321
32696,16618,33387
32704,16597,33375
32798,16565,33532
32836,16564,33297
32848,16543,33427
32845,16548,33558
32892,16571,33450
32864,16609,33511
32796,16612,33415
32734,16615,33612
32704,16604,33455
32664,16586,33591
32739,16553,33571
32796,16549,33517
32832,16556,33713
32824,16575,33493
32825,16596,33621
32868,16617,33662
32816,16619,33652
32772,16610,33513
32741,16619,33748
32756,16612,33629
32800,16548,33636
32860,16549,33580
32872,16575,33743
32884,16610,33756
32872,16627,33668
32840,16639,33575
32788,16639,33391
32736,16610,33637
32704,16597,33533
32724,16581,33700
32784,16562,33543
32856,16549,33387
32856,16575,33604
32864,16570,33693
32900,16602,33364
32868,16640,33628
32812,16620,33476
32792,16612,33645
32748,16627,33569
32724,16597,33468
32800,16575,33552
32880,16548,33543
32892,16554,33569
32924,16570,33327
32944,16598,33468
32932,16637,33321
32932,16628,33404
32876,16618,33258
32828,16617,33052
32834,16603,33272
32838,16569,33210
32945,16557,33046
33021,16570,33033
33028,16574,33140
33054,16604,32887
33028,16633,32909
33009,16651,32842
32958,16633,32682
32928,16628,32756
32957,16615,32529
32998,16583,32564
33064,16553,32372
33077,16559,32453
33112,16572,32087
33112,16594,32215
33082,16637,32253
33064,16658,31908
33028,16623,32000
33046,16615,31917
33088,16627,31757
33096,16564,31850
33125,16553,31652
33168,16567,31421
33148,16573,31568
33096,16588,31453
33012,16631,31357
32876,16643,31373
32862,16628,31103
32848,16628,31252
32812,16611,31046
32828,16590,31156
32848,16583,30983
32804,16596,30884
32756,16605,30943
32700,16601,30875
32664,16633,30895
32612,16647,30813
32484,16635,30577
32400,16643,30724
32320,16648,30615
32216,16572,30532
32192,16582,30599
32268,16578,30463
32346,16590,30599
32392,16620,30383
32340,16655,30458
32289,16660,30450
32208,16646,30413
32156,16639,30260
32172,16618,30377
32236,16586,30439
32394,16582,30300
32464,16596,30222
32568,16611,30329
32588,16631,30315
32600,16633,30276
32568,16650,30239
32570,16656,30080
32565,16637,30308
32596,16621,30288
32660,16595,30286
32742,16584,30196
32792,16597,30097
32828,16613,30313
32848,16628,30209
32808,16676,30388
32740,16644,30230
32724,16637,30369
32744,16628,30368
32800,16604,30351
32888,16577,30400
33048,16590,30308
33140,16583,30500
33156,16606,30390
33172,16625,30628
33124,16665,30592
33088,16669,30519
33065,16661,30449
33072,16652,30706
33128,16631,30759
33188,16607,30719
33300,16595,30678
33346,16598,30748
33368,16598,30863
33436,16612,31023
33404,16642,31039
33380,16658,30974
33396,16648,31135
33342,16647,31199
33312,16607,31111
33344,16564,31367
33372,16565,31260
33393,16573,31202
33428,16608,31337
33448,16625,31551
33380,16684,31624
33272,16631,31645
33184,16631,31809
33152,16632,31573
33140,16623,31875
33160,16564,31984
33184,16556,32067
33169,16575,31953
33164,16581,32164
33112,16606,32220
33044,16629,32218
32992,16657,32369
32932,16617,32365
32892,16612,32421
32852,16591,32304
32900,16565,32629
32936,16570,32656
32964,16573,32758
32948,16590,32884
32944,16603,32927
32948,16653,32839
32901,16629,33013
32864,16629,33152
32816,16639,32878
32788,16593,33196
32840,16561,33159
32924,16575,33213
32976,16568,33103
33018,16581,33429
33008,16610,33321
32970,16621,33572
32924,16621,33484
32893,16642,33643
32876,16621,33636
32862,16601,33825
32936,16581,33739
32948,16575,33737
33014,16591,33616
33040,16599,33937
33056,16619,33946
33001,16640,33959
32951,16644,33927
32892,16643,34191
32880,16612,34084
32884,16589,33895
32908,16564,33948
32952,16587,34240
32968,16581,34296
32988,16587,34296
32972,16609,34204
32924,16635,34476
32856,16641,34479
32814,16629,34439
32824,16613,34373
32800,16614,34500
32804,16559,34487
32836,16549,34572
32876,16559,34465
32873,16579,34577
32880,16605,34578
32840,16643,34529
32725,16634,34724
32676,16628,34553
32660,16621,34663
32656,16643,34559
32684,16556,34695
32740,16572,34567
32780,16569,34393
32808,16581,34703
32756,16596,34629
32712,16635,34760
32648,16660,34622
32620,16619,34721
32628,16614,34631
32624,16592,34812
32701,16564,34600
32756,16556,34692
32808,16589,34814
32828,16590,34759
32828,16609,34639
32784,16646,34727
32716,16661,34664
32700,16622,34812
32696,16610,34706
32668,16604,34735
32672,16588,34578
32720,16583,34782
32776,16560,34741
32822,16573,34652
32813,16605,34449
32800,16644,34756
32789,16638,34709
32720,16630,34631
32636,16626,34857
32620,16615,34677
32668,16564,34775
32704,16559,34614
32728,16583,34871
32789,16579,34862
32788,16607,34757
32732,16647,34727
32664,16653,34528
32656,16647,34832
32676,16644,34770
32688,16629,34772
32684,16592,34856
32692,16557,34869
32648,16564,34804
32660,16569,34916
32668,16609,34897
32580,16636,35029
32476,16638,34961
32396,16629,34855
32332,16623,35010
32311,16610,34965
32384,16585,35083
32413,16580,35066
32462,16590,35000
32480,16573,35119
32468,16597,35060
32424,16634,35101
32308,16657,35183
32253,16647,35113
32204,16652,35340
32228,16593,35276
32252,16563,35123
32284,16553,35331
32296,16580,35270
32296,16581,35506
32288,16605,35404
32244,16641,35177
32164,16660,35472
32128,16647,35553
32104,16612,35528
32088,16592,35360
32084,16561,35637
32092,16558,35637
32072,16583,35796
32072,16576,35708
32024,16596,35671
31996,16631,35790
31932,16643,35777
31904,16637,35726
31896,16638,35876
31916,16647,35884
31972,16557,35949
32020,16553,35881
32028,16565,36100
32044,16575,36041
32036,16590,35765
31976,16619,36084
31940,16628,36103
31952,16623,36196
31904,16631,35935
31866,16603,36199
31964,16576,36333
32052,16575,36257
32076,16591,36016
32148,16569,36332
32202,16583,36359
32188,16626,36310
32174,16641,36165
32150,16636,36452
32096,16641,36365
32100,16591,36524
32141,16561,36351
32204,16550,36549
32292,16571,36578
32308,16616,36503
32270,16590,36592
32244,16630,36717
32237,16640,36575
32212,16645,36645
32136,16611,36548
32144,16615,36775
32192,16573,36601
32229,16575,36716
32248,16565,36844
32296,16572,36412
32356,16594,36686
32375,16638,36845
32310,16645,36733
32192,16636,36770
32136,16629,36732
32186,16615,36908
32160,16560,36706
32272,16548,36804
32324,16553,36880
32366,16575,36803
32392,16594,36809
32374,16624,36698
32349,16646,36837
32296,16617,36849
32292,16606,36775
32294,16588,36955
32336,16555,36526
32396,16572,36789
32408,16580,36831
32420,16583,36959
32436,16603,36864
32408,16633,36812
32348,16650,36959
32304,16610,36837
32284,16607,36552
32276,16609,36884
32312,16565,36996
32352,16549,36725
32364,16556,36900
32332,16570,36932
32216,16599,36903
32008,16639,36792
31804,16676,36857
31620,16617,36743
31449,16613,36885
31280,16593,36983
31245,16573,36798
31292,16588,36853
31356,16555,36756
31396,16573,36773
31536,16604,36871
31817,16638,36743
32204,16626,36924
32728,16670,36862
33488,16612,36532
34429,16595,36820
35520,16571,36916
36336,16567,36743
36640,16585,36832
36988,16596,36708
37712,16615,36909
38336,16649,36852
38637,16660,36740
38917,16652,36689
39469,16645,36541
39856,16636,36711
39831,16581,36826
39376,16564,36397
38656,16580,36640
38112,16594,36743
37680,16621,36524
36669,16620,36554
35596,16623,36478
34684,16620,36533
33973,16631,36407
33352,16610,36249
32952,16566,36407
32632,16551,36304
32248,16564,36376
31876,16574,36260
31626,16604,36324
31392,16608,36150
31140,16632,36332
30936,16614,36165
30816,16603,35942
30749,16595,36193
30732,16566,36103
30760,16558,36052
30785,16593,36228
30780,16559,36199
30774,16575,36103
30748,16603,35986
30756,16616,36053
30708,16618,35976
30680,16605,35916
30664,16591,35988
30700,16581,35847
30764,16565,35620
30816,16545,35868
30896,16571,35949
30956,16578,35753
30972,16621,35596
30956,16653,35695
30952,16600,35741
30960,16608,35540
30948,16583,35579
30992,16543,35386
31032,16533,35541
31072,16565,35236
31124,16569,35305
31161,16567,35317
31172,16606,35189
31120,16616,35079
31092,16602,34981
31093,16606,35060
31128,16591,34860
31172,16575,34668
31244,16528,34772
31300,16540,34740
31300,16557,34666
31288,16576,34577
31253,16614,34449
31181,16638,34644
31184,16597,34510
31205,16588,34399
31192,16580,34433
31252,16551,34404
31348,16551,34264
31376,16564,34436
31385,16548,34276
31380,16571,34361
31344,16601,34287
31296,16620,34436
31240,16597,34181
31246,16593,34279
31253,16587,34383
31284,16574,34217
31336,16533,34047
31348,16543,34320
31388,16565,34277
31420,16571,34180
31396,16614,34390
31372,16625,34236
31320,16594,34368
31284,16590,34256
31308,16582,34400
31364,16540,34402
31440,16535,34384
31468,16583,34333
31460,16546,34453
31488,16575,34322
31460,16616,34484
31416,16600,34473
31384,16598,34442
31383,16592,34537
31372,16591,34437
31408,16539,34560
31512,16534,34436
31520,16553,34599
31520,16569,34388
31532,16560,34585
31508,16614,34580
31472,16621,34600
31456,16619,34386
31444,16589,34695
31456,16575,34623
31520,16546,34718
31592,16549,34564
31644,16538,34778
31676,16548,34833
31692,16569,34852
31712,16596,34740
31648,16609,34828
31644,16607,34725
31688,16608,34884
31725,16566,34645
31812,16540,34919
31904,16535,35079
31936,16557,34877
32004,16561,35007
32068,16615,34905
32081,16595,35095
32076,16606,35095
32069,16599,35103
32136,16601,34972
32188,16595,35244
32277,16560,35281
32437,16573,35193
32536,16581,35133
32604,16543,35133
32668,16559,35244
32690,16591,35284
32708,16597,35154
32712,16592,35361
32744,16600,35037
32740,16579,35360
32760,16542,35292
32836,16541,35399
32857,16549,35469
32920,16556,35324
32956,16579,35425
32948,16611,35437
32936,16620,35439
32936,16612,35431
32930,16606,35342
32936,16585,35479
33004,16531,35494
33064,16568,35408
33100,16529,35245
33109,16537,35516
33104,16551,35532
33064,16583,35463
33000,16613,35597
32980,16591,35629
32976,16597,35468
32968,16554,35560
33032,16541,35455
33040,16523,35537
33061,16542,35645
33105,16557,35504
33132,16551,35612
33084,16582,35442
32996,16605,35724
32944,16585,35559
32949,16583,35406
32942,16572,35664
32996,16551,35590
33040,16514,35756
33080,16525,35432
33068,16537,35716
33096,16556,35556
33060,16599,35762
33024,16612,35472
32964,16607,35713
32940,16578,35824
32928,16565,35440
32996,16537,35741
33044,16537,35753
33053,16518,35663
33088,16545,35719
33108,16559,35823
33100,16593,35657
33071,16621,35729
33000,16580,35597
32968,16573,35720
32966,16567,35384
32980,16533,35668
33036,16529,35668
33052,16571,35649
33080,16521,35421
33144,16549,35604
33100,16589,35661
33044,16580,35625
33028,16590,35589
33004,16582,35718
32984,16575,35541
33048,16516,35615
33104,16510,35433
33108,16524,35624
33060,16575,35237
33084,16535,35495
33032,16581,35599
32932,16588,35420
32945,16571,35415
32992,16574,35522
32972,16555,35325
33024,16539,35399
33056,16497,35349
33080,16514,35271
33108,16525,35335
33097,16552,35279
33088,16565,35390
33052,16575,35180
33037,16575,35247
32992,16585,35214
32992,16540,35045
33080,16513,35117
33152,16514,35244
33182,16489,35023
33220,16532,35092
33216,16549,35093
33184,16596,34948
33164,16574,35019
33133,16588,34812
33120,16573,35026
33128,16567,34777
33176,16532,34896
33240,16486,34832
33272,16517,34903
33276,16519,34509
33316,16523,34672
33260,16561,34657
33220,16591,34720
33164,16563,34804
33150,16580,34477
33136,16554,34644
33181,16518,34593
33293,16485,34284
33344,16516,34420
33356,16498,34591
33352,16529,34495
33288,16575,34517
33244,16567,34149
33200,16575,34260
33188,16558,34425
33212,16560,34337
33228,16494,34245
33268,16486,34276
33286,16495,34258
33320,16517,34141
33270,16511,34068
33200,16564,34077
33125,16576,34092
33097,16559,34125
33050,16545,34197
33044,16541,33812
33077,16545,34087
33120,16482,33858
33118,16500,33957
33080,16534,34050
33072,16516,33671
33032,16556,33876
32960,16582,33960
32924,16553,33684
32881,16547,33820
32872,16540,33909
32904,16508,33695
33004,16518,33773
33029,16481,33596
33060,16493,33612
33029,16531,33685
33008,16543,33652
32952,16560,33664
32874,16564,33549
32831,16545,33516
32824,16522,33605
32860,16495,33569
32920,16492,33527
32996,16475,33543
33032,16484,33364
33014,16509,33540
32952,16563,33200
32920,16609,33432
32920,16547,33540
32896,16559,33336
32889,16535,33405
32952,16506,33397
33021,16463,33274
33040,16469,33374
33052,16481,33228
33048,16518,33393
33012,16550,33088
32952,16550,33189
32916,16544,33250
32912,16544,33287
32884,16514,33312
32928,16484,33268
33012,16469,33309
33068,16497,33144
33092,16474,33204
33100,16506,33284
33088,16544,32968
33040,16549,33159
32984,16559,32989
32948,16557,33116
32908,16507,33148
32941,16479,33167
32980,16481,33135
33020,16467,33030
33028,16495,33037
33060,16517,33121
33016,16533,33112
32916,16554,33129
32852,16533,33092
32830,16527,32935
32796,16508,33069
32865,16481,33060
32940,16460,33099
32953,16461,32893
32916,16478,33108
32924,16519,33009
32888,16521,33096
32860,16555,32789
32832,16532,32982
32812,16523,32820
32752,16527,32905
32792,16477,32764
32823,16476,32845
32832,16455,33000
32828,16485,32821
32848,16507,32869
32836,16521,32927
32788,16545,32897
32768,16525,32964
32737,16542,32669
32724,16511,32852
32780,16482,32813
32884,16447,32796
32868,16460,32841
32864,16468,32687
32916,16527,32741
32912,16528,32760
32880,16546,32813
32812,16549,32760
32800,16517,32748
32785,16497,32750
32828,16469,32711
32912,16456,32487
32976,16473,32711
32992,16453,32818
32980,16481,32622
32932,16536,32692
32862,16524,32768
32824,16529,32551
32821,16556,32679
32796,16497,32524
32821,16472,32588
32925,16436,32663
32980,16456,32642
33024,16479,32606
33084,16471,32637
33036,16515,32473
32972,16533,32645
32932,16535,32449
32872,16502,32470
32872,16483,32647
32892,16457,32340
32932,16445,32436
33001,16440,32472
33034,16450,32556
33032,16473,32468
33012,16519,32487
32936,16544,32517
32900,16508,32377
32892,16514,32500
32840,16493,32229
32873,16470,32425
32956,16423,32549
32956,16433,32346
32996,16460,32443
32980,16476,32512
32944,16527,32285
32896,16511,32362
32844,16526,32385
32832,16510,32391
32854,16472,32399
32912,16442,32166
32976,16445,32204
32996,16424,32268
33020,16462,32340
32993,16478,32386
32968,16492,32107
32952,16503,32279
32888,16518,32356
32774,16501,32021
32798,16496,32247
32852,16429,32344
32876,16416,32128
32932,16428,32228
32965,16448,32279
32960,16453,31964
32916,16483,32172
32900,16495,32233
32893,16502,32196
32844,16505,32212
32825,16463,31996
32868,16420,32145
32936,16426,32243
32980,16424,32066
32992,16441,32167
33008,16471,32256
32960,16483,32045
32872,16487,32161
32832,16481,32015
32772,16473,32149
32736,16460,32154
32780,16451,32128
32820,16405,32015
32880,16434,32119
32868,16437,32205
32828,16468,31916
32780,16477,32068
32660,16489,32020
32594,16496,32126
32592,16464,32225
32620,16457,31980
32660,16426,32064
32712,16399,32161
32768,16412,32135
32828,16429,32087
32832,16463,32020
32773,16468,32100
32660,16485,32093
32636,16487,32133
32596,16457,32212
32564,16446,31896
32580,16419,32007
32600,16394,31969
32600,16403,32100
32576,16420,32120
32641,16430,32135
32628,16464,32087
32608,16483,32157
32560,16462,32135
32548,16471,32165
32544,16446,32250
32542,16398,32177
32624,16402,32218
32644,16406,32020
32661,16419,32125
32646,16447,32254
32636,16456,31951
32645,16462,32177
32636,16460,32039
32684,16467,32247
32690,16430,31940
32736,16389,32175
32800,16405,32281
32810,16392,32095
32820,16413,32156
32796,16415,32255
32766,16449,31951
32692,16478,32116
32548,16471,32295
32472,16453,31973
32328,16444,32150
32209,16390,32284
32285,16370,32145
32409,16382,32238
32484,16396,32317
32599,16417,32156
32709,16471,32244
32746,16450,32340
32800,16447,32108
32852,16457,32278
32868,16423,32372
32956,16404,32162
33028,16366,32295
33059,16382,32401
33080,16384,32200
33078,16414,32357
33009,16453,32452
32920,16487,32203
32841,16431,32391
32782,16426,32276
32778,16407,32396
32836,16377,32212
32888,16367,32425
32924,16391,32551
32920,16431,32271
32904,16396,32445
32876,16437,32603
32804,16455,32320
32704,16463,32543
32650,16418,32544
32624,16396,32533
32712,16357,32383
32844,16353,32663
32896,16356,32591
32925,16365,32748
32884,16384,32606
32817,16446,32743
32730,16438,32764
32657,16432,32743
32548,16434,32813
32412,16384,32702
32276,16369,32745
32132,16355,32886
32020,16373,32995
31880,16357,32676
31768,16383,32885
31676,16421,32860
31632,16439,32975
31604,16413,33017
31612,16404,33044
31736,16391,33095
32084,16374,32967
32573,16357,33105
33188,16365,32989
33917,16375,33114
34814,16405,33134
35752,16445,33019
36584,16429,33124
36980,16412,33211
37188,16436,33149
37733,16422,33231
38484,16364,33153
38962,16384,33254
39276,16381,33324
39744,16390,33276
40164,16424,33133
40244,16420,33298
39800,16423,33158
39076,16433,33239
38368,16417,33269
37964,16412,33236
37229,16343,33092
36312,16329,33189
35420,16340,33191
34764,16348,33170
34234,16372,33142
33696,16406,32899
33264,16415,33170
32896,16400,33041
32513,16397,33241
32228,16370,33065
31992,16341,33164
31822,16328,33127
31712,16333,33207
31572,16345,33053
31504,16361,33135
31420,16401,33076
31273,16412,33180
31204,16407,32846
31184,16376,32981
31184,16356,33157
31212,16325,32834
31264,16320,32951
31272,16336,32985
31316,16324,33043
31344,16347,33047
31350,16388,33071
31340,16399,33076
31320,16407,32770
31308,16362,32956
31268,16349,33044
31319,16315,32860
31400,16308,32860
31424,16321,32956
31440,16325,32619
31492,16355,32810
31496,16382,32916
31476,16398,32681
31488,16384,32478
31502,16372,32685
31553,16356,32737
31588,16337,32377
31628,16297,32513
31684,16323,32468
31744,16329,32249
31764,16342,32308
31712,16391,32308
31658,16423,32344
31640,16359,32193
31634,16357,32303
31590,16334,32034
31644,16299,32263
31700,16285,32077
31734,16294,32271
31730,16302,32148
31734,16327,32006
31724,16357,32180
31662,16365,32140
31601,16358,32151
31592,16352,32188
31589,16349,32076
31620,16314,32277
31652,16290,32052
31648,16304,32237
31649,16307,32204
31690,16329,32260
31656,16373,32183
31626,16359,32285
31568,16397,32325
31552,16364,32322
31544,16341,32257
31604,16301,32425
31692,16289,32476
31768,16296,32359
31784,16300,32375
31800,16326,32500
31788,16361,32524
31728,16364,32512
31684,16364,32655
31660,16362,32509
31636,16314,32625
31692,16279,32661
31730,16286,32591
31752,16293,32740
31792,16303,32724
31817,16351,32724
31768,16336,32556
31692,16345,32804
31664,16341,32945
31652,16333,32634
31660,16324,32871
31768,16285,33027
31842,16283,32871
31876,16293,32992
31889,16320,32881
31933,16294,32944
31916,16326,33069
31904,16340,32978
31868,16350,33114
31892,16334,32920
31916,16304,33153
31982,16276,33172
32049,16263,33175
32081,16276,33253
32100,16286,33247
32142,16314,33181
32128,16361,33407
32113,16353,33308
32080,16318,33182
32084,16311,33220
32104,16308,33400
32200,16280,33207
32292,16263,33365
32380,16287,33434
32460,16265,33477
32500,16288,33444
32516,16319,33537
32508,16336,33508
32528,16329,33513
32528,16321,33632
32584,16310,33543
32652,16252,33444
32749,16245,33525
32816,16273,33583
32866,16262,33638
32880,16299,33358
32830,16306,33576
32816,16313,33747
32805,16305,33381
32816,16297,33669
32812,16295,33551
32848,16253,33728
32900,16247,33671
32940,16256,33646
32968,16268,33797
32992,16300,33457
32984,16301,33700
32964,16301,33809
32948,16299,33483
32952,16296,33693
33008,16270,33744
33068,16255,33573
33092,16231,33700
33092,16237,33695
33113,16247,33621
33160,16268,33724
33160,16309,33596
33080,16357,33678
33036,16286,33453
33016,16283,33697
32968,16269,33836
33020,16229,33500
33068,16231,33620
33136,16253,33671
33168,16226,33769
33144,16247,33877
33124,16293,33798
33024,16306,33768
32964,16280,33783
32960,16267,33856
33006,16261,33914
33072,16223,33885
33096,16229,33902
33100,16260,33821
33108,16220,33933
33080,16239,34058
33024,16279,33772
32960,16292,33850
32924,16278,34102
32936,16279,33772
32952,16268,33911
33024,16258,33995
33036,16193,34114
33114,16204,34021
33124,16228,34115
33124,16241,34189
33088,16276,34084
33056,16285,34317
33030,16272,34195
33064,16265,34311
33036,16252,34366
33000,16222,34324
33008,16210,34399
33016,16197,34499
33052,16218,34465
33060,16236,34520
33016,16278,34468
32992,16287,34563
32968,16287,34468
32984,16297,34720
33024,16281,34564
33120,16194,34687
33184,16180,34564
33200,16186,34795
33184,16200,34439
33183,16225,34713
33216,16270,34871
33220,16271,34541
33196,16270,34727
33156,16235,34782
33120,16221,34839
33172,16198,34684
33256,16176,34855
33296,16205,34883
33300,16189,34732
33260,16207,34917
33208,16244,34892
33168,16267,34799
33136,16248,34951
33136,16249,34758
33108,16243,34896
33168,16179,34979
33184,16165,34833
33226,16185,34908
33288,16210,35015
33301,16203,34609
33228,16260,34844
33132,16261,34805
33044,16263,34909
33080,16223,34951
33084,16207,34632
33156,16200,34760
33216,16169,34757
33204,16192,34769
33184,16174,34845
33140,16201,34927
33120,16245,34814
33081,16286,34853
32976,16220,34951
32932,16217,34903
32920,16201,34872
32984,16173,34957
33068,16206,35060
33116,16157,34802
33169,16180,34815
33180,16213,34868
33080,16220,34901
32940,16242,35037
32932,16228,34949
32917,16237,34951
32910,16186,34684
32933,16167,34892
32952,16167,35033
32916,16180,34828
32908,16159,34919
32897,16181,35004
32916,16231,34764
32872,16230,34759
32820,16231,34791
32780,16233,34838
32752,16183,34869
32820,16148,34869
32880,16139,34916
32888,16156,34565
32849,16180,34764
32833,16175,34480
32776,16206,34671
32716,16221,34549
32648,16215,34721
32648,16221,34787
32688,16183,34496
32748,16168,34601
32844,16135,34533
32878,16146,34556
32920,16156,34583
32900,16193,34567
32864,16201,34613
32816,16230,34246
32828,16217,34351
32784,16216,34423
32744,16167,34439
32736,16134,34423
32780,16137,34082
32821,16150,34239
32860,16147,34248
32844,16166,34295
32820,16221,34360
32816,16229,34232
32804,16196,34289
32752,16198,34201
32725,16190,34264
32756,16130,33870
32821,16118,33984
32848,16157,34017
32864,16155,34077
32872,16192,34077
32836,16192,34016
32776,16196,34084
32732,16194,33791
32666,16187,33799
32636,16175,33864
32672,16127,33907
32740,16113,33965
32800,16140,33857
32828,16140,33671
32864,16166,33700
32880,16213,33767
32812,16194,33855
32772,16198,33749
32736,16191,33767
32712,16154,33449
32741,16130,33524
32801,16120,33560
32836,16154,33611
32809,16125,33670
32848,16144,33611
32812,16185,33455
32745,16196,33508
32696,16182,33543
32696,16189,33423
32700,16191,33393
32708,16117,33476
32805,16125,33551
32830,16125,33214
32864,16135,33322
32836,16162,33477
32788,16205,33264
32741,16182,33351
32760,16178,33329
32748,16165,33193
32748,16155,33271
32758,16128,33100
32817,16132,33278
32836,16147,32990
32808,16119,33160
32820,16141,33025
32788,16193,33029
32708,16199,33109
32658,16191,32924
32642,16167,32975
32648,16156,33021
32620,16131,32846
32641,16094,32949
32652,16108,32660
32677,16111,32877
32685,16135,32717
32698,16172,32910
32644,16195,32706
32668,16174,32772
32648,16178,32600
32628,16164,32775
32657,16103,32590
32680,16097,32389
32708,16100,32614
32696,16106,32432
32729,16130,32540
32704,16189,32508
32656,16187,32529
32607,16172,32452
32588,16170,32287
32588,16142,32188
32694,16109,32341
32736,16103,32276
32788,16108,32100
32805,16125,32062
32816,16153,32263
32781,16169,32063
32725,16186,31844
32692,16183,32028
32661,16154,32096
32648,16129,31868
32680,16096,31715
32748,16116,31903
32772,16101,31850
32782,16102,31836
32780,16124,31780
32764,16159,31639
32672,16167,31692
32620,16154,31620
32580,16172,31644
32585,16148,31412
32636,16111,31538
32700,16095,31367
32718,16108,31549
32760,16131,31250
32792,16125,31361
32748,16161,31408
32696,16175,31289
32650,16177,31124
32648,16148,31268
32652,16120,30965
32692,16093,31156
32724,16080,30984
32770,16111,31108
32760,16114,30935
32780,16126,30764
32764,16162,30882
32717,16183,30979
32716,16173,30760
32676,16160,30613
32706,16127,30815
32736,16099,30727
32777,16092,30765
32820,16098,30612
32833,16120,30633
32833,16152,30576
32805,16183,30462
32752,16187,30617
32696,16179,30363
32644,16143,30417
32644,16119,30452
32729,16093,30153
32776,16102,30268
32802,16132,30297
32804,16095,30249
32821,16125,30229
32812,16175,29931
32753,16156,29985
32720,16158,29981
32732,16155,30039
32740,16141,30043
32776,16090,29965
32812,16079,29878
32852,16103,29767
32846,16101,29861
32862,16130,29744
32842,16168,29841
32784,16176,29652
32744,16168,29574
32712,16164,29661
32740,16146,29575
32813,16105,29664
32888,16105,29422
32928,16089,29492
32928,16094,29559
32944,16108,29322
32916,16146,29429
32865,16153,29324
32836,16143,29453
32800,16135,29228
32792,16111,29314
32800,16082,29287
32844,16073,29248
32884,16082,29202
32884,16087,29079
32860,16109,29204
32801,16145,29182
32736,16152,29109
32729,16143,29229
32728,16136,29005
32720,16115,29124
32741,16081,29003
32828,16072,29148
32864,16081,28956
32864,16110,29074
32820,16130,29061
32784,16161,29063
32704,16167,28901
32700,16165,29029
32716,16165,28999
32712,16133,28973
32784,16101,29003
32852,16100,28876
32888,16127,29006
32900,16087,28880
32900,16132,28995
32856,16149,28807
32784,16164,28997
32705,16139,28955
32700,16132,29031
32712,16128,29037
32768,16091,28892
32860,16097,29044
32856,16077,29084
32862,16097,28863
32892,16125,28988
32844,16157,29066
32784,16175,28921
32704,16140,29046
32653,16132,29044
32581,16126,29127
32608,16093,29035
32577,16103,29012
32444,16079,29062
32248,16100,29015
32109,16140,29064
31921,16141,29082
31724,16151,29225
31548,16157,29257
31480,16150,29047
31524,16123,29248
31664,16103,29292
31792,16103,29103
32052,16083,29197
32465,16087,29336
32938,16127,29318
33568,16157,29277
34456,16178,29151
35392,16148,29244
36096,16145,29262
36588,16146,29405
36720,16109,29379
36688,16110,29307
36852,16127,29439
37204,16101,29410
37487,16148,29349
37856,16182,29463
38132,16207,29537
38076,16162,29286
37724,16149,29367
37044,16140,29321
36444,16158,29364
36048,16080,29325
35452,16117,29380
34964,16114,29345
34552,16120,29412
34176,16171,29378
33756,16180,29424
33456,16145,29476
33304,16143,29424
33128,16128,29431
33016,16139,29231
32840,16069,29404
32625,16087,29431
32472,16103,29511
32320,16140,29545
32112,16143,29604
31924,16153,29493
31808,16149,29728
31716,16155,29553
31664,16109,29599
31660,16093,29665
31676,16071,29703
31684,16105,29756
31673,16099,29879
31641,16141,29794
31612,16143,29849
31572,16151,30028
31542,16150,30163
31520,16179,30116
31496,16109,30212
31528,16089,30014
31605,16094,30183
31632,16078,30172
31672,16092,30304
31705,16121,30455
31693,16173,30160
31696,16148,30383
31680,16161,30316
31696,16153,30430
31732,16137,30519
31764,16074,30456
31828,16078,30424
31848,16109,30317
31848,16141,30487
31853,16113,30549
31840,16165,30299
31828,16175,30359
31792,16143,30356
31776,16141,30471
31784,16126,30424
31812,16080,30343
31856,16076,30437
31848,16095,30517
31844,16115,30260
31857,16116,30387
31832,16165,30574
31800,16165,30340
31756,16161,30553
31776,16157,30476
31780,16138,30599
31840,16125,30431
31900,16079,30566
31925,16091,30742
31932,16099,30647
31920,16130,30828
31917,16184,30868
31892,16156,30973
31852,16152,30871
31820,16153,31032
31796,16121,31135
31856,16134,31033
31922,16084,31268
31952,16089,31221
31985,16108,31389
32020,16121,31570
32016,16146,31449
31940,16169,31645
31908,16161,31671
31900,16164,31732
31950,16139,31652
32020,16137,31868
32060,16078,32060
32104,16093,31870
32116,16097,32174
32104,16127,32333
32092,16171,32103
32008,16198,32319
31962,16148,32581
31960,16149,32394
31976,16138,32647
32056,16095,32830
32109,16096,32757
32100,16101,32671
32116,16113,32966
32159,16123,33039
32120,16153,33168
32048,16158,33151
31981,16149,33125
31968,16146,33340
31997,16121,33408
32048,16096,33399
32124,16100,33485
32200,16094,33652
32204,16097,33759
32216,16149,33653
32189,16165,33840
32156,16194,33994
32128,16150,34036
32133,16166,34197
32184,16135,34074
32270,16113,34248
32328,16118,34354
32380,16093,34333
32436,16108,34469
32516,16143,34508
32576,16180,34616
32588,16158,34700
32548,16164,34871
32584,16157,34741
32632,16187,34764
32720,16091,34950
32808,16095,34743
32864,16105,35065
32880,16111,35287
32924,16147,35153
32916,16165,35197
32881,16161,35303
32860,16173,35436
32876,16165,35485
32900,16179,35565
32948,16089,35736
32996,16090,35618
33049,16100,35738
33100,16124,35813
33112,16127,35847
33088,16161,35983
33036,16168,35970
33004,16167,36121
32968,16174,35756
32948,16117,35984
33013,16087,36177
33076,16103,35896
33092,16104,36127
33148,16117,36359
33160,16127,35981
33148,16159,36198
33112,16182,36356
33100,16157,36428
33118,16164,36469
33112,16151,36412
33133,16119,36518
33156,16081,36432
33196,16094,36626
33228,16100,36330
33253,16135,36513
33240,16165,36831
33164,16181,36751
33144,16143,36755
33096,16142,36790
33073,16144,36847
33132,16103,36999
33172,16107,36564
33172,16093,36820
33206,16126,36973
33204,16131,36711
33188,16169,36967
33128,16182,36813
33112,16187,37060
33068,16149,36777
33076,16125,36927
33108,16100,37096
33148,16109,36931
33160,16141,36999
33150,16103,37135
33190,16136,37008
33145,16162,37004
33093,16163,36953
33040,16154,37028
33004,16154,36933
33008,16133,37093
33060,16107,37012
33108,16113,36987
33108,16100,37004
33106,16097,37039
33105,16132,36999
33096,16178,36994
33044,16192,36880
33024,16219,36996
32996,16147,37092
33004,16126,36952
33060,16109,36845
33076,16110,36868
33068,16123,36929
33052,16132,36772
33086,16129,36807
33060,16160,36821
32998,16178,36940
32980,16177,36689
33017,16154,36782
33036,16135,36837
33102,16124,36773
33188,16089,36849
33216,16101,36558
33192,16120,36717
33189,16136,36572
33140,16175,36727
33106,16190,36340
33088,16185,36481
33060,16149,36615
33056,16125,36359
33116,16093,36516
33156,16089,36640
33184,16113,36375
33221,16116,36343
33212,16157,36375
33197,16160,36343
33112,16188,36460
33076,16167,36059
33064,16164,36291
33070,16165,36306
33140,16092,36310
33156,16108,36133
33160,16110,36172
33164,16120,36199
33164,16161,36263
33134,16165,36165
33052,16165,36006
33028,16161,36088
32997,16164,36098
32996,16141,36175
33088,16121,35895
33176,16088,36013
33216,16100,35996
33212,16105,35889
33204,16149,35940
33205,16192,35973
33176,16172,35877
33132,16175,35919
33120,16173,35831
33092,16129,35868
33152,16118,35783
33216,16100,35802
33212,16130,35639
33200,16105,35705
33212,16135,35680
33192,16191,35647
33184,16178,35325
33153,16192,35487
33065,16155,35549
33084,16140,35533
33128,16104,35380
33193,16111,35564
33228,16098,35470
33216,16116,35550
33185,16153,35272
33140,16209,35396
33108,16175,35220
33072,16164,35380
33040,16154,35073
33064,16132,35292
33144,16104,35368
33188,16096,35175
33193,16105,35229
33188,16116,35092
33220,16153,35237
33148,16186,35207
33108,16190,35022
33060,16180,35077
33040,16177,35079
33052,16154,34916
33124,16116,35120
33180,16111,35005
33198,16117,34823
33216,16148,34924
33240,16133,34983
33180,16170,34704
33116,16185,34897
33052,16173,34832
33052,16172,34933
33056,16161,34819
33096,16109,34791
33180,16106,34751
33200,16124,34884
33233,16108,34614
33280,16135,34708
33232,16166,34708
33188,16175,34669
33132,16190,34647
33124,16193,34391
33180,16165,34661
33228,16114,34764
33220,16113,34544
33272,16129,34629
33260,16105,34686
33268,16141,34311
33224,16181,34528
33152,16200,34488
33132,16174,34533
33108,16181,34532
33124,16159,34540
33173,16102,34554
33214,16105,34541
33232,16113,34500
33208,16132,34373
33208,16141,34356
33152,16171,34407
33089,16201,34484
33012,16184,34567
32980,16197,34492
32988,16143,34557
33060,16106,34338
33120,16103,34452
33188,16112,34452
33168,16107,34543
33156,16142,34247
33124,16195,34429
33076,16218,34502
33007,16172,34220
33004,16170,34405
33004,16149,34366
33048,16130,34500
33100,16106,34311
33133,16129,34264
33172,16133,34391
33172,16149,34227
33124,16187,34420
33032,16199,34099
32993,16205,34332
33004,16171,34286
33016,16143,34347
33088,16109,34300
33156,16105,34311
33176,16117,34046
33220,16125,34292
33181,16165,34407
33117,16180,34047
33052,16188,34169
33028,16199,34285
32974,16183,34326
32928,16165,34314
32984,16130,34220
33056,16103,34299
33120,16107,34297
33133,16121,34201
33160,16154,34292
33072,16208,34388
32980,16220,34183
32936,16181,34276
32900,16199,34104
32888,16163,34268
32932,16128,34244
32992,16125,34093
33054,16133,34297
33069,16141,34183
33060,16141,34228
32984,16181,34060
32896,16188,34229
32852,16198,34212
32800,16180,34184
32804,16154,34148
32860,16124,34180
32904,16125,34122
32940,16134,34271
32924,16116,34153
32880,16146,34157
32809,16202,34052
32680,16199,34116
32622,16205,34141
32584,16204,33863
32600,16151,33987
32668,16117,34031
32784,16115,34118
32841,16139,34229
32844,16119,33832
32812,16142,33957
32756,16180,34171
32704,16215,34096
32676,16189,33972
32708,16195,34013
32768,16168,33798
32820,16113,34023
32884,16127,33967
32924,16120,34054
32964,16133,34151
32996,16192,33752
32988,16187,33866
32950,16196,33924
32916,16199,33996
32868,16201,34020
32900,16150,33989
32956,16117,33889
32972,16108,33870
32960,16118,33927
32980,16132,34053
32968,16160,33831
32960,16204,33924
32892,16215,33965
32846,16182,33924
32806,16175,33929
32821,16150,33797
32860,16132,33868
32892,16135,33828
32928,16129,33793
32940,16133,33833
32952,16164,33745
32920,16196,33732
32856,16199,33796
32828,16191,33705
32832,16193,33788
32832,16167,33540
32876,16132,33769
32933,16138,33871
32948,16165,33470
32972,16124,33607
32984,16164,33700
32929,16199,33732
32894,16199,33772
32880,16189,33612
32852,16199,33558
32844,16180,33663
32928,16117,33679
32976,16114,33671
32952,16134,33669
32956,16149,33528
32954,16166,33726
32928,16202,33445
32876,16211,33668
32810,16207,33455
32800,16212,33577
32752,16148,33615
32864,16145,33572
32914,16123,33543
32933,16171,33567
32896,16125,33540
32864,16179,33645
32712,16199,33479
32532,16209,33636
32304,16199,33351
32119,16190,33585
31936,16169,33660
31828,16143,33608
31760,16164,33504
31662,16126,33488
31628,16134,33600
31640,16163,33641
31628,16193,33364
31696,16201,33633
31928,16196,33536
32320,16204,33671
32960,16173,33616
33824,16135,33516
34848,16124,33609
35949,16135,33460
36768,16157,33620
37122,16196,33429
37489,16220,33569
38200,16229,33703
38925,16231,33460
39364,16237,33541
39764,16182,33657
40436,16151,33476
40960,16138,33556
40964,16155,33377
40544,16161,33532
39784,16184,33319
39170,16229,33399
38592,16223,33465
37548,16221,33380
36452,16237,33332
35488,16160,33186
34762,16133,33224
34128,16149,33280
33632,16151,33193
33268,16168,33205
32836,16167,32926
32444,16197,33031
32104,16205,33154
31764,16201,33144
31536,16199,33198
31412,16177,32992
31366,16131,33049
31332,16137,33108
31304,16157,33049
31268,16180,32980
31256,16170,32887
31188,16197,32980
31096,16199,32941
31032,16195,32831
31020,16201,32921
31048,16170,32796
31120,16143,32925
31160,16142,32607
31212,16164,32759
31252,16142,32909
31260,16164,32536
31232,16196,32653
31192,16223,32635
31172,16198,32716
31161,16197,32590
31196,16172,32548
31272,16151,32576
31318,16151,32629
31352,16133,32373
31392,16137,32455
31401,16165,32254
31364,16199,32390
31328,16221,32021
31292,16202,32176
31308,16195,32125
31325,16179,32074
31416,16147,31741
31468,16133,31908
31512,16154,31930
31524,16167,31621
31572,16191,31716
31528,16228,31702
31484,16229,31526
31496,16211,31301
31480,16207,31484
31464,16187,31452
31520,16164,31228
31610,16127,31353
31620,16132,31427
31650,16165,31135
31684,16175,31325
31656,16214,31404
31612,16226,31097
31556,16218,31236
31530,16186,31216
31516,16164,31327
31552,16128,31445
31608,16156,31355
31628,16146,31239
31652,16152,31272
31693,16198,31387
31668,16203,31472
31618,16205,31434
31592,16205,31408
31609,16207,31394
31628,16182,31533
31649,16164,31533
31692,16129,31683
31700,16137,31578
31688,16143,31439
31692,16187,31693
31672,16211,31833
31604,16222,31645
31564,16253,31766
31528,16192,31852
31538,16173,31879
31596,16155,31768
31636,16137,31933
31678,16167,32007
31696,16144,32110
31684,16181,31908
31649,16223,32127
31608,16221,32041
31580,16211,32096
31568,16207,32241
31564,16184,32246
31628,16190,32192
31684,16141,32328
31772,16145,32293
31812,16157,32396
31852,16196,32488
31801,16229,32272
31751,16254,32453
31751,16197,32539
31788,16195,32644
31820,16168,32725
31945,16162,32613
32032,16144,32751
32076,16189,32797
32144,16151,32812
32200,16195,32903
32186,16228,32917
32172,16207,32921
32200,16210,32967
32270,16233,32945
32332,16179,32954
32424,16153,32980
32520,16159,33108
32588,16141,33228
32672,16146,33220
32752,16183,33173
32794,16215,33193
32800,16233,33300
32800,16200,33373
32814,16197,33415
32840,16167,33349
32904,16140,33367
32992,16144,33493
33056,16165,33604
33132,16172,33428
33152,16236,33525
33140,16210,33671
33124,16209,33358
33104,16192,33623
33100,16192,33634
33104,16164,33752
33176,16141,33448
33272,16137,33620
33312,16149,33838
33317,16161,33564
33332,16205,33732
33304,16204,33767
33252,16223,33828
33236,16208,33927
33180,16215,33572
33164,16164,33889
33224,16134,33620
33280,16141,33844
33332,16162,33792
33332,16182,33893
33320,16174,34005
33312,16219,33710
33280,16223,33799
33244,16223,33884
33192,16196,33985
33208,16171,34022
33262,16140,34000
33292,16137,33860
33264,16160,33964
33248,16168,34068
33268,16180,34076
33269,16204,33823
33248,16207,34021
33236,16209,34005
33196,16216,34031
33184,16167,33903
33224,16159,34209
33288,16165,34087
33308,16148,34016
33280,16166,33972
33248,16177,33889
33220,16210,34097
33184,16229,33824
33152,16231,34092
33133,16199,33799
33156,16196,34084
33260,16133,33787
33282,16144,34159
33278,16141,34060
33284,16166,34012
33274,16192,33996
33202,16229,34140
33152,16207,34050
33112,16201,34135
33088,16201,33840
33063,16188,33937
33117,16160,34101
33145,16178,34012
33173,16145,33880
33196,16151,33975
33181,16180,34013
33167,16225,34036
33102,16219,33959
33061,16229,33804
33058,16195,33945
33094,16166,33655
33172,16142,34028
33236,16161,33913
33244,16148,33887
33228,16167,33873
33249,16181,33757
33204,16221,33799
33132,16210,33805
33098,16213,33842
33074,16207,33768
33084,16194,33787
33144,16135,33444
33208,16133,33622
33212,16151,33463
33225,16158,33592
33192,16190,33692
33176,16221,33582
33116,16231,33661
33065,16255,33556
33032,16193,33612
33052,16175,33445
33104,16158,33375
33144,16137,33284
33152,16143,33305
33156,16165,33383
33144,16187,33415
33137,16231,33333
33144,16244,33159
33141,16196,33183
33116,16192,33245
33124,16177,33287
33176,16143,33191
33196,16156,33209
33212,16169,32872
33202,16188,32978
33212,16181,33023
33172,16209,33058
33117,16221,32945
33108,16230,33002
33072,16197,33011
33064,16185,32883
33132,16195,32919
33212,16157,32726
33224,16165,32957
33192,16205,32890
33204,16183,32969
33164,16229,32866
33098,16247,32836
33072,16200,32848
33092,16217,32863
33092,16176,32812
33128,16163,32804
33150,16153,32761
33180,16142,32725
33184,16161,32748
33160,16201,32695
33098,16213,32680
33032,16215,32656
32968,16211,32609
32956,16216,32616
33000,16196,32641
33060,16141,32702
33092,16165,32618
33112,16172,32668
33129,16180,32389
33126,16188,32424
33048,16220,32438
32970,16227,32439
32952,16231,32286
32932,16198,32452
32964,16184,32226
33008,16147,32393
33040,16153,32361
33076,16175,32440
33116,16181,32504
33124,16184,32391
33079,16213,32306
33038,16214,32341
33006,16213,32361
32972,16206,32437
32984,16183,32060
33048,16161,32295
33072,16181,32284
33054,16151,32249
33044,16159,32194
33024,16194,32142
32996,16220,32201
32940,16244,32284
32932,16208,32203
32882,16212,32220
32869,16192,32183
32933,16143,32154
32972,16147,31979
33044,16170,32029
33104,16167,32036
33096,16211,32092
33064,16267,32032
33000,16214,32077
32964,16223,32007
32940,16238,31943
32924,16173,31991
32976,16143,32077
33056,16167,32127
33092,16166,32079
33100,16189,32142
33106,16187,32031
33044,16223,31977
32992,16242,31919
32960,16225,31930
32936,16224,32015
32929,16202,32036
32988,16170,32116
33045,16178,31785
33045,16157,31972
33028,16159,31879
33045,16200,32004
33001,16228,32132
32956,16233,31820
32901,16226,31879
32879,16228,31925
32868,16204,31911
32909,16180,32068
32932,16152,32045
32960,16156,32091
33000,16188,32024
32984,16220,31941
32940,16222,31964
32933,16226,32012
32896,16223,32044
32879,16220,32097
32885,16200,32069
32936,16180,32007
32989,16154,31938
33032,16164,31942
33028,16183,31973
33020,16229,31921
32960,16231,31961
32916,16229,32067
32884,16229,32161
32868,16252,32079
32860,16190,32070
32896,16163,32092
32952,16161,31989
32984,16189,31954
32993,16187,31969
32972,16206,32052
32916,16242,31968
32848,16252,32135
32820,16225,32084
32808,16217,32049
32840,16199,32070
32909,16164,32185
32920,16164,32078
32936,16183,32188
32972,16179,32081
32976,16206,32115
32936,16250,32087
32908,16256,32039
32860,16286,31837
32810,16241,32172
32824,16208,32066
32871,16159,31992
32944,16163,32020
32980,16182,32052
32964,16182,32051
32952,16212,32101
32884,16240,32097
32818,16263,32079
32768,16240,31828
32724,16247,31933
32728,16196,31849
32784,16172,31929
32808,16173,31940
32848,16196,32038
32872,16247,31982
32880,16213,32066
32857,16253,31970
32776,16282,31981
32736,16252,32073
32720,16241,32183
32762,16232,32084
32828,16166,32130
32880,16192,32087
32940,16196,32169
32994,16215,32084
33029,16217,32156
33006,16247,31828
32976,16263,32164
32944,16237,32073
32932,16234,32151
32964,16215,31806
33028,16189,32005
33068,16204,32050
33116,16181,32051
33136,16198,32148
33133,16234,31936
33104,16285,32050
33040,16253,32119
32940,16247,31922
32904,16247,32031
32917,16227,32125
32976,16188,31943
33004,16203,32015
33049,16230,32072
33040,16198,31909
33032,16233,32012
32972,16267,32013
32932,16277,32005
32936,16277,31944
32984,16250,31880
33004,16221,31943
33044,16207,31991
33076,16199,31988
33096,16231,32052
33116,16204,31697
33144,16235,31901
33116,16268,32002
33036,16292,31711
32976,16273,31751
32952,16274,31940
32948,16248,31857
33008,16193,31813
33036,16196,31765
33044,16200,31615
33060,16210,31852
33076,16244,31769
33008,16268,31807
32940,16277,31571
32880,16279,31703
32848,16265,31874
32844,16255,31619
32885,16203,31741
32936,16225,31684
32956,16221,31740
32960,16236,31599
32936,16278,31634
32846,16281,31700
32752,16303,31740
32584,16289,31670
32381,16287,31622
32165,16237,31590
32012,16206,31645
31927,16218,31718
31804,16239,31367
31708,16281,31492
31680,16260,31631
31624,16295,31572
31584,16307,31623
31680,16305,31335
31976,16274,31407
32448,16264,31469
33096,16229,31461
33892,16247,31308
34860,16265,31441
35896,16239,31429
36716,16289,31297
37013,16327,31357
37308,16344,31381
38032,16368,31436
38760,16300,31162
39200,16281,31260
39597,16250,31380
40188,16275,31140
40644,16279,31237
40608,16277,31202
40188,16326,31020
39420,16357,31111
38772,16359,31168
38252,16304,30861
37260,16308,30940
36198,16286,31013
35316,16251,30640
34656,16250,30817
34057,16268,30814
33528,16277,30636
33136,16337,30700
32676,16313,30738
32272,16331,30636
31981,16337,30708
31688,16309,30373
31517,16284,30444
31438,16255,30527
31388,16261,30495
31360,16255,30349
31332,16256,30321
31256,16299,30404
31136,16354,30422
31056,16328,30190
31040,16325,30297
31024,16319,30159
31036,16305,30169
31112,16269,30231
31184,16277,30085
31216,16259,30047
31244,16267,30151
31240,16323,30001
31168,16348,30130
31140,16353,29919
31092,16357,30011
31096,16329,30076
31148,16303,29722
31248,16272,29785
31284,16289,29821
31316,16271,29820
31312,16282,29849
31316,16331,29734
31272,16376,29756
31164,16351,29453
31140,16359,29497
31133,16363,29388
31186,16308,29456
31288,16291,29446
31356,16297,29218
31381,16279,29198
31350,16307,29117
31348,16339,29176
31342,16378,29220
31285,16387,28901
31260,16359,28966
31234,16351,29116
31239,16318,28890
31308,16290,29013
31373,16307,29010
31406,16302,28855
31425,16324,28971
31428,16373,29055
31352,16370,28852
31304,16373,28990
31256,16369,29066
31216,16365,28889
31200,16335,29045
31280,16308,28944
31368,16312,28959
31428,16308,29048
31432,16311,29104
31428,16357,29197
31406,16405,29143
31368,16423,29230
31320,16379,29325
31280,16383,29311
31276,16346,29289
31332,16331,29479
31388,16311,29596
31388,16316,29447
31392,16324,29625
31428,16364,29778
31478,16420,29543
31445,16420,29805
31388,16403,29902
31336,16401,29818
31320,16371,30016
31376,16345,29929
31424,16345,30164
31444,16330,29980
31453,16333,30254
31476,16374,30276
31424,16412,30262
31364,16422,30458
31300,16423,30463
31268,16412,30662
31306,16368,30652
31396,16348,30719
31461,16345,30701
31508,16358,30928
31524,16365,30808
31504,16398,30983
31452,16437,30945
31384,16441,31168
31348,16436,31074
31356,16436,31255
31392,16383,31189
31480,16347,31256
31549,16353,31445
31608,16375,31420
31660,16366,31615
31660,16410,31621
31656,16447,31615
31632,16446,31785
31644,16447,31637
31680,16445,31863
31712,16415,32006
31844,16412,31818
31940,16359,31940
32028,16364,32048
32068,16377,32156
32112,16423,32242
32128,16464,32025
32132,16462,32173
32116,16442,32263
32126,16438,32399
32188,16404,32321
32300,16375,32478
32444,16389,32513
32506,16388,32411
32588,16412,32489
32592,16427,32639
32592,16457,32764
32549,16486,32486
32492,16460,32667
32512,16456,32868
32528,16428,32660
32620,16399,32740
32708,16399,32949
32760,16408,32786
32820,16420,32916
32844,16489,32789
32784,16468,32997
32704,16473,32964
32656,16477,32997
32660,16472,32919
32676,16450,32994
32764,16448,33088
32812,16391,32869
32852,16401,33038
32856,16412,33137
32832,16452,33120
32764,16490,33077
32704,16501,33039
32664,16496,33113
32680,16477,33084
32686,16436,33112
32736,16418,33100
32804,16404,33232
32832,16418,33125
32861,16440,33157
32880,16468,33243
32858,16507,33372
32797,16512,33020
32768,16519,33199
32744,16484,33207
32740,16455,33250
32812,16424,33257
32844,16437,33313
32830,16451,33391
32828,16431,33073
32824,16475,33200
32788,16506,33389
32736,16513,33027
32728,16509,33136
32708,16507,33249
32700,16479,33284
32716,16439,33153
32784,16433,33317
32820,16447,33265
32804,16461,33338
32824,16496,33255
32796,16545,33358
32732,16546,33151
32660,16519,33212
32624,16515,33336
32640,16484,33077
32744,16450,33215
32836,16449,33325
32892,16469,32957
32884,16470,33156
32876,16518,33263
32812,16537,33199
32756,16543,33065
32713,16539,32967
32708,16546,33071
32697,16512,33233
32757,16481,32954
32798,16481,33105
32800,16495,33189
32832,16519,32815
32825,16518,32919
32788,16559,32772
32752,16576,33021
32712,16543,32873
32684,16544,32983
32696,16509,33044
32746,16485,32710
32772,16491,32813
32797,16500,33021
32778,16507,32681
32768,16556,32757
32748,16591,32791
32701,16588,32853
32684,16584,32935
32648,16558,32572
32660,16577,32647
32704,16492,32679
32749,16501,32613
32804,16513,32709
32828,16519,32700
32820,16551,32637
32777,16593,32556
32697,16592,32652
32644,16593,32535
32640,16569,32489
32652,16535,32548
32648,16519,32540
32672,16517,32561
32740,16535,32630
32772,16532,32519
32756,16562,32587
32701,16592,32244
32668,16610,32481
32640,16589,32334
32608,16595,32404
32586,16576,32468
32581,16574,32388
32624,16519,32466
32668,16533,32127
32689,16536,32213
32709,16583,32244
32664,16612,32319
32613,16623,32396
32564,16613,32180
32516,16617,32293
32508,16581,32184
32584,16559,32169
32632,16585,32206
32656,16549,32319
32704,16553,32009
32720,16588,32213
32652,16622,32292
32612,16627,32111
32581,16653,32207
32590,16636,32062
32608,16592,32245
32672,16577,32159
32760,16555,32245
32752,16558,31904
32752,16569,32222
32730,16630,31891
32693,16642,32005
32656,16647,32012
32628,16642,32093
32616,16641,32125
32676,16607,32001
32732,16580,32069
32772,16588,31964
32812,16602,32145
32820,16604,31972
32820,16637,31807
32800,16668,32049
32768,16673,32040
32744,16671,32005
32756,16673,32008
32812,16614,31884
32848,16581,32032
32908,16577,32020
32954,16589,32025
32960,16592,31951
32960,16636,31999
32900,16669,32085
32820,16684,32005
32780,16669,32046
32768,16669,31900
32804,16634,32023
32864,16612,32016
32945,16612,31917
32984,16634,31959
33000,16644,32038
33008,16645,32041
32936,16686,31973
32880,16679,31940
32844,16676,32052
32837,16680,32036
32828,16657,31959
32896,16612,32045
32937,16615,32166
32972,16622,31983
33004,16645,32080
32992,16676,32178
32952,16711,31868
32892,16709,32085
32840,16699,32215
32792,16701,31973
32832,16671,32039
32901,16646,32043
32928,16647,32165
32968,16634,32232
32976,16638,32167
32940,16678,32125
32888,16704,32151
32862,16705,32021
32829,16696,32141
32813,16697,32160
32828,16681,32229
32888,16639,32343
32932,16654,32236
32958,16668,32220
32957,16667,32322
32945,16694,32032
32920,16723,32172
32876,16734,32194
32820,16716,32284
32800,16720,32284
32816,16684,32198
32872,16676,32279
32912,16640,32345
32928,16677,32303
32912,16684,32263
32919,16722,32292
32904,16767,32338
32860,16729,32316
32812,16726,32233
32760,16722,32355
32788,16693,32269
32840,16665,32405
32864,16677,32202
32894,16680,32367
32882,16690,32237
32906,16721,32370
32916,16762,32261
32892,16765,32351
32860,16764,32208
32821,16791,32418
32842,16701,32156
32928,16671,32358
32950,16673,32260
32946,16684,32402
32964,16709,32476
32948,16751,32319
32904,16783,32159
32860,16784,32364
32852,16773,32326
32832,16780,32334
32828,16713,32135
32888,16689,32384
32916,16686,32253
32968,16700,32357
32992,16720,32135
32984,16745,32353
32912,16775,32423
32848,16774,32292
32824,16775,32376
32816,16780,32503
32844,16770,32391
32879,16695,32340
32920,16711,32297
32908,16712,32399
32902,16734,32391
32900,16759,32324
32820,16803,32412
32744,16793,32493
32701,16786,32308
32693,16788,32421
32701,16749,32244
32752,16718,32393
32780,16722,32405
32824,16743,32375
32829,16777,32319
32836,16765,32419
32772,16794,32277
32708,16788,32444
32676,16783,32287
32694,16772,32421
32744,16745,32386
32828,16728,32516
32864,16743,32319
32856,16739,32428
32908,16743,32357
32921,16790,32425
32924,16821,32417
32892,16829,32294
32896,16797,32450
32876,16791,32177
32884,16761,32349
32916,16733,32532
32968,16732,32355
32980,16743,32445
32982,16751,32492
32972,16790,32335
32928,16841,32449
32854,16849,32503
32784,16804,32342
32756,16805,32439
32776,16766,32357
32820,16740,32391
32828,16760,32465
32844,16755,32423
32864,16772,32558
32856,16805,32500
32816,16839,32221
32764,16843,32460
32764,16845,32590
32785,16846,32301
32821,16778,32495
32853,16748,32497
32889,16749,32415
32924,16756,32495
32932,16763,32519
32932,16847,32455
32852,16864,32517
32804,16886,32477
32768,16828,32548
32752,16848,32537
32761,16783,32654
32776,16758,32356
32812,16754,32553
32840,16767,32688
32876,16789,32376
32860,16837,32590
32836,16852,32719
32748,16850,32484
32680,16855,32517
32668,16849,32633
32692,16825,32405
32768,16769,32528
32796,16769,32671
32808,16786,32666
32812,16791,32621
32816,16843,32556
32733,16874,32717
32645,16871,32694
32528,16841,32639
32340,16834,32743
32160,16805,32695
32016,16796,32703
31924,16774,32833
31812,16786,32756
31712,16791,32748
31680,16845,32821
31696,16871,32684
31724,16879,32806
31812,16873,32879
32092,16872,32775
32533,16842,32804
33144,16791,32796
33880,16795,32844
34752,16801,32734
35724,16807,32847
36608,16853,32712
36964,16887,32925
37032,16885,32774
37436,16876,32597
38108,16888,32840
38600,16861,32833
38958,16826,32949
39444,16815,32823
39836,16831,32626
39876,16856,32829
39488,16874,32945
38800,16917,32588
38088,16911,32788
37680,16902,32912
36957,16889,32716
36044,16851,32508
35272,16823,32743
34684,16831,32568
34180,16838,32762
33728,16856,32551
33392,16863,32669
33004,16883,32575
32620,16885,32703
32284,16877,32650
31992,16892,32528
31792,16839,32623
31700,16817,32373
31608,16823,32617
31546,16832,32584
31517,16839,32663
31452,16892,32502
31360,16895,32587
31276,16889,32644
31284,16882,32513
31297,16885,32428
31313,16846,32545
31396,16817,32632
31440,16837,32513
31464,16836,32477
31520,16840,32477
31521,16882,32468
31456,16911,32312
31388,16908,32483
31352,16903,32342
31328,16919,32453
31393,16848,32167
31472,16828,32372
31546,16852,32276
31592,16861,32417
31648,16843,32226
31660,16876,32292
31644,16932,32105
31588,16933,32305
31584,16933,32077
31584,16895,32156
31604,16859,32065
31684,16831,32057
31716,16853,31801
31764,16851,31967
31776,16864,31897
31777,16901,31937
31737,16935,31678
31706,16938,31866
31704,16903,31716
31661,16899,31897
31628,16866,31694
31672,16844,31780
31744,16848,31623
31796,16859,31767
31874,16866,31750
31864,16909,31705
31840,16943,31836
31789,16923,31652
31736,16911,31556
31700,16910,31751
31727,16871,31790
31822,16843,31807
31844,16851,31688
31856,16867,31800
31896,16873,31766
31908,16911,31932
31880,16948,31759
31864,16930,31894
31885,16919,31890
31870,16912,31978
31884,16882,31724
31920,16874,31929
31968,16873,32072
32004,16869,31956
32024,16876,32103
32016,16919,32057
31960,16950,32249
31906,16959,32150
31852,16929,32228
31848,16925,32231
31828,16886,32391
31880,16878,32084
31900,16881,32384
31924,16873,32192
31956,16874,32377
31958,16923,32469
31956,16955,32493
31937,16958,32503
31909,16948,32524
31872,16977,32454
31933,16896,32629
32008,16862,32673
32044,16873,32592
32060,16888,32743
32076,16903,32617
32064,16955,32881
32032,16951,32692
31969,16949,32863
31940,16990,32781
31936,16933,33022
31984,16903,32882
32081,16900,32799
32165,16895,33055
32208,16932,33065
32252,16919,33070
32257,16953,33041
32220,16984,33181
32212,16962,33052
32196,16950,33312
32204,16944,33116
32284,16907,33308
32388,16877,33196
32504,16883,33473
32532,16898,33251
32608,16904,33431
32616,16953,33415
32612,16986,33407
32508,16964,33531
32586,16953,33511
32628,16946,33543
32696,16917,33593
32745,16902,33493
32829,16895,33652
32836,16908,33444
32808,16911,33708
32877,16957,33817
32877,16995,33684
32837,17010,33798
32792,16980,33775
32813,17007,33961
32798,16945,33853
32836,16911,33819
32856,16913,33956
32869,16926,33893
32868,16930,34016
32868,16968,33999
32804,16972,33781
32744,16959,34033
32754,16977,34076
32768,16967,34153
32868,16925,34047
32976,16902,34164
33020,16914,34230
32992,16901,34161
32964,16907,34223
32964,16952,34264
32924,16996,34304
32828,16996,34132
32868,16984,34405
32904,16953,34543
32828,16925,34231
32832,16902,34517
32948,16900,34673
32988,16917,34603
33006,16914,34469
32999,16972,34690
32960,16981,34641
32904,16977,34845
32852,16977,34628
32836,16972,34823
32856,16938,34719
32884,16911,34820
32948,16909,34880
32936,16927,34852
32940,16935,34908
32968,16969,34669
32944,16996,34945
32912,17013,35079
32864,16972,34709
32854,16964,34868
32876,16946,34964
32848,16917,35039
32948,16927,35177
32969,16917,34810
32960,16925,34963
32960,16961,35127
32928,16998,35156
32912,16999,35020
32912,17003,35097
32840,16966,35132
32846,16940,35135
32944,16916,35245
32924,16917,35144
32901,16929,35308
32852,16940,34957
32856,16967,35276
32808,16999,35182
32708,16999,35367
32816,16996,34982
32812,16997,35245
32788,16965,35372
32792,16933,35015
32768,16958,35221
32664,16925,35228
32761,16927,35255
32916,16972,35208
32921,17007,35308
32856,17013,35388
32680,16988,35313
32544,16982,35295
32580,16951,35154
32740,16928,35335
32788,16933,35447
32740,16925,35449
32884,16931,35492
32964,16980,35353
32972,17004,35549
32956,16998,35812
32808,16996,35558
32720,16997,35862
32796,16957,36144
32972,16935,35847
33040,16948,36170
33044,16928,36493
33108,16929,36317
33134,16981,36700
33072,17007,36783
33029,17013,36999
33040,17013,37291
33088,16985,37342
33092,16955,37633
33121,16932,37701
33200,16932,37840
33180,16945,37709
33248,16959,38175
33224,16999,38442
33124,17004,38604
33044,16999,38900
33008,16993,38616
32956,16991,39132
33013,16952,39454
33124,16951,39261
33140,16927,39655
33134,16948,39439
33120,16943,39989
33125,16972,40177
33100,17004,40404
33128,17009,40628
33116,16999,40677
33124,17007,40881
33088,16972,40887
33172,16951,41284
33276,16931,41335
33260,16937,41383
33272,16959,41612
33297,16992,41789
33248,17022,41808
33196,17009,42172
33180,17001,41786
33204,17001,42336
33208,16965,42532
33248,16964,42228
33257,16925,42572
33276,16934,42903
33268,16946,42559
33248,16984,43140
33220,17008,43111
33191,17013,43219
33168,17005,43385
33116,17011,43483
33140,16973,43576
33196,16945,43634
33228,16976,43789
33229,16943,43692
33272,16957,43816
33272,16994,44039
33200,17031,44068
33136,17033,43813
33140,16998,44228
33120,16996,44247
33116,16970,44327
33132,16957,44251
33204,16949,44324
33181,16963,44509
33196,16977,44430
33181,16989,44341
33148,17013,44631
33116,17015,44537
33088,17004,44510
33057,17013,44676
33065,16987,44704
33100,16933,44719
33100,16935,44701
33110,16949,44431
33116,16965,44653
33104,17013,44733
33081,17055,44858
32952,17020,44838
32888,17015,44854
32936,17020,44708
32968,16961,44575
32940,16944,44761
33012,16944,44560
33042,16962,44736
33036,16980,44829
33044,16990,44876
32996,17021,44769
32944,17039,44679
32904,17020,44832
32852,17046,44775
32832,16963,44820
32884,16956,44731
32908,16951,44495
32952,16970,44761
32944,17004,44692
32984,16991,44375
32924,17017,44612
32860,17014,44615
32804,17015,44383
32728,17025,44591
32688,16975,44368
32745,16955,44399
32832,16956,44434
32926,16970,44357
32968,16978,44279
32988,17023,44293
32992,17018,44103
32924,17013,44196
32897,17007,43780
32848,17001,44118
32842,16966,44031
32824,16944,43647
32780,16947,43945
32824,16957,43879
32829,16980,43836
32857,16998,43677
32852,17021,43559
32784,17021,43599
32812,17015,43519
32796,17012,43404
32840,16969,43397
32868,16949,42886
32836,16947,43245
32880,16959,43076
32948,16975,43040
32960,17004,42967
32900,17031,42724
32868,17037,42865
32876,17031,42714
32869,17031,42503
32904,17004,42548
32956,16988,42437
32948,16945,42385
32948,16959,42247
32932,16975,42235
32897,17010,42223
32804,17057,41607
32748,17021,41926
32720,17034,42028
32708,17013,41751
32766,16985,41724
32801,16965,41519
32876,16953,41596
32896,16953,41468
32924,16962,41337
32864,17009,41447
32772,17033,41180
32696,17031,41172
32660,17029,41107
32685,17052,40812
32680,16971,40932
32780,16946,40710
32760,16951,40770
32760,16967,40707
32732,16987,40596
32725,17037,40484
32668,17026,40479
32668,17019,40225
32588,17013,40407
32621,17021,39830
32644,16972,40071
32760,16950,40225
32728,16958,39791
32748,16972,39853
32789,16983,39908
32784,16999,39833
32736,17029,39788
32708,17031,39597
32668,17023,39605
32656,17029,39388
32622,16988,39556
32724,16958,39471
32804,16963,39154
32708,16976,39254
32645,16988,39303
32580,16990,39073
32552,17018,39076
32504,17017,38881
32532,17007,39002
32540,17004,38781
32548,16963,38842
32636,16943,38608
32588,16941,38839
32489,16951,38689
32508,16951,38396
32569,16991,38540
32572,17018,38337
32584,17010,38524
32612,17004,38039
32590,16998,38196
32656,16972,38311
32680,16941,38177
32728,16949,38023
32752,16964,38108
32833,16975,37695
32780,17004,37996
32689,17012,38064
32612,17007,37876
32557,17024,37785
32568,17004,37719
32540,16970,37765
32656,16980,37796
32700,16929,37652
32748,16944,37601
32762,16965,37301
32760,16985,37381
32712,17013,37503
32660,17018,37425
32612,17019,37324
32576,16986,37255
32592,16971,37279
32661,16928,37351
32716,16942,37169
32732,16959,36996
32668,16936,37117
32636,16979,36732
32540,17006,36964
32436,17025,37068
32384,16997,36852
32352,17003,36901
32344,16972,36808
32424,16922,36735
32544,16925,36778
32600,16934,36607
32600,16959,36615
32588,16991,36598
32528,17020,36697
32388,17025,36377
32280,16990,36476
32364,16992,36463
32436,16954,36453
32548,16941,36493
32585,16923,36420
32513,16929,36261
32514,16939,36256
32535,16990,36145
32452,16997,35943
32381,17013,36263
32330,17000,36172
32320,17015,36148
32305,16942,36127
32336,16931,36129
32424,16942,36057
32479,16930,36141
32492,16933,35783
32508,16994,35880
32472,17019,35863
32428,16997,35847
32381,16994,35808
32421,16989,35752
32481,16967,35740
32512,16913,35737
32536,16920,35860
32416,16935,35557
32288,16951,35626
32096,16975,35588
31886,16994,35645
31716,17012,35733
31517,16989,35520
31344,16997,35562
31292,16963,35510
31360,16963,35437
31576,16920,35436
31668,16933,35556
31927,16942,35375
32296,16998,35422
32708,17011,35289
33224,17015,35449
34108,17017,35032
35020,17015,35302
35985,16988,35279
36564,16935,35140
36734,16938,35258
37048,16947,35118
37592,16957,35301
38108,16991,35045
38372,17020,35100
38656,17017,35124
39032,17020,34793
39232,17013,35033
39081,16983,35053
38600,16971,34918
37873,16933,34966
37316,16943,34868
36786,16953,34781
35980,16999,34575
35132,17020,34789
34444,17027,34836
33892,16985,34721
33476,16986,34617
33208,16957,34674
32948,16935,34634
32639,16948,34704
32364,16932,34591
31992,16955,34646
31780,16995,34535
31629,17003,34567
31465,16994,34462
31328,16996,34452
31260,16998,34404
31244,16964,34228
31265,16926,34261
31285,16917,34351
31296,16930,34245
31293,16932,34367
31253,16983,34142
31172,17005,34201
31154,17013,34172
31160,16983,34212
31136,16981,34036
31124,16959,34093
31173,16930,34136
31224,16920,34165
31324,16929,33887
31432,16945,34016
31452,16981,34104
31389,17015,33746
31324,16997,33799
31336,16987,33820
31326,16988,33854
31364,16948,33927
31468,16934,33685
31516,16936,33730
31536,16967,33790
31552,16935,33415
31538,16972,33516
31504,17019,33556
31440,17010,33247
31405,16997,33340
31404,17001,33336
31420,16940,33407
31508,16919,33337
31552,16938,33228
31588,16940,33285
31624,16956,33189
31620,16999,33233
31566,16998,32973
31530,16994,33156
31584,16985,33181
31673,16980,33038
31754,16944,33127
31836,16930,33143
31846,16933,32980
31852,16936,33041
31860,16947,33015
31864,16987,33077
31840,17015,33016
31784,17017,33071
31724,16983,32736
31684,16980,32858
31728,16945,32894
31809,16939,32932
31849,16952,33059
31900,16928,32985
31892,16932,32941
31912,16972,32951
31832,16994,33012
31778,16988,32890
31756,16988,32905
31724,16985,33037
31741,16950,33045
31783,16937,32775
31840,16912,33136
31904,16943,33031
31940,16943,33061
31996,16989,32983
31928,16986,33031
31893,17001,33031
31884,16987,33103
31840,17018,33153
31852,16939,33086
31937,16932,33082
31968,16933,33086
32048,16932,33127
32045,16942,33208
32028,16988,33028
31973,17011,33140
31926,17012,33156
31924,17007,33031
31944,16971,33111
31980,16935,33173
32084,16919,33132
32153,16929,33028
32160,16943,33215
32182,16955,33020
32164,16969,33109
32176,16992,33176
32137,17010,33125
32116,16986,33103
32129,16993,33009
32184,16932,32999
32262,16911,33063
32348,16919,33110
32404,16948,33175
32412,16983,32992
32420,16967,33068
32424,16996,33124
32420,17005,32861
32428,16992,33039
32448,16988,33136
32528,16943,32967
32596,16931,33036
32696,16921,32873
32760,16935,32935
32864,16932,32973
32856,16965,33088
32809,16986,32876
32772,16983,32980
32756,16993,33055
32740,16972,32951
32773,16944,32955
32852,16930,32700
32904,16909,32829
32948,16917,32799
32993,16925,32888
32964,16959,32805
32900,16979,32756
32877,16986,32733
32856,16981,32798
32876,16975,32805
32903,16935,32744
32942,16925,32677
33024,16931,32775
32992,16937,32610
32996,16973,32698
33020,16995,32589
32936,16980,32605
32880,16973,32588
32832,16972,32645
32880,16972,32693
32908,16950,32668
32996,16896,32762
33057,16898,32391
33073,16911,32551
33104,16925,32519
33104,16968,32604
33048,17005,32695
33028,16970,32504
32984,16961,32353
32985,17005,32612
33009,16915,32631
33060,16910,32555
33128,16919,32468
33092,16924,32316
33121,16919,32544
33120,16965,32422
33092,16983,32492
33024,16991,32232
32973,16959,32421
32949,16952,32519
32968,16907,32167
33030,16899,32367
33092,16900,32476
33080,16909,32259
33088,16914,32351
33100,16958,32221
33040,16987,32405
32968,16993,32200
32936,16950,32263
32884,16941,32348
32884,16925,32055
32900,16898,32125
32944,16887,32287
32996,16893,32084
33020,16900,32140
32984,16943,31997
32952,16969,32022
32862,16973,32102
32840,16963,32006
32796,16956,32134
32800,16925,31927
32850,16902,32001
32848,16905,31831
32856,16911,32036
32932,16925,31811
32928,16961,31635
32910,16976,31852
32848,16973,31848
32812,16964,31684
32769,16965,31772
32820,16897,31663
32916,16872,31788
32940,16869,31580
32954,16880,31421
32980,16886,31630
32980,16940,31525
32956,16964,31573
32885,16953,31295
32864,16944,31501
32864,16940,31560
32884,16897,31333
32936,16887,31404
32980,16901,31218
33012,16875,31268
33016,16884,31058
32996,16930,31260
32964,16971,31160
32920,16948,31272
32896,16945,31092
32880,16939,30891
32877,16903,31078
32920,16887,31013
32964,16864,30917
32992,16865,30993
33012,16885,30822
32984,16932,30860
32976,16959,30668
32897,16960,30864
32836,16952,30698
32814,16972,30790
32860,16877,30760
32956,16873,30788
33017,16871,30572
33021,16874,30661
33000,16898,30581
32952,16963,30444
32876,16934,30561
32824,16946,30557
32760,16931,30272
32772,16920,30428
32760,16889,30513
32824,16879,30269
32852,16884,30383
32836,16862,30431
32868,16884,30108
32844,16919,30231
32800,16947,30167
32760,16947,30268
32744,16941,30223
32736,16935,30093
32732,16893,29986
32776,16874,30056
32832,16857,30152
32840,16861,30167
32877,16864,30023
32820,16915,30220
32762,16938,29937
32736,16943,30085
32736,16922,30215
32744,16925,29941
32748,16893,30022
32748,16846,30036
32776,16849,30175
32820,16861,30152
32869,16860,30093
32862,16910,30244
32820,16932,30188
32768,16929,30173
32756,16908,30311
32752,16902,30236
32772,16869,30319
32828,16845,30416
32884,16863,30540
32912,16852,30495
32924,16856,30471
32876,16899,30556
32813,16921,30636
32768,16918,30766
32737,16927,30625
32744,16905,30778
32748,16867,30828
32828,16847,30983
32892,16853,30836
32868,16866,31005
32920,16871,31057
32868,16903,31181
32799,16928,31041
32749,16935,31215
32720,16957,31399
32696,16896,31156
32752,16861,31444
32812,16835,31452
32888,16839,31564
32932,16853,31617
32960,16876,31561
32921,16899,31748
32928,16925,31588
32853,16917,31775
32832,16925,31844
32868,16938,32039
32912,16853,31994
33090,16830,32061
32968,16844,32210
32952,16856,32317
32946,16871,32263
32884,16892,32207
32736,16922,32447
32645,16945,32558
32652,16897,32640
32672,16890,32543
32781,16850,32758
32900,16829,32542
32892,16839,32845
32857,16861,32775
32852,16854,32912
32825,16893,33017
32768,16924,32973
32740,16924,33135
32712,16913,32983
32692,16884,33039
32716,16847,33158
32784,16835,33260
32805,16842,33268
32784,16863,33181
32812,16841,33303
32792,16882,33415
32748,16903,33346
32730,16911,33231
32712,16900,33375
32636,16886,33253
32608,16853,33269
32680,16865,33316
32712,16821,33441
32676,16851,33340
32704,16861,33347
32712,16878,33279
32652,16903,33324
32620,16903,33247
32636,16889,33183
32672,16895,33244
32761,16837,33212
32814,16814,33205
32812,16826,33261
32828,16841,32900
32812,16863,33082
32760,16877,33104
32680,16892,33089
32632,16897,33047
32604,16883,32920
32624,16877,32988
32652,16846,32876
32720,16857,32990
32800,16818,32909
32852,16831,32844
32896,16847,32740
32828,16895,32820
32768,16894,32749
32716,16878,32556
32669,16881,32733
32648,16871,32446
32657,16832,32720
32688,16818,32631
32732,16827,32471
32693,16828,32503
32688,16822,32561
32692,16875,32583
32652,16894,32508
32636,16891,32334
32648,16884,32500
32686,16881,32325
32724,16866,32409
32744,16798,32473
32740,16804,32174
32726,16815,32335
32705,16835,32367
32670,16860,32297
32600,16899,32364
32544,16880,32225
32500,16882,32197
32484,16853,32103
32516,16813,32180
32592,16817,32263
32609,16817,31924
32596,16831,32079
32588,16816,32193
32580,16854,31944
32553,16873,32069
32540,16878,31943
32528,16866,31980
32548,16858,32007
32581,16821,31868
32596,16815,31893
32664,16788,31940
32705,16804,31817
32680,16820,31780
32660,16862,31882
32613,16869,31928
32512,16856,31712
32504,16858,31797
32452,16853,31870
32501,16815,31637
32660,16817,31742
32744,16780,31805
32744,16799,31695
32762,16812,31658
32740,16857,31564
32692,16858,31654
32636,16848,31480
32562,16840,31546
32572,16852,31589
32598,16801,31652
32652,16791,31332
32616,16773,31613
32592,16786,31495
32613,16797,31399
32572,16859,31304
32520,16846,31340
32472,16845,31321
32425,16832,31357
32392,16820,31449
32400,16807,31133
32410,16777,31276
32436,16800,31319
32444,16773,31077
32452,16796,31261
32452,16841,31305
32396,16843,31021
32312,16849,31205
32272,16846,31284
32244,16810,31092
32277,16769,30963
32320,16757,31100
32380,16767,31182
32404,16775,30972
32420,16791,31087
32390,16829,31025
32300,16852,31040
32208,16847,31096
32196,16837,30896
32184,16807,30997
32228,16769,31037
32260,16759,30825
32252,16761,30685
32264,16780,30868
32260,16767,30961
32236,16804,30746
32205,16831,30808
32196,16831,30900
32184,16831,30679
32184,16799,30773
32164,16781,30809
32166,16743,30676
32144,16768,30719
32024,16749,30768
31876,16760,30584
31668,16804,30651
31482,16822,30596
31312,16829,30500
31168,16851,30565
31114,16792,30664
31172,16757,30316
31321,16743,30417
31490,16763,30526
31688,16748,30256
32133,16759,30444
32544,16805,30484
33040,16827,30178
33855,16831,30272
34748,16831,30374
35512,16791,30119
36064,16757,30169
36320,16740,30193
36248,16751,30264
36161,16786,30252
36256,16765,30215
36461,16829,30271
36708,16853,29981
37008,16809,30076
37008,16823,29980
36652,16810,30047
36176,16785,30109
35480,16731,29863
35040,16760,29935
34588,16751,29984
34164,16761,29703
33876,16815,29698
33652,16806,29650
33420,16821,29741
33208,16799,29632
33132,16780,29551
33073,16755,29636
32976,16712,29668
32892,16721,29461
32720,16735,29444
32564,16755,29384
32360,16778,29504
32192,16808,29554
32048,16802,29253
31960,16800,29416
31864,16815,29442
31786,16726,29224
31796,16707,29324
31836,16720,29264
31820,16727,29168
31798,16743,29276
31788,16783,29158
31733,16816,29175
31684,16782,29216
31684,16786,29249
31732,16781,29060
31740,16723,29076
31792,16703,29208
31848,16714,28973
31868,16724,29132
31928,16750,29209
31952,16761,28924
31880,16777,28979
31864,16774,29116
31848,16775,29077
31824,16778,29071
31869,16713,28852
31856,16706,28960
31909,16708,29017
31964,16728,28711
32036,16719,28807
32060,16761,28851
32024,16797,28596
31976,16780,28701
31964,16783,28771
31944,16745,28497
31990,16709,28560
32064,16697,28637
32116,16705,28418
32112,16716,28545
32124,16741,28471
32116,16759,28340
32068,16771,28439
32040,16772,28390
32048,16761,28252
32052,16764,28294
32082,16741,28224
32144,16689,28343
32204,16693,28308
32233,16701,28356
32236,16733,28385
32265,16761,28343
32232,16789,28361
32180,16763,28157
32157,16755,28353
32137,16740,28376
32152,16701,28275
32188,16693,28380
32212,16697,28492
32221,16709,28274
32240,16731,28469
32228,16765,28564
32196,16793,28436
32176,16757,28585
32144,16765,28605
32120,16756,28671
32188,16705,28580
32226,16697,28609
32272,16709,28692
32297,16692,28733
32292,16701,28871
32288,16764,28973
32232,16769,28761
32194,16785,29013
32228,16742,28807
32212,16751,28956
32232,16712,29053
32316,16680,29135
32356,16698,29132
32372,16686,29081
32358,16692,29260
32352,16755,29238
32328,16767,29215
32284,16748,29231
32256,16741,29217
32298,16750,29333
32361,16687,29361
32409,16677,29432
32468,16705,29436
32493,16685,29607
32528,16711,29693
32528,16749,29688
32513,16750,29795
32452,16742,29766
32444,16743,29881
32468,16743,29825
32528,16691,29948
32620,16687,29900
32696,16695,29847
32756,16679,29972
32804,16701,30023
32784,16733,29989
32797,16759,29944
32796,16756,30034
32805,16729,29908
32848,16735,30254
32916,16696,30199
32992,16660,30244
33036,16677,30215
33088,16677,30126
33096,16693,30320
33036,16740,30324
33008,16741,30447
32984,16754,30393
32952,16747,30410
32916,16710,30388
32912,16679,30348
32929,16701,30351
32960,16665,30269
32993,16693,30572
33012,16677,30318
32968,16727,30532
32892,16759,30553
32866,16719,30646
32852,16725,30608
32846,16719,30629
32868,16665,30612
32928,16642,30516
32936,16673,30652
32916,16676,30668
32934,16699,30559
32904,16709,30765
32888,16722,30616
32832,16740,30750
32812,16718,30673
32808,16723,30810
32880,16656,30582
32948,16636,30785
32976,16653,30911
32981,16676,30730
33012,16673,30871
32968,16722,30990
32933,16720,30737
32877,16703,30915
32887,16716,31027
32856,16701,30821
32904,16671,30945
33012,16648,30848
33044,16655,31033
33048,16673,30790
33048,16657,30920
33020,16692,31001
32948,16705,30764
32900,16721,30868
32864,16700,30901
32848,16693,30693
32861,16667,30884
32896,16623,30949
32952,16628,30684
32936,16652,30815
32976,16663,30877
32984,16714,30855
32924,16701,30884
32836,16701,30598
32784,16696,30794
32784,16704,30567
32840,16628,30757
32934,16614,30660
33024,16629,30764
33089,16652,30725
33092,16673,30553
33096,16676,30761
33052,16704,30471
33048,16694,30620
32964,16701,30574
32976,16693,30668
33040,16625,30727
33086,16610,30423
33132,16615,30593
33128,16642,30634
33112,16654,30355
33080,16690,30471
33036,16692,30564
33017,16689,30348
33048,16681,30402
33040,16673,30361
33058,16634,30439
33137,16609,30501
33168,16616,30313
33164,16625,30420
33153,16647,30469
33184,16687,30197
33125,16712,30270
33084,16699,30332
33033,16691,30335
33028,16680,30203
33057,16670,30288
33124,16598,30300
33168,16597,30367
33180,16613,30073
33192,16644,30159
33129,16663,30207
33090,16681,30261
33080,16676,30160
33016,16680,30097
33052,16647,30172
33061,16604,30189
33124,16606,30208
33152,16607,30273
33104,16623,29977
33088,16655,30136
33064,16651,30029
33012,16666,30134
32960,16657,30223
32944,16667,29965
32988,16644,30108
32984,16618,30146
33012,16637,30142
33056,16589,30169
33077,16602,30129
33092,16635,30119
33072,16644,30126
33006,16661,30171
32960,16661,30116
32924,16667,30047
32885,16651,30136
32916,16617,30213
32996,16573,30129
33016,16580,30203
33052,16588,30149
33068,16607,30087
33092,16666,30129
33060,16650,29920
32976,16658,30155
32968,16658,29950
32952,16665,30200
33005,16585,29936
33012,16581,30103
33029,16584,30045
33006,16583,30131
33012,16595,29995
33044,16633,30055
33022,16686,29962
32988,16643,30129
32968,16638,30063
32944,16639,30134
33022,16582,30004
33077,16575,30237
33096,16565,30159
33112,16577,30067
33124,16596,30076
33088,16654,30029
33040,16639,30164
32996,16647,29959
32969,16651,30052
32940,16603,30063
32964,16594,30066
33028,16573,30055
33081,16607,30126
33084,16571,30110
33072,16586,30180
33068,16625,30239
33004,16653,30149
32964,16679,30220
32956,16615,30160
32944,16600,30137
32988,16574,30132
33052,16572,30036
33049,16551,30085
33070,16561,30029
33096,16582,30112
33061,16636,29932
32988,16626,30249
32960,16628,30121
32948,16639,30014
32992,16599,30199
33024,16561,30162
33088,16549,30215
33108,16564,30180
33140,16581,30259
33156,16576,30185
33112,16604,30215
33020,16627,30185
32960,16640,30277
32960,16614,30016
32928,16618,30189
32945,16549,30196
32984,16547,30117
33024,16554,30128
33072,16573,30111
33072,16567,30148
33092,16610,30087
33064,16628,30097
33012,16609,30044
32986,16601,30172
32968,16609,30101
33020,16557,30196
33096,16559,30000
33084,16569,30092
33049,16544,30103
33084,16557,30220
33080,16607,30133
33048,16631,30241
33008,16635,30255
33004,16596,30245
33004,16581,30319
33040,16541,30105
33072,16542,30201
33079,16535,30300
33088,16559,30248
33104,16586,30303
33048,16588,30259
33008,16609,30131
33002,16622,30115
32980,16591,30167
32992,16575,30260
33026,16551,30359
33080,16533,30053
33132,16547,30218
33152,16548,30327
33132,16570,30143
33073,16607,30236
33020,16632,30252
32976,16645,30058
32964,16623,30264
32956,16614,30186
33020,16529,30144
33020,16511,30272
33060,16524,30341
33116,16548,30047
33124,16552,30246
33072,16589,30312
32988,16611,30261
32956,16613,30304
32881,16602,30198
32824,16607,30286
32828,16524,30346
32885,16538,30166
32884,16516,30180
32888,16545,30174
32932,16559,30264
32955,16596,30373
32948,16613,30069
32896,16582,30167
32908,16570,30156
32888,16553,30299
32908,16518,30166
32960,16518,30244
32996,16520,30311
33004,16543,30324
33000,16527,30310
33008,16577,30384
33012,16585,30100
33010,16583,30288
33040,16581,30356
33056,16569,30316
33088,16513,30398
33134,16491,30323
33166,16510,30359
33188,16518,30212
33228,16533,30316
33214,16568,30233
33196,16587,30206
33132,16586,30310
33100,16597,30308
33052,16540,30312
33088,16501,30280
33100,16496,30154
33108,16503,30303
33084,16513,30286
33053,16543,30332
33021,16557,30380
33016,16569,30332
33036,16562,30402
32997,16567,30108
33008,16548,30183
33028,16518,30252
33113,16524,30325
33132,16484,30352
33104,16508,30327
33104,16523,30227
33063,16566,30197
33025,16580,30215
32992,16551,30215
32960,16552,30172
32932,16541,30403
32944,16519,30333
33020,16473,30396
33020,16484,30340
33032,16495,30446
33048,16516,30365
33024,16543,30292
32977,16556,30344
32921,16548,30372
32896,16559,30393
32889,16540,30398
32936,16485,30377
33002,16495,30281
33040,16489,30272
33044,16513,30284
33060,16501,30389
33033,16531,30396
32960,16553,30415
32888,16567,30304
32824,16537,30358
32724,16532,30367
32640,16483,30329
32516,16463,30369
32367,16476,30343
32160,16487,30468
32036,16517,30483
31829,16529,30244
31664,16567,30431
31636,16545,30365
31652,16543,30485
31660,16515,30556
31840,16479,30484
32200,16468,30518
32688,16501,30270
33296,16474,30450
34104,16513,30278
35044,16544,30447
36033,16570,30317
36700,16548,30581
36936,16549,30504
37328,16569,30400
38148,16506,30460
38852,16487,30385
39204,16514,30495
39584,16491,30482
40168,16508,30509
40532,16567,30405
40412,16578,30361
39952,16537,30448
39341,16535,30496
38872,16535,30399
38364,16485,30449
37356,16475,30324
36288,16480,30303
35372,16500,30060
34668,16481,30279
33925,16519,30033
33280,16539,30164
32792,16549,30234
32384,16532,29991
32013,16510,30010
31785,16481,30000
31601,16474,30052
31500,16450,29897
31376,16453,29977
31304,16480,29933
31228,16522,30007
31128,16543,30023
31024,16551,30004
30976,16501,30068
30936,16497,29972
30980,16459,30029
31044,16452,29761
31072,16443,29823
31096,16446,29851
31109,16465,29950
31084,16507,30004
31068,16525,29898
31040,16527,29844
31048,16519,29832
31088,16481,29870
31161,16442,29884
31212,16435,29821
31265,16458,29781
31312,16445,29653
31312,16459,29732
31272,16492,29661
31240,16504,29567
31209,16501,29637
31224,16503,29517
31246,16478,29412
31310,16449,29489
31372,16443,29460
31429,16428,29174
31436,16438,29189
31445,16473,29136
31433,16493,29191
31397,16515,29208
31360,16505,28903
31329,16509,29020
31356,16514,29093
31410,16429,28785
31464,16421,28879
31528,16440,28794
31568,16478,28828
31576,16446,28783
31552,16488,28860
31486,16506,28785
31477,16532,28895
31488,16479,28953
31476,16455,28749
31512,16425,28904
31548,16428,28829
31552,16423,28841
31552,16439,28960
31565,16469,29045
31564,16477,28827
31528,16487,28962
31474,16479,28943
31468,16485,29107
31413,16460,29151
31452,16429,28972
31532,16428,29081
31580,16407,29083
31648,16421,29189
31628,16457,29220
31620,16489,29294
31576,16486,29271
31520,16473,29361
31500,16466,29409
31486,16450,29593
31544,16415,29523
31604,16409,29565
31640,16419,29730
31668,16425,29847
31648,16449,29652
31592,16479,29908
31528,16498,29904
31518,16469,29860
31541,16458,30052
31536,16438,30173
31544,16412,30175
31612,16411,30301
31672,16421,30252
31712,16408,30239
31694,16426,30247
31636,16477,30420
31584,16486,30477
31604,16469,30290
31612,16481,30569
31610,16438,30604
31676,16404,30753
31724,16405,30535
31772,16394,30846
31824,16399,30822
31860,16432,30910
31844,16465,30724
31788,16471,30892
31728,16477,30967
31752,16479,31068
31797,16428,31135
31856,16394,31039
31968,16381,31165
32040,16390,31261
32112,16411,31305
32204,16448,31333
32272,16448,31263
32288,16460,31425
32280,16446,31551
32296,16444,31357
32340,16436,31484
32448,16391,31598
32556,16387,31614
32620,16403,31716
32676,16428,31663
32688,16407,31654
32686,16434,31623
32613,16453,31767
32604,16452,31884
32577,16450,31855
32617,16434,31829
32704,16379,31644
32760,16367,31781
32836,16374,31921
32848,16380,31741
32860,16398,31967
32812,16430,32097
32752,16447,31796
32708,16439,32084
32730,16435,31895
32752,16423,32007
32797,16417,32008
32836,16354,32095
32888,16372,32058
32921,16391,32172
32920,16397,32287
32897,16449,32089
32857,16462,32134
32824,16423,32153
32832,16419,32241
32837,16405,32381
32894,16372,32308
32940,16346,32229
32964,16362,32371
32984,16373,32260
33012,16398,32387
33005,16465,32472
32944,16429,32173
32848,16422,32319
32832,16412,32543
32848,16393,32343
32872,16356,32405
32932,16351,32391
32960,16364,32484
33004,16381,32512
33012,16379,32524
32980,16409,32562
32936,16442,32303
32900,16418,32503
32885,16431,32436
32878,16381,32535
32924,16367,32588
32972,16350,32529
33004,16369,32445
32996,16351,32258
32997,16385,32385
32928,16417,32425
32880,16444,32396
32825,16439,32518
32773,16399,32518
32792,16375,32412
32864,16341,32497
32900,16335,32519
32932,16351,32484
32916,16346,32568
32916,16368,32244
32920,16413,32360
32868,16420,32390
32808,16423,32365
32780,16389,32231
32760,16374,32374
32824,16351,32300
32868,16354,32413
32916,16352,32460
32928,16343,32188
32920,16357,32278
32884,16393,32341
32836,16420,32420
32772,16408,32469
32752,16413,32130
32764,16366,32217
32801,16337,32254
32864,16333,32302
32896,16367,32292
32917,16360,32165
32928,16356,32272
32900,16385,32268
32826,16396,32279
32796,16405,32197
32808,16401,32208
32820,16377,31988
32868,16331,32146
32936,16334,32140
32984,16359,32192
33004,16327,32140
33020,16367,32172
33009,16388,32013
32977,16404,32069
32992,16405,32149
32988,16396,32053
32977,16408,31868
33004,16316,32081
33008,16307,32166
33040,16326,32055
33040,16337,32046
33048,16345,32047
33009,16372,32102
32980,16387,31833
32968,16388,32021
32956,16372,32113
32932,16361,32052
33012,16340,32071
33084,16295,31805
33124,16310,31952
33132,16334,31916
33140,16359,31994
33112,16369,32050
33024,16382,32042
32964,16384,32093
32936,16377,32053
32940,16361,32128
32978,16327,31964
33004,16323,32055
32988,16329,31910
33017,16305,31940
32988,16331,32007
32928,16373,32133
32865,16381,31812
32836,16369,31979
32804,16365,32093
32820,16341,31816
32840,16314,32028
32879,16313,32153
32920,16321,31844
32964,16297,32000
32972,16319,32157
32929,16361,32084
32893,16374,32151
32868,16369,32070
32820,16370,32164
32820,16357,31829
32888,16292,31921
32921,16285,32003
32945,16298,32029
32976,16312,32039
32960,16339,32069
32912,16376,31927
32868,16389,32074
32805,16375,31886
32800,16366,32061
32820,16354,32039
32881,16335,31874
32945,16322,32045
32988,16284,32066
32993,16292,31927
33028,16311,32039
32992,16348,32053
32936,16362,31908
32886,16356,32020
32877,16360,32094
32865,16317,32013
32912,16277,32121
32968,16292,32021
32960,16286,32111
33000,16300,31813
33060,16365,32108
33060,16340,32030
33032,16376,32071
33016,16360,32036
32956,16362,32135
32912,16310,32044
32944,16277,32142
33022,16278,31800
33016,16287,31897
32968,16295,31998
33000,16316,32028
32988,16366,31970
32954,16382,32069
32933,16332,32054
32884,16332,32063
32900,16317,32043
32952,16299,32085
33000,16257,32104
33020,16268,32068
33036,16297,32028
33032,16301,32143
33016,16349,32135
32941,16342,32155
32880,16329,32181
32864,16334,32182
32832,16302,31977
32856,16271,32319
32920,16261,32263
32950,16287,32383
32968,16268,32296
32978,16302,32205
32992,16345,32241
32944,16327,32125
32892,16333,32303
32864,16332,32182
32872,16321,32348
32908,16257,32381
32928,16252,32500
32938,16268,32479
32928,16285,32550
32916,16344,32665
32904,16317,32634
32864,16337,32668
32816,16331,32440
32788,16324,32647
32791,16308,32764
32828,16257,32744
32880,16263,32716
32948,16273,32677
32960,16314,32728
32953,16279,32741
32976,16330,32649
32932,16343,32931
32888,16315,32927
32864,16306,33050
32837,16310,32980
32888,16267,33084
32944,16279,33022
32956,16250,33132
32956,16260,33073
32972,16292,33196
32916,16352,33086
32832,16314,33013
32768,16309,32877
32773,16321,33127
32780,16291,33080
32828,16267,33183
32908,16236,33204
32925,16242,33259
33005,16255,33367
33012,16283,33285
32942,16332,33415
32881,16307,33333
32804,16321,33344
32796,16311,33312
32780,16329,33277
32812,16236,33346
32872,16230,33423
32872,16260,33439
32856,16253,33532
32872,16265,33445
32828,16297,33423
32760,16313,33455
32704,16308,33605
32680,16307,33246
32680,16265,33649
32736,16245,33528
32800,16224,33373
32858,16248,33671
32836,16269,33604
32828,16276,33562
32776,16308,33564
32768,16331,33543
32746,16290,33564
32744,16306,33407
32784,16271,33560
32832,16249,33582
32884,16268,33572
32958,16222,33621
33004,16255,33629
33044,16263,33703
33004,16314,33732
32943,16292,33655
32884,16293,33620
32862,16321,33501
32864,16262,33862
32884,16229,33799
32916,16241,33858
32944,16219,33817
32969,16236,33900
33008,16261,33812
32948,16303,33772
32872,16291,33753
32856,16292,33685
32788,16281,33701
32785,16268,33558
32848,16218,33939
32932,16219,33705
33008,16247,33628
33036,16225,33900
33036,16258,33717
32972,16320,33876
32940,16281,33975
32873,16270,33885
32876,16276,33997
32869,16263,33905
32890,16237,33911
32964,16197,33892
33020,16215,33967
33021,16236,33940
33024,16239,34033
33032,16273,33918
33014,16291,34039
32940,16298,33940
32876,16263,33865
32844,16255,33857
32900,16238,33944
32972,16192,34033
33042,16212,33949
33076,16228,33869
33076,16233,33964
33046,16271,33991
