ECG,EDA,RR
30860,26631,26812
30908,26633,26809
30916,26696,26913
30940,26789,26891
31012,26872,26909
31016,26925,26949
31012,26917,26909
31024,26853,26842
31044,26760,26972
31014,26678,26957
31044,26620,27009
31081,26628,27004
31112,26697,26916
31125,26788,26968
31148,26871,27085
31137,26930,27084
31152,26919,27133
31128,26855,27044
31120,26765,27023
31148,26674,27094
31192,26625,27121
31228,26631,27190
31264,26695,27207
31304,26786,27177
31340,26868,27119
31360,26923,27258
31380,26920,27271
31380,26853,27307
31377,26765,27313
31384,26682,27320
31412,26624,27311
31470,26631,27316
31500,26695,27365
31540,26777,27392
31576,26868,27415
31558,26917,27417
31552,26917,27423
31520,26857,27389
31476,26769,27433
31424,26661,27300
31441,26623,27304
31456,26625,27390
31476,26682,27421
31488,26785,27484
31528,26868,27487
31552,26924,27489
31568,26922,27453
31584,26857,27519
31584,26770,27529
31568,26677,27491
31590,26622,27495
31648,26631,27504
31680,26692,27524
31732,26783,27514
31776,26868,27516
31768,26924,27532
31736,26920,27553
31701,26860,27548
31697,26766,27566
31672,26677,27487
31684,26626,27489
31680,26626,27487
31720,26692,27457
31788,26783,27468
31824,26874,27428
31832,26920,27482
31808,26917,27480
31810,26853,27476
31800,26764,27436
31816,26681,27500
31812,26629,27483
31832,26631,27480
31884,26687,27484
31908,26775,27521
31920,26869,27461
31961,26917,27474
31953,26916,27486
31965,26852,27609
31960,26767,27638
31949,26684,27620
31940,26631,27549
31980,26624,27529
32020,26684,27550
32064,26781,27628
32070,26862,27725
32088,26916,27729
32088,26919,27746
32100,26857,27760
32081,26769,27772
32076,26679,27796
32092,26621,27807
32100,26628,27821
32128,26689,27840
32154,26772,27848
32169,26865,27875
32192,26919,27885
32184,26911,27872
32172,26855,27904
32160,26760,27935
32164,26684,27973
32200,26631,27994
32222,26628,28001
32268,26682,27964
32332,26773,27988
32352,26861,27957
32396,26916,27976
32416,26912,28072
32405,26855,28176
32412,26760,28214
32408,26672,28185
32428,26622,28226
32476,26621,28250
32484,26684,28277
32568,26768,28285
32596,26857,28301
32572,26913,28328
32512,26918,28397
32492,26853,28456
32464,26767,28416
32408,26665,28449
32396,26623,28409
32438,26629,28392
32460,26682,28528
32452,26773,28545
32412,26854,28647
32404,26906,28644
32412,26908,28656
32413,26852,28737
32364,26758,28781
32376,26671,28736
32417,26618,28729
32460,26623,28764
32497,26677,28800
32521,26761,28959
32584,26853,28980
32584,26909,29012
32552,26919,28920
32521,26855,28909
32536,26764,29026
32548,26676,29137
32576,26617,29110
32596,26612,29207
32664,26677,29239
32744,26759,29158
32732,26853,29172
32688,26904,29173
32654,26909,29372
32608,26852,29393
32576,26761,29433
32542,26668,29470
32544,26612,29496
32568,26612,29379
32560,26667,29423
32608,26759,29513
32645,26847,29630
32648,26897,29671
32668,26905,29680
32644,26844,29607
32640,26760,29608
32628,26671,29646
32644,26615,29707
32696,26613,29744
32740,26663,29792
32804,26754,29817
32772,26842,29988
32756,26898,30024
32772,26908,30080
32744,26848,29997
32725,26767,30005
32713,26671,30049
32732,26609,30255
32752,26604,30292
32768,26669,30338
32796,26751,30376
32804,26843,30386
32832,26895,30393
32836,26887,30493
32848,26845,30569
32840,26758,30592
32840,26662,30669
32838,26604,30673
32884,26604,30753
32936,26661,30687
32925,26755,30696
32924,26841,30774
32904,26897,30940
32884,26903,30976
32884,26847,30936
32864,26748,31079
32878,26663,31005
32884,26607,31022
32917,26607,31088
32936,26668,31236
32964,26751,31213
32992,26840,31388
32996,26892,31345
33000,26903,31324
32988,26845,31360
32960,26759,31560
32924,26669,31516
32864,26612,31637
32757,26613,31567
32600,26665,31777
32448,26748,31804
32444,26838,31818
32676,26901,31952
33100,26901,31956
33630,26845,32041
34232,26758,32060
34860,26669,32007
35468,26612,32063
36150,26605,32288
36728,26671,32345
36960,26749,32420
37113,26853,32359
36989,26905,32543
36368,26910,32553
35428,26848,32538
34336,26769,32585
32820,26688,32652
30432,26628,32704
27748,26629,32785
26364,26693,33024
27132,26783,33063
28580,26863,33064
29877,26892,33224
30894,26911,33223
31738,26848,33269
32392,26760,33313
32805,26668,33396
33104,26616,33453
33312,26612,33509
33372,26671,33612
33432,26759,33697
33505,26851,33768
33525,26902,33840
33528,26911,33871
33457,26852,34144
33373,26767,34133
33388,26673,34177
33388,26624,34244
33421,26621,34468
33448,26677,34460
33517,26759,34407
33520,26848,34480
33532,26908,34558
33552,26919,34758
33536,26861,34861
33540,26770,34880
33504,26677,34853
33528,26622,34916
33580,26620,34923
33616,26669,34980
33580,26766,35018
33568,26853,35040
33592,26912,35089
33596,26916,35140
33552,26861,35193
33500,26777,35310
33504,26684,35400
33488,26631,35460
33524,26620,35518
33544,26684,35699
33612,26773,35768
33632,26857,35868
33616,26913,35925
33608,26917,35936
33616,26865,36084
33560,26782,36143
33516,26686,36088
33512,26628,36154
33540,26629,36263
33544,26689,36349
33565,26767,36294
33580,26862,36349
33588,26917,36404
33568,26922,36372
33584,26866,36645
33596,26786,36624
33608,26695,36820
33612,26644,36889
33664,26631,36900
33728,26686,36980
33788,26779,37028
33832,26869,37111
33880,26931,36999
33880,26930,36946
33884,26876,37223
33912,26791,37252
33912,26697,37268
33956,26646,37240
34004,26637,37287
34072,26697,37502
34145,26775,37562
34180,26871,37477
34228,26928,37471
34272,26932,37625
34308,26887,37667
34372,26785,37696
34412,26711,37724
34456,26653,37753
34488,26646,37789
34504,26694,37860
34572,26787,37880
34608,26881,37908
34636,26928,37948
34653,26947,37727
34644,26887,38014
34640,26801,38034
34685,26709,38078
34732,26652,38085
34772,26647,38092
34856,26698,38023
34912,26789,38063
34992,26887,38100
35041,26938,38188
35080,26952,38156
35104,26900,38204
35140,26808,38228
35172,26720,38396
35192,26660,38407
35241,26654,38397
35288,26717,38428
35368,26799,38504
35404,26887,38580
35436,26949,38577
35444,26957,38661
35428,26908,38624
35456,26817,38572
35492,26720,38724
35588,26669,38724
35600,26668,38743
35640,26710,38761
35674,26811,38836
35728,26897,38880
35680,26953,38999
35648,26972,38945
35609,26904,38812
35536,26828,39133
35492,26732,39169
35500,26679,39208
35492,26669,39257
35456,26714,39216
35428,26808,39329
35352,26903,39431
35248,26966,39516
35126,26965,39660
34988,26925,39662
34838,26836,39604
34664,26745,39668
34480,26692,39768
34332,26676,39829
34152,26735,39951
33988,26821,39957
33776,26917,40109
33548,26973,40164
33332,26981,40280
33116,26924,40327
32888,26839,40327
32632,26758,40353
32412,26694,40196
32228,26688,40518
32057,26736,40565
31905,26825,40559
31744,26916,40676
31584,26983,40679
31448,26986,40836
31300,26943,41020
31116,26855,41076
31004,26764,41122
30865,26704,41222
30766,26690,41181
30684,26749,41246
30620,26829,41420
30564,26932,41500
30488,26981,41568
30452,26992,41633
30408,26942,41692
30388,26857,41771
30369,26770,41812
30392,26711,41780
30460,26695,41719
30500,26749,41560
30508,26836,41970
30534,26929,42044
30472,26991,42100
30428,27003,42160
30432,26952,42200
30428,26870,42008
30396,26772,42041
30380,26717,42399
30388,26703,42494
30380,26760,42247
30408,26841,42253
30440,26935,42500
30480,26996,42623
30548,27009,42805
30564,26964,42748
30612,26869,42897
30632,26781,42981
30684,26716,42956
30760,26708,42909
30804,26759,43010
30840,26842,42996
30884,26940,42984
30920,27004,43164
30932,27006,43406
30926,26956,43156
30876,26871,43264
30854,26785,43400
30908,26718,43388
30944,26708,43756
30944,26761,43813
30941,26845,43871
30960,26941,43937
30980,26999,44015
30989,27013,44082
31036,26965,44132
31088,26876,44116
31057,26784,44180
31088,26724,44262
31092,26716,44396
31112,26762,44448
31146,26848,44530
31188,26949,44580
31236,27012,44630
31236,27014,44549
31268,26968,44496
31269,26885,44628
31300,26789,44773
31356,26725,44869
31393,26717,44928
31424,26767,44996
31472,26849,44773
31520,26944,44806
31538,27010,44956
31544,27015,45012
31528,26969,45180
31524,26887,45245
31540,26788,45239
31516,26729,45311
31568,26717,45364
31608,26760,45368
31648,26848,45377
31640,26943,45447
31632,27012,45509
31633,27018,45524
31600,26968,45561
31584,26887,45560
31600,26786,45597
31618,26733,45575
31644,26721,45537
31648,26764,45569
31677,26852,45581
31716,26945,45676
31748,27015,45708
31728,27020,45428
31672,26968,45492
31660,26887,45530
31684,26789,45488
31716,26735,45463
31748,26714,45447
31764,26768,45601
31800,26852,45628
31824,26945,45568
31820,27009,45660
31857,27015,45637
31840,26972,45540
31860,26893,45590
31848,26796,45607
31853,26725,45632
31865,26724,45609
31888,26771,45575
31902,26848,45252
31912,26948,45224
31924,27015,45249
31912,27022,45172
31918,26974,45149
31912,26889,45128
31904,26797,45103
31908,26740,45191
31944,26725,45164
31988,26766,45151
32040,26855,45181
32036,26946,45156
32052,27012,45120
32016,27023,45063
32020,26978,44967
32052,26897,44969
32040,26793,44953
32056,26735,44868
32110,26720,44830
32148,26770,44567
32176,26859,44404
32180,26951,44340
32173,27012,44296
32128,27020,44345
32096,26981,44288
32088,26897,44212
32048,26797,44239
32044,26735,44120
32016,26722,44078
32064,26775,44039
32056,26853,43948
32088,26948,43807
32121,27012,43777
32120,27017,43717
32096,26981,43584
32068,26896,43518
32104,26798,43488
32116,26734,43381
32132,26719,42972
32168,26764,42972
32200,26852,42937
32217,26944,42823
32252,27009,42725
32296,27023,42612
32292,26972,42705
32284,26894,42645
32284,26794,42519
32286,26733,42500
32268,26726,42420
32256,26770,42340
32280,26847,42205
32312,26942,41991
32308,27004,41804
32284,27020,41525
32284,26975,41798
32292,26892,41708
32252,26797,41629
32248,26733,41525
32268,26722,41439
32308,26756,41348
32321,26851,41292
32336,26943,41184
32352,27003,41101
32360,27020,41004
32365,26973,40936
32348,26895,40888
32350,26791,40815
32377,26725,40743
32396,26715,40400
32392,26759,40583
32428,26847,40532
32432,26929,40438
32408,27004,40360
32388,27014,40288
32388,26975,40160
32392,26887,40181
32372,26791,40064
32412,26727,39973
32424,26713,40004
32444,26751,39943
32470,26838,39862
32488,26929,39778
32480,26997,39722
32472,27012,39815
32440,26970,39673
32412,26885,39525
32400,26789,39445
32392,26725,39257
32388,26706,39121
32404,26749,39108
32448,26829,39311
32468,26931,39236
32488,26999,39172
32480,27005,39119
32480,26964,39050
32472,26876,38988
32444,26783,38910
32460,26724,38847
32496,26707,38508
32536,26740,38663
32588,26832,38645
32592,26924,38639
32624,26981,38580
32632,27005,38500
32576,26962,38333
32489,26876,38194
32304,26784,38105
32056,26708,38108
31900,26692,38081
32080,26741,37972
32615,26820,37817
33244,26917,37767
33912,26978,37689
34528,26993,37686
35157,26952,37649
35828,26864,37567
36432,26770,37526
36820,26716,37471
37057,26689,37401
37120,26732,37071
36516,26825,37044
35444,26917,37140
34288,26986,37184
33064,27001,36949
30838,26964,36980
27833,26884,36816
25812,26793,36864
26021,26717,36716
27456,26697,36660
28872,26732,36684
30072,26817,36625
31160,26905,36332
31908,26964,36376
32392,26989,36398
32720,26938,36359
32884,26855,36375
32938,26760,36359
33012,26697,36340
33092,26678,36124
33144,26719,36169
33200,26798,36152
33272,26895,35988
33296,26959,36026
33320,26976,36086
33332,26931,35996
33313,26849,35874
33324,26759,35940
33292,26689,35868
33292,26669,35900
33320,26709,35870
33344,26793,35864
33340,26885,35813
33328,26953,35798
33348,26967,35777
33341,26928,35748
33312,26842,35708
33320,26745,35532
33388,26682,35500
33396,26660,35452
33406,26700,35412
33428,26780,35615
33424,26877,35572
33440,26946,35573
33460,26965,35569
33424,26917,35548
33414,26836,35524
33416,26734,35534
33396,26676,35528
33392,26652,35504
33452,26695,35476
33456,26769,35468
33508,26860,35394
33496,26937,35455
33488,26956,35510
33472,26908,35500
33464,26831,35505
33444,26728,35517
33440,26660,35312
33452,26643,35297
33504,26680,35371
33556,26767,35412
33600,26853,35372
33612,26926,35364
33612,26943,35324
33620,26903,35357
33633,26817,35320
33648,26727,35268
33644,26655,35252
33668,26631,35364
33713,26673,35506
33732,26752,35335
33800,26843,35317
33808,26919,35384
33848,26934,35418
33865,26889,35416
33872,26809,35398
33900,26720,35392
33944,26644,35361
33980,26623,35353
34000,26662,35364
34052,26745,35343
34100,26836,35311
34148,26904,35327
34201,26924,35076
34240,26884,35116
34316,26801,35161
34360,26700,35264
34413,26631,35108
34464,26608,35142
34504,26652,35144
34576,26733,35144
34636,26822,35113
34673,26895,34894
34720,26916,34893
34792,26868,34793
34812,26789,34788
34860,26695,34940
34896,26620,34913
34980,26598,34873
35052,26638,34626
35100,26721,34599
35184,26807,34588
35256,26880,34584
35280,26904,34532
35280,26862,34533
35296,26780,34625
35304,26687,34567
35332,26618,34404
35416,26591,34415
35480,26623,34368
35512,26713,34413
35564,26804,34191
35620,26871,34183
35657,26894,34176
35696,26852,34212
35672,26774,34186
35652,26677,34162
35652,26601,34164
35664,26580,34085
35700,26615,34110
35732,26700,34020
35756,26790,33927
35728,26861,33866
35704,26884,33852
35652,26846,33856
35572,26758,33865
35516,26671,33657
35461,26590,33584
35420,26566,33568
35352,26607,33665
35264,26688,33641
35160,26787,33582
35000,26847,33636
34801,26877,33543
34628,26840,33460
34392,26755,33472
34196,26663,33424
34012,26587,33316
33828,26564,33306
33624,26599,33260
33420,26681,33223
33153,26780,33189
32936,26848,33236
32704,26863,33228
32452,26828,33017
32212,26750,33153
31996,26653,33125
31816,26580,32919
31644,26559,32880
31456,26588,32951
31344,26671,32901
31240,26764,32877
31080,26836,32895
30944,26857,32853
30796,26821,32828
30692,26742,32807
30604,26640,32765
30532,26570,32728
30508,26540,32646
30472,26580,32642
30436,26661,32604
30436,26750,32448
30444,26828,32460
30420,26847,32473
30396,26812,32252
30381,26722,32224
30368,26631,32231
30380,26565,32166
30400,26535,32108
30436,26572,32058
30468,26651,32105
30508,26745,32145
30540,26811,32013
30544,26832,31935
30544,26801,31970
30608,26715,31956
30645,26614,31927
30668,26544,31886
30700,26525,31852
30770,26556,31801
30816,26631,31617
30864,26724,31588
30908,26800,31532
30912,26824,31487
30940,26786,31519
30936,26703,31558
30976,26604,31397
30984,26532,31354
30980,26503,31332
31040,26549,31288
31101,26625,31276
31156,26724,31239
31172,26791,31373
31204,26810,31230
31204,26772,31204
31204,26695,31159
31234,26594,31264
31280,26522,31116
31354,26498,31081
31390,26521,31053
31432,26612,31051
31452,26699,31140
31516,26774,31120
31536,26796,30969
31540,26765,31078
31520,26676,30930
31520,26584,31044
31512,26516,31028
31553,26481,30844
31576,26521,30935
31613,26596,30974
31660,26692,30910
31672,26760,30844
31700,26790,30815
31710,26758,30786
31672,26671,30784
31672,26576,30821
31686,26500,30826
31716,26476,30830
31740,26509,30812
31748,26580,30803
31816,26679,30778
31818,26745,30757
31808,26777,30741
31804,26743,30728
31800,26661,30556
31812,26563,30536
31816,26489,30530
31860,26460,30529
31868,26493,30516
31900,26578,30646
31904,26668,30508
31904,26737,30612
31892,26765,30602
31876,26734,30574
31836,26640,30559
31836,26552,30531
31844,26481,30447
31838,26444,30428
31848,26482,30447
31900,26564,30497
31926,26653,30423
31904,26727,30317
31916,26757,30336
31916,26723,30289
31928,26639,30292
31936,26541,30404
31964,26468,30304
31980,26443,30356
32008,26473,30200
32052,26548,30212
32064,26644,30352
32084,26712,30327
32044,26737,30303
32048,26710,30272
32028,26628,30212
32036,26542,30222
32036,26469,30224
32088,26428,30267
32112,26468,30102
32140,26534,30133
32192,26631,30233
32224,26703,30173
32244,26729,30172
32224,26695,30207
32252,26617,30172
32244,26527,30166
32248,26455,30069
32244,26420,29981
32280,26450,29984
32312,26533,29980
32316,26620,29972
32336,26692,29959
32304,26716,29951
32276,26689,29927
32309,26608,29871
32320,26514,29910
32340,26440,29906
32388,26412,29858
32388,26443,29849
32404,26515,29756
32432,26611,29774
32396,26692,29759
32360,26719,29727
32317,26676,29703
32292,26605,29776
32320,26509,29749
32320,26433,29644
32333,26401,29633
32360,26427,29722
32381,26509,29581
32405,26598,29575
32404,26681,29561
32426,26700,29559
32412,26672,29524
32396,26592,29509
32400,26494,29550
32444,26423,29456
32460,26389,29488
32500,26429,29556
32512,26503,29505
32568,26593,29495
32600,26669,29407
32602,26701,29480
32608,26663,29284
32656,26586,29287
32644,26496,29289
32640,26423,29373
32630,26385,29271
32604,26413,29343
32584,26494,29189
32592,26589,29176
32592,26661,29173
32576,26693,29235
32556,26655,29208
32512,26581,29178
32492,26487,29117
32533,26406,29098
32544,26381,29100
32557,26408,29092
32602,26484,29029
32633,26576,29022
32616,26655,28887
32616,26686,29022
32580,26652,28977
32570,26572,28908
32572,26477,28949
32560,26407,28838
32604,26366,28749
32653,26404,28772
32664,26481,28784
32679,26571,28863
32672,26640,28852
32648,26676,28833
32624,26647,28797
32608,26561,28730
32617,26470,28716
32648,26392,28741
32696,26365,28778
32761,26388,28742
32772,26465,28581
32772,26562,28564
32768,26639,28572
32768,26660,28716
32772,26631,28685
32764,26556,28676
32721,26463,28647
32729,26397,28620
32774,26352,28607
32772,26385,28615
32808,26457,28626
32844,26553,28615
32864,26624,28593
32844,26660,28537
32828,26623,28533
32820,26553,28508
32800,26463,28484
32820,26382,28514
32832,26345,28500
32816,26372,28461
32856,26453,28388
32880,26551,28297
32844,26621,28316
32724,26657,28333
32544,26616,28420
32308,26543,28382
32264,26452,28376
32456,26375,28320
32860,26343,28284
33436,26372,28224
34104,26447,28360
34828,26539,28303
35480,26619,28348
36106,26648,28220
36672,26615,28166
36908,26553,28229
36960,26447,28332
36940,26367,28316
36432,26345,28303
35548,26370,28290
34468,26449,28260
33152,26550,28244
30996,26618,28316
28180,26669,28297
26320,26629,28280
26664,26549,28312
28024,26457,28309
29376,26370,28292
30476,26336,28290
31452,26359,28261
32296,26435,28196
32782,26527,28276
33096,26601,28380
33264,26629,28377
33304,26600,28360
33368,26528,28402
33428,26439,28255
33436,26354,28375
33421,26324,28342
33456,26347,28344
33488,26429,28412
33556,26519,28365
33540,26596,28266
33577,26622,28317
33584,26596,28428
33552,26521,28375
33573,26431,28393
33558,26345,28393
33568,26323,28283
33584,26341,28419
33616,26420,28329
33644,26518,28349
33633,26591,28217
33620,26622,28368
33600,26591,28276
33553,26513,28220
33516,26423,28225
33540,26349,28305
33556,26308,28269
33541,26340,28202
33540,26416,28183
33568,26505,28149
33569,26587,28229
33578,26617,28164
33556,26592,28167
33524,26514,28192
33524,26409,28039
33508,26343,28037
33572,26308,28096
33564,26339,28130
33596,26409,28088
33632,26503,28136
33656,26573,28020
33685,26607,28006
33676,26581,28118
33600,26509,28081
33600,26419,28041
33632,26328,28044
33653,26305,28033
33712,26321,28023
33736,26401,28005
33785,26496,28076
33840,26567,27906
33840,26601,27924
33863,26572,27912
33868,26497,27968
33888,26404,28031
33928,26328,27998
33976,26289,27961
34028,26327,27996
34108,26395,27973
34164,26492,27890
34180,26567,27847
34192,26597,27800
34224,26573,27855
34236,26496,27832
34224,26407,27804
34284,26324,27840
34324,26291,27839
34364,26318,27863
34412,26389,27898
34452,26485,27895
34536,26564,27875
34580,26598,27836
34620,26575,27849
34638,26493,27837
34637,26399,27805
34652,26326,27804
34741,26284,27759
34824,26309,27716
34872,26388,27686
34964,26479,27688
35020,26550,27720
35044,26591,27636
35076,26561,27568
35086,26482,27533
35164,26401,27478
35180,26318,27625
35236,26280,27589
35248,26309,27504
35312,26383,27535
35368,26473,27540
35448,26561,27492
35484,26588,27484
35552,26560,27463
35600,26485,27449
35633,26389,27412
35676,26304,27412
35732,26273,27409
35812,26304,27364
35880,26375,27269
35908,26468,27232
35948,26556,27236
35980,26587,27316
36004,26554,27367
36000,26479,27325
35972,26387,27313
35952,26308,27313
35956,26278,27377
35940,26295,27296
35924,26375,27229
35912,26465,27284
35864,26553,27393
35804,26584,27348
35736,26557,27358
35620,26479,27359
35508,26393,27316
35405,26309,27459
35296,26272,27426
35188,26296,27485
35080,26369,27372
34900,26465,27410
34753,26547,27446
34549,26574,27490
34360,26548,27567
34116,26479,27541
33944,26380,27617
33724,26307,27580
33534,26275,27508
33304,26301,27615
33124,26372,27676
32937,26465,27681
32736,26545,27760
32497,26574,27660
32292,26556,27680
32080,26477,27833
31888,26391,27834
31728,26311,27805
31544,26273,27872
31416,26292,27904
31296,26367,27762
31220,26464,27940
31137,26541,27935
31024,26582,27951
30928,26552,27925
30840,26479,27911
30752,26385,28016
30748,26296,27986
30720,26273,28052
30744,26293,27973
30788,26358,27943
30784,26461,27985
30756,26541,28122
30792,26570,28079
30756,26549,28116
30762,26471,28005
30764,26375,28063
30728,26302,28176
30770,26255,28153
30808,26282,28124
30828,26358,28192
30865,26450,28045
30896,26535,28076
30912,26557,28151
30893,26540,28208
30896,26469,28250
30921,26373,28124
30936,26293,28157
30944,26263,28260
30992,26276,28214
31024,26349,28288
31072,26452,28160
31084,26528,28170
31164,26567,28224
31140,26536,28340
31096,26466,28351
31124,26370,28361
31128,26295,28361
31165,26250,28343
31220,26278,28323
31272,26351,28350
31306,26444,28388
31272,26526,28378
31328,26550,28447
31276,26536,28423
31264,26467,28353
31316,26367,28333
31296,26286,28397
31313,26248,28437
31408,26270,28530
31465,26343,28527
31512,26443,28480
31500,26521,28532
31460,26556,28612
31520,26532,28517
31508,26460,28469
31496,26364,28533
31540,26280,28609
31556,26246,28702
31612,26269,28716
31585,26341,28737
31624,26444,28703
31660,26520,28759
31684,26555,28807
31640,26528,28745
31660,26459,28741
31653,26365,28823
31668,26281,28976
31716,26247,28992
31749,26264,28985
31776,26336,28995
31816,26436,29012
31804,26513,29055
31764,26557,29104
31800,26532,29200
31776,26454,29197
31788,26360,29179
31784,26284,29265
31724,26244,29308
31772,26269,29252
31784,26340,29392
31840,26430,29413
31892,26515,29323
31876,26548,29354
31846,26530,29463
31836,26457,29536
31825,26365,29622
31788,26279,29666
31822,26240,29559
31852,26260,29625
31860,26340,29679
31868,26431,29847
31841,26509,29872
31880,26547,29845
31844,26532,29928
31817,26453,30035
31812,26356,29933
31808,26277,30010
31820,26246,30185
31848,26260,30161
31876,26334,30264
31884,26425,30299
31916,26507,30343
31884,26551,30428
31900,26526,30340
31893,26452,30373
31892,26364,30459
31876,26285,30649
31920,26239,30644
31944,26261,30740
31944,26336,30821
31920,26431,30692
31988,26503,30780
31952,26550,30944
31916,26525,30952
31916,26454,30942
31952,26356,31108
31948,26289,31076
31960,26244,31072
31960,26253,31055
31992,26332,31111
32072,26431,31148
32092,26503,31354
32064,26551,31404
32076,26527,31337
32044,26456,31327
32080,26356,31533
32076,26283,31552
32106,26232,31529
32156,26260,31527
32169,26332,31598
32180,26430,31729
32149,26506,31684
32144,26551,31751
32180,26527,31663
32178,26460,31688
32176,26359,31759
32212,26282,31792
32196,26243,31953
32329,26269,31844
32340,26343,32021
32332,26428,32028
32340,26508,32101
32272,26551,31960
32216,26535,32156
32176,26455,32161
32153,26361,32110
32172,26284,32189
32200,26245,32308
32228,26260,32319
32278,26328,32334
32284,26433,32341
32260,26518,32303
32336,26557,32354
32388,26529,32482
32388,26454,32487
32372,26365,32400
32456,26287,32436
32492,26247,32481
32508,26267,32519
32540,26338,32588
32568,26437,32536
32584,26513,32572
32608,26550,32580
32608,26536,32784
32604,26465,32758
32625,26373,32729
32604,26280,32888
32618,26243,32905
32576,26265,32799
32548,26340,32772
32576,26433,32813
32565,26513,32812
32540,26552,32989
32504,26532,32952
32504,26464,32929
32496,26367,33093
32488,26293,32924
32480,26253,33100
32532,26260,33094
32524,26342,33028
32532,26436,33024
32532,26512,33040
32485,26550,33188
32508,26537,33145
32532,26469,33045
32516,26368,33047
32504,26294,33060
32544,26249,33230
32516,26272,33236
32520,26333,33225
32541,26433,33245
32536,26519,33233
32544,26555,33226
32532,26535,33188
32485,26467,33337
32520,26375,33343
32506,26292,33300
32524,26253,33287
32509,26265,33220
32580,26344,33204
32586,26436,33188
32652,26520,33214
32672,26556,33220
32672,26540,33200
32580,26471,33397
32588,26373,33388
32604,26295,33349
32681,26252,33393
32664,26268,33364
32672,26340,33303
32704,26445,33368
32732,26519,33312
32732,26564,33436
32720,26540,33350
32718,26473,33268
32728,26383,33312
32708,26301,33420
32700,26258,33391
32748,26269,33367
32789,26344,33396
32800,26445,33316
32816,26524,33262
32748,26567,33409
32548,26551,33403
32328,26477,33383
32224,26387,33280
32373,26304,33316
32672,26263,33425
33184,26276,33346
33804,26348,33240
34496,26449,33243
35112,26524,33317
35632,26567,33323
36100,26548,33220
36348,26479,33192
36336,26393,33366
36380,26309,33356
36064,26276,33351
35400,26296,33285
34433,26362,33221
33344,26460,33330
31456,26540,33351
28780,26587,33344
26540,26573,33320
26325,26506,33271
27613,26405,33176
29017,26317,33129
30262,26270,33276
31316,26285,33232
32136,26356,33284
32652,26445,33103
32944,26535,33241
33172,26569,33216
33256,26556,33175
33308,26493,33116
33352,26396,33204
33352,26311,33013
33372,26273,33060
33360,26281,33052
33396,26356,33031
33404,26450,32994
33437,26528,32940
33460,26578,32900
33477,26558,32884
33460,26490,33044
33456,26397,32909
33444,26316,32927
33452,26276,33008
33460,26285,32816
33496,26348,32791
33556,26453,32929
33549,26536,32921
33564,26580,32732
33621,26564,32693
33592,26495,32830
33560,26405,32808
33564,26316,32764
33604,26272,32628
33624,26292,32578
33660,26357,32732
33676,26453,32712
33676,26537,32695
33672,26583,32676
33632,26561,32634
33584,26500,32632
33556,26407,32604
33576,26322,32582
33544,26284,32564
33516,26292,32532
33536,26364,32532
33544,26458,32344
33516,26537,32324
33536,26583,32460
33548,26565,32469
33536,26502,32440
33524,26409,32341
33549,26324,32372
33548,26286,32356
33600,26295,32328
33632,26360,32223
33704,26455,32279
33752,26540,32255
33792,26585,32156
33804,26567,32229
33784,26498,32233
33784,26408,32193
33804,26324,32069
33816,26279,32029
33845,26293,31997
33928,26367,32004
34020,26461,32025
34076,26540,32007
34088,26585,31916
34088,26565,31952
34116,26501,31891
34164,26407,31863
34184,26324,31851
34208,26276,31812
34244,26294,31756
34316,26365,31697
34376,26459,31684
34420,26537,31639
34504,26582,31588
34532,26571,31372
34516,26517,31317
34592,26414,31276
34624,26333,31262
34672,26287,31181
34749,26296,31132
34820,26364,31061
34888,26461,31033
34940,26543,31133
34990,26589,31087
35060,26574,30964
35048,26511,30948
35101,26412,30815
35128,26337,30737
35200,26292,30663
35273,26294,30599
35332,26371,30572
35408,26465,30532
35468,26543,30632
35532,26592,30581
35512,26574,30541
35552,26517,30493
35596,26416,30444
35604,26339,30373
35636,26292,30327
35668,26306,30292
35720,26367,30173
35772,26465,30124
35808,26541,30204
35840,26595,30146
35848,26572,30124
35848,26509,30095
35836,26428,29950
35828,26332,29877
35788,26298,29845
35768,26311,29903
35744,26372,29901
35724,26466,29891
35728,26544,29788
35700,26595,29760
35600,26577,29782
35520,26520,29625
35428,26428,29548
35308,26340,29687
35204,26288,29664
35108,26308,29577
34972,26369,29575
34900,26469,29412
34712,26550,29409
34528,26602,29408
34340,26582,29384
34148,26519,29332
33940,26429,29290
33728,26340,29281
33520,26293,29232
33344,26307,29355
33118,26375,29349
32928,26465,29340
32744,26549,29245
32528,26599,29217
32320,26589,29257
32090,26525,29234
31876,26428,29220
31648,26341,29212
31516,26300,29100
31300,26309,29052
31160,26375,29044
31104,26468,29029
31109,26555,28972
31120,26597,29004
31086,26588,28986
31061,26515,28965
31008,26424,28933
30844,26343,28912
30784,26294,28954
30776,26309,28935
30800,26372,28916
30844,26462,28910
30952,26545,28926
31060,26597,28935
31101,26580,28967
31108,26522,28957
31044,26424,29005
30916,26332,29145
30824,26294,29164
30876,26300,29113
30916,26369,29145
30972,26462,29225
30953,26551,29143
30904,26596,29240
30864,26582,29266
30892,26521,29293
30884,26423,29309
30940,26338,29319
30988,26291,29196
30973,26301,29301
30980,26369,29281
31068,26464,29360
31172,26550,29390
31272,26590,29412
31328,26581,29393
31264,26516,29412
31200,26422,29420
31176,26340,29430
31200,26287,29447
31262,26298,29377
31292,26364,29319
31349,26455,29335
31424,26548,29316
31372,26592,29412
31325,26586,29469
31300,26516,29392
31252,26425,29487
31280,26338,29359
31281,26292,29337
31320,26294,29332
31324,26365,29340
31396,26458,29396
31396,26538,29373
31392,26593,29398
31448,26585,29462
31340,26512,29468
31396,26426,29509
31380,26333,29536
31424,26289,29572
31412,26292,29556
31472,26362,29572
31488,26444,29727
31648,26537,29660
31604,26590,29642
31652,26582,29656
31688,26521,29663
31676,26421,29722
31656,26337,29900
31612,26288,29924
31601,26293,29944
31612,26359,29911
31664,26450,29981
31741,26532,30071
31712,26583,30092
31780,26574,30140
31788,26509,30102
31712,26416,30132
31652,26333,30260
31752,26287,30268
31740,26288,30298
31788,26358,30364
31748,26447,30437
31816,26533,30471
31880,26583,30504
31928,26576,30608
31836,26509,30511
31786,26414,30570
31800,26333,30765
31808,26277,30761
31886,26286,30856
32012,26353,30804
31964,26436,30846
31964,26527,30919
32041,26576,31138
32144,26570,31202
32016,26501,31265
32128,26417,31319
32068,26327,31323
31984,26284,31380
32108,26280,31449
32166,26345,31628
32132,26437,31664
32176,26525,31604
32212,26574,31839
32184,26575,31828
32192,26503,31973
32188,26415,31920
32192,26330,31989
32169,26277,32202
32206,26281,32215
32212,26343,32386
32208,26439,32388
32224,26526,32372
32256,26573,32612
32256,26564,32684
32240,26502,32646
32228,26404,32863
32231,26324,32775
32228,26272,32832
32264,26277,33068
32272,26343,33144
32308,26437,33200
32276,26511,33257
32304,26564,33276
32264,26563,33332
32296,26496,33504
32285,26399,33644
32328,26321,33609
32344,26273,33604
32352,26278,33663
32381,26328,33703
32421,26432,33956
32545,26509,33926
32568,26563,34114
32644,26561,34221
32644,26496,34206
32604,26405,34311
32576,26313,34421
32520,26265,34495
32540,26272,34564
32564,26330,34588
32624,26423,34523
32632,26509,34583
32656,26556,34629
32652,26553,34632
32620,26493,34727
32616,26407,34988
32656,26310,34960
32632,26260,35140
32596,26263,35120
32532,26322,35172
32528,26414,35175
32488,26503,35220
32440,26551,35300
32468,26546,35421
32380,26488,35437
32356,26396,35447
32324,26305,35561
32468,26255,35620
32532,26261,35642
32496,26316,35748
32508,26408,35828
32632,26496,35800
32648,26551,35840
32660,26540,36133
32720,26481,36188
32652,26393,36256
32652,26304,36117
32676,26248,36151
32625,26247,36455
32668,26310,36535
32644,26407,36573
32764,26487,36636
32820,26544,36509
32764,26541,36615
32764,26479,36716
32672,26388,36776
32684,26294,36832
32632,26240,36869
32614,26249,36847
32644,26304,37025
32623,26396,36960
32584,26486,37037
32576,26534,37308
32536,26532,37359
32492,26476,37424
32532,26380,37417
32552,26296,37444
32513,26239,37639
32589,26240,37680
32680,26295,37745
32606,26393,37740
32724,26478,37696
32716,26532,37629
32632,26532,37618
32601,26468,37681
32524,26373,37876
32496,26288,37953
32544,26234,38036
32576,26230,38085
32560,26297,38150
32576,26389,38189
32612,26471,38244
32692,26527,38124
32716,26524,38216
32686,26461,38422
32712,26372,38309
32736,26277,38662
32692,26230,38728
32776,26225,38777
32856,26282,38846
32802,26375,38900
32736,26465,38977
32740,26514,38735
32708,26517,39089
32658,26459,39144
32712,26372,39201
32732,26275,38966
32704,26227,39092
32652,26217,39284
32668,26284,39336
32772,26372,39388
32728,26465,39469
32716,26511,39415
32716,26506,39593
32672,26454,39760
32648,26358,39788
32608,26268,39846
32680,26212,39828
32720,26216,39974
32725,26276,40028
32648,26367,40044
32485,26463,40014
32316,26511,40053
32388,26503,40028
32648,26444,39964
32974,26352,39885
33380,26264,39943
34020,26201,40065
34708,26207,40137
35316,26276,40364
35768,26357,40350
36176,26448,40494
36236,26499,40521
36168,26503,40468
35966,26448,40476
35388,26359,40421
34592,26270,40343
33577,26220,40685
32076,26216,40604
29812,26276,40748
27440,26372,40918
26192,26465,40912
26988,26511,40999
28388,26510,40956
29724,26442,40852
30720,26352,40726
31592,26252,40820
32188,26204,41052
32648,26194,41113
33040,26253,41140
33336,26340,41142
33366,26430,41177
33432,26489,41132
33400,26489,41172
33560,26428,41315
33540,26341,41351
33436,26250,41028
33464,26194,41289
33481,26196,41332
33524,26254,41341
33556,26341,41476
33628,26434,41476
33632,26485,41409
33597,26487,41469
33584,26431,41535
33497,26337,41673
33492,26242,41703
33525,26194,41700
33537,26187,41697
33496,26241,41452
33548,26341,41548
33572,26421,41512
33604,26476,41479
33588,26476,41644
33502,26423,41676
33532,26332,41520
33464,26247,41492
33520,26183,41503
33532,26180,41468
33532,26233,41464
33576,26329,41515
33596,26413,41557
33548,26473,41460
33578,26473,41631
33597,26418,41685
33532,26328,41657
33576,26240,41472
33616,26180,41264
33592,26178,41569
33728,26229,41569
33780,26321,41560
33808,26410,41556
33812,26461,41436
33792,26468,41668
33728,26412,41545
33680,26316,41428
33684,26229,41432
33728,26173,41276
33780,26164,41525
33693,26226,41536
33672,26309,41518
33784,26400,41501
33740,26461,41489
33785,26461,41479
33728,26404,41476
33744,26310,41409
33817,26231,41340
33828,26164,41397
33968,26156,41319
33960,26217,41284
34116,26300,41372
34068,26393,41372
34172,26458,41273
34216,26459,41273
34184,26392,41220
34196,26309,41193
34252,26215,41206
34252,26157,41125
34260,26151,41361
34248,26210,41116
34316,26292,40849
34396,26380,41157
34440,26444,41020
34498,26448,41095
34501,26389,41156
34412,26307,40967
34460,26212,40830
34516,26148,40711
34614,26150,40886
34692,26196,40831
34804,26295,40672
34840,26375,40785
34888,26442,40806
34932,26442,40617
34904,26386,40481
34940,26297,40229
35029,26204,40183
35072,26148,40153
35064,26142,40096
35144,26197,40356
35216,26286,40317
35284,26375,40260
35425,26431,40212
35360,26431,40144
35300,26382,39806
35480,26295,39800
35492,26207,39708
35484,26140,39863
35452,26129,39612
35468,26193,39549
35480,26284,39596
35500,26369,39773
35520,26428,39743
35492,26424,39678
35552,26372,39617
35521,26276,39538
35492,26196,39452
35436,26133,39518
35368,26135,39445
35440,26188,39358
35412,26262,39301
35312,26361,39273
35288,26420,39334
35231,26422,39262
35128,26373,39176
35000,26272,39108
34976,26189,38975
34824,26140,38724
34656,26125,38972
34540,26180,38919
34437,26265,38851
34252,26356,38717
34052,26421,38728
33948,26423,38725
33560,26366,38641
33424,26279,38652
33296,26191,38640
33036,26135,38508
32880,26119,38437
32681,26177,38388
32500,26259,38236
32352,26351,38157
32160,26413,38405
31988,26417,38368
31796,26366,38332
31672,26276,38293
31456,26184,38255
31280,26128,37954
31184,26119,38193
31093,26168,38095
31126,26256,38192
31116,26350,38088
31041,26404,37928
30960,26419,37812
30944,26367,37791
30832,26272,37664
30764,26183,37623
30808,26118,37581
30884,26113,37743
30829,26165,37639
30876,26247,37509
30892,26348,37732
30884,26406,37692
30816,26413,37657
30740,26357,37596
30764,26266,37541
30664,26174,37429
30644,26116,37590
30686,26111,37505
30744,26167,37328
30764,26247,37318
30872,26343,37192
30884,26398,37119
31013,26404,37244
31024,26356,37325
31040,26271,37292
30996,26175,37320
30972,26092,37272
30992,26105,37199
31024,26153,37136
31018,26240,37221
31009,26328,37213
31118,26390,37156
31172,26402,37103
31236,26343,37017
31208,26260,36991
31260,26168,36938
31264,26108,36935
31272,26098,36908
31292,26151,36948
31348,26232,36893
31384,26332,36882
31344,26393,36871
31423,26399,36972
31392,26345,37036
31412,26260,36999
31393,26164,37028
31408,26106,36844
31433,26099,36804
31476,26149,36900
31484,26225,36900
31626,26325,36905
31636,26391,36896
31716,26395,36885
31748,26346,36630
31685,26260,36637
31680,26164,36609
31656,26100,36614
31652,26089,36708
31696,26145,36728
31741,26232,36730
31736,26317,36678
31696,26384,36709
31740,26390,36696
31628,26343,36784
31688,26260,36725
31708,26149,36685
31692,26104,36591
31712,26089,36582
31828,26141,36621
31828,26226,36565
31676,26324,36804
31801,26385,36820
31804,26390,36810
31794,26341,36759
31832,26254,36692
31792,26163,36720
31800,26108,36792
31832,26093,36839
31828,26143,36712
31792,26223,36716
31952,26324,36831
31892,26383,36871
31880,26396,36721
31944,26340,36728
31936,26255,36748
31896,26165,36662
31880,26100,36732
31852,26084,36781
31884,26140,36802
32036,26221,36925
32096,26317,36901
32076,26383,36911
32092,26389,36864
32092,26343,36810
32088,26257,36903
32033,26172,36924
31944,26101,36871
32024,26087,36825
32092,26145,36861
32164,26228,36863
32212,26321,36868
32148,26382,36876
32104,26397,36640
32072,26346,36764
32036,26256,36944
32128,26172,36756
32124,26102,36884
32164,26089,36891
32225,26143,36679
32224,26221,36645
32300,26319,36652
32224,26385,36648
32384,26391,36692
32276,26345,36916
32256,26261,36908
32240,26162,36912
32192,26094,36926
32156,26085,36904
32248,26137,36908
32356,26217,36956
32244,26313,36956
32332,26375,36738
32224,26393,36772
32309,26342,36756
32308,26256,36900
32325,26163,36844
32224,26101,36773
32360,26084,36806
32352,26133,36965
32341,26221,37022
32493,26311,36985
32380,26378,36983
32449,26391,37004
32409,26340,36876
32356,26261,36908
32344,26167,37166
32360,26095,37183
32276,26087,37196
32404,26137,37220
32446,26220,37233
32544,26303,37236
32600,26383,37260
32493,26388,37317
32408,26348,37340
32398,26254,37350
32360,26162,37373
32384,26097,37399
32448,26087,37413
32400,26143,37169
32420,26214,37320
32408,26306,37420
32248,26381,37509
32380,26388,37476
32408,26342,37478
32321,26257,37568
32292,26159,37548
32256,26097,37438
32360,26082,37479
32460,26134,37519
32572,26221,37537
32556,26309,37583
32580,26374,37341
32552,26393,37592
32484,26340,37349
32461,26256,37600
32436,26160,37628
32460,26097,37607
32522,26084,37628
32608,26129,37620
32696,26215,37637
32672,26311,37364
32680,26373,37532
32620,26392,37705
32488,26340,37660
32473,26258,37688
32405,26160,37695
32433,26099,37628
32588,26085,37598
32620,26127,37624
32608,26213,37652
32608,26308,37604
32676,26373,37601
32652,26389,37568
32592,26340,37559
32604,26253,37519
32572,26165,37534
32660,26096,37547
32816,26080,37556
32789,26124,37535
32792,26206,37280
32760,26300,37469
32642,26372,37476
32744,26383,37484
32772,26340,37504
32817,26254,37593
32806,26163,37614
32777,26100,37588
32756,26080,37420
32752,26119,37492
32736,26204,37541
32700,26310,37540
32748,26365,37555
32700,26383,37308
32737,26336,37300
32756,26267,37452
32668,26163,37554
32760,26096,37589
32740,26081,37508
32836,26119,37463
32840,26200,37478
32864,26299,37476
32912,26364,37473
32924,26381,37376
32844,26341,37316
32852,26254,37471
32889,26164,37495
32929,26095,37468
32968,26079,37511
33056,26119,37436
33088,26206,37427
33012,26298,37469
33040,26369,37494
33040,26382,37608
33020,26340,37512
32896,26260,37408
32836,26164,37397
32604,26095,37573
32460,26081,37564
32644,26116,37532
32976,26201,37469
33416,26297,37446
33976,26364,37495
34568,26383,37638
35132,26336,37639
35628,26258,37609
36177,26159,37605
36408,26100,37608
36384,26084,37567
36292,26124,37499
35765,26213,37468
34964,26311,37540
33996,26387,37576
32780,26399,37492
30768,26358,37483
28245,26276,37412
26388,26186,37481
26392,26119,37541
27732,26084,37569
29336,26128,37633
30564,26212,37592
31472,26301,37580
32192,26369,37556
32760,26385,37599
33148,26345,37669
33296,26264,37638
33460,26173,37776
33504,26094,37748
33400,26085,37652
33488,26119,37461
33556,26212,37720
33640,26307,37746
33708,26374,37745
33704,26391,37732
33628,26348,37708
33624,26263,37676
33628,26170,37735
33639,26105,37757
33708,26081,37789
33799,26127,37828
33854,26204,37838
33757,26304,37848
33788,26370,37861
33784,26384,37855
33668,26350,37822
33668,26261,37791
33668,26168,37807
33724,26097,37871
33692,26076,38009
33661,26119,38049
33744,26204,38056
33821,26296,38035
33928,26367,38016
33880,26391,38059
33808,26340,38070
33716,26263,38151
33688,26167,38173
33632,26097,38088
33664,26079,38037
33680,26119,38215
33672,26211,38278
33712,26297,38317
33760,26366,38148
33748,26385,38169
33756,26344,38229
33791,26255,38303
33760,26171,38381
33752,26097,38124
33756,26076,38310
33764,26119,38239
33820,26199,38229
33872,26295,38535
33904,26370,38555
33868,26387,38492
33840,26349,38662
33864,26265,38713
33849,26173,38744
33888,26099,38716
33892,26078,38734
33888,26119,38686
34000,26200,38764
33976,26288,38735
33948,26364,38873
34116,26382,38873
34120,26348,38887
34149,26261,38766
34289,26164,38697
34304,26092,38823
34360,26076,38852
34312,26118,38868
34420,26193,38880
34400,26296,38882
34400,26359,38593
34428,26383,38767
34432,26346,38712
34332,26261,38671
34504,26171,38714
34532,26095,38812
34526,26074,38911
34624,26119,38928
34616,26206,38928
34734,26289,38961
34856,26361,38952
34856,26381,38873
34848,26341,38869
34872,26258,38816
34948,26170,38693
34924,26095,38596
35004,26074,38624
35008,26117,38596
35033,26191,38612
35140,26292,38796
35184,26361,38828
35184,26384,38868
35224,26343,38828
35192,26269,38829
35232,26170,38853
35284,26088,38884
35392,26070,38572
35388,26114,38848
35448,26193,38964
35516,26284,38838
35548,26357,38884
35588,26376,38887
35604,26349,38590
35568,26257,38791
35596,26170,38868
35544,26101,38965
35573,26071,38796
35536,26111,38872
35568,26199,38800
35577,26284,38788
35556,26364,38832
35504,26385,38871
35492,26341,38877
35424,26269,38893
35384,26166,38884
35400,26100,38900
35384,26076,38936
35300,26108,38954
35237,26190,38956
35124,26287,38965
35008,26353,38953
34864,26384,38657
34681,26351,38802
34495,26261,38932
34296,26169,38948
34168,26097,38953
34029,26072,38941
33880,26108,38906
33712,26188,38824
33448,26290,38897
33236,26364,38919
33060,26381,38785
32864,26340,38829
32616,26271,38968
32416,26169,38961
32296,26092,38935
32149,26076,38860
32000,26109,38918
31810,26191,38900
31716,26284,38861
31645,26355,38805
31496,26384,38668
31344,26345,38577
31300,26261,38701
31192,26175,38413
31092,26095,38392
31076,26064,38420
30996,26111,38540
30980,26186,38452
30964,26286,38318
30944,26360,38305
30948,26383,38246
30916,26344,38237
30968,26262,38460
30900,26168,38453
30876,26097,38396
30916,26072,38388
30945,26108,38340
30964,26187,38061
30936,26279,38186
30940,26353,38304
30944,26375,38160
30912,26346,38071
30969,26260,38031
31020,26165,38081
31040,26095,38047
31012,26066,37973
31020,26110,37956
31076,26183,37919
31136,26281,37871
31152,26347,37800
31080,26382,37677
31048,26341,37804
31032,26264,37755
31096,26170,37656
31096,26101,37516
31108,26069,37472
31144,26096,37279
31168,26183,37240
31253,26276,37437
31274,26351,37383
31244,26380,37232
31288,26345,37326
31308,26263,37270
31280,26164,37104
31208,26096,37147
31177,26067,37101
31240,26103,37049
31333,26186,37023
31391,26276,36967
31429,26351,36901
31444,26378,36833
31448,26345,36764
31432,26261,36652
31392,26167,36730
31356,26089,36740
31336,26066,36540
31404,26100,36416
31416,26182,36407
31520,26276,36340
31546,26349,36258
31612,26375,36212
31588,26349,36135
31564,26260,36069
31556,26171,35999
31564,26091,36159
31612,26069,36101
31620,26097,36053
31668,26177,35777
31672,26273,35948
31672,26349,35768
31724,26375,35868
31737,26343,35656
31680,26263,35728
31665,26167,35572
31661,26087,35649
31672,26066,35429
31716,26092,35500
31692,26182,35414
31716,26269,35434
31772,26349,35193
31792,26375,35070
31808,26337,35191
31776,26262,35100
31780,26169,34991
31784,26089,35015
31791,26056,34836
31837,26096,34665
31852,26173,34823
31848,26270,34684
31880,26338,34567
31896,26375,34572
31972,26343,34613
31912,26263,34534
31944,26165,34428
31952,26094,34223
31944,26062,34098
31936,26100,34068
31972,26172,33969
31992,26268,34092
32016,26344,34028
32012,26374,33775
31992,26340,33890
31984,26256,33821
31968,26164,33583
31984,26092,33489
32040,26060,33423
32060,26092,33533
32110,26170,33428
32152,26264,33314
32180,26343,33229
32204,26369,33287
32172,26336,33070
32144,26257,32933
32128,26161,32856
32189,26087,32815
32208,26057,32887
32184,26086,32823
32176,26165,32749
32168,26256,32677
32196,26337,32599
32192,26361,32480
32156,26329,32375
32184,26253,32391
32204,26162,32341
32228,26079,32106
32268,26053,32033
32352,26079,32132
32396,26164,32038
32428,26259,31940
32416,26333,31946
32436,26364,31876
32432,26333,31772
32392,26247,31633
32376,26152,31606
32388,26072,31503
32392,26045,31433
32413,26078,31476
32416,26153,31396
32453,26249,31329
32476,26327,31281
32470,26348,31149
32504,26320,31051
32488,26247,30962
32458,26149,30884
32448,26077,30981
32464,26043,30916
32476,26068,30836
32493,26148,30764
32496,26247,30709
32492,26324,30681
32460,26359,30520
32424,26321,30433
32420,26245,30367
32448,26149,30300
32456,26072,30236
32452,26036,30196
32468,26075,30281
32512,26144,30215
32544,26237,30149
32568,26318,30055
32552,26349,29952
32548,26317,29924
32504,26236,29877
32437,26151,29810
32412,26064,29770
32428,26031,29680
32512,26063,29574
32568,26134,29477
32597,26237,29447
32572,26304,29417
32616,26341,29344
32609,26310,29278
32560,26232,29106
32521,26135,29124
32504,26063,29037
32516,26023,28956
32564,26056,28884
32576,26134,28804
32568,26224,28661
32545,26303,28548
32520,26332,28461
32497,26306,28396
32484,26223,28245
32464,26133,28153
32448,26054,28054
32480,26016,28029
32524,26047,27969
32556,26128,27935
32564,26225,27884
32556,26296,27764
32560,26325,27663
32512,26296,27590
32480,26217,27501
32464,26126,27422
32488,26052,27348
32498,26014,27321
32508,26041,27204
32516,26119,27050
32544,26212,27000
32580,26294,26943
32548,26323,26825
32538,26298,26808
32512,26217,26816
32544,26119,26754
32592,26043,26667
32648,26005,26581
32668,26043,26516
32672,26111,26461
32656,26213,26416
32640,26284,26343
32637,26318,26271
32648,26293,26201
32665,26212,26124
32653,26112,26077
32652,26045,26020
32664,26004,25926
32704,26036,25803
32752,26112,25757
32840,26204,25740
32845,26285,25740
32804,26314,25679
32797,26291,25614
32757,26212,25531
32637,26118,25493
32452,26041,25324
32216,26005,25314
32076,26027,25328
32200,26100,25257
32492,26201,25181
32892,26278,25166
33425,26313,25030
34016,26287,24986
34656,26213,25007
35348,26118,24922
36044,26033,24852
36448,26007,24770
36588,26026,24814
36540,26114,24741
35936,26211,24652
34996,26292,24581
33900,26319,24581
32668,26300,24572
30694,26229,24520
28146,26124,24504
26188,26055,24365
26328,26012,24357
27740,26025,24388
29165,26105,24332
30304,26196,24293
31264,26277,24248
32109,26305,24176
32668,26281,24140
33024,26205,24159
33208,26108,24130
33312,26028,24068
33425,25993,23993
33538,26023,23969
33644,26087,23973
33668,26189,23932
33676,26264,23926
33684,26308,23867
33685,26269,23799
33660,26204,23825
33632,26101,23815
33616,26031,23697
33604,25988,23716
33618,26012,23720
33672,26099,23696
33724,26191,23673
33748,26266,23656
33708,26295,23637
33722,26276,23588
33696,26197,23540
33732,26099,23540
33764,26018,23505
33760,25993,23460
33732,26006,23459
33748,26092,23454
33784,26186,23456
33757,26265,23423
33716,26296,23397
33684,26272,23388
33644,26199,23401
33648,26106,23385
33624,26024,23364
33640,25985,23349
33644,26017,23351
33638,26084,23345
33653,26183,23350
33700,26256,23340
33736,26298,23310
33720,26272,23309
33740,26197,23319
33732,26097,23336
33676,26025,23343
33684,25981,23342
33697,26005,23375
33724,26084,23453
33757,26168,23476
33772,26260,23501
33754,26293,23537
33752,26272,23584
33749,26190,23628
33778,26100,23660
33856,26017,23716
33940,25988,23773
33976,25999,23788
33964,26079,23828
33964,26175,23940
34012,26250,24014
33996,26287,24118
33972,26260,24172
33956,26191,24294
33984,26092,24378
34024,26017,24466
34076,25978,24560
34141,26005,24648
34236,26076,24796
34284,26169,24847
34368,26247,24942
34416,26284,25018
34488,26263,25185
34512,26188,25378
34560,26087,25473
34580,26014,25592
34648,25968,25718
34756,26002,25838
34748,26068,25970
34784,26162,26110
34812,26246,26246
34833,26282,26375
34890,26261,26513
34912,26180,26594
34948,26089,26671
34952,26009,26848
35028,25978,27036
35120,25990,27249
35252,26062,27388
35293,26169,27509
35336,26241,27668
35400,26271,27820
35404,26256,27965
35408,26175,28102
35405,26084,28231
35424,26004,28336
35452,25969,28489
35496,26001,28638
35620,26057,28870
35656,26158,29047
35688,26239,29209
35712,26274,29365
35732,26257,29519
35656,26177,29656
35596,26084,29830
35612,26005,29988
35640,25967,30140
35688,25982,30273
35764,26069,30420
35756,26164,30569
35732,26234,30684
35684,26274,30785
35660,26260,31022
35624,26181,31111
35570,26091,31196
35596,26008,31330
35556,25969,31413
35536,25980,31505
35492,26060,31612
35384,26159,31732
35300,26234,31838
35192,26279,31956
35076,26251,32045
34885,26181,32145
34688,26088,32249
34528,26004,32500
34348,25959,32532
34116,25989,32653
33924,26062,32765
33765,26157,32692
33544,26239,32804
33332,26269,32842
33116,26249,32916
32852,26173,32966
32624,26079,33088
32428,26005,33099
32200,25964,33171
32008,25977,33412
31860,26052,33468
31704,26145,33543
31560,26225,33607
31400,26266,33612
31316,26239,33657
31206,26172,33731
31120,26072,33752
31016,25993,33940
30941,25951,33948
30892,25971,33932
30868,26039,33988
30872,26135,34012
30874,26215,34272
30856,26257,34221
30861,26235,34408
30836,26149,34407
30816,26060,34401
30788,25985,34463
30756,25943,34540
30740,25957,34607
30768,26029,34639
30812,26119,34673
30820,26207,34720
30830,26241,34814
30844,26220,34873
30828,26151,35170
30840,26057,35217
30856,25970,35247
30896,25930,35237
30941,25948,35311
30992,26017,35364
31040,26119,35432
31068,26193,35512
31124,26238,35569
31085,26210,35645
31056,26143,35844
31036,26045,35918
31032,25962,35975
31012,25927,36036
31052,25941,36087
31092,26011,36156
31120,26105,36063
31121,26189,36134
31117,26233,36180
31092,26215,36167
31064,26141,36224
31080,26037,36388
31132,25958,36468
31152,25912,36353
31192,25936,36460
31216,26004,36569
31216,26102,36622
31236,26177,36648
31264,26215,36677
31276,26205,36656
31284,26132,36604
31276,26030,36593
31253,25955,36678
31240,25911,36687
31264,25928,36729
31273,25997,36743
31342,26084,36757
31424,26172,36752
31432,26215,36534
31412,26201,36679
31376,26126,36680
31332,26024,36660
31332,25945,36648
31381,25906,36652
31416,25921,36549
31460,25984,36717
31504,26084,36690
31546,26166,36656
31576,26209,36639
31572,26187,36631
31552,26114,36565
31561,26028,36464
31580,25940,36480
31584,25898,36449
31608,25917,36389
31628,25982,36292
31652,26081,36356
31672,26158,36383
31656,26205,36319
31668,26189,36265
31616,26111,36221
31584,26017,36068
31572,25936,36021
31504,25894,35967
31544,25908,35956
31584,25979,35764
31616,26072,35684
31640,26157,35632
31704,26199,35556
31734,26181,35437
31756,26108,35428
31784,26015,35342
31744,25935,35237
31716,25893,35126
31712,25905,35052
31760,25972,35040
31772,26071,35005
31766,26146,34933
31789,26196,34849
31828,26177,34745
31832,26115,34655
31799,26008,34573
31768,25937,34493
31796,25887,34398
31799,25901,34148
31844,25970,34036
31912,26071,33980
31888,26151,34008
31896,26194,33987
31868,26180,33900
31861,26106,33766
31817,26013,33596
31836,25932,33536
31864,25885,33520
31900,25906,33436
31920,25969,33338
31940,26066,33244
31948,26145,33141
31984,26190,33079
31980,26181,32974
31976,26111,32876
31972,26015,32718
31960,25937,32660
31992,25893,32607
32058,25908,32537
32150,25976,32468
32224,26071,32342
32270,26154,32349
32324,26192,32236
32360,26180,32133
32328,26119,32109
32286,26021,32037
32276,25941,31868
32288,25893,31710
32276,25905,31631
32308,25980,31573
32332,26071,31565
32369,26153,31594
32372,26199,31477
32336,26194,31413
32300,26127,31324
32284,26027,31198
32260,25946,31129
32305,25892,31236
32324,25914,31164
32376,25985,31094
32448,26077,31005
32488,26164,31012
32480,26208,30978
32528,26197,30916
32544,26125,30933
32564,26037,30784
32564,25950,30692
32540,25908,30671
32552,25920,30640
32652,25991,30766
32692,26084,30727
32729,26170,30624
32752,26220,30580
32756,26201,30525
32764,26140,30535
32760,26044,30660
32740,25965,30631
32728,25911,30644
32741,25925,30633
32800,25996,30628
32784,26085,30617
32752,26181,30604
32713,26225,30631
32741,26215,30638
32744,26146,30631
32732,26036,30599
32740,25968,30692
32744,25930,30720
32820,25936,30712
32928,26009,30701
32984,26097,30764
33048,26188,30735
33048,26237,30784
33024,26220,30836
33008,26161,30864
32988,26063,30815
32940,25984,30880
32789,25940,30937
32544,25954,30965
32361,26017,30943
32504,26116,31052
32997,26207,31045
33629,26244,31103
34281,26236,31125
34884,26170,31103
35460,26075,30992
36196,25991,31028
36824,25953,31079
37260,25962,31076
37500,26036,31084
37538,26140,31119
36896,26216,31196
35704,26279,31172
34552,26261,31205
33308,26200,31200
30792,26102,31172
27732,26041,31340
26025,25993,31288
26574,26004,31366
28041,26056,31317
29436,26148,31236
30668,26236,31180
31768,26277,31201
32476,26273,31174
32940,26207,31188
33248,26119,31165
33420,26033,31152
33532,25988,31150
33629,26000,31302
33716,26076,31239
33734,26165,31148
33812,26254,31239
33800,26296,31172
33808,26289,31111
33792,26226,31040
33764,26136,31032
33736,26055,31076
33728,26012,31019
33792,26015,31000
33856,26086,30992
33912,26178,30989
33960,26275,30964
34000,26316,30930
33988,26307,30968
33952,26250,31024
33944,26158,30979
33976,26073,30895
33980,26028,30852
33980,26044,30820
34020,26106,30808
34080,26206,30937
34124,26290,30838
34092,26342,30812
34084,26335,30869
34052,26273,30702
34044,26186,30678
34078,26096,30662
34100,26049,30650
34084,26071,30640
34068,26137,30657
34060,26222,30749
34096,26313,30751
34125,26370,30717
34136,26366,30689
34192,26299,30623
34200,26215,30702
34180,26124,30640
34204,26087,30529
34192,26089,30538
34208,26166,30658
34256,26258,30544
34312,26348,30581
34320,26396,30606
34310,26391,30580
34336,26337,30517
34368,26244,30560
34336,26154,30524
34336,26119,30449
34376,26126,30472
34465,26191,30471
34504,26292,30468
34556,26385,30441
34572,26432,30376
34532,26432,30343
34524,26366,30343
34548,26276,30388
34549,26197,30353
34596,26148,30332
34676,26162,30296
34778,26231,30188
34816,26319,30232
34880,26421,30238
34874,26472,30180
34896,26470,30135
34920,26405,30060
34934,26324,30105
34940,26234,30080
34944,26189,30074
35062,26196,30047
35148,26268,30012
35212,26367,29972
35284,26452,29959
35296,26508,29805
35352,26511,29748
35448,26444,29692
35488,26357,29653
35508,26272,29652
35520,26231,29724
35557,26238,29690
35644,26304,29644
35736,26404,29590
35808,26498,29560
35816,26557,29532
35872,26548,29480
35852,26499,29436
35824,26405,29279
35852,26318,29341
35976,26276,29296
36104,26285,29256
36208,26351,29208
36257,26447,29180
36292,26539,29130
36316,26599,29063
36372,26593,28980
36384,26543,28941
36388,26450,28904
36428,26373,28864
36512,26332,28821
36544,26327,28793
36552,26400,28806
36540,26495,28800
36496,26595,28774
36460,26656,28663
36420,26653,28624
36372,26595,28578
36288,26499,28584
36236,26427,28628
36176,26372,28588
36116,26391,28560
36084,26448,28492
36024,26553,28486
35916,26639,28516
35770,26700,28481
35612,26700,28316
35444,26644,28300
35204,26557,28272
34990,26479,28271
34820,26428,28301
34628,26441,28378
34408,26503,28343
34184,26599,28284
33968,26700,28252
33684,26759,28196
33480,26756,28230
33240,26704,28281
32968,26618,28212
32740,26532,28192
32512,26487,28228
32336,26495,28213
32204,26567,28188
32092,26655,28095
31950,26750,28133
31852,26813,28212
31724,26810,28196
31604,26752,28197
31478,26664,28116
31374,26583,28053
31302,26540,28074
31244,26548,28100
31208,26613,28084
31204,26708,28160
31256,26808,28149
31275,26860,28103
31248,26871,28089
31148,26808,28079
31112,26721,28084
31080,26638,28100
31120,26590,28085
31088,26601,28101
31104,26665,28128
31128,26766,28128
31156,26858,28108
31208,26910,28021
31184,26922,27992
31180,26852,28005
31192,26785,28046
31168,26695,28076
31164,26649,28165
31200,26655,28156
31214,26716,28161
31268,26815,28151
31316,26919,28140
31376,26975,28104
31372,26974,28130
31336,26917,28212
31328,26836,28205
31352,26750,28180
31396,26701,28197
31488,26711,28239
31584,26776,28290
31680,26873,28301
31724,26968,28196
31736,27029,28204
31668,27035,28253
31632,26980,28266
31649,26885,28340
31652,26809,28456
31680,26759,28492
31728,26762,28421
31804,26835,28441
31864,26927,28444
31900,27020,28488
31908,27076,28642
31960,27080,28708
31986,27031,28773
32000,26949,28816
31984,26863,28884
32048,26814,28951
32108,26812,28964
32192,26884,29097
32260,26981,29165
32292,27070,29244
32312,27135,29264
32276,27141,29241
32244,27091,29328
32244,27007,29414
32228,26912,29508
32272,26860,29596
32308,26871,29733
32312,26938,29777
32324,27032,29836
32340,27132,29932
32312,27193,30018
32348,27196,30158
32373,27136,30215
32372,27060,30318
32388,26970,30436
32424,26922,30668
32488,26925,30767
32485,26993,30778
32516,27071,30952
32520,27183,31052
32564,27251,31029
32608,27248,31238
32584,27202,31337
32592,27116,31444
32612,27031,31527
32640,26978,31479
32636,26980,31565
32684,27050,31666
32672,27143,31764
32628,27247,31863
32576,27305,31943
32560,27305,32132
32472,27255,32306
32464,27165,32388
32536,27092,32542
32624,27029,32560
32640,27042,32732
32656,27104,32853
32712,27204,32828
32760,27300,32997
32776,27357,33110
32760,27366,33183
32796,27311,33284
32740,27228,33413
32757,27136,33612
32816,27092,33682
32880,27093,33798
32964,27154,33933
33004,27254,34048
32996,27351,34161
33000,27409,34084
33016,27423,34158
32960,27364,34455
32904,27284,34468
32952,27196,34612
33000,27140,34688
32997,27143,34700
33044,27212,34840
33024,27301,34935
33052,27396,35252
33052,27463,35356
33012,27477,35462
33003,27420,35578
32974,27335,35492
32952,27250,35581
32940,27199,35751
32948,27199,35964
32992,27263,36013
33040,27356,36229
33076,27458,36299
33042,27513,36359
33040,27527,36414
32992,27475,36544
32980,27386,36703
33008,27301,36848
32984,27251,36953
33088,27245,37080
33176,27310,37182
33208,27407,37047
33248,27509,37400
33228,27565,37285
33172,27575,37412
33089,27524,37541
33040,27439,37597
33068,27348,37698
33108,27295,37804
33136,27292,38014
33136,27361,38189
33080,27453,38285
33092,27553,38464
33125,27620,38700
33168,27617,38612
33172,27575,38823
33196,27485,38954
33220,27399,39064
33288,27344,39172
33304,27348,39285
33336,27407,39375
33312,27507,39492
33312,27599,39312
33324,27664,39423
33288,27673,39519
33262,27623,39910
33216,27535,40015
33192,27451,39821
33176,27391,39943
33048,27395,40047
32820,27450,40244
32656,27553,40438
32752,27642,40519
33176,27710,40513
33790,27716,40511
34404,27660,40622
34992,27580,41036
35604,27492,41157
36300,27433,40904
37044,27431,41092
37669,27500,41337
38080,27590,41518
38349,27696,41448
37924,27760,41776
36940,27775,41880
35748,27720,41972
34568,27642,42041
32520,27556,42028
29344,27504,42145
26785,27504,42444
26456,27574,42357
27692,27655,42517
29180,27749,42631
30524,27810,42702
31670,27815,42740
32504,27762,42918
33042,27676,43109
33388,27587,43173
33604,27529,43300
33714,27529,43352
33760,27589,43310
33826,27679,43508
33908,27781,43557
33956,27847,43541
33972,27854,43840
33977,27801,43970
33980,27719,43984
33936,27629,43984
33932,27569,44098
33950,27576,44180
34000,27637,44276
33992,27721,44405
33960,27822,44548
33900,27892,44665
33864,27908,44753
33824,27851,44837
33816,27767,44880
33844,27679,44797
33804,27621,45000
33796,27619,45092
33816,27677,45125
33876,27767,45153
33914,27873,45287
33912,27940,45380
33936,27944,45472
33968,27892,45236
33936,27815,45389
33924,27721,45510
33932,27663,45611
33952,27669,45677
33952,27721,45668
33981,27813,45792
34012,27911,45733
33984,27982,46009
33957,27991,45784
33940,27940,46135
33892,27862,45904
33940,27773,45941
33984,27711,46280
34020,27710,46071
34038,27760,46417
34040,27857,46461
34020,27962,46512
34016,28024,46541
34013,28039,46556
34068,27988,46592
34124,27898,46672
34144,27814,46700
34140,27757,46736
34164,27749,46764
34200,27807,46798
34256,27908,46829
34288,28004,46832
34272,28062,46552
34293,28079,46665
34337,28028,46740
34352,27945,46767
34364,27851,46844
34360,27799,46948
34424,27792,46968
34436,27852,46981
34444,27938,46996
34485,28037,46916
34484,28104,46921
34512,28116,46988
34508,28068,47016
34524,27982,46697
34540,27895,46652
34556,27829,46936
34657,27828,46677
34752,27881,46662
34788,27974,46692
34829,28068,46599
34840,28140,46563
34890,28156,46584
34948,28098,46508
34989,28021,46444
35004,27933,46636
35064,27872,46576
35164,27860,46508
35224,27916,46440
35300,28004,46381
35372,28108,46324
35384,28177,46229
35408,28190,46130
35416,28134,46012
35480,28060,45985
35549,27968,45936
35644,27911,45831
35664,27908,45736
35720,27952,45636
35748,28039,45616
35790,28140,45525
35805,28205,45148
35824,28222,45056
35817,28169,45083
35848,28093,45004
35864,27997,44892
35900,27940,44877
35906,27935,44868
35952,27985,44786
35960,28077,44609
35944,28178,44551
35936,28245,44508
35884,28260,44404
35852,28208,44188
35816,28124,44131
35784,28036,44118
35717,27982,43908
35700,27967,43814
35628,28021,43775
35544,28108,43693
35404,28206,43613
35260,28285,43512
35088,28292,43456
34898,28244,43399
34676,28163,43300
34428,28069,43208
34228,28012,43093
33996,28007,42724
33772,28059,42900
33548,28147,42480
33260,28253,42388
33028,28319,42296
32760,28332,42284
32516,28282,42400
32260,28207,42404
32036,28116,42301
31844,28044,42047
31653,28036,42056
31488,28086,42005
31321,28184,41763
31192,28281,41887
31100,28351,41808
30976,28367,41552
30825,28309,41500
30666,28235,41502
30516,28141,41380
30368,28087,40977
30329,28072,40999
30301,28127,40852
30260,28210,40845
30220,28311,40892
30152,28381,40961
30112,28399,40916
30064,28344,40757
30024,28261,40708
30024,28183,40516
30072,28114,40657
30124,28103,40500
30168,28144,40301
30192,28238,40358
30232,28340,39980
30237,28407,40121
30276,28423,40209
30304,28380,40048
30292,28295,40017
30290,28197,39929
30301,28133,39718
30288,28116,39693
30268,28177,39652
30272,28274,39716
30316,28352,39687
30357,28444,39527
30368,28457,39388
30372,28407,39460
30392,28325,39172
30384,28228,39300
30405,28175,39214
30480,28156,39175
30568,28207,39172
30620,28294,39111
30653,28393,38783
30732,28470,38772
30736,28483,38692
30752,28440,38649
30768,28352,38612
30752,28263,38538
30752,28197,38535
30756,28191,38604
30824,28241,38548
30936,28329,38401
31056,28431,38576
31156,28503,38535
31204,28519,38472
31188,28476,38329
31160,28393,38320
31176,28295,38244
31181,28235,38210
31244,28213,38180
31280,28269,38133
31364,28356,38082
31404,28458,38055
31396,28525,38098
31316,28551,38007
31313,28503,37933
31296,28420,37972
31316,28327,37821
31334,28265,37760
31396,28249,37721
31452,28303,37688
31472,28380,37655
31464,28484,37681
31476,28550,37609
31500,28583,37639
31496,28528,37580
31512,28447,37580
31500,28354,37507
31508,28289,37434
31552,28273,37270
31629,28321,37289
31672,28413,37312
31696,28513,37277
31726,28583,37090
31736,28607,37004
31736,28559,36986
31692,28480,36945
31714,28384,36860
31784,28319,36829
31836,28302,36885
31864,28343,36832
31895,28437,36566
31956,28540,36724
31992,28605,36684
31976,28623,36629
31926,28583,36577
31932,28495,36543
31900,28402,36453
31860,28338,36412
31966,28317,36396
32036,28373,36350
32064,28463,36301
32088,28557,36248
32088,28629,36207
32078,28650,36157
32084,28605,36103
32060,28523,36070
32009,28432,35912
32092,28364,35992
32120,28346,35974
32192,28388,35915
32208,28482,35847
32256,28581,35692
32308,28651,35590
32337,28673,35532
32324,28631,35556
32260,28556,35477
32264,28460,35428
32276,28391,35591
32292,28378,35556
32324,28423,35528
32408,28501,35433
32457,28607,35316
32456,28679,35348
32456,28705,35318
32408,28654,35364
32372,28578,35260
32344,28485,35144
32392,28421,35068
32372,28400,35005
32380,28446,35129
32432,28536,35054
32457,28634,35043
32456,28711,34984
32468,28732,34884
32480,28692,34885
32505,28607,34967
32488,28513,34933
32417,28445,34865
32452,28424,34788
32521,28476,34788
32576,28567,34743
32636,28658,34700
32712,28729,34695
32708,28759,34716
32784,28714,34591
32800,28635,34610
32802,28533,34608
32748,28477,34548
32684,28456,34556
32517,28503,34422
32224,28589,34448
32152,28688,34476
32452,28767,34452
33024,28783,34424
33697,28748,34400
34352,28659,34399
34938,28565,34210
35530,28495,34276
36188,28480,34208
36800,28527,34329
37156,28609,34311
37365,28716,34213
37164,28791,34173
36284,28818,34193
34924,28776,34182
33612,28708,34215
32060,28613,34044
29556,28540,34021
26716,28536,34165
25468,28586,34141
26370,28670,34064
27896,28755,34063
29280,28837,34055
30444,28852,34089
31452,28807,33914
32120,28725,33949
32576,28625,34076
32828,28556,33937
32988,28536,34019
33104,28581,33849
33208,28676,33865
33302,28773,33943
33332,28849,34017
33340,28870,33897
33352,28836,33940
33324,28757,33992
33308,28665,34012
33282,28583,33908
33316,28569,34020
33360,28617,33964
33408,28701,33949
33420,28805,33885
33436,28880,33980
33424,28896,33824
33408,28865,33861
33396,28780,33972
33364,28692,33916
33384,28622,33764
33373,28598,33753
33400,28646,33880
33431,28728,33895
33396,28831,33860
33364,28909,33773
33324,28926,33780
33256,28900,33821
33236,28809,33815
33260,28727,33795
33313,28647,33701
33348,28613,33654
33358,28673,33661
33388,28756,33725
33440,28853,33732
33424,28929,33726
33409,28961,33718
33396,28922,33700
33344,28840,33687
33336,28747,33700
33360,28678,33532
33372,28647,33697
33388,28700,33681
33400,28785,33527
33440,28885,33500
33440,28967,33497
33400,28995,33492
33404,28957,33488
33380,28873,33479
33380,28775,33505
33384,28717,33508
33420,28689,33516
33437,28725,33621
33460,28812,33612
33556,28904,33623
33612,28988,33553
33640,29016,33565
33652,28976,33423
33672,28892,33505
33712,28800,33580
33812,28732,33492
33865,28719,33449
33940,28750,33415
34000,28837,33431
34069,28935,33412
34125,29013,33470
34196,29045,33476
34208,29004,33433
34213,28922,33420
34244,28829,33378
34276,28758,33396
34300,28741,33340
34356,28775,33415
34445,28863,33415
34524,28969,33245
34592,29041,33215
34668,29071,33185
34704,29036,33335
34772,28957,33295
34828,28861,33280
34864,28789,33252
34928,28763,33070
34944,28804,33049
35048,28891,33080
35124,28990,33157
35212,29063,33116
35240,29094,33098
35280,29063,33052
35316,28986,33046
35360,28885,33028
35444,28813,32873
35528,28791,32823
35564,28837,32803
35576,28918,32936
35632,29017,32916
35685,29095,32768
35688,29127,32727
35680,29088,32716
35684,29012,32708
35688,28916,32676
35708,28842,32684
35764,28821,32788
35808,28863,32764
35848,28950,32735
35884,29047,32654
35876,29115,32732
35864,29150,32687
35856,29117,32628
35828,29032,32618
35784,28943,32617
35736,28878,32651
35588,28846,32684
35464,28877,32641
35360,28967,32572
35244,29071,32604
35084,29146,32613
34880,29177,32647
34676,29153,32638
34488,29068,32644
34302,28972,32630
34073,28901,32623
33884,28871,32527
33648,28919,32543
33454,28996,32589
33212,29104,32633
32944,29181,32622
32696,29212,32572
32452,29176,32508
32166,29097,32557
31898,29006,32569
31664,28940,32590
31452,28911,32584
31316,28950,32568
31236,29028,32569
31100,29135,32559
30960,29215,32422
30872,29242,32383
30692,29213,32484
30534,29135,32456
30436,29036,32506
30417,28967,32426
30404,28925,32427
30408,28977,32407
30420,29055,32343
30412,29162,32332
30392,29234,32311
30396,29263,32356
30384,29236,32340
30353,29158,32325
30332,29058,32324
30348,28993,32192
30401,28960,32110
30416,28999,32263
30424,29081,32177
30452,29183,32144
30460,29267,32165
30497,29287,32047
30460,29262,32007
30392,29172,31978
30384,29073,31938
30396,29001,32044
30412,28974,32066
30456,29019,31993
30484,29105,31972
30516,29204,32001
30520,29276,31878
30572,29318,31822
30600,29284,31788
30592,29207,31756
30616,29108,31855
30600,29036,31879
30632,29007,31863
30648,29049,31841
30696,29134,31809
30768,29226,31804
30840,29308,31649
30876,29339,31604
30836,29308,31584
30830,29232,31596
30804,29135,31556
30804,29069,31524
30840,29031,31492
30872,29063,31483
30956,29149,31529
31009,29254,31590
31052,29328,31561
31070,29363,31500
31052,29335,31463
31040,29261,31422
31016,29160,31413
30980,29082,31437
30960,29053,31301
30956,29095,31262
30956,29175,31252
30908,29276,31224
30888,29351,31188
30876,29389,31144
30884,29353,31130
30920,29283,31089
30964,29183,31231
30988,29100,31187
31032,29079,31140
31119,29115,31151
31128,29199,31030
31164,29300,31076
31176,29380,30948
31208,29404,30900
31244,29382,31005
31262,29297,30941
31256,29207,30943
31236,29130,30924
31240,29095,30911
31273,29132,30877
31344,29215,30841
31374,29312,30809
31408,29405,30784
31413,29431,30791
31400,29397,30764
31280,29327,30676
31208,29229,30599
31164,29159,30505
31172,29115,30501
31168,29153,30452
31236,29237,30460
31260,29332,30446
31248,29417,30524
31296,29446,30492
31306,29427,30470
31324,29329,30439
31328,29243,30421
31312,29171,30406
31348,29143,30269
31420,29170,30224
31492,29254,30165
31516,29351,30221
31540,29431,30220
31500,29462,30244
31484,29437,30224
31464,29367,30184
31440,29261,30152
31466,29191,30079
31468,29156,30089
31444,29183,30061
31460,29271,30041
31488,29381,30045
31476,29460,30037
31524,29495,29928
31532,29462,29908
31500,29391,29973
31468,29288,29941
31484,29219,29908
31480,29188,29857
31500,29209,29814
31532,29292,29852
31568,29392,29711
31576,29469,29652
31584,29516,29627
31617,29493,29619
31616,29402,29647
31637,29308,29648
31592,29229,29697
31576,29201,29677
31597,29234,29655
31652,29312,29629
31684,29423,29609
31712,29495,29564
31748,29540,29532
31760,29504,29494
31716,29421,29501
31720,29341,29508
31744,29261,29458
31748,29226,29408
31765,29248,29404
31737,29340,29397
31596,29433,29274
31340,29519,29298
31135,29557,29292
31240,29533,29324
31560,29452,29335
32132,29356,29276
32784,29277,29264
33464,29244,29268
34172,29268,29260
34796,29353,29228
35472,29450,29217
35984,29540,29215
36172,29575,29192
36292,29556,29172
35830,29477,29162
34756,29385,29152
33421,29311,29135
32141,29285,29110
30385,29310,29120
27728,29404,29116
25388,29514,29111
25020,29564,29111
26296,29622,29080
27752,29589,29013
28992,29512,28948
30102,29413,28936
31028,29333,28942
31632,29288,28922
32032,29316,28943
32336,29404,28892
32468,29492,28964
32554,29580,29010
32640,29621,28972
32609,29601,28980
32592,29520,28988
32584,29423,28973
32636,29351,28961
32672,29311,28969
32724,29344,28956
32756,29430,28968
32824,29524,28976
32872,29612,28980
32856,29646,28972
32826,29622,28973
32769,29544,28980
32760,29461,29012
32801,29375,28917
32777,29343,28903
32778,29366,28855
32794,29444,28836
32804,29557,28824
32828,29634,28806
32816,29669,28796
32804,29653,28781
32784,29574,28771
32728,29480,28783
32704,29404,28820
32665,29367,28800
32724,29393,28797
32762,29471,28748
32808,29574,28734
32788,29661,28764
32800,29701,28681
32784,29678,28679
32781,29601,28708
32776,29513,28732
32780,29434,28800
32772,29394,28767
32780,29422,28774
32820,29500,28801
32904,29608,28828
32892,29695,28761
32896,29728,28748
32868,29712,28704
32832,29637,28728
32804,29541,28848
32836,29448,28807
32864,29431,28820
32921,29449,28844
32900,29532,28843
32936,29641,28866
32964,29721,28877
32964,29772,28876
32984,29742,28884
33000,29672,28790
33041,29569,28755
33136,29501,28774
33188,29460,28882
33274,29492,28888
33317,29562,28852
33372,29671,28840
33368,29752,28854
33384,29797,28871
33408,29780,28892
33464,29703,28750
33488,29617,28845
33536,29524,28878
33640,29495,28852
33712,29521,28836
33816,29593,28860
33908,29700,28797
33964,29785,28850
34060,29824,28836
34072,29815,28828
34125,29736,28733
34192,29641,28708
34244,29564,28722
34241,29520,28742
34277,29549,28756
34372,29625,28740
34464,29732,28672
34500,29821,28612
34520,29863,28615
34556,29839,28626
34548,29773,28608
34596,29675,28607
34677,29594,28599
34768,29557,28609
34812,29583,28589
34900,29661,28624
35004,29760,28620
35064,29853,28628
35108,29889,28622
35132,29877,28635
35169,29808,28604
35204,29704,28514
35248,29625,28532
35264,29588,28645
35284,29615,28646
35301,29689,28660
35312,29793,28672
35344,29882,28626
35364,29927,28588
35340,29909,28622
35244,29842,28692
35172,29744,28717
35144,29668,28728
35144,29622,28717
35132,29645,28700
35064,29724,28755
34949,29837,28744
34780,29925,28766
34632,29973,28796
34500,29949,28806
34308,29880,28847
34088,29792,28841
33888,29703,28836
33692,29668,28844
33500,29690,28865
33296,29767,28901
33044,29877,28910
32778,29964,28987
32549,30015,29086
32296,30009,29077
32076,29929,29093
31840,29831,29116
31656,29759,29156
31496,29724,29127
31324,29738,29112
31169,29819,29149
31008,29931,29140
30868,30021,29164
30744,30068,29156
30636,30052,29204
30500,29975,29217
30376,29880,29216
30288,29799,29285
30218,29764,29376
30206,29788,29375
30228,29860,29388
30197,29972,29379
30197,30048,29375
30192,30105,29352
30116,30095,29381
30068,30024,29408
30009,29921,29408
29952,29847,29416
29940,29812,29436
30036,29831,29460
30117,29904,29532
30176,30021,29565
30200,30101,29598
30252,30148,29605
30284,30134,29628
30294,30061,29623
30288,29971,29656
30276,29884,29692
30292,29849,29660
30344,29864,29672
30348,29944,29710
30344,30055,29729
30364,30148,29732
30408,30189,29703
30468,30171,29653
30448,30101,29676
30432,30014,29734
30412,29935,29804
30412,29889,29793
30424,29911,29804
30476,29988,29812
30557,30096,29847
30584,30182,29854
30629,30223,29777
30652,30222,29757
30684,30136,29740
30702,30053,29744
30672,29959,29753
30660,29940,29796
30652,29959,29822
30692,30036,29861
30724,30116,29860
30760,30229,29876
30804,30274,29937
30858,30269,29949
30892,30193,29959
30876,30092,29962
30912,30015,29947
30912,29989,29912
30932,30000,29976
30940,30084,29980
30964,30181,29902
30964,30278,29868
30940,30319,29881
30900,30305,29988
30876,30247,29981
30856,30146,30002
30832,30071,29957
30864,30025,29910
30912,30037,29858
31000,30122,29871
31072,30215,29865
31149,30326,29873
31200,30374,29876
31228,30369,29932
31240,30286,29937
31232,30203,29897
31296,30120,29880
31285,30078,29861
31292,30092,29847
31324,30172,29874
31428,30276,29917
31492,30365,29911
31520,30420,29964
31520,30397,29863
31492,30343,29850
31480,30246,29920
31502,30159,29870
31492,30125,29861
31484,30137,29853
31484,30215,29876
31509,30324,29833
31554,30406,29817
31524,30464,29826
31444,30447,29801
31548,30396,29778
31568,30292,29650
31570,30199,29636
31596,30173,29588
31638,30191,29639
31660,30264,29639
31656,30372,29630
31672,30464,29669
31656,30521,29621
31652,30511,29633
31632,30434,29557
31640,30344,29496
31652,30262,29516
31684,30223,29567
31748,30238,29532
31764,30317,29559
31805,30423,29504
31816,30519,29421
31820,30569,29484
31820,30556,29533
31781,30499,29508
31776,30396,29501
31792,30313,29519
31788,30268,29521
31792,30295,29406
31828,30359,29413
31885,30471,29509
31904,30564,29490
31940,30620,29476
31980,30611,29476
31996,30542,29474
31992,30447,29502
32004,30361,29496
31988,30319,29362
32048,30343,29500
32077,30413,29489
32084,30527,29468
32104,30621,29479
32140,30663,29349
32164,30654,29473
32168,30594,29439
32168,30489,29428
32152,30415,29413
32177,30376,29316
32152,30394,29304
32164,30468,29300
32192,30575,29349
32182,30665,29404
32068,30713,29357
31917,30712,29384
31784,30640,29358
31964,30551,29311
32366,30469,29221
32972,30416,29230
33644,30430,29252
34316,30517,29311
34928,30617,29256
35532,30700,29247
36196,30765,29231
36637,30757,29245
36800,30692,29116
36816,30599,29141
36256,30512,29204
35065,30480,29156
33684,30508,29157
32400,30582,29037
30504,30695,29088
27745,30808,29121
25670,30857,29093
25676,30849,29015
27009,30774,29103
28444,30674,29063
29664,30572,29005
30772,30535,28944
31688,30549,29020
32308,30615,29031
32724,30727,28909
32960,30810,29008
33076,30876,28973
33144,30868,28976
33183,30805,28931
33228,30717,28854
33208,30629,28972
33226,30585,28948
33224,30593,28935
33284,30679,28939
33340,30768,28951
33376,30873,28979
33353,30925,28902
33336,30921,28879
33356,30861,28909
33348,30760,28978
33336,30681,28949
33364,30637,28936
33376,30652,28932
33408,30727,28947
33420,30831,28909
33420,30915,28874
33424,30980,28814
33432,30965,28828
33437,30918,28825
33432,30825,28858
33432,30737,28837
33440,30685,28761
33436,30708,28711
33448,30784,28700
33472,30885,28679
33492,30983,28640
33550,31042,28679
33558,31029,28696
33552,30948,28679
33532,30871,28672
33492,30783,28671
33488,30749,28645
33524,30763,28628
33528,30833,28615
33564,30945,28608
33600,31037,28605
33604,31080,28607
33584,31085,28608
33580,31020,28532
33586,30933,28488
33608,30844,28490
33648,30799,28498
33716,30810,28551
33764,30889,28533
33808,30989,28497
33832,31085,28480
33844,31125,28472
33844,31141,28437
33868,31072,28390
33856,30976,28438
33885,30887,28400
33972,30854,28407
34008,30855,28324
34032,30936,28287
34064,31044,28272
34136,31140,28321
34169,31192,28301
34200,31188,28272
34212,31117,28228
34236,31029,28220
34218,30949,28192
34264,30911,28098
34332,30911,28120
34396,30991,28132
34432,31092,28097
34488,31184,28079
34544,31239,28039
34552,31232,28008
34546,31177,27980
34581,31084,27960
34592,30992,27860
34708,30957,27813
34832,30961,27812
34896,31039,27783
34988,31141,27788
35008,31239,27741
35048,31300,27708
35104,31290,27671
35148,31220,27647
35182,31132,27617
35256,31040,27581
35312,31007,27556
35364,31019,27505
35464,31095,27466
35520,31194,27397
35590,31294,27395
35648,31343,27380
35712,31342,27353
35744,31268,27308
35736,31184,27292
35716,31101,27248
35702,31048,27216
35732,31062,27188
35736,31143,27164
35756,31239,27132
35792,31332,27118
35776,31397,27113
35804,31396,27092
35809,31335,27076
35808,31236,27086
35772,31152,27064
35752,31111,27044
35713,31116,27029
35672,31195,27013
35636,31308,27004
35540,31397,26984
35425,31453,26980
35305,31450,26983
35136,31389,26948
34932,31300,26936
34708,31203,26948
34500,31160,26936
34316,31176,26934
34108,31248,26906
33872,31363,26901
33632,31458,26903
33384,31519,26908
33144,31509,26900
32908,31448,26890
32688,31357,26881
32472,31271,26876
32240,31221,26864
32044,31236,26869
31880,31308,26871
31724,31399,26863
31533,31516,26854
31357,31567,26836
31168,31570,26820
31052,31489,26807
30936,31419,26806
30884,31333,26801
30800,31292,26789
30680,31292,26789
30568,31367,26776
30513,31471,26774
30468,31572,26771
30488,31630,26757
30456,31625,26746
30412,31563,26753
30384,31471,26732
30384,31389,26719
30380,31333,26704
30436,31349,26701
30469,31415,26693
30464,31525,26688
30484,31618,26677
30468,31658,26673
30404,31677,26668
30408,31614,26682
30404,31521,26673
30408,31429,26673
30448,31383,26677
30510,31392,26679
30524,31462,26663
30556,31566,26663
30586,31663,26645
30612,31721,26648
30628,31727,26652
30600,31655,26670
30594,31552,26677
30588,31479,26684
30628,31431,26685
30640,31444,26695
30661,31520,26700
30692,31612,26703
30704,31711,26692
30700,31773,26707
30766,31772,26724
30784,31705,26724
30820,31613,26732
30817,31525,26731
30844,31476,26738
30844,31487,26749
30896,31545,26759
30945,31661,26772
31036,31764,26774
31060,31825,26788
31096,31823,26797
31089,31751,26792
31085,31669,26791
31092,31580,26788
31105,31524,26799
31086,31538,26826
31088,31610,26825
31132,31710,26837
31133,31813,26845
31176,31873,26852
31184,31876,26865
31232,31812,26876
31252,31709,26881
31272,31615,26876
31332,31583,26852
31340,31588,26864
31348,31660,26884
31360,31764,26894
31393,31844,26900
31400,31921,26896
31408,31920,26917
31432,31863,26911
31428,31775,26916
31432,31679,26922
31481,31628,26925
31504,31619,26923
31525,31710,26923
31497,31796,26930
31516,31911,26928
31504,31972,26932
31472,31972,26928
31428,31909,26927
31356,31825,26908
31344,31732,26873
31328,31679,26900
31316,31687,26892
31352,31764,26890
31378,31863,26892
31396,31960,26881
31400,32027,26879
31392,32013,26861
31376,31967,26839
31364,31876,26824
31380,31783,26813
31396,31732,26791
31428,31740,26780
31440,31804,26780
31508,31916,26788
31532,32015,26776
31596,32076,26764
31676,32076,26754
31688,32014,26751
31660,31924,26733
31620,31831,26719
31584,31781,26693
31552,31789,26697
31540,31852,26687
31552,31961,26677
31544,32056,26655
31576,32117,26649
31540,32123,26636
31521,32068,26626
31524,31969,26620
31528,31876,26608
31592,31829,26594
31612,31828,26588
31600,31910,26584
31629,31997,26580
31656,32111,26560
31668,32164,26544
31656,32169,26552
31660,32097,26552
31676,32025,26544
31676,31926,26546
31740,31860,26525
31758,31878,26532
31768,31946,26532
31812,32052,26533
31852,32156,26528
31868,32209,26533
31868,32215,26530
31856,32152,26532
31854,32060,26539
31874,31969,26540
31872,31911,26536
31944,31920,26548
31968,31972,26556
31972,32097,26558
31992,32196,26564
32004,32244,26556
31986,32255,26569
31940,32198,26568
31948,32101,26572
31966,32020,26572
32005,31972,26574
32044,31972,26569
32032,32047,26564
32080,32135,26572
32140,32216,26581
32144,32302,26578
32188,32306,26572
32212,32239,26569
32184,32148,26581
32172,32056,26572
32188,32006,26568
32212,32007,26565
32220,32083,26543
32172,32180,26556
31980,32284,26553
31716,32346,26550
31668,32348,26553
31812,32295,26557
32120,32191,26549
32637,32103,26544
33301,32041,26546
34028,32044,26543
34704,32103,26556
35376,32208,26548
35952,32309,26538
36228,32373,26537
36312,32377,26537
36240,32324,26535
35532,32236,26534
34320,32151,26540
33080,32097,26545
31808,32100,26545
29696,32180,26550
27044,32294,26568
25564,32393,26564
26176,32454,26557
27598,32452,26561
28968,32383,26576
30068,32286,26577
31069,32189,26583
31829,32124,26604
32312,32128,26606
32628,32193,26608
32824,32294,26631
32936,32407,26645
33002,32463,26653
33036,32460,26680
33016,32407,26684
33016,32319,26720
33020,32212,26724
33032,32167,26756
33040,32153,26776
33080,32231,26797
33149,32333,26830
33248,32430,26852
33246,32501,26887
33268,32502,26907
33260,32445,26932
33232,32361,26956
33220,32256,26983
33228,32204,26990
33240,32202,27012
33226,32262,27031
33224,32373,27053
33252,32479,27060
33248,32546,27072
33220,32543,27084
33173,32465,27078
33188,32391,27088
33188,32295,27100
33208,32236,27106
33228,32244,27120
33280,32315,27116
33340,32405,27119
33356,32513,27128
33401,32573,27140
33408,32575,27152
33376,32516,27169
33368,32421,27177
33380,32332,27191
33416,32277,27206
33432,32284,27216
33460,32342,27225
33472,32452,27245
33508,32548,27264
33518,32612,27284
33550,32621,27299
33528,32557,27263
33524,32464,27310
33528,32354,27330
33548,32317,27332
33616,32327,27349
33694,32380,27367
33784,32487,27373
33793,32587,27383
33836,32645,27380
33832,32653,27377
33864,32592,27390
33876,32503,27388
33909,32401,27379
33924,32351,27365
33976,32359,27358
34036,32417,27361
34100,32527,27353
34132,32623,27348
34136,32685,27324
34152,32695,27294
34160,32640,27284
34176,32551,27278
34240,32449,27258
34272,32388,27237
34300,32398,27205
34368,32448,27176
34436,32564,27142
34542,32660,27111
34648,32717,27109
34688,32712,27077
34732,32679,27044
34784,32587,27010
34824,32487,26979
34860,32431,26935
34952,32420,26908
35012,32495,26860
35072,32599,26834
35108,32700,26796
35140,32757,26777
35148,32775,26729
35172,32718,26683
35224,32621,26645
35312,32535,26608
35469,32475,26574
35552,32477,26533
35639,32534,26502
35728,32634,26471
35780,32738,26449
35844,32804,26428
35868,32805,26382
35872,32756,26328
35856,32652,26293
35848,32567,26277
35857,32503,26252
35856,32493,26224
35928,32572,26203
35956,32671,26167
35944,32775,26136
35936,32837,26116
35920,32852,26103
35880,32789,26084
35792,32703,26052
35764,32607,26034
35724,32549,26009
35712,32556,25990
35638,32609,25973
35541,32714,25952
35453,32813,25952
35328,32886,25956
35204,32896,25937
35060,32836,25936
34868,32742,25900
34672,32657,25872
34464,32600,25830
34236,32600,25828
34040,32655,25807
33828,32758,25817
33592,32866,25832
33360,32921,25812
33133,32928,25767
32852,32884,25732
32600,32788,25722
32393,32687,25726
32224,32636,25709
32014,32621,25700
31832,32698,25692
31680,32797,25679
31552,32903,25709
31428,32972,25726
31292,32972,25698
31144,32925,25643
31022,32806,25637
30940,32735,25636
30868,32673,25618
30848,32647,25607
30816,32740,25639
30820,32834,25647
30808,32934,25640
30776,33005,25614
30708,33018,25629
30676,32949,25628
30676,32854,25612
30656,32764,25600
30624,32708,25594
30613,32700,25527
30664,32764,25546
30676,32857,25522
30684,32961,25565
30656,33031,25582
30664,33041,25580
30684,32964,25525
30668,32897,25502
30680,32805,25516
30677,32736,25530
30712,32738,25543
30748,32774,25572
30752,32889,25564
30780,32993,25517
30776,33044,25522
30769,33074,25543
30796,33015,25561
30793,32928,25545
30784,32833,25564
30814,32770,25618
30864,32765,25586
30889,32828,25575
30920,32932,25592
30929,33030,25596
30944,33096,25597
30976,33109,25648
30981,33050,25650
30980,32959,25623
30976,32866,25644
30976,32805,25636
30996,32804,25652
31036,32859,25684
31036,32964,25720
31088,33069,25728
31132,33125,25736
31200,33119,25718
31220,33084,25710
31168,32984,25691
31156,32887,25708
31170,32832,25711
31224,32821,25729
31288,32877,25745
31340,32981,25754
31356,33080,25758
31356,33159,25774
31356,33165,25776
31380,33095,25772
31380,33023,25782
31432,32914,25792
31428,32865,25801
31436,32860,25820
31476,32925,25832
31512,33023,25858
31533,33114,25897
31520,33190,25868
31556,33196,25851
31544,33146,25868
31504,33051,25893
31524,32951,25895
31572,32890,25900
31589,32884,25914
31604,32948,25973
31656,33044,25916
31720,33151,25942
31724,33221,25950
31749,33220,25984
31776,33169,25996
31812,33076,26010
31820,32978,25981
31822,32912,26006
31852,32913,26015
31888,32975,26026
31870,33055,26080
31892,33181,26068
31904,33242,26084
31892,33252,26080
31884,33201,26080
31856,33108,26104
31828,33013,26130
31837,32950,26148
31860,32940,26144
31932,33000,26160
31984,33103,26172
32072,33196,26196
32112,33265,26212
32064,33284,26216
32052,33232,26240
32052,33133,26246
32064,33036,26269
32112,32972,26333
32180,32963,26335
32172,33028,26300
32196,33119,26340
32192,33228,26356
32194,33295,26383
32160,33317,26388
32092,33257,26410
32004,33157,26445
31996,33069,26470
32002,32987,26469
32008,32999,26485
32017,33053,26508
32028,33156,26532
32024,33254,26506
32020,33316,26516
32052,33333,26521
32048,33276,26543
32044,33193,26562
32084,33088,26572
32103,33028,26586
32116,33019,26610
32168,33084,26628
32208,33145,26638
32226,33276,26649
32248,33345,26665
32300,33359,26672
32296,33309,26688
32296,33219,26704
32332,33113,26721
32380,33057,26750
32400,33044,26777
32376,33097,26773
32364,33194,26772
32352,33302,26788
32328,33365,26806
32296,33367,26810
32280,33333,26844
32252,33244,26845
32280,33140,26864
32264,33076,26893
32288,33069,26887
32320,33127,26903
32380,33209,26911
32448,33320,26928
32460,33394,26941
32480,33409,26956
32468,33356,26980
32434,33261,26980
32400,33168,26994
32424,33100,27027
32396,33092,27028
32416,33157,27020
32465,33253,27029
32528,33348,27052
32564,33420,27068
32584,33437,27080
32548,33386,27082
32558,33300,27108
32505,33196,27119
32496,33129,27135
32488,33121,27130
32488,33175,27140
32517,33252,27116
32540,33378,27159
32536,33449,27148
32530,33468,27192
32552,33393,27200
32548,33319,27209
32557,33216,27217
32588,33158,27236
32582,33145,27249
32616,33201,27251
32608,33298,27248
32614,33409,27268
32668,33469,27276
32672,33492,27287
32664,33444,27296
32645,33351,27300
32660,33245,27301
32688,33183,27319
32745,33175,27324
32744,33235,27325
32818,33329,27332
32812,33429,27338
32700,33492,27325
32512,33521,27327
32248,33477,27341
32240,33383,27343
32396,33274,27336
32764,33218,27351
33312,33204,27348
33924,33257,27348
34544,33350,27351
35208,33444,27354
35948,33527,27348
36532,33540,27348
36788,33494,27360
36892,33397,27359
36845,33300,27364
36180,33241,27340
35052,33230,27357
33864,33295,27372
32521,33381,27381
30258,33504,27394
27536,33596,27404
26124,33607,27409
26880,33503,27425
28292,33462,27429
29576,33356,27444
30648,33281,27460
31628,33263,27477
32352,33316,27501
32780,33385,27518
33089,33500,27542
33248,33589,27574
33344,33604,27597
33412,33563,27628
33428,33467,27636
33396,33358,27686
33373,33296,27724
33381,33277,27753
33420,33340,27773
33468,33415,27817
33520,33543,27863
33496,33616,27900
33504,33626,27934
33496,33576,27973
33492,33495,27994
33492,33380,28052
33516,33322,28079
33520,33316,28128
33528,33362,28133
33546,33460,28193
33628,33570,28212
33600,33637,28250
33580,33655,28236
33628,33604,28279
33622,33517,28319
33592,33415,28340
33594,33351,28364
33612,33334,28351
33624,33388,28404
33676,33487,28410
33692,33589,28440
33678,33660,28473
33700,33676,28465
33661,33620,28474
33636,33543,28510
33616,33447,28564
33596,33373,28575
33604,33372,28614
33640,33415,28580
33696,33511,28661
33701,33596,28679
33708,33684,28724
33740,33701,28701
33756,33659,28766
33798,33567,28799
33816,33457,28783
33840,33397,28840
33876,33389,28877
33892,33437,28855
33880,33541,28909
33885,33639,28889
33888,33713,28956
33968,33730,28981
33952,33685,28966
33916,33591,29005
33948,33495,28976
34016,33421,29036
34040,33415,29039
34072,33463,29047
34148,33562,29008
34216,33661,29068
34280,33743,29079
34309,33737,29052
34326,33692,29093
34384,33602,29066
34400,33519,29077
34454,33447,29093
34469,33431,29041
34504,33484,29063
34532,33587,29013
34560,33692,29060
34600,33767,29033
34584,33785,29012
34616,33716,29013
34636,33620,28953
34680,33540,28976
34784,33470,28956
34860,33454,28884
34948,33508,28903
34996,33612,28851
35048,33708,28844
35108,33788,28807
35152,33799,28764
35152,33758,28711
35196,33669,28684
35252,33569,28644
35324,33472,28623
35372,33485,28572
35456,33536,28504
35520,33632,28496
35581,33732,28457
35628,33808,28388
35640,33831,28364
35680,33780,28324
35712,33684,28245
35724,33584,28232
35770,33524,28195
35749,33500,28129
35796,33573,28096
35832,33658,28062
35852,33750,28017
35884,33831,27978
35901,33847,27936
35868,33799,27907
35828,33718,27844
35788,33601,27812
35816,33543,27779
35812,33530,27746
35812,33591,27694
35801,33678,27668
35792,33796,27632
35756,33854,27597
35644,33876,27572
35504,33825,27526
35364,33732,27500
35240,33637,27456
35120,33572,27428
34912,33540,27392
34720,33621,27367
34568,33715,27340
34396,33817,27301
34176,33889,27281
33984,33911,27276
33780,33841,27220
33576,33764,27204
33328,33671,27188
33072,33597,27172
32840,33576,27124
32648,33644,27093
32476,33735,27076
32328,33838,27064
32164,33920,27060
32014,33935,27010
31844,33887,27004
31704,33799,26969
31548,33700,26954
31424,33628,26917
31340,33616,26904
31296,33669,26881
31236,33733,26876
31184,33876,26834
31096,33912,26821
31024,33961,26826
30952,33904,26802
30904,33818,26765
30896,33690,26752
30905,33649,26729
30932,33642,26708
30904,33695,26702
30904,33783,26660
30936,33895,26655
30936,33957,26652
30928,33976,26642
30952,33927,26594
30956,33839,26577
30972,33729,26594
30928,33671,26577
30964,33642,26538
30988,33705,26524
31080,33796,26524
31124,33889,26548
31152,33977,26524
31142,33988,26485
31136,33932,26484
31146,33857,26480
31212,33759,26511
31208,33671,26484
31264,33652,26479
31324,33719,26480
31344,33817,26511
31404,33893,26465
31408,33995,26484
31433,34011,26513
31416,33956,26476
31404,33871,26488
31400,33767,26518
31436,33692,26501
31500,33685,26502
31552,33737,26538
31612,33829,26529
31650,33927,26533
31672,34000,26585
31736,34013,26534
31700,33978,26570
31712,33887,26565
31740,33786,26573
31768,33704,26584
31780,33694,26596
31832,33751,26631
31824,33844,26615
31828,33956,26652
31820,33988,26631
31796,34023,26646
31777,33987,26619
31800,33901,26677
31840,33799,26702
31880,33733,26712
31877,33719,26704
31896,33773,26709
31908,33860,26740
31928,33949,26748
31889,34032,26799
31912,34054,26756
31892,34007,26793
31880,33916,26803
31933,33812,26836
31940,33739,26820
31980,33716,26844
32008,33789,26849
32033,33872,26873
32020,33953,26911
31996,34054,26882
32048,34070,26923
32010,34015,26936
31952,33907,26949
31953,33826,26951
31920,33760,26959
31928,33745,26975
31960,33793,26988
32040,33895,26999
32069,33991,27044
32068,34065,27020
32036,34085,27041
32088,34013,27045
32133,33945,27076
32128,33837,27068
32144,33767,27071
32176,33756,27092
32160,33799,27088
32204,33897,27135
32193,33983,27108
32196,34085,27125
32189,34095,27134
32168,34047,27171
32148,33949,27149
32117,33861,27172
32100,33781,27188
32116,33772,27178
32204,33825,27202
32240,33911,27228
32260,34013,27220
32246,34092,27233
32268,34108,27246
32160,34055,27276
32204,33967,27269
32208,33863,27286
32208,33795,27301
32240,33762,27304
32280,33839,27317
32336,33917,27341
32360,34005,27367
32413,34092,27358
32380,34118,27375
32356,34064,27408
32312,33980,27388
32292,33870,27421
32312,33774,27417
32344,33788,27444
32476,33830,27473
32464,33927,27471
32456,34033,27485
32464,34092,27513
32496,34125,27533
32464,34079,27533
32444,33991,27558
32476,33879,27586
32504,33807,27584
32560,33799,27616
32525,33846,27649
32600,33943,27669
32684,34047,27686
32661,34117,27718
32588,34132,27744
32565,34055,27759
32544,33990,27793
32512,33894,27820
32464,33816,27849
32493,33799,27872
32528,33853,27916
32552,33941,27956
32580,34055,27968
32578,34112,28012
32544,34137,28057
32524,34087,28072
32536,33996,28121
32532,33903,28175
32532,33823,28156
32526,33807,28250
32578,33858,28303
32604,33937,28328
32600,34061,28397
32588,34129,28421
32608,34156,28488
32604,34095,28537
32624,34004,28578
32608,33900,28636
32660,33829,28684
32692,33820,28708
32680,33861,28796
32648,33959,28838
32612,34038,28908
32557,34129,28910
32548,34141,29006
32534,34094,29044
32480,34007,29054
32480,33903,29148
32496,33834,29204
32500,33815,29209
32520,33869,29244
32532,33943,29333
32552,34063,29380
32544,34136,29384
32568,34157,29487
32568,34108,29528
32588,34001,29560
32584,33905,29621
32588,33844,29600
32620,33817,29684
32681,33873,29757
32733,33960,29752
32736,34069,29828
32740,34130,29868
32769,34164,29864
32736,34103,29968
32752,34007,29997
32740,33913,30020
32704,33844,30021
32724,33823,30139
32760,33869,30169
32800,33956,30207
32820,34066,30216
32852,34140,30228
32824,34153,30311
32788,34111,30349
32740,34017,30351
32764,33916,30364
32790,33840,30468
32836,33823,30492
32884,33868,30517
32836,33964,30521
32880,34064,30517
32916,34128,30607
32945,34153,30641
32912,34111,30572
32920,34013,30645
32904,33912,30692
32909,33836,30727
32924,33826,30657
32912,33861,30718
32848,33975,30760
32644,34069,30790
32388,34137,30740
32284,34159,30825
32428,34112,30845
32768,34013,30777
33232,33910,30873
33850,33839,30869
34472,33823,30800
35088,33875,30907
35768,33957,30890
36384,34055,30876
36720,34131,30872
36853,34148,30925
36876,34100,30956
36296,34007,30956
35308,33916,30948
34181,33848,30901
32840,33824,30991
30768,33892,31004
27996,33964,30905
26132,34052,30999
26560,34175,30988
27996,34180,31036
29349,34112,31016
30468,34021,30957
31413,33919,31022
32180,33846,31025
32628,33828,31069
33028,33866,31074
33240,33971,30997
33348,34065,31072
33389,34137,31055
33481,34148,31127
33512,34074,31124
33556,34013,31052
33529,33904,31121
33496,33836,31109
33484,33826,31166
33516,33873,31140
33548,33965,31193
33568,34062,31189
33569,34133,31228
33592,34151,31224
33524,34102,31156
33492,34000,31270
33511,33908,31259
33488,33829,31248
33572,33813,31217
33560,33865,31268
33572,33957,31228
33568,34049,31314
33588,34133,31305
33608,34141,31327
33584,34095,31279
33536,34007,31253
33516,33902,31337
33540,33828,31297
33604,33805,31308
33604,33853,31261
33661,33945,31343
33672,34037,31360
33672,34124,31312
33668,34140,31367
33656,34077,31375
33600,33998,31358
33596,33893,31434
33616,33829,31460
33656,33799,31413
33616,33844,31492
33676,33942,31548
33704,34047,31503
33716,34114,31596
33790,34133,31608
33788,34086,31517
33708,33991,31665
33740,33889,31668
33784,33818,31617
33812,33797,31732
33853,33845,31728
33900,33936,31676
33900,34029,31796
33928,34109,31789
33952,34134,31839
33978,34068,31764
33984,33988,31842
34040,33891,31878
34092,33807,31796
34136,33791,31924
34192,33845,31928
34196,33925,31829
34272,34029,31911
34336,34114,31953
34360,34100,31972
34360,34051,31909
34312,33961,32012
34349,33872,32004
34384,33796,31953
34464,33788,32015
34548,33825,32007
34628,33919,32060
34676,34013,32061
34708,34100,31953
34752,34112,32084
34756,34062,32070
34793,33976,31981
34820,33869,32065
34780,33798,32061
34884,33775,31944
34932,33827,32065
35017,33911,32057
35072,34013,31952
35134,34085,32020
35176,34109,32038
35252,34063,31913
35268,33963,31969
35292,33860,31988
35352,33791,31999
35460,33765,31868
35512,33823,31918
35612,33911,31948
35668,34009,31965
35648,34076,31841
35664,34104,31948
35664,34049,31917
35664,33951,31876
35664,33855,31933
35704,33777,31887
35736,33767,31905
35760,33814,31792
35724,33900,31869
35772,34005,31887
35796,34073,31771
35860,34084,31869
35852,34039,31868
35841,33950,31750
35784,33839,31850
35756,33772,31824
35768,33751,31726
35793,33799,31820
35800,33892,31785
35776,33993,31677
35668,34063,31794
35548,34082,31748
35429,34036,31692
35292,33947,31669
35132,33847,31746
34956,33773,31709
34812,33756,31623
34620,33791,31661
34488,33888,31688
34324,33993,31678
34108,34073,31593
33876,34078,31670
33700,34038,31649
33460,33948,31607
33228,33841,31567
33056,33766,31612
32820,33744,31567
32572,33794,31525
32297,33881,31600
32288,33981,31575
32116,34036,31572
31944,34076,31468
31868,34039,31573
31708,33949,31544
31600,33843,31440
31520,33771,31511
31392,33740,31500
31300,33793,31428
31228,33884,31519
31216,33989,31519
31208,34024,31456
31172,34079,31477
31124,34025,31431
31084,33941,31420
31052,33828,31460
31052,33761,31481
31052,33742,31424
31036,33785,31416
30993,33872,31471
31032,33981,31465
31016,34048,31372
31037,34052,31484
31049,34023,31471
31072,33913,31461
31078,33823,31389
31112,33748,31484
31152,33724,31465
31180,33772,31476
31184,33867,31456
31196,33968,31508
31212,34033,31533
31208,34052,31465
31216,34011,31520
31224,33911,31576
31280,33815,31574
31316,33732,31566
31348,33717,31643
31392,33761,31660
31424,33855,31593
31425,33956,31633
31448,34028,31700
31421,34047,31731
31432,33993,31694
31408,33900,31789
31408,33799,31774
31384,33716,31783
31372,33701,31750
31401,33745,31878
31400,33846,31856
31456,33933,31823
31512,34001,31937
31552,34028,31937
31532,33991,31957
31536,33899,31952
31568,33794,31940
31584,33717,32016
31648,33701,32016
31696,33743,31942
31732,33830,32093
31772,33933,32085
31758,34003,32103
31716,34020,32131
31712,33964,32173
31732,33878,32176
31724,33780,32072
31764,33701,32104
31808,33683,32245
31824,33728,32226
31856,33816,32237
31860,33924,32266
31860,33980,32198
31897,34012,32300
31880,33958,32328
31893,33869,32212
31936,33767,32362
32004,33694,32334
32032,33669,32348
32012,33703,32271
32052,33804,32374
32086,33910,32362
32072,33991,32413
32068,33992,32309
32032,33956,32313
32076,33859,32348
32076,33754,32439
32060,33678,32409
32096,33671,32353
32128,33700,32346
32174,33799,32425
32193,33900,32420
32168,33972,32419
32220,33993,32313
32264,33929,32446
32245,33852,32413
32224,33740,32423
32200,33669,32332
32228,33649,32398
32277,33700,32407
32300,33781,32303
32308,33895,32372
32316,33960,32383
32351,33980,32356
32356,33941,32251
32312,33842,32284
32290,33737,32364
32292,33639,32337
32352,33637,32252
32372,33679,32210
32452,33772,32228
32464,33884,32294
32492,33959,32250
32464,33975,32204
32456,33918,32135
32464,33828,32247
32460,33733,32185
32436,33653,32200
32452,33616,32071
32484,33681,32183
32520,33773,32161
32549,33868,32025
32556,33940,32062
32577,33962,32096
32556,33916,32093
32548,33823,31948
32540,33727,31961
32576,33622,32020
32604,33629,31974
32624,33676,31973
32629,33765,31897
32633,33866,31828
32644,33936,31848
32624,33957,31869
32616,33916,31884
32612,33816,31744
32641,33711,31814
32738,33639,31744
32780,33616,31676
32793,33663,31772
32820,33752,31708
32856,33857,31694
32840,33933,31577
32828,33952,31665
32800,33895,31612
32764,33817,31588
32768,33709,31495
32804,33626,31556
32852,33612,31500
32876,33657,31470
32920,33749,31415
32964,33848,31423
32960,33927,31317
32888,33951,31340
32872,33902,31358
32812,33820,31311
32740,33704,31263
32728,33629,31161
32708,33619,31249
32748,33646,31220
32764,33732,31093
32836,33833,31093
32856,33927,31118
32896,33949,31081
32880,33901,30978
32912,33805,31038
32928,33698,30980
32960,33624,30858
32981,33592,30929
33020,33646,30907
33056,33744,30804
33036,33842,30847
33052,33916,30778
33056,33944,30764
33056,33895,30636
33080,33806,30676
33076,33702,30608
33124,33628,30564
33108,33613,30575
33049,33657,30532
33040,33740,30528
33056,33844,30392
33000,33923,30440
32988,33945,30396
32948,33894,30316
32936,33804,30277
32908,33703,30298
32937,33631,30240
32988,33605,30244
33068,33659,30141
33116,33748,30092
33148,33841,30128
33152,33927,30080
33148,33940,30030
33140,33892,30002
33136,33811,29996
33133,33704,29944
33134,33628,29869
33144,33611,29924
33140,33660,29904
33160,33748,29877
33153,33861,29788
33156,33925,29780
33132,33952,29776
33126,33906,29780
33068,33817,29768
33024,33704,29716
32992,33638,29654
33008,33622,29724
33048,33653,29676
33089,33752,29677
33116,33860,29601
33132,33927,29652
33153,33957,29622
33156,33908,29593
33144,33814,29543
33140,33704,29562
33196,33645,29534
33220,33629,29534
33212,33671,29444
33201,33765,29496
33176,33870,29473
33168,33929,29439
33188,33973,29392
33208,33920,29421
33208,33829,29382
33192,33730,29379
33129,33660,29341
33044,33629,29280
32812,33685,29320
32572,33777,29290
32592,33881,29280
32840,33948,29240
33220,33972,29205
33668,33933,29204
34224,33838,29207
34824,33738,29188
35428,33660,29158
36116,33639,29141
36632,33680,29133
36852,33776,29120
37024,33889,29084
36908,33952,29036
36252,33991,29029
35252,33951,29008
34144,33868,29033
32680,33768,29015
30268,33701,28991
27644,33701,28984
26524,33700,28925
27488,33832,28936
28912,33914,28958
30200,33968,28937
31209,34016,28930
32152,33965,28916
32800,33870,28886
33216,33779,28856
33468,33701,28873
33612,33680,28882
33712,33725,28885
33856,33792,28852
33948,33920,28867
33940,33996,28844
33908,34021,28861
33896,33985,28866
33864,33878,28887
33816,33784,28884
33800,33709,28886
33797,33701,28890
33828,33737,28909
33872,33834,28924
33868,33947,28900
33812,34020,28903
33832,34044,28935
33856,34004,28964
33832,33909,28969
33768,33814,28985
33812,33733,28970
33828,33719,28944
33864,33765,28951
33898,33852,28976
33948,33958,28993
33956,34045,29004
33968,34069,29032
33892,34017,29037
33900,33935,29050
33876,33837,29063
33829,33759,29086
33844,33729,29037
33864,33781,29111
33900,33880,29128
33896,33988,29152
33866,34068,29141
33864,34092,29207
33892,34052,29227
33972,33948,29279
33929,33860,29282
33920,33783,29270
33972,33765,29324
33960,33815,29412
34006,33905,29447
33988,34006,29490
33945,34092,29543
33940,34116,29581
33902,34069,29601
33993,33977,29685
33988,33890,29742
34056,33799,29708
34112,33789,29774
34124,33830,29892
34180,33933,29924
34181,34037,29988
34208,34124,29972
34188,34146,30095
34252,34100,30129
34212,34012,30199
34244,33914,30215
34308,33836,30225
34396,33812,30279
34404,33863,30416
34392,33961,30437
34444,34055,30524
34428,34120,30517
34476,34173,30591
34464,34124,30665
34444,34044,30716
34460,33945,30790
34628,33868,30766
34632,33850,30814
34680,33894,30911
34760,33989,31004
34772,34099,31060
34912,34175,31044
34912,34200,31108
34928,34156,31200
34900,34054,31234
34969,33969,31212
35004,33892,31364
35020,33874,31400
35029,33920,31396
35152,34021,31433
35172,34128,31517
35244,34199,31624
35292,34231,31652
35300,34192,31725
35320,34104,31757
35332,34004,31765
35408,33916,31884
35364,33906,31930
35372,33953,31993
35456,34051,31956
35572,34149,32052
35606,34236,32100
35640,34251,32210
35632,34200,32263
35605,34119,32263
35652,34015,32340
35636,33949,32466
35648,33941,32497
35709,33977,32544
35736,34075,32568
35760,34196,32596
35740,34269,32764
35704,34295,32788
35672,34255,32829
35624,34173,32878
35620,34072,32967
35556,33992,32889
35520,33974,32982
35464,34028,33133
35372,34117,33157
35278,34229,33196
35192,34311,33301
35056,34338,33317
34920,34300,33280
34776,34213,33358
34624,34118,33404
34444,34037,33453
34306,34021,33486
34144,34071,33556
33952,34159,33645
33720,34279,33776
33488,34354,33799
33253,34380,33881
33014,34340,33949
32812,34255,34005
32600,34158,34028
32436,34076,33965
32229,34055,34166
32044,34108,34206
31904,34205,34230
31748,34311,34268
31600,34393,34308
31416,34428,34330
31288,34361,34372
31112,34303,34444
31020,34197,34526
31032,34117,34567
30952,34080,34496
30892,34140,34557
30844,34239,34669
30812,34349,34662
30804,34428,34682
30785,34452,34735
30789,34426,34724
30778,34333,34734
30700,34233,34713
30664,34150,34752
30704,34140,34784
30760,34176,34823
30852,34276,34852
30860,34366,35004
30888,34455,35028
30856,34492,35053
30804,34455,35079
30856,34350,35109
30881,34244,35128
30850,34184,35125
30840,34175,35108
30889,34215,35129
30880,34311,35205
30934,34394,35265
30948,34500,35261
30965,34530,35183
30996,34491,35173
31036,34402,35341
31004,34311,35344
31040,34228,35335
31096,34204,35396
31160,34254,35397
31196,34311,35348
31220,34452,35308
31248,34540,35348
31204,34532,35460
31168,34500,35444
31133,34438,35453
31192,34335,35516
31178,34260,35564
31124,34240,35515
31188,34280,35536
31232,34372,35520
31234,34492,35478
31192,34577,35639
31284,34596,35580
31288,34564,35615
31240,34479,35545
31269,34376,35561
31268,34293,35708
31328,34255,35700
31376,34317,35710
31373,34415,35744
31364,34516,35736
31400,34600,35806
31388,34641,35645
31384,34592,35820
31456,34508,35797
31425,34409,35824
31420,34340,35709
31456,34311,35864
31412,34360,35832
31472,34457,35857
31504,34564,35773
31580,34636,35892
31568,34677,35901
31598,34628,35905
31556,34545,35820
31528,34452,35933
31544,34373,35944
31508,34350,35868
31576,34395,36024
31574,34484,35996
31612,34599,36020
31604,34669,36019
31608,34702,35932
31620,34668,36076
31580,34584,36076
31576,34484,36012
31652,34409,36117
31687,34374,36012
31668,34420,35965
31672,34516,36119
31708,34601,36088
31728,34717,36133
31758,34743,35984
31716,34700,36116
31656,34620,36053
31656,34516,36140
31724,34404,36092
31732,34420,35996
31742,34460,36001
31749,34559,36125
31816,34668,36128
31809,34751,36045
31780,34771,36158
31788,34708,36103
31832,34639,36136
31817,34557,36163
31772,34446,36016
31796,34439,36000
31860,34493,35998
31876,34566,36156
31920,34701,36068
31948,34788,36125
31892,34791,36000
31852,34751,35991
31800,34684,36132
31860,34584,36084
31876,34506,36085
31900,34486,36097
31934,34530,36012
31968,34624,35969
31992,34735,35956
32064,34816,36099
32050,34854,36068
32048,34811,36039
31988,34713,36039
32028,34622,35984
32028,34543,36009
32000,34520,36044
32044,34562,35944
32040,34660,35872
32104,34764,35881
32138,34843,35989
32189,34872,35942
32144,34844,35904
32172,34759,35893
32120,34660,35797
32124,34583,35784
32108,34559,35896
32132,34600,35860
32252,34695,35808
32305,34796,35820
32332,34880,35807
32364,34909,35737
32385,34876,35653
32332,34781,35652
32336,34685,35740
32352,34608,35688
32340,34577,35638
32320,34631,35702
32336,34726,35653
32288,34823,35572
32268,34916,35566
32256,34948,35463
32301,34911,35460
32304,34814,35448
32280,34725,35559
32244,34616,35512
32229,34608,35463
32288,34665,35460
32326,34744,35420
32396,34862,35455
32432,34941,35461
32476,34972,35365
32480,34941,35308
32464,34850,35264
32361,34727,35263
32348,34665,35380
32516,34647,35369
32520,34687,35239
32544,34788,35317
32608,34891,35295
32644,34973,35272
32608,34989,35253
32536,34980,35154
32533,34880,35263
32472,34781,35233
32454,34697,35181
32520,34676,35193
32484,34724,35135
32496,34815,35096
32492,34913,35185
32516,35004,35204
32468,35039,35093
32568,34967,35044
32596,34908,35168
32620,34807,35120
32548,34729,35132
32590,34695,35169
32633,34738,35060
32676,34837,35044
32660,34948,35118
32632,35038,35152
32620,35063,35073
32644,35024,35022
32588,34940,35142
32516,34843,35106
32556,34757,35088
32592,34714,35102
32576,34767,35172
32580,34864,35156
32628,34965,35084
32568,35061,35089
32556,35085,35079
32552,35052,35237
32592,34959,35222
32576,34864,35266
32576,34789,35199
32608,34767,35140
32636,34799,35284
32656,34893,35242
32660,35010,35282
32672,35095,35176
32716,35125,35341
32660,35079,35308
32644,34996,35318
32636,34885,35387
32732,34820,35237
32724,34789,35277
32752,34838,35413
32740,34917,35422
32688,35025,35416
32533,35108,35342
32272,35121,35329
32060,35093,35377
32140,35023,35380
32332,34908,35520
32700,34842,35506
33300,34812,35492
33921,34847,35488
34520,34943,35529
35000,35052,35588
35656,35135,35588
35996,35167,35589
35992,35117,35521
35912,35030,35495
35560,34949,35516
34992,34875,35532
34028,34837,35677
32902,34887,35648
31028,34996,35630
28474,35108,35687
26228,35197,35736
25984,35224,35659
27380,35188,35654
28806,35093,35640
30072,34985,35660
31032,34909,35813
31885,34864,35796
32424,34908,35856
32809,34983,35825
33112,35108,35753
33148,35196,35785
33296,35223,35810
33340,35191,35980
33416,35107,35960
33392,34975,36041
33348,34916,35982
33332,34892,35956
33372,34933,36012
33372,35029,36153
33352,35135,36127
33372,35220,36240
33384,35249,36231
33424,35219,36196
33420,35125,36202
33407,35031,36388
33369,34944,36365
33404,34924,36492
33360,34930,36505
33404,35052,36415
33384,35162,36447
33436,35240,36644
33340,35277,36597
33388,35236,36665
33416,35155,36593
33436,35047,36660
33396,34960,36806
33368,34946,36772
33394,34948,36908
33456,35065,36783
33484,35181,36814
33456,35263,36981
33444,35297,36991
33416,35263,36988
33348,35169,37125
33393,35069,37081
33400,34989,37036
33404,34967,37072
33484,35008,37244
33440,35094,37245
33504,35197,37380
33468,35280,37340
33502,35312,37301
33556,35284,37464
33536,35204,37514
33544,35103,37460
33540,35020,37637
33620,34991,37668
33652,35031,37650
33633,35112,37766
33673,35227,37664
33662,35300,37777
33712,35342,37812
33772,35308,37798
33778,35212,37824
33772,35124,37852
33828,35039,38047
33869,35004,38066
33896,35044,38070
33944,35140,38180
33964,35236,38046
34000,35333,38036
34020,35364,38240
34068,35326,38244
34084,35244,38343
34112,35138,38349
34124,35053,38381
34164,35007,38348
34184,35070,38296
34232,35164,38292
34310,35249,38325
34348,35349,38336
34372,35381,38359
34416,35346,38436
34420,35260,38573
34464,35148,38533
34470,35076,38552
34545,35047,38668
34620,35087,38639
34692,35166,38529
34764,35286,38692
34824,35372,38653
34860,35396,38704
34856,35367,38754
34852,35283,38612
34880,35168,38573
34888,35095,38737
34888,35068,38804
34956,35096,38748
35056,35197,38608
35141,35282,38608
35188,35391,38752
35304,35425,38711
35280,35383,38688
35276,35303,38620
35320,35201,38780
35408,35119,38726
35500,35092,38764
35512,35124,38735
35461,35206,38612
35500,35321,38572
35557,35405,38745
35540,35444,38652
35516,35404,38746
35512,35308,38582
35476,35229,38524
35477,35142,38511
35424,35111,38655
35417,35133,38617
35408,35231,38693
35370,35335,38569
35336,35404,38471
35348,35462,38455
35232,35432,38592
35104,35348,38556
34988,35244,38485
34888,35164,38576
34840,35129,38444
34628,35172,38337
34428,35262,38477
34248,35369,38432
34048,35434,38489
33828,35492,38356
33624,35463,38269
33405,35380,38273
33128,35241,38433
33016,35190,38253
32888,35158,38420
32720,35193,38412
32492,35284,38402
32253,35399,38348
32100,35470,38313
31989,35516,38389
31844,35477,38318
31680,35396,38208
31528,35294,38172
31380,35212,38325
31222,35150,38254
31120,35218,38311
31088,35296,38177
30980,35407,38318
30900,35477,38237
30816,35512,38316
30812,35465,38156
30736,35409,38119
30725,35308,38260
30688,35225,38196
30724,35199,38084
30768,35239,38228
30776,35326,38151
30736,35420,38189
30706,35516,38044
30692,35543,38183
30704,35508,38132
30745,35421,38180
30716,35323,38060
30820,35249,37973
30768,35207,38116
30733,35249,38028
30780,35335,38124
30856,35444,38052
30864,35500,37964
30852,35541,38115
30824,35532,38096
30800,35444,38064
30812,35335,37989
30856,35254,38100
30856,35226,38103
30880,35260,37945
30900,35353,37908
30964,35455,38085
30980,35548,38023
30924,35540,38117
30944,35544,38085
30968,35462,37961
31044,35355,38100
31068,35279,38015
31048,35204,38134
31056,35278,37960
31144,35361,38108
31166,35430,38092
31192,35517,38040
31177,35565,37957
31152,35565,38108
31128,35475,38158
31076,35372,37988
31216,35292,37984
31184,35241,38148
31232,35295,38058
31270,35389,38189
31280,35495,38140
31312,35567,38008
31351,35599,38180
31356,35572,38120
31424,35485,38180
31391,35391,38025
31440,35297,38180
31408,35264,38204
31432,35301,38033
31388,35389,38196
31445,35496,38231
31444,35585,38108
31432,35620,38076
31320,35591,38060
31292,35498,38220
31456,35396,38213
31508,35319,38268
31461,35281,38100
31376,35287,38065
31485,35405,38084
31560,35519,38253
31480,35596,38199
31404,35628,38177
31464,35604,38287
31480,35514,38121
31496,35412,38085
31572,35324,38271
31560,35297,38177
31561,35325,38300
31632,35410,38139
31644,35524,38283
31572,35612,38219
31649,35621,38320
31624,35608,38239
31616,35524,38137
31628,35430,38150
31636,35335,38319
31616,35286,38313
31648,35347,38241
31664,35431,38287
31692,35530,38369
31804,35615,38213
31740,35658,38360
31676,35624,38372
31713,35535,38364
31796,35429,38292
31772,35351,38399
31792,35317,38328
31785,35320,38398
31810,35425,38407
31788,35543,38301
31820,35620,38463
31772,35661,38368
31784,35628,38499
31776,35549,38324
31765,35413,38347
31772,35332,38471
31800,35327,38461
31900,35365,38493
31868,35449,38596
31892,35559,38456
31884,35600,38413
31884,35676,38608
31960,35650,38534
31984,35559,38660
32024,35449,38501
31973,35372,38663
32012,35335,38663
32093,35372,38596
32128,35449,38724
32096,35561,38565
32036,35649,38567
32104,35686,38752
32048,35624,38687
32008,35567,38805
32028,35463,38812
32100,35391,38684
32120,35348,38844
32172,35341,38767
32192,35463,38864
32248,35567,38736
32228,35653,38705
32152,35700,38900
32120,35661,38884
32104,35580,38821
32048,35476,38964
31966,35387,38847
31988,35344,38779
32000,35389,38960
32064,35463,38887
32072,35580,38996
32068,35665,38940
32061,35703,38808
32049,35669,38992
32008,35588,38969
32196,35485,38948
32240,35396,39047
32280,35365,38888
32325,35395,38856
32350,35477,39040
32324,35589,38948
32332,35658,39063
32344,35684,38904
32320,35674,38873
32312,35588,39053
32322,35487,39013
32313,35396,39090
32364,35358,38919
32358,35366,39074
32346,35478,39078
32288,35590,39044
32316,35676,39024
32300,35706,38997
32285,35681,38984
32248,35602,39016
32268,35488,39077
32310,35407,38959
32320,35366,38885
32402,35397,38856
32404,35489,38998
32301,35585,38980
32348,35681,38989
32356,35694,38977
32432,35686,38945
32468,35599,38828
32480,35492,38779
32448,35412,38960
32434,35382,38860
32472,35400,38943
32444,35485,38773
32484,35591,38736
32500,35684,38888
32508,35729,38832
32460,35686,38848
32440,35601,38856
32380,35507,38686
32372,35418,38821
32368,35379,38752
32436,35404,38740
32536,35492,38672
32528,35604,38776
32488,35685,38708
32480,35722,38591
32508,35697,38716
32421,35612,38656
32436,35496,38608
32488,35423,38597
32552,35378,38681
32556,35415,38652
32584,35488,38476
32646,35607,38469
32520,35692,38441
32622,35730,38392
32616,35700,38540
32516,35606,38459
32408,35502,38535
32141,35424,38333
32000,35353,38476
31888,35415,38407
32044,35501,38470
32388,35606,38284
32912,35668,38253
33452,35731,38396
33988,35693,38357
34541,35584,38279
35028,35504,38386
35540,35423,38208
35792,35385,38182
35852,35398,38221
35628,35519,38289
34976,35623,38330
34057,35705,38321
33056,35708,38279
31745,35719,38308
29512,35649,38292
26952,35525,38208
25756,35452,38180
26610,35388,38169
28192,35444,38152
29373,35527,38151
30349,35620,38309
31352,35675,38297
32092,35741,38300
32598,35708,38298
32896,35623,38285
32997,35513,38303
33112,35408,38270
33240,35405,38215
33300,35433,38304
33336,35511,38301
33376,35620,38253
33412,35701,38146
33312,35745,38151
33276,35716,38244
33272,35629,38244
33396,35520,38257
33365,35447,38320
33328,35397,38316
33404,35431,38184
33420,35517,38165
33304,35617,38183
33424,35703,38355
33404,35745,38327
33420,35698,38287
33336,35621,38324
33292,35527,38377
33253,35420,38380
33392,35396,38269
33476,35425,38343
33512,35506,38375
33476,35620,38295
33484,35700,38252
33508,35745,38212
33496,35695,38269
33476,35637,38205
33488,35527,38168
33385,35439,38148
33496,35401,38322
33548,35429,38263
33536,35512,38274
33532,35623,38326
33524,35705,38244
33480,35748,38136
33524,35712,38297
33516,35604,38284
33492,35524,38252
33534,35444,38261
33594,35400,38244
33636,35429,38191
33620,35519,38301
33716,35623,38293
33806,35700,38119
33812,35732,38108
33761,35719,38252
33748,35633,38197
33780,35532,38273
33744,35439,38129
33800,35376,38090
33748,35429,38060
33848,35513,38053
33896,35615,38215
34004,35698,38189
34004,35744,38136
34048,35716,38101
33920,35630,38081
33924,35527,38159
33988,35437,38156
34152,35399,38124
34244,35431,38120
34240,35501,37979
34280,35620,37932
34228,35697,37887
34181,35741,38049
34222,35716,38011
34328,35636,37989
34368,35520,37971
34380,35437,37969
34420,35399,37900
34496,35428,37853
34468,35477,37820
34528,35614,37804
34720,35701,37809
34752,35743,37824
34768,35712,37796
34732,35633,37780
34814,35532,37717
34900,35439,37688
34916,35391,37613
35024,35405,37541
35048,35503,37505
35064,35612,37464
35232,35696,37444
35244,35738,37405
35232,35713,37541
35220,35625,37516
35236,35505,37484
35337,35436,37412
35380,35388,37356
35360,35414,37432
35456,35508,37368
35516,35604,37340
35572,35692,37297
35509,35737,37276
35564,35716,37214
35596,35630,37151
35464,35527,37116
35428,35433,37264
35520,35393,37238
35540,35414,37164
35552,35500,37170
35560,35613,37168
35577,35695,37059
35553,35732,37040
35540,35700,37028
35488,35628,37172
35380,35519,37161
35289,35437,37141
35348,35393,37143
35256,35420,37116
35192,35501,37037
35072,35604,37044
34940,35683,37028
34808,35736,37028
34648,35719,37080
34448,35634,36958
34281,35521,37080
34068,35446,37071
33873,35370,37055
33676,35424,37048
33508,35501,37044
33292,35605,37072
33048,35693,37013
32824,35741,36920
32653,35711,37060
32452,35639,37052
32238,35528,37038
32052,35445,36973
31888,35399,37005
31736,35431,37060
31660,35511,37052
31536,35614,36965
31456,35693,36895
31290,35743,37036
31204,35724,37032
31125,35636,36999
31112,35501,37028
31077,35444,37029
31061,35405,37016
31008,35421,36871
31000,35497,36884
31016,35576,37017
31020,35700,36999
30984,35736,36927
30960,35717,36967
30925,35636,37012
30896,35532,36837
30886,35413,36831
30892,35394,36945
30944,35406,36938
30952,35470,36828
31024,35596,36959
30928,35694,36901
30952,35721,36941
30988,35708,36779
30940,35628,36832
30928,35519,36889
31005,35436,36798
30996,35392,36717
31060,35418,36848
31072,35460,36817
31156,35612,36788
31171,35685,36748
31156,35731,36764
31221,35712,36629
31208,35623,36760
31248,35521,36662
31246,35438,36677
31268,35390,36605
31389,35405,36631
31428,35484,36615
31476,35607,36495
31488,35684,36625
31474,35727,36543
31461,35704,36584
31492,35623,36408
31533,35513,36536
31532,35420,36476
31532,35382,36500
31600,35398,36413
31657,35486,36288
31648,35591,36284
31620,35681,36380
31652,35733,36336
31628,35700,36244
31684,35591,36297
31680,35517,36244
31688,35422,36119
31700,35374,36073
31748,35397,36175
31800,35471,36108
31840,35591,36064
31896,35676,36092
31852,35710,35991
31772,35694,35896
31732,35575,35876
31804,35503,35836
31792,35409,35802
31832,35365,35911
31841,35397,35847
31848,35463,35808
31876,35576,35788
31956,35660,35797
31992,35709,35724
31964,35687,35591
31928,35601,35573
31904,35500,35542
31958,35404,35549
31944,35365,35627
31928,35384,35542
31976,35477,35548
31992,35567,35412
31973,35670,35436
32014,35696,35470
32036,35692,35431
32028,35596,35470
32026,35489,35316
32025,35405,35308
32008,35361,35364
32004,35368,35330
32024,35463,35276
32064,35564,35301
32050,35652,35141
32037,35694,35268
32060,35652,35194
32088,35589,35220
32076,35484,35183
32072,35392,35101
32084,35335,35025
32084,35348,35133
32100,35454,35079
32124,35557,35023
32133,35649,35055
32120,35696,35006
32108,35657,34917
32156,35580,34881
32158,35479,34958
32161,35386,34924
32160,35349,34855
32208,35368,34856
32256,35439,34844
32288,35557,34844
32292,35636,34813
32248,35687,34740
32244,35640,34630
32248,35581,34616
32272,35463,34607
32324,35380,34574
32380,35335,34545
32424,35361,34628
32448,35439,34552
32436,35540,34580
32420,35636,34493
32428,35646,34439
32464,35645,34331
32476,35565,34345
32504,35457,34393
32553,35377,34346
32578,35317,34293
32594,35345,34254
32596,35433,34197
32596,35537,34129
32568,35630,34032
32508,35671,33956
32437,35644,34008
32380,35557,33925
32348,35455,33884
32336,35372,33840
32368,35327,33786
32398,35348,33725
32408,35428,33679
32420,35532,33604
32360,35620,33480
32384,35663,33477
32376,35640,33408
32364,35557,33332
32380,35422,33337
32396,35362,33277
32428,35313,33210
32436,35335,33108
32421,35391,33012
32506,35522,32929
32592,35609,32868
32612,35648,32824
32592,35631,32785
32604,35532,32708
32624,35445,32724
32592,35357,32647
32556,35308,32586
32524,35335,32533
32540,35412,32484
32528,35513,32434
32468,35607,32368
32432,35647,32216
32416,35613,32166
32448,35543,32108
32452,35434,32052
32428,35326,31991
32440,35294,31927
32450,35318,31879
32468,35372,31864
32496,35508,31847
32512,35597,31826
32520,35637,31797
32520,35613,31751
32572,35533,31716
32592,35431,31652
32592,35334,31568
32609,35288,31527
32622,35312,31521
