ECG,EDA,RR
33848,52868,33756
33901,52860,33917
33896,52852,33837
33997,52861,33829
34016,52858,33760
33988,52871,33729
34060,52911,33705
34056,52893,33524
34064,52897,33572
34012,52889,33597
34032,52856,33574
33960,52836,33400
33976,52837,33412
34036,52792,33540
34088,52839,33413
34160,52886,33403
34232,52913,33250
34300,52905,33146
34278,52903,33225
34198,52865,33273
34222,52774,33212
34180,52805,33172
34161,52780,33007
34216,52839,32958
34248,52781,33080
34261,52881,33060
34252,52871,32816
34192,52895,32956
34136,52871,32937
34088,52871,32892
34012,52788,32728
33948,52815,32639
33952,52823,32847
34013,52839,32723
34080,52839,32670
34124,52871,32593
34236,52888,32741
34248,52861,32623
34206,52884,32548
34200,52871,32551
34193,52853,32508
34145,52820,32347
34164,52831,32508
34192,52837,32439
34172,52833,32335
34128,52871,32210
34081,52894,32429
34036,52892,32366
33984,52885,32207
33964,52871,32417
33944,52821,32327
33942,52740,32169
33852,52799,32292
33856,52743,32276
33848,52823,32261
33864,52869,32092
33881,52887,32261
33932,52871,32217
33904,52871,32140
33834,52871,32297
33781,52822,32165
33704,52813,32103
33724,52801,32015
33732,52815,32244
33728,52818,32100
33788,52852,32087
33828,52871,32002
33852,52871,31942
33848,52871,32134
33840,52855,32002
33848,52820,31981
33848,52791,31841
33864,52791,32048
33908,52791,31919
33904,52799,31820
33948,52844,31980
34073,52868,31844
33976,52863,31845
33806,52844,31748
33736,52767,31633
33637,52791,31885
33476,52692,31784
33376,52768,31767
33388,52780,31648
33381,52772,31845
33448,52821,31709
33481,52844,31701
33461,52829,31670
33404,52773,31487
33336,52820,31778
33228,52788,31642
33156,52759,31654
33144,52743,31577
33180,52741,31454
33216,52775,31708
33296,52813,31580
33388,52820,31584
33404,52820,31447
33372,52831,31495
33412,52805,31604
33440,52734,31540
33380,52733,31495
33368,52660,31335
33452,52743,31325
33480,52743,31604
33484,52796,31479
33457,52809,31281
33429,52809,31487
33452,52788,31447
33448,52791,31383
33300,52679,31298
33212,52701,31524
33188,52733,31399
33204,52737,31404
33264,52740,31194
33394,52743,31476
33500,52780,31399
33432,52788,31376
33416,52767,31342
33444,52772,31337
33468,52735,31350
33432,52645,31319
33412,52686,31178
33372,52704,31138
33388,52700,31421
33432,52700,31305
33416,52761,31286
33416,52710,31121
33410,52743,31177
33372,52732,31396
33388,52710,31289
33404,52684,31274
33328,52693,31211
33344,52687,31156
33372,52685,31183
33417,52733,31057
33373,52743,31372
33316,52743,31239
33232,52735,31244
33180,52688,31239
33136,52679,31111
33140,52581,31132
33184,52629,31336
33260,52665,31248
33304,52669,31246
33356,52709,31180
33292,52733,31040
33186,52721,31332
32900,52684,31221
32348,52697,31229
31584,52660,31196
30436,52645,31040
29420,52628,31022
28624,52644,31340
27888,52585,31226
27196,52698,31202
26540,52697,31180
26352,52682,31013
26460,52684,31311
27076,52660,31176
28272,52637,31104
30656,52549,31004
34092,52596,31183
38176,52628,31271
42340,52645,31165
46176,52656,31120
49112,52695,30968
50872,52676,31226
51616,52669,31158
50856,52676,31140
48784,52631,31082
46560,52596,31076
44996,52592,31001
43444,52604,30965
42240,52615,31204
41508,52637,31103
40896,52625,31005
40104,52655,31100
39024,52640,31103
38020,52639,31078
37098,52593,31038
36200,52517,30942
35164,52583,31147
34272,52587,31046
33436,52580,30983
32708,52622,30996
32092,52591,31079
31618,52636,31070
31236,52639,31074
30993,52629,30990
30792,52584,31167
30617,52537,31108
30548,52567,31094
30544,52583,31124
30640,52571,31173
30728,52532,31142
30822,52615,31157
30840,52639,31179
30816,52615,31007
30789,52596,31269
30724,52525,31217
30628,52548,31108
30540,52544,31239
30542,52554,31268
30574,52551,31278
30672,52541,31324
30668,52615,31201
30689,52607,31367
30746,52581,31361
30756,52591,31367
30752,52557,31396
30768,52521,31397
30804,52508,31413
30880,52534,31401
30900,52556,31365
30940,52525,31289
31044,52612,31256
31108,52605,31324
31096,52519,31431
31064,52599,31511
31044,52543,31504
31040,52525,31428
31036,52460,31387
31052,52545,31381
31096,52540,31367
31182,52588,31340
31223,52556,31318
31177,52599,31308
31116,52583,31277
31040,52503,31271
30948,52553,31250
30913,52527,31239
30969,52509,31313
31036,52543,31319
31064,52485,31223
31088,52599,31180
31136,52607,31160
31101,52613,31139
31040,52573,31119
31009,52565,31119
31020,52556,30982
31040,52513,30924
30972,52548,31190
30949,52487,31077
30964,52563,31060
30980,52607,31071
30980,52621,30983
30932,52624,30896
30872,52615,31112
30802,52615,31100
30656,52583,31084
30528,52547,31040
30486,52532,30943
30372,52573,30919
30305,52595,31128
30324,52615,31165
30396,52655,31134
30471,52639,31162
30472,52655,31180
30384,52642,31111
30316,52604,31015
30216,52597,31340
30117,52597,31239
30084,52513,31256
30112,52629,31279
30084,52671,31276
30025,52687,31227
29924,52696,31177
29878,52670,31174
29872,52637,31485
29796,52640,31419
29752,52564,31412
29743,52637,31440
29694,52580,31285
29677,52660,31332
29652,52633,31604
29661,52739,31495
29664,52660,31529
29548,52741,31465
29484,52740,31366
29420,52716,31601
29408,52693,31569
29444,52624,31579
29536,52708,31461
29672,52732,31517
29849,52777,31596
29982,52807,31528
30072,52815,31676
30084,52805,31624
30132,52807,31480
30216,52695,31727
30317,52765,31645
30428,52775,31540
30592,52807,31648
30784,52813,31643
31004,52863,31545
31236,52887,31589
31472,52893,31709
31672,52887,31655
31822,52895,31615
31920,52852,31462
32044,52850,31721
32184,52816,31665
32314,52853,31483
32504,52855,31662
32716,52935,31638
32936,52929,31476
33164,52967,31663
33327,52968,31622
33416,52972,31606
33444,52871,31514
33493,52924,31697
33508,52957,31588
33548,52975,31408
33580,52973,31585
33636,53026,31540
33737,53079,31340
33824,53095,31607
33876,53081,31501
33908,53103,31365
33792,53063,31332
33752,53060,31444
33736,53069,31444
33680,53095,31277
33684,53113,31423
33728,53157,31372
33780,53196,31351
33800,53214,31179
33769,53201,31232
33752,53165,31334
33728,53203,31385
33680,53191,31285
33644,53119,31252
33640,53224,31184
33665,53252,31175
33676,53224,31162
33704,53334,31141
33696,53349,30972
33657,53356,30887
33661,53359,30972
33687,53332,30865
33668,53324,31026
33688,53359,31086
33568,53375,31025
33580,53404,31015
33604,53457,30983
33748,53469,30953
33852,53511,30817
33888,53511,30797
33876,53529,30999
33868,53492,30914
33848,53495,30916
33894,53487,30916
33972,53540,30906
34012,53581,30881
34004,53620,30749
33984,53657,30917
33944,53684,30864
33920,53692,30860
33984,53703,30680
33996,53671,30622
33980,53669,30896
33956,53700,30824
33944,53724,30772
33912,53766,30787
33948,53801,30765
34020,53845,30756
34040,53785,30763
34060,53884,30702
34049,53895,30537
33952,53872,30804
33848,53876,30695
33828,53892,30701
33840,53925,30708
33896,53956,30532
33908,54004,30565
33942,54023,30765
33920,54071,30644
33812,54077,30669
33736,54109,30511
33712,54079,30726
33700,54087,30639
33644,54093,30629
33604,54063,30444
33640,54175,30688
33688,54215,30606
33680,54265,30604
33710,54278,30580
33716,54276,30451
33716,54304,30631
33664,54279,30582
33668,54279,30575
33620,54279,30397
33573,54342,30620
33509,54383,30575
33552,54431,30493
33624,54487,30564
33652,54493,30532
33625,54485,30465
33614,54519,30316
33524,54508,30605
33420,54503,30544
33444,54519,30533
33440,54575,30429
33456,54612,30476
33528,54663,30495
33534,54676,30537
33561,54716,30389
33480,54741,30290
33456,54759,30574
33444,54743,30489
33532,54740,30490
33548,54756,30335
33532,54791,30552
33444,54825,30503
33413,54870,30440
33472,54919,30444
33464,54879,30484
33444,54972,30485
33440,54919,30373
33476,54949,30553
33472,54972,30470
33454,55000,30319
33476,55025,30447
33536,55076,30430
33460,55124,30427
33413,55166,30439
33300,55125,30415
33096,55207,30381
33016,55175,30324
33004,55196,30404
32920,55215,30343
32912,55236,30509
32944,55277,30421
32897,55292,30308
32960,55303,30367
33025,55388,30383
33012,55429,30378
32997,55445,30388
32988,55469,30396
32932,55450,30373
32916,55455,30137
32952,55469,30455
33005,55511,30413
33080,55524,30421
33232,55605,30276
33369,55636,30302
33413,55628,30434
33364,55631,30410
33316,55687,30428
33248,55650,30424
33108,55687,30368
33060,55716,30176
33085,55743,30479
33136,55773,30409
33212,55815,30440
33204,55885,30361
33140,55884,30226
33204,55828,30501
33196,55917,30447
33216,55844,30298
33224,55902,30517
33224,55935,30433
33177,55975,30461
33216,56004,30406
33224,56047,30403
33270,56071,30501
33344,56133,30469
33352,56103,30488
33390,56154,30453
33396,56143,30287
33312,56068,30500
33232,56167,30482
33192,56199,30524
33200,56190,30517
33264,56280,30404
33256,56324,30592
33176,56367,30540
33174,56359,30445
33249,56383,30367
33188,56350,30493
33120,56351,30647
33152,56391,30556
33156,56436,30580
33148,56455,30568
33156,56505,30573
33217,56558,30455
33217,56561,30487
33224,56583,30711
33201,56597,30623
33164,56583,30660
33136,56579,30660
33104,56557,30679
32960,56629,30524
32660,56582,30412
32080,56719,30761
31241,56770,30692
30208,56797,30708
29204,56799,30701
28356,56774,30625
27550,56793,30477
26900,56724,30804
26400,56807,30716
26268,56839,30722
26528,56879,30652
27292,56943,30588
28750,56972,30614
31556,56956,30793
35368,56961,30726
39392,57048,30676
43204,57028,30493
46592,57028,30684
49248,57060,30799
50884,57049,30712
51472,57132,30717
50296,57182,30406
48224,57223,30749
46408,57240,30703
45072,57252,30665
43596,57250,30647
42532,57223,30439
41784,57255,30690
41100,57254,30746
40020,57281,30761
38836,57320,30688
37752,57351,30672
36683,57328,30695
35640,57431,30693
34596,57436,30500
33663,57447,30780
32740,57432,30688
31938,57433,30746
31386,57445,30756
31044,57471,30655
30848,57511,30569
30748,57569,30792
30744,57600,30873
30676,57607,30808
30504,57636,30855
30448,57641,30846
30432,57551,30823
30404,57636,30705
30460,57636,30615
30528,57660,30991
30540,57703,30956
30501,57751,30981
30580,57726,30991
30620,57800,30792
30556,57821,30940
30512,57735,31097
30512,57813,31082
30524,57809,31095
30556,57735,30970
30608,57854,30865
30656,57863,31118
30762,57937,31161
30844,57889,31268
30916,57991,31208
30889,57988,31220
30960,57927,31173
30933,57956,31119
30920,57901,31309
30953,58012,31300
30950,58029,31276
30956,57973,31231
31056,58119,31054
31120,58151,31365
31066,58159,31277
30996,58181,31279
30936,58183,31316
30857,58079,31244
30796,58151,31151
30736,58172,31299
30712,58223,31269
30796,58239,31206
30870,58279,31036
30924,58309,31249
30887,58320,31295
30880,58311,31196
30832,58369,31204
30756,58335,31193
30724,58341,30878
30717,58277,31149
30716,58375,31164
30753,58407,31097
30729,58460,31103
30764,58495,31125
30764,58452,31119
30681,58495,30917
30572,58516,31103
30548,58503,31076
30476,58492,31086
30342,58439,31094
30320,58548,30932
30352,58567,30984
30396,58528,31089
30374,58661,31184
30288,58661,31116
30280,58644,31116
30244,58669,30864
30168,58631,31176
30114,58585,31135
30116,58631,30981
30037,58689,31150
29984,58663,31151
30008,58759,31181
30060,58807,31030
30072,58813,31262
30052,58821,31192
30008,58823,31239
29962,58796,30964
29888,58751,31220
29872,58823,31354
29869,58823,31297
29870,58775,31301
29912,58887,31316
29900,58876,31166
29888,58967,31177
29858,58937,31404
29708,58861,31357
29620,58910,31384
29560,58887,31319
29576,58951,31287
29652,58965,31419
29644,58999,31425
29660,59038,31369
29748,59090,31524
29799,59077,31431
29788,59087,31488
29760,59103,31477
29692,59031,31473
29684,59055,31444
29706,59079,31380
29764,59081,31489
29772,59117,31516
29960,59172,31517
30096,59190,31525
30180,59172,31421
30269,59208,31220
30328,59214,31616
30440,59180,31559
30604,59177,31565
30858,59111,31430
31140,59214,31608
31314,59239,31548
31484,59271,31465
31692,59271,31444
31892,59328,31489
32092,59335,31608
32310,59252,31547
32353,59300,31556
32360,59280,31417
32412,59237,31509
32544,59329,31634
32732,59337,31564
32972,59316,31549
33094,59399,31546
33208,59391,31361
33284,59431,31518
33388,59428,31613
33344,59396,31544
33352,59321,31488
33352,59399,31517
33417,59431,31511
33463,59441,31455
33548,59489,31180
33628,59453,31546
33636,59527,31453
33612,59527,31444
33508,59511,31425
33424,59493,31372
33461,59488,31202
33504,59479,31308
33580,59503,31460
33608,59545,31340
33720,59510,31359
33740,59628,31325
33748,59628,31319
33716,59617,31092
33744,59613,30968
33660,59602,30948
33508,59573,31322
33552,59543,31237
33645,59633,31231
33720,59633,31223
33780,59677,31142
33808,59717,31030
33804,59712,30868
33748,59727,31052
33628,59699,31204
33528,59687,31124
33550,59604,31076
33597,59705,30825
33624,59704,31162
33636,59711,31113
33624,59764,30954
33716,59813,30788
33744,59766,31046
33764,59813,31092
33800,59806,31077
33881,59727,31073
33772,59724,31023
33798,59759,31012
33888,59808,31004
34004,59820,30878
33956,59877,31034
33892,59870,31150
33810,59863,31093
33792,59895,31137
33812,59883,31119
33792,59863,31070
33788,59857,30941
33856,59852,31095
33796,59892,31156
33840,59903,31137
33844,59872,31141
33884,59991,30999
33960,59983,30815
33996,59977,31159
33980,59929,31188
33704,59957,31117
33602,59938,31169
33696,59872,31148
33712,59975,31085
33584,59993,30991
33776,60039,31049
33712,59985,31203
33660,60079,31139
33576,60063,31202
33580,60048,31188
33632,59968,31132
33628,60023,31079
33609,60039,31085
33688,60053,31093
33685,59970,31244
33760,60116,31287
33788,60128,31214
33836,60143,31237
33756,60068,31250
33704,60148,31268
33656,60084,31183
33557,60102,31069
33533,60108,30961
33560,60071,30977
33540,60092,31359
33612,60167,31290
33684,60211,31332
33648,60205,31328
33628,60204,31332
33556,60206,31300
33520,60167,31148
33505,60079,31373
33468,60166,31375
33532,60167,31404
33572,60197,31396
33604,60255,31405
33689,60279,31184
33741,60221,31423
33660,60260,31449
33540,60263,31447
33468,60166,31389
33417,60230,31209
33368,60225,31367
33309,60247,31553
33460,60256,31489
33416,60279,31497
33500,60327,31473
33452,60327,31486
33404,60324,31396
33320,60326,31244
33245,60281,31392
33284,60287,31200
33296,60284,31171
33314,60229,31391
33364,60332,31444
33361,60357,31518
33344,60396,31477
33352,60315,31484
33304,60396,31476
33272,60359,31460
33192,60348,31276
33068,60332,31389
32992,60335,31529
32972,60365,31473
32976,60396,31442
32972,60420,31453
32984,60436,31409
32928,60447,31332
32913,60356,31303
32856,60445,31252
32781,60399,31141
32656,60399,31124
32649,60405,31478
32650,60423,31437
32692,60423,31475
32748,60479,31454
32688,60511,31477
32635,60415,31490
32612,60516,31463
32572,60496,31402
32544,60385,31220
32516,60440,31500
32612,60376,31488
32728,60423,31396
32896,60493,31194
33041,60543,31616
33045,60543,31533
33088,60564,31559
33116,60561,31573
33148,60550,31429
33080,60423,31516
33036,60527,31672
33004,60509,31617
32904,60543,31658
32818,60503,31662
32836,60596,31593
32888,60612,31384
32848,60567,31764
32792,60601,31698
32880,60592,31716
32900,60503,31725
32916,60565,31677
32964,60551,31668
33080,60581,31719
33096,60572,31813
33132,60644,31888
33189,60647,31871
33188,60648,31871
33144,60636,31844
33144,60644,31782
33102,60613,31674
33052,60612,31846
32976,60615,31977
32904,60618,31956
32940,60644,31977
32924,60679,31884
32828,60717,31813
32824,60711,31997
32816,60707,32044
32816,60615,32084
32772,60616,32084
32732,60647,32109
32692,60565,32052
32704,60679,32005
32821,60678,31909
32801,60724,32260
32836,60732,32236
32782,60655,32230
32776,60732,31980
32774,60726,32184
32744,60593,32257
32602,60679,32385
32528,60679,32342
32512,60717,32276
32456,60717,32048
32314,60740,32316
31860,60757,32287
31108,60772,32444
30112,60772,32477
29052,60767,32381
28268,60724,32429
27493,60608,32436
26920,60715,32431
26424,60730,32398
26364,60756,32276
26534,60768,32205
27104,60801,32125
28116,60807,32351
30336,60805,32476
33480,60741,32468
37372,60780,32479
41024,60760,32429
44404,60792,32420
47368,60820,32428
49304,60828,32336
50380,60852,32362
50144,60917,32359
48404,60893,32340
46496,60870,32352
45204,60804,32391
44021,60839,32396
42826,60761,32393
42048,60807,32381
41324,60820,32375
40340,60848,32306
39120,60900,32304
37991,60900,32284
36893,60908,32172
35852,60807,32229
34768,60885,31997
33796,60855,32332
32864,60831,32386
32108,60853,32304
31620,60861,32311
31280,60868,32253
31040,60837,32212
30784,60932,32239
30548,60935,32316
30368,60935,32388
30380,60924,32343
30236,60902,32324
30092,60871,32319
30076,60895,32309
30072,60912,32135
30084,60916,32079
30128,60959,32380
30216,60983,32369
30254,60959,32287
30332,60982,32325
30332,60973,32241
30288,60871,32069
30240,60932,32199
30276,60916,32333
30316,60957,32254
30340,60967,32276
30328,60996,32278
30326,61037,32236
30376,61044,32143
30416,61020,32004
30444,61015,32188
30484,60988,32175
30512,60972,32172
30580,60956,31948
30664,60976,32093
30640,61015,32211
30645,61021,32119
30572,61095,32094
30544,61087,32070
30520,60989,31940
30508,61063,31956
30500,61023,32087
30412,60935,31966
30296,61047,31967
30272,61055,31926
30404,61076,31573
30604,61109,31933
30728,61115,31852
30745,61120,31815
30761,61129,31616
30717,61132,31485
30676,61045,31635
30614,61076,31788
30566,61077,31671
30600,61047,31671
30708,61117,31620
30752,61063,31600
30756,61191,31495
30720,61183,31439
30692,61189,31399
30668,61141,31332
30602,61156,31284
30556,61132,31361
30528,61159,31300
30560,61167,31309
30600,61113,31270
30632,61247,31323
30628,61255,31367
30512,61255,31247
30420,61172,31210
30388,61259,31168
30340,61180,31105
30416,61209,31351
30385,61236,31377
30368,61185,31381
30384,61266,31460
30420,61298,31456
30384,61319,31505
30286,61233,31544
30184,61337,31471
30121,61314,31524
30032,61291,31494
29920,61286,31293
29828,61277,31181
29732,61306,31615
29732,61292,31557
29808,61372,31596
29724,61407,31582
29656,61404,31605
29599,61367,31447
29537,61388,31516
29540,61369,31670
29537,61356,31669
29540,61336,31692
29512,61396,31764
29400,61398,31724
29270,61447,31751
29108,61481,31808
29056,61394,31807
29076,61479,31839
29124,61477,31780
29096,61436,31692
29100,61446,31818
29232,61420,31973
29322,61447,31921
29352,61479,31941
29476,61447,31940
29566,61567,31994
29577,61549,32015
29672,61549,32004
29832,61567,31871
30008,61501,31834
30224,61516,31751
30450,61535,31900
30645,61447,31960
30848,61567,32060
31068,61620,32076
31292,61644,32109
31534,61573,32128
31700,61599,32093
31868,61636,31861
31949,61575,32108
32056,61607,32172
32257,61618,32135
32478,61632,32156
32676,61574,32109
32836,61703,31990
32913,61717,31807
32953,61636,32122
33092,61703,32190
33220,61718,32157
33192,61695,32142
33176,61590,32095
33252,61695,31988
33405,61703,32113
33580,61647,32148
33648,61773,32156
33720,61809,32076
33801,61748,31816
33780,61806,32199
33772,61800,32159
33724,61724,32135
33644,61775,31974
33644,61764,32030
33637,61799,32166
33645,61830,32141
33740,61878,31815
33856,61860,32169
33880,61895,32137
33796,61895,32121
33744,61831,31789
33632,61868,32167
33624,61854,32125
33676,61810,32007
33680,61886,32125
33668,61860,32093
33680,61949,32092
33696,61952,32117
33760,61959,32086
33824,61911,31780
33796,61990,32136
33768,61949,32117
33708,61916,32094
33748,61941,31874
33760,61959,32036
33718,62013,32165
33760,62055,32093
33828,62076,32112
33812,62084,32088
33760,62061,32069
33708,61998,31940
33656,62063,31738
33568,62030,32069
33547,62046,32163
33516,62068,32060
33525,62087,32065
33604,62147,32000
33664,62161,31727
33704,62161,32100
33740,62183,32065
33732,62148,32047
33648,62144,32071
33576,62130,32028
33612,62082,32038
33696,62183,31968
33669,62167,31881
33704,62247,31959
33724,62269,32051
33752,62257,32041
33792,62191,32017
33776,62247,31805
33692,62236,31908
33596,62215,32007
33680,62215,32019
33704,62262,31980
33708,62283,31719
33720,62328,32021
33742,62359,31950
33732,62288,31975
33704,62343,31894
33657,62343,31663
33569,62311,32013
33468,62308,31944
33472,62311,31948
33534,62336,31770
33544,62366,32001
33584,62412,31945
33572,62437,31702
33564,62453,31961
33592,62429,31945
33540,62368,31972
33452,62383,31922
33408,62399,31620
33472,62405,31996
33556,62431,31968
33636,62462,31921
33790,62500,31743
33788,62424,31876
33760,62471,31924
33732,62527,31973
33804,62453,31942
33716,62468,31849
33568,62471,31623
33500,62500,31951
33436,62492,31972
33412,62527,31987
33401,62589,31934
33429,62599,31617
33428,62559,32020
33431,62535,31953
33452,62599,31965
33508,62511,31896
33452,62552,31900
33404,62575,31747
33436,62588,31995
33436,62599,31968
33509,62599,31862
33616,62680,31911
33636,62679,32007
33540,62592,31992
33480,62673,31909
33413,62612,31656
33352,62631,32044
33376,62565,31980
33424,62663,32023
33436,62674,31990
33464,62723,31999
33468,62756,31676
33536,62748,31960
33460,62755,32028
33364,62740,31977
33376,62688,31762
33416,62700,32002
33440,62724,32015
33392,62727,31879
33405,62754,32058
33484,62806,31973
33521,62825,31783
33480,62816,32038
33408,62824,31996
33353,62804,31837
33252,62791,32021
33260,62761,31953
33263,62784,31751
33172,62794,32022
33173,62812,31983
33304,62855,31950
33365,62887,31749
33390,62800,31924
33364,62832,31997
33256,62889,31812
33196,62855,32020
33200,62848,31981
33232,62844,31915
33277,62860,31919
33332,62892,31996
33396,62943,31818
33461,62960,32013
33500,62887,31976
33516,62932,31637
33512,62877,31976
33472,62935,31966
33408,62908,31671
33460,62895,31980
33532,62895,31912
33580,62952,32006
33588,63015,31992
33544,63031,31855
33472,62983,32053
33432,63021,31994
33444,62978,32007
33448,62911,31764
33444,62975,32097
33473,62893,32054
33494,62983,31933
33444,62940,31988
33509,63061,32023
33548,63012,32037
33532,63076,31745
33488,63052,32116
33472,63071,32086
33512,63044,32018
33436,63032,32063
33396,63047,32070
33400,63058,31935
33440,63047,31748
33472,63100,32157
33524,63061,32103
33534,63132,31854
33496,63159,32213
33516,63135,32176
33432,63093,32101
33354,63087,31828
33288,63109,32256
33260,63047,32218
33236,63129,32152
33296,63162,32044
33380,63189,32191
33576,63188,32257
33656,63191,32252
33596,63086,32239
33580,63144,32218
33438,63055,32356
33268,63148,32316
32920,63148,32343
32332,63127,32336
31444,63212,32216
30356,63236,32241
29445,63172,32380
28636,63231,32372
27900,63212,32373
27279,63180,32333
26808,63071,32317
26792,63156,32295
27174,63195,32224
28193,63213,32054
29897,63274,32501
32564,63213,32431
35832,63308,32429
39461,63302,32324
43292,63229,32372
46508,63271,32448
48808,63220,32468
50093,63284,32214
50292,63303,32505
48976,63330,32478
46752,63345,32317
44957,63355,32524
43752,63335,32503
42341,63332,32507
41389,63343,32389
40732,63303,32157
40060,63279,32516
39268,63284,32590
38464,63290,32504
37564,63279,32544
36736,63295,32519
35824,63381,32504
34909,63374,32517
34080,63353,32503
33217,63340,32196
32486,63324,32620
32016,63239,32544
31808,63301,32590
31632,63312,32574
31508,63328,32401
31420,63380,32689
31333,63312,32655
31290,63388,32519
31238,63393,32641
31200,63343,32684
31032,63315,32681
30965,63328,32401
30936,63292,32713
30969,63341,32781
30900,63269,32764
30976,63412,32528
30964,63428,32820
30980,63423,32908
31020,63415,32868
31108,63398,32741
31176,63288,32873
31134,63333,32924
31156,63367,32976
31228,63367,32910
31372,63393,32748
31501,63423,33084
31536,63446,33055
31520,63436,33076
31544,63437,32989
31484,63343,32746
31360,63384,33180
31443,63367,33125
31400,63290,33112
31360,63388,33116
31472,63396,32936
31532,63449,32780
31492,63385,33110
31412,63450,33127
31456,63461,33124
31532,63367,33118
31580,63404,33109
31612,63367,32976
31620,63394,33004
31612,63404,33065
31497,63405,33052
31488,63447,32973
31516,63407,32920
31460,63456,32741
31456,63431,32652
31548,63436,32983
31520,63319,32955
31477,63388,32960
31445,63376,32725
31441,63415,32892
31437,63380,32944
31484,63463,32916
31438,63487,32890
31424,63468,32887
31260,63367,32775
31194,63446,32628
31048,63391,32791
30896,63391,32919
30845,63302,32881
30888,63421,32869
30902,63415,32884
30896,63472,32853
30853,63465,32849
30800,63428,32782
30805,63456,32544
30776,63405,32948
30609,63421,32921
30500,63380,32895
30372,63392,32889
30312,63399,32860
30336,63421,32738
30220,63384,32918
30162,63463,32924
30152,63460,32961
30032,63447,32929
29964,63441,32788
29772,63399,32767
29637,63340,32619
29613,63396,33012
29600,63399,32977
29556,63415,33023
29520,63433,32998
29452,63444,33004
29452,63463,32963
29412,63391,32802
29366,63445,32679
29292,63391,32976
29140,63394,33110
29200,63387,33042
29276,63357,33058
29312,63420,33040
29364,63360,32881
29457,63469,32956
29420,63455,33065
29508,63452,33076
29453,63335,33023
29552,63387,33045
29652,63356,33060
29766,63381,33028
29900,63399,32866
30017,63367,32800
30258,63431,32817
30369,63447,32732
30439,63354,32748
30648,63431,32716
30569,63413,32822
30592,63364,32728
30832,63357,32705
31172,63357,32903
31600,63352,32928
31945,63296,32887
32176,63409,32861
32480,63428,32832
32716,63408,32744
32873,63420,32567
33009,63385,32708
33140,63356,32820
33252,63239,32750
33304,63314,32727
33416,63348,32615
33488,63364,32632
33648,63398,32687
33788,63387,32668
33804,63397,32629
33830,63388,32565
33796,63360,32352
33884,63325,32316
33880,63321,32337
33948,63319,32359
34048,63328,32277
34080,63349,32540
34105,63293,32508
34172,63391,32411
34192,63390,32380
34188,63348,32360
34160,63340,32260
34136,63317,32162
34072,63285,32161
34052,63287,32225
34038,63292,32200
34038,63309,32229
34008,63359,32145
34088,63348,32135
34106,63343,32077
34052,63349,32041
33985,63304,31826
33928,63239,31649
33948,63237,31884
34045,63271,31972
34096,63271,31893
34180,63276,31905
34220,63258,31847
34284,63325,31836
34240,63322,31781
34232,63303,31676
34152,63287,31719
34100,63239,31748
34040,63223,31732
34032,63231,31675
34076,63239,31455
34128,63257,31751
34080,63295,31647
34112,63303,31644
34172,63288,31605
34112,63181,31588
34017,63263,31489
34024,63121,31502
34016,63181,31526
33925,63127,31492
33968,63206,31454
34025,63132,31198
34076,63231,31416
34040,63207,31408
33936,63239,31385
33940,63161,31351
33980,63207,31236
33906,63157,31197
33817,63160,30967
33744,63152,31255
33748,63165,31278
33789,63183,31238
33860,63223,31145
33876,63229,31082
33821,63183,30866
33710,63175,31126
33624,63175,31205
33493,63140,31173
33384,63111,31117
33376,63133,30769
33364,63128,31143
33424,63148,31105
33500,63092,30974
33604,63164,30705
33588,63086,31052
33594,63160,31018
33572,63133,30991
33538,63087,30836
33492,63054,30911
33468,63076,31007
33456,63047,30976
33504,63047,30962
33568,63133,30901
33576,63055,30950
33484,63143,30885
33438,63111,30924
33462,63037,30860
33464,63039,30835
33444,62974,30849
33508,63039,30828
33512,63045,30842
33412,63055,30789
33508,63068,30761
33572,63111,30672
33437,63100,30530
33412,63076,30727
33416,63056,30711
33448,63005,30716
33312,62983,30691
33241,62983,30628
33148,63007,30469
33096,63004,30466
33165,62959,30355
33240,63040,30633
33217,62951,30684
33152,62982,30663
33072,62983,30600
33080,62964,30562
33068,62928,30615
32960,62932,30551
32872,62945,30535
32924,62966,30509
32972,62964,30361
33020,62983,30164
33080,62983,30498
33028,62983,30470
33008,62948,30484
32988,62917,30423
33004,62895,30329
32968,62903,30077
33054,62888,30456
33140,62919,30416
33232,62840,30343
33313,62941,30183
33380,62944,30016
33424,62928,30028
33416,62848,30011
33368,62863,30277
33321,62840,30317
33300,62832,30321
33348,62844,30311
33372,62837,30223
33384,62800,30164
33340,62908,29991
33280,62887,30194
33204,62879,30369
33196,62841,30324
33180,62823,30308
33180,62780,30256
33197,62801,30070
33168,62695,30365
33238,62791,30278
33328,62828,30273
33380,62852,30103
33388,62841,30197
33380,62821,30329
33340,62800,30288
33308,62727,30312
33236,62720,30304
33232,62704,30311
33168,62682,30335
33220,62741,30316
33218,62780,30290
33224,62791,30247
33312,62776,30188
33320,62748,30372
33168,62747,30402
33040,62684,30323
32952,62686,30328
32925,62664,30245
32904,62676,30014
32992,62708,30348
33012,62683,30356
32936,62692,30356
32840,62727,30177
32744,62718,30044
32720,62689,30352
32588,62636,30393
32309,62624,30397
31837,62621,30296
31212,62628,30415
30356,62626,30416
29408,62656,30433
28584,62668,30308
27740,62619,30421
27021,62620,30544
26320,62608,30492
25985,62572,30533
25944,62520,30495
26528,62548,30368
27820,62567,30188
30168,62564,30405
33524,62528,30580
37456,62637,30556
41268,62624,30521
44696,62544,30613
47476,62612,30584
49400,62556,30580
50464,62507,30452
50152,62553,30272
48616,62567,30646
46784,62580,30636
45744,62589,30628
44492,62575,30652
43408,62572,30659
42660,62547,30591
41969,62455,30439
40780,62463,30569
39565,62444,30711
38336,62445,30790
37104,62444,30700
35940,62471,30733
34785,62503,30716
33736,62471,30748
32813,62471,30713
32076,62460,30661
31524,62429,30548
31112,62395,30769
30808,62360,30913
30724,62374,30852
30644,62321,30877
30616,62398,30886
30657,62412,30901
30641,62335,30673
30665,62407,30921
30576,62394,30928
30480,62375,31087
30384,62343,31069
30316,62311,31069
30280,62262,30983
30296,62292,31046
30340,62320,30996
30324,62352,31052
30337,62359,31255
30373,62312,31268
30476,62320,31248
30420,62311,31233
30412,62260,31040
30393,62197,31023
30524,62215,31316
30688,62151,31367
30768,62252,31351
30856,62279,31375
30872,62295,31232
30880,62268,31397
30832,62253,31418
30756,62215,31439
30700,62180,31460
30696,62151,31487
30712,62061,31383
30800,62151,31168
30857,62087,31583
30916,62196,31527
30900,62214,31469
30876,62197,31357
30806,62116,31468
30688,62129,31600
30682,62071,31583
30660,62077,31600
30632,62071,31441
30632,62076,31589
30733,62103,31652
30801,62124,31641
30804,62132,31580
30753,62101,31317
30660,62096,31724
30504,61959,31678
30324,62023,31647
30237,62009,31417
30320,61996,31766
30444,62004,31696
30437,62020,31692
30476,62055,31596
30472,62044,31716
30424,62045,31717
30333,62015,31701
30244,61999,31528
30096,61932,31812
30044,61916,31737
30044,61927,31692
30140,61935,31508
30165,61940,31812
30158,61956,31797
30112,61959,31812
30028,61951,31812
29872,61943,31597
29768,61916,31782
29632,61779,31842
29524,61831,31854
29516,61831,31671
29484,61831,31858
29500,61799,31937
29556,61885,31917
29562,61894,31762
29500,61868,31911
29368,61863,31959
29300,61831,31972
29196,61772,31945
29100,61671,32003
29068,61737,32022
29032,61765,31869
29052,61782,31721
29136,61807,32116
29124,61797,32116
29076,61776,32109
29020,61693,32080
29014,61746,32045
29004,61692,31802
28960,61693,32191
28992,61671,32164
29061,61671,32151
29040,61681,32086
29146,61701,32102
29228,61681,32194
29310,61677,32165
29436,61604,32185
29500,61644,32036
29585,61525,32135
29760,61575,32210
29932,61592,32219
30024,61575,32204
30244,61613,32053
30488,61637,31903
30776,61645,32247
30952,61615,32185
31164,61600,32189
31322,61572,32069
31532,61477,31892
31772,61509,32180
32078,61423,32164
32268,61479,32213
32452,61516,32164
32616,61556,32101
32676,61537,31845
32828,61511,32196
32956,61516,32164
33156,61493,32142
33309,61442,32164
33273,61417,32101
33336,61422,31820
33388,61373,32145
33444,61420,32135
33684,61394,32100
33792,61447,31957
33872,61366,32091
33864,61429,32119
33880,61356,32122
33889,61343,31988
33892,61345,31791
34004,61344,32100
34073,61343,32172
33978,61310,32079
34084,61382,32095
34132,61346,31879
33952,61364,32006
33860,61260,32053
33839,61319,32055
33852,61191,32031
33912,61275,31839
33888,61274,31929
34020,61280,32047
34092,61273,31993
34164,61308,31980
34200,61311,31774
34256,61300,31927
34204,61283,31937
34156,61254,31943
34076,61191,31879
34024,61184,31655
34041,61181,31898
34110,61127,31924
34072,61191,31910
34042,61231,31887
34085,61191,31876
33984,61189,31854
33920,61191,31780
33864,61180,31623
33748,61126,31730
33730,61018,31861
33832,61113,31854
33876,61108,31879
33800,61053,31805
33860,61159,31784
33912,61154,31790
33952,61117,31781
33913,61125,31681
33828,61025,31500
33752,61063,31429
33764,61047,31634
33832,61016,31687
33768,61045,31580
33681,61023,31510
33656,61079,31692
33677,61010,31692
33693,61047,31690
33732,61055,31687
33696,61025,31604
33580,60988,31343
33556,60919,31604
33500,60972,31669
33472,60967,31677
33456,60999,31667
33388,61009,31660
33364,61020,31560
33392,60989,31377
33456,60983,31336
33454,60965,31604
33242,60901,31732
33208,60903,31660
33268,60903,31641
33368,60887,31660
33452,60910,31464
33524,60928,31374
33632,60864,31359
33648,60933,31590
33600,60912,31736
33604,60893,31665
33540,60820,31687
33424,60780,31644
33432,60839,31680
33404,60836,31636
33432,60817,31665
33544,60876,31641
33541,60874,31629
33452,60855,31620
33368,60762,31617
33456,60820,31614
33528,60783,31621
33401,60767,31601
33416,60756,31606
33540,60740,31600
33472,60779,31586
33540,60804,31572
33476,60725,31607
33365,60805,31645
33317,60770,31623
33249,60655,31537
33088,60716,31631
33016,60689,31527
32980,60679,31513
33000,60615,31522
32969,60719,31452
32988,60726,31516
32960,60675,31487
32924,60679,31553
32908,60711,31488
32964,60601,31401
32908,60637,31396
32886,60621,31106
32960,60535,31099
33120,60573,31361
33128,60645,31485
33212,60673,31377
33216,60660,31399
33200,60671,31356
33216,60640,31281
33196,60620,31225
33180,60573,31133
33253,60551,31268
33120,60551,31399
33177,60495,31306
33272,60569,31299
33324,60527,31301
33310,60604,31164
33312,60599,31025
33296,60532,31337
33292,60516,31285
33184,60501,31184
33220,60414,30929
33252,60481,31236
33225,60499,31252
33304,60423,30983
33376,60547,31296
33444,60524,31251
33471,60532,31232
33500,60519,31052
33468,60484,31164
33260,60455,31276
33172,60423,31278
33092,60447,31226
33136,60396,31249
33224,60447,31202
33196,60405,31033
33252,60500,31224
33285,60447,31244
33232,60476,31300
33180,60423,31287
33148,60391,31272
33184,60391,31270
33176,60376,31265
33136,60392,31054
33112,60397,31302
33156,60423,31294
33176,60350,31310
33084,60423,31216
33073,60412,30992
33064,60397,31262
32976,60332,31306
32904,60341,31313
32868,60255,31116
32612,60348,31195
32112,60344,31389
31348,60387,31310
30333,60383,31317
29304,60372,31281
28448,60357,31007
27784,60335,31408
27076,60276,31355
26516,60280,31326
26348,60167,31221
26492,60268,31257
27276,60295,31308
28884,60329,31336
31594,60272,31329
35060,60344,31278
38820,60332,31062
42524,60284,31380
45648,60256,31362
48020,60278,31365
49652,60288,31356
50346,60256,31223
49584,60310,31033
47936,60325,31292
46452,60325,31388
45428,60308,31368
44036,60288,31356
43020,60271,31300
42254,60135,31070
41367,60199,31334
40240,60132,31367
39140,60196,31338
37989,60228,31335
36836,60262,31344
35640,60256,31192
34496,60242,31269
33412,60229,31375
32656,60199,31373
31880,60164,31304
31328,60092,31204
31032,60159,31047
30760,60092,31401
30732,60167,31452
30800,60194,31396
30888,60220,31417
30948,60213,31381
30902,60196,31307
30757,60071,31205
30636,60061,31444
30622,60111,31573
30600,60121,31500
30601,60112,31508
30598,60064,31523
30622,60167,31564
30712,60157,31559
30656,60164,31580
30630,60151,31556
30600,60108,31433
30564,60015,31300
30556,60039,31714
30516,60069,31644
30540,60089,31671
30640,60100,31674
30752,60079,31583
30780,60132,31420
30712,60127,31788
30688,60112,31729
30692,60084,31637
30604,60039,31407
30624,60039,31741
30692,60039,31775
30734,60039,31748
30852,60069,31509
30964,60039,31857
31057,60100,31866
31012,60100,31799
30948,60097,31820
30881,60061,31784
30925,60006,31503
30884,59911,31879
30893,59973,31816
30944,60015,31828
31020,59996,31845
31044,60069,31799
30976,59997,31671
31013,60077,31649
30965,60039,31802
30840,60039,31922
30772,59981,31882
30704,59889,31879
30656,59975,31870
30720,59892,31860
30796,60004,31716
30856,59957,31605
30904,59991,31886
30848,59956,31892
30792,60023,31879
30598,59992,31805
30594,59876,31674
30572,59911,31871
30588,59940,31991
30584,59911,31951
30528,59967,31880
30464,60004,31933
30460,60015,31927
30437,59996,31916
30392,59903,31931
30217,59951,31748
30070,59846,31926
30040,59909,31997
29957,59911,31934
29932,59926,31975
29888,59949,31991
29905,59977,31988
29880,59975,31804
29793,59879,31673
29720,59964,31918
29564,59941,31870
29492,59807,31916
29464,59895,31935
29508,59893,31709
29540,59893,31724
29533,59901,31901
29549,59943,32007
29564,59965,32040
29536,59956,32109
29484,59932,32051
29384,59828,32060
29320,59873,32101
29276,59863,32068
29269,59756,32100
29226,59869,32076
29232,59871,32096
29312,59911,32091
29448,59911,32085
29537,59911,32117
29659,59900,32130
29700,59868,32129
29748,59837,32114
29836,59751,32116
29964,59832,32118
30140,59841,32119
30324,59856,32151
30568,59887,32134
30768,59893,32121
30948,59814,32080
31096,59876,31988
31288,59847,31856
31440,59815,32151
31524,59783,32206
31760,59813,32113
31961,59804,32123
32180,59840,32068
32413,59847,32077
32688,59864,31977
32844,59871,31999
32892,59749,32180
32968,59831,32129
32981,59780,32087
33044,59783,32108
33184,59773,32107
33348,59696,32106
33437,59783,31955
33504,59830,31876
33568,59847,31905
33648,59820,32114
33720,59814,32136
33796,59777,32031
33744,59757,32047
33784,59727,32038
33892,59680,32016
33942,59726,32004
34012,59767,31999
34069,59760,31972
34054,59791,31967
34060,59773,31794
34024,59776,31823
33924,59761,31939
33940,59719,31939
33909,59649,31887
33984,59713,31876
34064,59687,31857
34100,59743,31858
34180,59772,31732
34224,59769,31668
34228,59744,31604
34176,59757,31541
34140,59687,31737
34069,59673,31856
33988,59677,31879
33952,59695,31848
33968,59677,31784
34085,59696,31817
34050,59701,31768
34016,59732,31812
34044,59728,31765
33913,59740,31751
33828,59679,31740
33712,59655,31687
33720,59638,31418
33708,59655,31764
33717,59655,31719
33700,59632,31730
33716,59715,31572
33744,59716,31636
33712,59706,31659
33760,59703,31680
33648,59655,31554
33536,59596,31353
33488,59599,31617
33588,59623,31740
33592,59644,31646
33644,59655,31652
33668,59679,31625
33500,59697,31580
33428,59604,31392
33513,59679,31570
33528,59645,31694
33466,59619,31600
33356,59583,31605
33420,59602,31548
33470,59604,31405
33508,59584,31583
33520,59615,31653
33508,59653,31595
33360,59655,31599
33292,59639,31590
33424,59612,31577
33500,59590,31540
33472,59565,31493
33504,59580,31450
33596,59591,31352
33600,59596,31476
33656,59553,31631
33720,59643,31669
33711,59629,31565
33676,59637,31560
33592,59591,31449
33500,59543,31250
33500,59527,31476
33604,59557,31565
33656,59564,31613
33528,59573,31536
33447,59608,31459
33460,59608,31344
33600,59581,31449
33574,59591,31601
33501,59532,31508
33373,59520,31464
33400,59527,31206
33396,59527,31567
33388,59503,31476
33364,59551,31495
33384,59509,31471
33388,59583,31357
33304,59527,31385
33250,59560,31473
33232,59548,31455
33156,59501,31364
33044,59503,31124
32960,59509,31517
33026,59522,31432
33061,59527,31435
33096,59567,31292
33000,59565,31087
32965,59564,31487
32948,59527,31445
32908,59519,31389
32864,59476,31404
32988,59485,31181
33044,59495,31465
33125,59447,31377
33244,59444,31385
33302,59527,31310
33313,59487,31348
33272,59527,31396
33316,59527,31393
33312,59508,31226
33300,59476,31333
33308,59459,31393
33376,59469,31368
33396,59471,31400
33376,59452,31383
33400,59524,31144
33460,59469,31068
33432,59512,31428
33328,59487,31381
33272,59471,31284
33196,59447,31056
33241,59439,31206
33136,59449,31455
33112,59443,31398
33284,59439,31373
33468,59503,31369
33418,59423,31364
33364,59500,31380
33324,59476,31390
33345,59462,31319
33280,59429,31284
33368,59374,31324
33290,59399,31321
33272,59423,31216
33257,59366,31071
33348,59489,31301
33516,59493,31444
33428,59429,31381
33336,59476,31379
33200,59439,31390
33108,59397,31437
33128,59389,31415
33106,59317,31370
33228,59348,31276
33308,59441,31146
33356,59468,31453
33380,59469,31533
33325,59477,31463
33252,59444,31477
33072,59429,31428
32614,59392,31335
31930,59300,31313
30984,59399,31312
29972,59391,31239
29132,59344,31436
28428,59452,31439
27837,59455,31412
27256,59399,31499
26848,59428,31459
26768,59399,31343
27194,59284,31495
28288,59348,31621
30397,59376,31580
33472,59396,31608
37140,59399,31599
40972,59420,31548
44496,59480,31480
47184,59476,31524
48992,59421,31428
50132,59447,31560
49896,59399,31694
48540,59397,31565
46764,59389,31698
45728,59399,31735
44520,59429,31758
43444,59442,31771
42676,59448,31796
41936,59461,31788
40840,59431,31751
39672,59341,31727
38540,59383,31742
37340,59364,31733
36162,59365,31760
35080,59364,31751
34196,59321,31682
33344,59438,31692
32528,59436,31561
31920,59439,31716
31588,59399,31488
31336,59399,31801
31088,59367,31780
30880,59340,31764
30704,59359,31781
30720,59373,31877
30672,59391,31621
30600,59439,31772
30656,59437,31716
30544,59420,31964
30510,59349,31955
30556,59388,31940
30488,59352,31973
30516,59311,32032
30568,59363,32129
30528,59364,32135
30560,59303,32126
30624,59431,32135
30688,59421,32141
30648,59409,31951
30784,59420,32078
30844,59375,32164
30632,59271,32303
30477,59352,32303
30508,59355,32255
30616,59271,32262
30600,59397,32271
30724,59431,32092
30900,59399,32129
30968,59428,32003
30916,59421,32257
30837,59319,32404
30912,59344,32327
30904,59348,32339
30872,59372,32369
30964,59357,32337
31084,59389,32257
31100,59431,32311
31116,59431,32465
31092,59431,32423
31072,59412,32440
31068,59316,32391
31077,59364,32244
30992,59367,32244
30936,59351,32263
31020,59393,32399
30964,59399,32543
31042,59447,32487
30956,59462,32516
30832,59438,32524
30844,59391,32533
30908,59399,32538
30761,59399,32527
30722,59366,32487
30788,59292,32466
30828,59399,32502
30924,59417,32464
30896,59463,32396
30816,59476,32355
30774,59457,32532
30680,59429,32588
30556,59399,32580
30500,59399,32606
30332,59399,32601
30296,59397,32507
30344,59420,32431
30392,59447,32399
30316,59452,32707
30240,59492,32677
30228,59399,32676
30241,59495,32727
30130,59455,32726
30128,59437,32676
29961,59431,32596
29937,59444,32471
29873,59447,32660
29937,59479,32519
29964,59447,32589
29848,59527,32612
29764,59493,32567
29848,59516,32610
29788,59399,32775
29640,59476,32815
29676,59469,32782
29648,59492,32836
29594,59484,32966
29580,59527,32958
29624,59564,32961
29728,59517,32975
29685,59551,32998
29656,59556,32999
29693,59540,33007
29786,59503,32947
29772,59399,32855
29764,59527,33020
29844,59428,33053
29852,59572,33038
29832,59589,33030
29900,59527,33047
30093,59600,33057
30270,59576,33050
30352,59572,32991
30431,59540,32943
30724,59527,32836
30992,59552,32886
31176,59470,32871
31364,59608,32774
31546,59628,32742
31660,59576,32984
32004,59639,33046
32010,59624,32964
31956,59608,32940
32020,59542,32932
32292,59580,32721
32500,59590,32773
32608,59600,32711
32756,59637,33075
33008,59655,33041
33324,59640,33015
33296,59647,32965
33248,59613,32997
33232,59655,32959
33156,59606,32948
33242,59606,32956
33217,59565,32944
33344,59639,32821
33486,59673,32703
33592,59708,32854
33761,59715,32886
33708,59669,32841
33648,59696,32844
33660,59669,32821
33688,59632,32797
33728,59645,32783
33708,59655,32757
33768,59685,32669
33832,59703,32565
33949,59640,32550
33896,59757,32630
33916,59748,32652
33924,59728,32729
33949,59709,32650
33928,59685,32725
33730,59604,32716
33740,59705,32703
33800,59709,32694
33828,59684,32652
33724,59743,32613
33760,59783,32561
33832,59780,32516
33628,59775,32278
33512,59655,32609
33540,59728,32676
33652,59712,32620
33524,59655,32597
33508,59718,32561
33613,59765,32587
33816,59828,32569
33832,59823,32575
33938,59820,32519
33973,59812,32353
33916,59783,32243
33820,59751,32359
33732,59764,32445
33776,59783,32549
33713,59780,32538
33708,59825,32604
33600,59836,32563
33708,59772,32503
33670,59856,32544
33652,59847,32517
33630,59775,32527
33536,59740,32473
33404,59783,32429
33404,59724,32320
33420,59820,32263
33476,59828,32519
33550,59895,32508
33536,59895,32523
33472,59783,32491
33340,59874,32368
33264,59860,32233
33189,59768,32617
33156,59822,32546
33216,59836,32556
33364,59845,32567
33440,59783,32553
33528,59911,32492
33684,59901,32312
33452,59911,32538
33360,59911,32569
33408,59873,32603
33352,59775,32586
33292,59849,32607
33320,59860,32502
33280,59840,32324
33125,59860,32613
33237,59943,32677
33281,59949,32647
33221,59911,32664
33028,59887,32636
32988,59911,32401
32962,59844,32751
32960,59863,32704
33124,59807,32764
33084,59903,32597
33000,59933,32772
33284,59968,32813
33308,59964,32858
33472,59893,32814
33236,59968,32679
33281,59941,32999
33224,59900,32977
33160,59908,32989
33104,59847,32960
33065,59911,33037
33373,59908,33073
33384,59991,33125
33304,59943,32988
33204,60015,32885
33229,59989,33215
33152,59983,33324
33136,59927,33300
33180,59943,33303
33216,59967,33372
33254,59975,33326
33476,59997,33301
33560,60022,33557
33481,60023,33505
33364,60039,33579
33264,59972,33511
33268,59992,33606
33168,59967,33652
33128,59967,33722
33156,59885,33727
33184,60004,33692
33188,60028,33696
33146,59969,33703
33328,60071,33812
33428,60056,33956
33328,60061,34087
33240,60008,34140
33188,59909,34198
33078,60004,34199
33196,60007,34244
33328,59981,34281
33196,60038,34309
33232,60095,34353
33321,60076,34339
33327,60031,34376
33168,60076,34480
33080,60039,34517
33132,60015,34553
33124,59983,34603
33192,60005,34630
33244,60025,34680
33188,60060,34708
33204,60103,34711
33252,60105,34660
33360,60030,34553
33206,60071,34578
33092,59980,34941
32937,60012,34948
32937,60028,34976
32944,60039,34880
32988,59983,34921
33164,60076,35141
33268,60116,35117
33185,60133,35124
33144,60072,35271
32954,60080,35197
32748,60095,35210
32284,60001,35268
31528,60023,35290
30596,60052,35284
29646,60084,35222
29004,60093,35113
28336,60133,35482
27884,60127,35453
27222,60030,35428
27064,60120,35447
27308,60100,35504
27884,60052,35524
29068,60056,35436
31364,60079,35444
34368,60032,35433
37981,60140,35428
41493,60164,35487
44576,60185,35724
46952,60164,35652
48528,60180,35654
49304,60167,35680
48833,60135,35700
47568,60116,35567
45860,60119,35639
45092,60093,35814
44024,60159,35746
43064,60161,35702
42152,60157,35588
41246,60167,35751
40160,60197,35820
38968,60135,35780
37769,60103,35768
36604,60024,35780
35360,60120,35804
34368,60125,35812
33460,60079,35828
32716,60167,35750
31948,60196,35729
31448,60167,35660
31156,60167,35665
31092,60135,35664
30904,60092,35655
30756,60091,35652
30788,60120,35655
30676,60087,35695
30584,60167,35772
30672,60167,35839
30720,60199,35826
30612,60191,35741
30516,60164,35700
30456,60133,35881
30520,60116,36028
30570,60097,36048
30560,60108,35993
30620,60037,36004
30744,60160,36015
30752,60188,36022
30700,60180,36051
30740,60167,36077
30800,60167,36090
30812,60149,36092
30716,60108,36103
30668,60101,36112
30670,60022,36116
30656,60133,36060
30720,60156,35924
30760,60188,36060
30813,60157,36213
30868,60196,36191
30847,60100,36133
30856,60151,36125
30752,60104,36132
30726,60101,36126
30766,60061,36139
30672,60124,36124
30576,60144,36159
30560,60190,36135
30640,60191,35951
30728,60127,36190
30788,60167,36113
30820,60061,36150
30820,60071,36100
30840,60104,36178
30802,60109,36164
30804,60101,36156
30816,60153,36124
30976,60191,36020
31040,60100,35927
30980,60167,36105
30716,60167,36241
30536,60135,36151
30552,60103,36178
30592,60055,36188
30624,60113,36191
30596,60116,36076
30564,60146,36124
30732,60164,36289
30924,60167,36231
30933,60156,36265
30864,60166,36292
30645,60122,36214
30444,60114,36229
30324,60092,36401
30308,60071,36318
30288,60100,36372
30270,60135,36342
30181,60167,36359
30164,60164,36292
30004,60069,36240
29848,60164,36221
29812,60135,36340
29800,60093,36470
29724,60084,36521
29576,60029,36551
29485,60103,36556
29512,60135,36591
29632,60167,36580
29676,60157,36612
29656,60152,36653
29616,60076,36681
29552,60097,36700
29540,60092,36680
29456,60087,36716
29412,60084,36621
29306,60103,36852
29144,60135,36798
29197,60167,36860
29372,60167,36890
29484,60143,36805
29580,60141,36824
29660,60038,36812
29625,60084,36956
29596,59984,37088
29636,60092,37157
29808,60092,37137
29898,60039,37141
29984,60167,37197
30128,60156,37263
30316,60052,37318
30304,60143,37364
30216,60100,37349
30216,60079,37375
30290,60084,37344
30504,60069,37392
30696,60005,37420
30912,60132,37448
31105,60148,37448
31325,60145,37463
31406,60149,37483
31540,60124,37520
31692,60103,37526
31919,60071,37569
32077,60060,37572
32076,59980,37589
32348,60100,37588
32692,60101,37584
33000,60140,37613
33068,60100,37671
33132,60135,37692
32957,60121,37692
32752,60060,37632
32620,60068,37669
32600,60060,37645
32720,59972,37645
32844,60071,37649
33076,60076,37655
33312,60061,37668
33501,60132,37692
33576,60029,37573
33516,60110,37465
33316,60071,37624
33080,60005,37672
32998,59983,37732
33032,60036,37812
32980,60055,37759
32798,60087,37765
32792,60123,37757
32892,60095,37645
33108,60102,37796
33177,60071,37860
33304,60039,37942
33456,60020,37960
33448,60004,37959
33548,59957,37957
33660,60031,37987
33704,60039,38020
33776,60012,38041
33697,60017,38072
33632,60056,38125
33524,60028,38151
33496,60007,38029
33316,59911,38172
33228,59983,38355
33260,59988,38264
33212,60005,38309
33240,60020,38292
33256,60005,38146
33201,60039,38460
33108,59957,38401
33112,60031,38438
33052,59988,38460
32956,59879,38484
32916,59964,38508
32992,59953,38524
33136,59903,38404
33240,60007,38389
33332,60004,38455
33296,60021,38428
33196,59932,38513
33192,59956,38730
33108,59965,38668
33016,59932,38663
32792,59911,38612
32712,59845,38534
32760,59911,38791
32900,59957,38820
32972,59999,38716
32961,59983,38731
32884,59911,38749
32882,59956,38631
32800,59911,38617
32784,59847,38673
32804,59892,38663
32792,59903,38612
32776,59908,38748
32813,59932,38764
32877,59956,38919
33020,59872,38897
33104,59948,38804
33064,59935,38807
32936,59900,38839
32808,59820,38783
32672,59877,38770
32604,59872,38767
32656,59820,38793
32693,59910,38777
32717,59911,38775
32648,59911,38689
32668,59911,38571
32668,59911,38559
32712,59807,38553
32664,59840,38842
32604,59822,38736
32632,59834,38730
32672,59852,38715
32612,59872,38645
32644,59805,38572
32684,59900,38492
32636,59879,38493
32596,59879,38469
32448,59839,38640
32404,59807,38724
32445,59788,38617
32484,59765,38607
32636,59815,38493
32764,59841,38378
32808,59836,38429
32734,59832,38516
32606,59867,38535
32560,59801,38588
32620,59746,38508
32704,59769,38432
32752,59684,38405
32816,59783,38399
32840,59764,38319
32892,59759,38151
32968,59838,38179
32964,59824,38336
32936,59757,38345
32964,59807,38227
32990,59764,38215
33004,59684,38160
32942,59732,38143
32884,59655,37973
32928,59757,37984
32936,59783,38025
32916,59727,38028
32936,59743,37961
32916,59792,37935
32942,59773,38037
32884,59686,37965
32736,59716,37925
32736,59698,37855
32932,59704,37827
33009,59675,37789
32916,59748,37756
33028,59767,37732
33112,59766,37695
33028,59704,37658
32968,59749,37636
32876,59711,37591
32840,59623,37583
32848,59677,37548
32908,59677,37510
32953,59693,37465
33048,59719,37439
33088,59655,37456
33056,59747,37392
33034,59712,37344
32996,59719,37318
32780,59685,37228
32392,59632,37036
31709,59599,37168
30876,59616,37225
29836,59645,37168
28954,59580,37132
28304,59711,37100
27744,59693,37068
27193,59592,37045
26860,59677,37015
27164,59639,36977
27969,59600,36927
29336,59588,36829
31396,59613,36743
33776,59576,36673
36444,59636,36596
39632,59700,36708
42890,59696,36697
45592,59655,36594
46992,59688,36581
47644,59653,36658
46856,59607,36695
45248,59551,36583
43380,59622,36551
42000,59620,36527
40544,59567,36492
39545,59677,36480
38957,59654,36400
38796,59653,36253
38536,59608,36280
38060,59582,36231
37404,59485,36124
36800,59551,36241
36176,59559,36292
35648,59527,36293
35092,59589,36190
34473,59606,36133
33834,59628,36126
33184,59596,35989
32572,59591,35953
32129,59543,36088
31849,59494,36085
31572,59493,36005
31472,59512,35997
31352,59524,35999
31272,59559,35999
31344,59492,35928
31364,59576,35828
31296,59572,35949
31264,59557,35975
31224,59508,36008
31192,59495,35844
31200,59487,35967
31162,59455,36063
31148,59472,35998
31235,59516,36028
31356,59540,35812
31424,59551,36009
31440,59545,36037
31508,59511,36005
31444,59463,36050
31393,59469,36012
31401,59444,35951
31424,59460,36039
31432,59463,36042
31508,59488,36028
31504,59511,36029
31480,59476,36016
31540,59501,35969
31688,59479,35797
31632,59463,36036
31568,59399,35949
31641,59389,35927
31709,59420,35725
31712,59421,35919
31724,59469,35921
31776,59481,35861
31800,59437,35820
31792,59457,35585
31800,59399,35876
31721,59420,35833
31616,59393,35776
31616,59324,35794
31720,59384,35766
31776,59391,35708
31736,59352,35700
31806,59460,35668
31776,59455,35660
31734,59389,35640
31724,59420,35591
31692,59376,35566
31648,59364,35512
31604,59360,35392
31560,59263,35308
31576,59372,35273
31546,59388,35431
31520,59360,35440
31488,59431,35543
31356,59399,35509
31198,59309,35437
31170,59357,35439
31145,59321,35428
31048,59335,35356
31008,59319,35166
31056,59328,35385
31134,59355,35436
31132,59325,35448
31073,59388,35378
31040,59335,35352
31024,59336,35313
30948,59321,35303
30856,59281,35311
30832,59286,35305
30844,59244,35316
30944,59293,35265
31004,59336,35060
30992,59361,35276
30968,59324,35321
30912,59347,35271
30816,59337,35236
30784,59253,35196
30688,59241,35257
30574,59263,35290
30621,59268,35199
30734,59271,35204
30838,59310,35211
30912,59263,35124
30877,59308,35039
30805,59223,34977
30728,59236,34919
30724,59255,34956
30788,59182,35010
30960,59239,35013
31124,59231,35036
31216,59175,35044
31340,59271,34990
31525,59292,34815
31670,59297,34935
31654,59271,35079
31716,59225,35033
31894,59224,34977
32076,59127,34982
32128,59183,34932
32212,59108,34812
32288,59206,34771
32375,59239,34625
32596,59271,34945
32780,59243,34833
32832,59244,34847
32884,59229,34808
32928,59191,34562
32948,59156,34797
33032,59077,34735
33116,59119,34736
33224,59157,34692
33364,59199,34636
33472,59225,34652
33480,59207,34637
33488,59205,34626
33493,59199,34370
33492,59143,34652
33444,59127,34548
33452,59119,34524
33572,59119,34324
33584,59127,34372
33704,59108,34480
33824,59197,34514
33880,59175,34390
33892,59175,34382
33853,59143,34340
33776,59109,34159
33823,59079,34365
33796,59078,34258
33796,59077,34107
33789,59053,34134
33796,59031,34141
33804,59127,34118
33784,59044,34031
33840,59117,34044
33788,59119,34007
33792,59068,33940
33776,59053,33881
33672,58989,33910
33624,59039,33806
33624,59045,33876
33704,59060,33799
33792,59093,33617
33853,59069,33796
33876,59007,33665
33825,59068,33669
33861,59028,33335
33824,59004,33592
33720,59014,33560
33688,59006,33464
33720,58959,33380
33736,58943,33437
33792,59041,33420
33724,59061,33330
33620,59047,33109
33560,59031,33312
33528,59004,33249
33476,58969,33256
33404,58973,33225
33400,58975,32986
33428,58968,33063
33436,58992,33103
33414,59028,33095
33517,59015,32840
33616,58983,32932
33672,58991,33044
33644,58908,32942
33548,58920,32937
33480,58940,32719
33428,58924,32886
33368,58940,32863
33381,58979,32846
33444,58998,32817
33476,58999,32623
33416,58975,32723
33376,58967,32740
33384,58935,32747
33320,58807,32581
33257,58828,32596
33216,58821,32719
33184,58887,32681
33172,58936,32545
33124,58965,32599
33104,58950,32693
33132,58935,32601
33140,58855,32636
33065,58849,32608
33052,58798,32335
33016,58836,32516
33137,58865,32559
33118,58800,32619
33072,58823,32557
33092,58887,32552
33120,58837,32415
33076,58917,32328
33060,58887,32436
33020,58877,32586
32946,58839,32486
32900,58775,32476
32976,58758,32396
32996,58811,32269
33008,58862,32213
33068,58887,32164
33180,58881,32194
33208,58872,32432
33202,58854,32500
33212,58746,32445
33005,58789,32392
32944,58789,32391
32892,58805,32359
32892,58791,32359
32976,58837,32340
33180,58855,32304
33244,58822,32240
33212,58783,32152
33175,58841,32141
33153,58804,32238
33093,58748,32385
33072,58772,32277
33196,58759,32284
33288,58781,32263
33388,58807,32263
33481,58835,32181
33468,58809,32052
33468,58724,32100
33420,58789,32285
33344,58751,32281
33216,58725,32144
33220,58733,32153
33274,58724,32135
33289,58733,32222
33308,58703,32162
33300,58799,32164
33329,58759,32071
33340,58759,32093
33328,58773,32080
33264,58684,32140
33216,58685,32067
33148,58605,32076
33152,58671,32058
33232,58687,32006
33277,58631,31975
33304,58751,32060
33352,58756,32038
33254,58724,32040
33148,58717,31930
33048,58668,31909
33024,58661,32078
33068,58647,32013
33061,58590,31984
33052,58628,32000
32950,58692,31988
32672,58684,31980
32076,58692,31955
31104,58692,31933
29949,58617,31950
29084,58656,31965
28348,58612,31964
27768,58532,31957
27236,58620,31953
26962,58612,31805
27064,58616,31785
27620,58668,31645
28869,58668,31914
30816,58676,31941
33696,58668,31908
37012,58548,31936
40868,58597,31916
44580,58604,31914
47388,58608,31878
49048,58621,31905
49816,58667,31908
49520,58631,31915
47984,58673,31902
45736,58660,31853
44328,58661,31798
43120,58607,31663
41928,58540,31797
41120,58567,31783
40384,58565,31700
39640,58567,31812
38828,58604,31751
37938,58623,31820
36999,58541,31824
35972,58544,31922
34976,58591,31876
34053,58567,31884
33120,58525,31894
32300,58502,31813
31716,58503,31795
31284,58439,31760
31032,58564,31960
30944,58584,31879
30876,58495,31887
30864,58557,31941
30704,58478,31895
30664,58495,31648
30614,58422,31964
30468,58469,31974
30446,58493,31911
30488,58500,31711
30540,58535,32053
30672,58545,32031
30756,58468,32045
30756,58535,32060
30804,58524,32035
30741,58436,31845
30696,58439,32113
30664,58453,32145
30632,58452,32113
30717,58455,32135
30772,58396,32045
30792,58511,31974
30808,58503,32078
30828,58503,32241
30840,58489,32206
30872,58452,32161
30888,58429,32181
30967,58404,32189
30964,58359,32156
30936,58375,32158
30948,58469,32040
30988,58479,31919
31092,58487,32159
31156,58463,32272
31096,58461,32192
31040,58356,32216
30976,58375,32022
30960,58364,32101
31020,58375,32256
31068,58308,32177
31100,58432,32173
31080,58459,32209
30988,58435,32197
30900,58421,32069
30820,58412,31977
30740,58363,32148
30760,58348,32227
30760,58309,32180
30800,58349,32125
30808,58276,32003
30780,58375,32085
30724,58431,32150
30664,58421,32145
30728,58345,32017
30596,58375,32132
30436,58308,32132
30334,58311,32098
30360,58279,31909
30452,58333,32110
30469,58325,32188
30452,58341,32201
30376,58388,32180
30368,58373,32173
30297,58373,32140
30212,58356,32169
30105,58311,32169
29984,58301,32108
29933,58281,32077
29964,58309,31988
29988,58286,32164
30036,58295,32196
30053,58349,32270
30060,58351,32191
29972,58281,32153
29900,58334,32159
29796,58284,32052
29712,58182,32175
29676,58221,32316
29724,58261,32348
29776,58268,32263
29798,58303,32305
29888,58327,32327
29958,58309,32147
29920,58312,32319
29948,58288,32337
30004,58263,32340
29988,58217,32292
29932,58229,32094
29940,58221,32295
30006,58145,32442
30064,58285,32349
30168,58287,32341
30292,58287,32376
30368,58281,32357
30425,58247,32372
30484,58231,32357
30552,58112,32375
30597,58199,32330
30736,58207,32268
30912,58156,32199
31140,58215,32119
31324,58247,32061
31481,58247,32236
31588,58224,32198
31660,58228,32261
31800,58199,32374
31828,58149,32405
31908,58148,32318
32068,58141,32324
32249,58119,32340
32454,58204,32348
32600,58239,32327
32605,58223,32353
32688,58205,32313
32868,58132,32236
33109,58173,32220
33216,58119,31973
33272,58119,32095
33394,58140,32122
33516,58119,32132
33560,58175,32116
33600,58183,32136
33672,58175,32018
33700,58174,32185
33736,58153,32164
33752,58119,32143
33665,58020,32229
33620,58084,32135
33649,58100,32120
33796,58041,32104
33880,58151,32076
33932,58164,32060
33948,58151,32032
33924,58153,32036
33933,58135,31932
33908,58109,31847
33860,58056,31959
33853,58061,31953
33900,58087,32008
33908,58077,31916
33852,58060,31921
33824,58119,31748
33896,58060,31791
33916,58119,31943
33949,58108,31831
33896,58055,31866
33884,58049,31824
33813,57972,31764
33784,58045,31544
33796,58055,31821
33916,58068,31832
33951,58102,31788
33896,58033,31787
33816,58093,31644
33784,58007,31692
33701,58055,31801
33608,58009,31743
33604,58025,31732
33684,58021,31618
33728,58021,31414
33733,58077,31750
33828,58041,31676
33876,58079,31703
33828,58063,31684
33860,58053,31431
33833,58024,31605
33665,58015,31719
33548,57988,31663
33516,58013,31634
33596,58013,31650
33632,57975,31642
33629,58068,31639
33648,58060,31599
33626,58057,31585
33654,58055,31424
33565,58007,31375
33480,57935,31658
33504,57972,31629
33468,57895,31669
33384,57991,31656
33328,58021,31655
33318,58031,31651
33315,57991,31668
33260,58037,31576
33212,58031,31493
33188,57927,31469
33085,57967,31481
33048,57967,31596
33036,57967,31724
33024,57928,31661
33124,58000,31692
33144,58037,31685
33156,58020,31687
33124,58031,31648
33076,58013,31636
33024,57977,31546
32988,57863,31469
33004,57965,31585
33028,57959,31745
33008,57983,31687
33040,58004,31703
33081,57967,31597
33072,58007,31474
33108,58007,31596
33040,58004,31761
32996,57956,31660
32928,57927,31682
32968,57911,31673
33104,57955,31677
33184,57955,31565
33308,57977,31483
33328,57964,31409
33344,58008,31638
33352,57991,31616
33328,57919,31714
33270,57948,31636
33220,57919,31648
33208,57924,31648
33241,57919,31590
33312,57924,31527
33301,57975,31377
33252,57988,31715
33224,57980,31642
33229,57972,31643
33265,57952,31628
33228,57878,31454
33189,57905,31526
33212,57823,31628
33208,57902,31630
33236,57901,31610
33336,57948,31615
33376,57964,31604
33304,57964,31620
33180,57956,31613
33128,57911,31604
33152,57901,31599
33108,57863,31558
33044,57879,31491
33086,57884,31492
33125,57809,31660
33189,57916,31600
33216,57880,31552
33201,57920,31359
33084,57931,31508
32944,57911,31655
32876,57863,31586
32864,57833,31611
32892,57849,31432
32980,57780,31684
33120,57861,31626
33168,57820,31610
33038,57930,31626
32596,57910,31588
32028,57910,31581
31164,57903,31537
30120,57860,31444
29280,57841,31591
28616,57828,31679
28042,57832,31622
27334,57841,31639
26952,57895,31556
26976,57903,31429
27456,57824,31384
28509,57876,31636
30332,57804,31700
33172,57853,31628
36608,57748,31652
40328,57824,31608
43908,57828,31541
46768,57860,31536
48632,57892,31511
49564,57900,31536
49424,57927,31495
48024,57908,31597
46104,57892,31585
44929,57840,31476
43928,57816,31519
42680,57764,31609
41920,57820,31636
41204,57829,31664
40332,57821,31665
39348,57863,31674
38336,57814,31679
37232,57863,31666
36084,57863,31684
34945,57735,31623
33900,57800,31605
33025,57784,31548
32280,57812,31468
31708,57821,31716
31380,57797,31733
31204,57861,31684
31136,57860,31693
30932,57863,31718
30796,57839,31700
30674,57743,31461
30553,57772,31780
30548,57692,31761
30540,57783,31797
30556,57784,31817
30524,57839,31699
30544,57854,31772
30528,57863,31940
30472,57828,31940
30404,57828,31874
30308,57788,31919
30250,57760,31937
30292,57702,31905
30476,57764,31693
30556,57701,31990
30616,57789,32060
30680,57855,31999
30700,57848,32007
30632,57834,32036
30624,57735,32001
30668,57764,31892
30732,57757,31892
30736,57765,31836
30708,57767,31983
30748,57695,32142
30852,57806,32085
30976,57837,32087
30956,57844,32092
30842,57816,32072
30780,57735,31924
30761,57760,32164
30792,57756,32135
30836,57773,32117
30832,57766,32007
30836,57765,32031
30886,57823,32148
30937,57847,32076
30908,57836,32100
30788,57824,32092
30742,57756,32084
30612,57790,32052
30545,57753,31863
30609,57756,31988
30676,57782,32127
30700,57708,32088
30700,57824,32135
30736,57844,32079
30724,57844,32088
30676,57845,32040
30644,57824,32037
30528,57753,32044
30432,57783,32008
30384,57761,31993
30311,57724,31871
30256,57783,31801
30136,57839,31796
30140,57863,31759
30158,57853,32039
30064,57813,32089
30016,57833,32044
29904,57800,32069
29872,57783,32084
29816,57792,32057
29765,57799,31929
29788,57812,32179
29852,57863,32100
29852,57863,32127
29780,57862,32007
29716,57860,32020
29658,57842,32195
29532,57735,32152
29420,57815,32191
29368,57808,32212
29423,57807,32116
29524,57828,31951
29620,57849,32159
29636,57886,32210
29580,57901,32286
29600,57876,32363
29577,57887,32267
29532,57783,32280
29533,57829,32303
29532,57825,32303
29564,57852,32319
29676,57863,32329
29620,57911,32192
29676,57925,32135
29717,57913,32222
29776,57832,32388
29788,57919,32415
29728,57895,32309
29724,57823,32300
29804,57863,32151
29981,57876,32116
30156,57895,32237
30356,57863,32393
30549,57952,32314
30800,57911,32327
30996,57959,32131
31196,57863,32359
31412,57900,32273
31520,57899,32284
31668,57863,32270
31869,57892,32108
32188,57935,32218
32420,57985,32239
32616,57991,32263
32772,57946,32244
32928,57956,32226
33040,57991,32225
33045,57964,32169
33024,57895,32159
33156,57964,32072
33288,57967,32000
33402,57919,31892
33517,58031,32063
33625,58055,32141
33914,58030,32135
33934,58047,32119
33780,57975,32112
33735,57960,31830
33720,57991,32135
33780,58020,32052
33820,58031,32028
33852,58048,32014
33976,58084,31857
34116,58039,31924
34172,58119,32037
34156,58116,31914
34140,58119,31916
34106,58078,31787
34020,58076,31947
34024,58079,31861
34008,58103,31810
34081,58112,31669
34140,58104,31509
34204,58176,31863
34200,58196,31832
34120,58197,31748
34112,58204,31769
34119,58160,31693
34016,58143,31696
33896,58167,31686
33828,58183,31691
33838,58207,31512
33972,58236,31436
34076,58276,31342
34172,58300,31608
34160,58279,31629
34161,58292,31631
34180,58271,31604
34120,58199,31566
34100,58262,31540
34160,58276,31509
34072,58286,31505
34068,58321,31473
34088,58372,31495
34036,58375,31440
33932,58308,31538
33836,58368,31329
33852,58365,31109
33873,58349,31354
33881,58325,31479
33826,58375,31380
33912,58324,31367
33853,58471,31342
33824,58487,31280
33776,58428,31263
33764,58503,31023
33764,58503,31220
33704,58452,31288
33712,58461,31354
33696,58484,31317
33676,58503,31271
33640,58527,31281
33584,58551,31272
33528,58607,31257
33568,58612,31239
33616,58628,31259
33616,58614,31173
33460,58621,31076
33392,58598,31038
33416,58543,31044
33345,58631,31038
33304,58652,30996
33338,58631,31055
33348,58751,31297
33392,58743,31185
33372,58759,31213
33356,58759,31212
33241,58743,31204
33256,58729,30996
33293,58748,31148
33352,58759,31239
33372,58791,31177
33316,58815,31172
33348,58887,31077
33368,58887,31078
33429,58911,31161
33424,58887,31148
33420,58883,31060
33532,58869,30892
33576,58887,31096
33629,58868,31168
33596,58941,31169
33596,58999,31215
33653,58965,31166
33688,59005,31156
33718,59052,31078
33712,59060,30890
33604,59015,31169
33496,59044,31114
33376,59044,31121
33320,59068,30828
33312,59086,31151
33336,59069,31086
33416,59201,31118
33404,59183,31103
33376,59204,31099
33396,59221,30917
33424,59181,30973
33305,59157,31183
33285,59183,31100
33336,59223,31111
33356,59261,31080
33364,59300,30977
33344,59271,30918
33358,59312,30921
33412,59361,31175
33404,59372,31115
33396,59343,31096
33300,59348,30931
33286,59349,31007
33218,59380,31120
33180,59399,31085
33288,59399,31111
33360,59480,31111
33332,59399,31108
33356,59460,30996
33444,59439,31042
33476,59509,31156
33304,59495,31120
33212,59447,31136
33388,59527,31175
33292,59559,31157
33158,59541,31150
32934,59671,31153
32496,59679,30903
31816,59684,31124
31022,59679,31252
30160,59572,31178
29428,59653,31159
28660,59655,31194
28132,59623,31188
27568,59709,31188
27373,59739,31032
27513,59780,30876
28124,59822,31129
29278,59820,31205
31456,59844,31212
34468,59831,31190
37992,59822,31012
41592,59780,31180
44716,59886,31264
47244,59911,31238
48840,59980,31248
49664,60004,31114
49008,60023,30936
47432,60023,31343
45880,60023,31286
45028,59945,31261
43864,59943,31225
42932,59999,31094
42244,60015,30988
41440,60039,31268
40312,60100,31328
39105,60060,31359
38032,60124,31314
36868,60151,31289
35681,60116,31303
34684,60132,31153
33708,60039,30999
32936,60143,31260
32292,60161,31351
31792,60135,31331
31432,60253,31364
31200,60276,31348
31052,60276,31393
30940,60271,31404
30820,60280,31404
30724,60268,31367
30660,60228,31301
30640,60284,31239
30692,60284,31230
30717,60324,31160
30689,60384,31545
30847,60412,31533
30872,60324,31539
30852,60423,31548
30808,60416,31567
30753,60382,31597
30758,60392,31614
30752,60413,31562
30788,60348,31548
30901,60461,31487
30878,60519,31600
30940,60551,31716
31033,60532,31702
30868,60551,31699
30789,60549,31764
30753,60519,31769
30740,60527,31777
30780,60535,31806
30744,60551,31788
30912,60501,31808
31216,60647,31751
31492,60660,31783
31376,60678,31657
31480,60668,31950
31385,60679,31877
31221,60641,31888
31120,60551,31905
31028,60665,31939
31074,60672,31922
31112,60623,31924
31064,60736,31964
31176,60743,31972
31200,60788,31974
30956,60799,31924
30888,60720,31918
30801,60742,31826
30816,60762,31847
30864,60743,31787
30800,60728,31944
30884,60831,31972
30928,60821,31988
30864,60876,32070
30681,60860,32078
30536,60884,32106
30568,60900,31937
30512,60871,32093
30324,60820,32228
30309,60806,32221
30340,60895,32172
30425,60919,32202
30492,60967,32036
30524,60999,32239
30481,60996,32356
30396,60933,32358
30360,60996,32327
30245,60879,32338
30200,60957,32346
30152,60935,32063
30192,60991,32426
30111,61004,32516
30068,61063,32456
30064,61081,32485
30088,60991,32488
30021,61088,32512
29956,61063,32484
29881,61052,32263
29792,61039,32516
29677,60935,32669
29709,61020,32641
29712,61081,32625
29682,61143,32656
29688,61156,32669
29624,61076,32676
29560,61167,32687
29510,61144,32714
29428,61119,32600
29400,61076,32543
29408,61117,32460
29476,61047,32445
29548,61151,32841
29577,61191,32803
29692,61233,32783
29752,61216,32799
29745,61223,32791
29792,61215,32580
29808,61095,32765
29877,61183,32849
29957,61180,32816
30052,61213,32816
30176,61211,32824
30360,61191,32828
30516,61247,32732
30784,61280,32616
30945,61273,32551
31072,61271,32536
31212,61228,32537
31398,61231,32615
31676,61223,32525
31924,61239,32517
32192,61273,32780
32388,61303,32844
32556,61319,32920
32692,61332,32918
32824,61318,32823
32940,61233,32862
33048,61228,32829
33172,61191,32714
33354,61276,32669
33476,61282,32636
33560,61191,32608
33728,61341,32609
33840,61364,32631
33896,61294,32487
33940,61347,32813
33964,61359,32869
34004,61309,32768
34012,61301,32807
34004,61305,32760
34088,61312,32748
34100,61335,32725
34268,61286,32743
34306,61405,32727
34296,61383,32708
34292,61381,32679
34248,61385,32677
34156,61343,32653
34304,61237,32631
34432,61339,32601
34420,61340,32580
34440,61282,32575
34529,61409,32559
34580,61412,32528
34540,61423,32538
34596,61343,32513
34520,61408,32519
34356,61374,32471
34311,61266,32470
34264,61319,32313
34200,61373,32321
34228,61383,32297
34236,61429,32325
34304,61415,32300
34280,61430,32260
34244,61381,32322
34212,61423,32335
34128,61366,32341
34020,61364,32061
33948,61367,32379
33964,61353,32357
33896,61349,32317
33920,61447,32325
34028,61447,32241
34140,61364,32109
34228,61447,32012
34020,61431,32172
33980,61405,32343
33964,61380,32245
33845,61391,32240
33804,61404,31917
33792,61421,32191
33900,61442,32237
34028,61383,32193
33992,61479,32196
33844,61447,32175
33824,61447,31907
33768,61415,32189
33672,61388,32123
33552,61382,32119
33580,61400,31949
33718,61413,32036
33800,61447,32101
33769,61463,32117
33788,61468,32072
33800,61447,31999
33744,61357,31775
33596,61397,32132
33584,61304,32039
33672,61319,32063
33824,61404,32029
33912,61418,31950
33953,61415,31905
33916,61469,31822
33848,61471,31985
33708,61447,32078
33632,61370,32011
33560,61389,31979
33452,61380,31966
33396,61401,31899
33336,61391,31863
33360,61404,31811
33392,61446,31887
33457,61471,31870
33476,61446,31861
33366,61389,31986
33292,61442,31902
33224,61392,31903
33204,61357,31892
33216,61360,31911
33216,61319,31879
33124,61407,31805
33144,61439,31644
33286,61447,31533
33365,61447,31853
33386,61440,31870
33428,61423,31848
33448,61384,31666
33400,61356,31583
33354,61332,31751
33352,61380,31794
33285,61388,31876
33300,61416,31796
33412,61429,31812
33368,61417,31797
33408,61407,31805
33424,61318,31784
33332,61361,31717
33241,61351,31600
33244,61356,31700
33345,61351,31808
33324,61379,31751
33352,61388,31761
33404,61351,31564
33412,61394,31688
33325,61313,31733
33286,61364,31749
33185,61244,31668
33217,61318,31564
33272,61319,31655
33328,61319,31737
33400,61319,31735
33448,61369,31727
33456,61391,31727
33368,61357,31682
33250,61373,31550
33229,61252,31495
33333,61319,31616
33292,61280,31745
33300,61291,31734
33338,61301,31729
33440,61297,31732
33488,61340,31727
33520,61300,31735
33536,61356,31689
33488,61332,31652
33484,61268,31572
33494,61287,31415
33439,61255,31824
33376,61247,31763
33349,61252,31757
33300,61191,31639
33356,61312,31717
33332,61319,31735
33056,61278,31744
32532,61309,31855
31792,61191,31836
30782,61202,31814
29904,61127,31637
29140,61221,31834
28312,61181,31845
27640,61238,31853
27188,61225,31537
27048,61286,31929
27193,61269,31901
27889,61274,31878
29272,61224,31853
31717,61129,31677
34880,61191,31893
38508,61210,31929
42044,61228,31916
45208,61244,31918
47564,61280,31945
49136,61296,31901
49716,61276,31856
48692,61224,31909
47252,61260,31965
46080,61191,31976
45404,61190,31824
44248,61165,32082
43364,61172,31988
42648,61180,31996
41716,61223,31846
40464,61238,32000
39236,61216,32006
37992,61223,31822
36820,61177,32044
35649,61140,32031
34564,61104,32032
33596,61111,31765
32688,61079,32037
32016,61037,32038
31568,61152,31888
31324,61084,32037
31160,61172,32077
30916,61150,32085
30849,61133,32042
30808,61084,32027
30584,61060,32140
30540,61063,32132
30560,61057,31989
30536,61063,32253
30524,61109,32180
30536,61125,32103
30544,61117,32164
30492,61092,32279
30425,61004,32277
30380,61045,32263
30388,61013,32291
30432,61007,32300
30458,61012,32165
30424,61031,32023
30524,61063,32292
30612,61045,32420
30652,61057,32407
30692,61053,32359
30680,61023,32079
30648,60997,32377
30652,60956,32415
30637,60935,32424
30644,60900,32301
30633,60965,32407
30573,61004,32442
30648,61007,32469
30760,60999,32437
30768,60935,32468
30869,60935,32498
30837,60912,32495
30856,60879,32241
30868,60901,32230
30838,60908,32459
30848,60911,32482
30933,60935,32584
31064,60973,32516
31028,60935,32524
31055,60935,32496
31048,60916,32485
30941,60782,32396
30868,60820,32204
30933,60832,32439
30848,60863,32530
30788,60860,32470
30821,60888,32476
30793,60804,32348
30752,60893,32432
30668,60807,32449
30608,60836,32463
30496,60807,32352
30360,60791,32541
30260,60796,32476
30300,60791,32420
30344,60807,32237
30348,60847,32447
30348,60837,32473
30316,60764,32293
30196,60781,32370
30060,60704,32519
29936,60759,32516
29816,60717,32500
29864,60674,32361
29932,60712,32444
29862,60679,32503
29840,60759,32468
29820,60772,32330
29728,60765,32492
29556,60700,32246
29445,60724,32448
29332,60676,32497
29281,60665,32391
29272,60660,32596
29280,60671,32637
29228,60655,32636
29240,60615,32602
29328,60703,32436
29416,60655,32724
29358,60676,32687
29284,60556,32709
29188,60615,32612
29184,60519,32399
29190,60577,32735
29212,60577,32724
29276,60588,32463
29366,60540,32756
29380,60629,32724
29322,60540,32748
29248,60583,32705
29220,60583,32567
29273,60544,32756
29248,60500,32736
29268,60516,32775
29456,60469,32745
29706,60508,32556
29956,60460,32724
30120,60565,32741
30344,60543,32748
30520,60535,32755
30582,60453,32421
30664,60468,32791
30784,60351,32727
31128,60423,32644
31376,60423,32637
31680,60447,32679
32036,60479,32727
32284,60491,32697
32372,60453,32529
32532,60399,32562
32664,60412,32732
32780,60295,32642
32866,60347,32572
32928,60319,32565
33056,60359,32586
33268,60319,32604
33494,60399,32592
33722,60393,32412
33680,60369,32581
33724,60295,32544
33740,60332,32280
33712,60295,32489
33636,60277,32492
33636,60276,32329
33772,60263,32189
33852,60277,32381
33876,60321,32405
33888,60326,32402
34048,60311,32269
34080,60272,32076
34080,60183,32316
34192,60210,32297
34180,60196,32129
34140,60199,32203
34228,60160,32192
34268,60197,32207
34276,60153,32106
34376,60243,31926
34384,60228,32105
34336,60215,32151
34232,60199,32127
34172,60127,32081
34184,60111,31984
34204,60124,31724
34184,60111,32031
34128,60127,32028
34086,60149,31984
34139,60160,31788
34172,60132,31925
34144,60120,31951
34072,60077,31963
34052,60028,31933
33985,60023,31765
33904,60015,31791
33924,60031,31972
33944,60039,31927
34020,59968,31919
33948,60052,31860
33796,59989,31874
33888,60039,31837
33960,60007,31833
33952,59886,31774
33904,59895,31504
33864,59943,31784
33829,59941,31869
33780,59949,31809
33868,59892,31780
33988,59989,31725
33989,59968,31540
33905,59896,31717
33712,59932,31831
33696,59892,31716
33688,59823,31717
33600,59809,31741
33584,59853,31693
33696,59780,31701
33750,59908,31693
33724,59892,31605
33716,59885,31450
33728,59854,31535
33712,59834,31677
33700,59804,31668
33640,59773,31648
33664,59783,31565
33572,59772,31364
33424,59764,31612
33484,59783,31664
33536,59812,31660
33389,59807,31604
33292,59783,31623
33304,59757,31586
33322,59710,31618
33288,59695,31588
33344,59680,31590
33270,59693,31508
33244,59695,31391
33380,59716,31529
33580,59676,31549
33676,59725,31572
33604,59703,31452
33488,59685,31492
33420,59635,31550
33400,59608,31540
33348,59607,31578
33316,59567,31556
33380,59604,31301
33464,59639,31559
33496,59637,31556
33488,59600,31517
33404,59604,31476
33344,59602,31350
33296,59527,31218
33252,59424,31513
33230,59525,31556
33236,59511,31500
33257,59524,31521
33272,59559,31357
33310,59564,31529
33284,59540,31489
33192,59508,31511
33116,59423,31307
33010,59447,31513
33020,59436,31461
33088,59348,31431
33088,59420,31488
33088,59388,31477
33168,59367,31259
33272,59440,31406
33274,59356,31552
33304,59399,31513
33216,59399,31463
33112,59348,31378
33056,59308,31343
32924,59271,31495
33000,59345,31468
33076,59278,31471
33104,59359,31428
33120,59301,31199
33084,59348,31442
33084,59286,31465
33076,59329,31463
32948,59264,31414
32864,59193,31437
32836,59239,31415
32884,59252,31224
32964,59252,31412
32960,59296,31389
32905,59229,31397
32938,59271,31197
32864,59262,31313
32665,59188,31367
32708,59099,31366
32824,59159,31132
32872,59140,31308
32849,59143,31343
32900,59175,31345
32909,59197,31306
33056,59212,31156
33116,59189,31024
33169,59172,31309
33220,59143,31401
33196,59103,31315
33152,59072,31286
33156,59015,31333
33225,59065,31367
33229,59076,31317
33176,59111,31332
33277,59100,31256
33340,59096,31264
33296,59076,31246
33309,59055,31223
33204,59006,31233
33052,58887,31192
32985,58991,31054
33112,58980,31140
33200,58990,31239
33230,59015,31212
33228,59015,31170
33220,58991,31206
33240,58981,31204
33212,58975,31173
33124,58919,31005
33080,58887,31087
32974,58884,31205
33002,58887,31151
32964,58887,31153
33049,58938,31137
33092,58933,31086
33040,58844,30993
32928,58887,30882
33004,58805,31111
32957,58836,31221
32932,58804,31173
32977,58780,31129
33028,58799,31153
33048,58809,31101
33117,58844,31143
33232,58833,31129
33188,58759,31036
33100,58751,30975
32961,58783,30864
32791,58679,30828
32552,58708,31068
31905,58631,31109
31148,58692,31110
30184,58620,31110
29241,58708,31103
28513,58751,31090
27734,58743,31092
27076,58711,31030
26376,58700,30929
26076,58631,30892
26200,58615,30816
26716,58608,30772
28029,58621,31028
30682,58631,31148
34156,58631,31038
38104,58664,31049
41852,58664,31047
45048,58652,30761
47624,58631,31013
49344,58580,31078
50068,58526,31036
49296,58575,30973
47592,58561,30997
46008,58503,30918
45188,58582,30996
44064,58599,31052
43092,58583,31045
42320,58541,31005
41430,58471,30969
40286,58468,30977
39040,58455,30952
37820,58448,30890
36656,58398,30702
35592,58406,30636
34716,58495,30965
33740,58486,30919
32856,58464,30959
32192,58464,30927
31652,58432,30942
31298,58399,30892
31022,58356,30779
30880,58368,30983
30724,58369,30960
30716,58360,30948
30700,58404,31001
30612,58404,31012
30546,58389,31065
30504,58364,31052
30572,58357,30967
30528,58295,30864
30364,58287,30823
30348,58276,31209
30513,58276,31109
30596,58277,31175
30572,58300,31183
30600,58316,31184
30636,58296,31095
30680,58287,30935
30684,58247,30935
30670,58157,31135
30636,58188,31156
30708,58173,31171
30742,58180,31168
30772,58199,31364
30856,58228,31279
30940,58240,31304
30874,58212,31261
30932,58191,31144
30936,58165,31193
30840,58052,31239
30833,58092,31400
30878,58011,31335
30945,58087,31311
30974,58105,31326
31116,58145,31326
31012,58145,31108
30920,58119,31374
30900,58102,31291
30936,58097,31332
30876,58047,31310
30821,58028,31141
30776,58013,31196
30813,57940,31309
30730,58044,31378
30784,58049,31332
30772,58005,31269
30740,58047,31272
30716,57983,31225
30688,58017,31132
30662,57964,31089
30652,57856,31027
30620,57949,31266
30672,57953,31305
30624,57863,31362
30620,57967,31279
30588,57911,31317
30476,57972,31261
30416,57949,31072
30416,57944,31424
30321,57895,31349
30236,57813,31397
30204,57860,31175
30152,57863,31425
30166,57863,31415
30100,57839,31455
30064,57903,31313
29948,57847,31520
29896,57863,31509
29808,57862,31575
29730,57807,31393
29676,57793,31684
29585,57764,31627
29509,57756,31615
29432,57711,31583
29452,57823,31683
29377,57825,31717
29306,57820,31750
29205,57799,31780
29144,57769,31666
29252,57729,31808
29248,57664,31836
29216,57708,31740
29216,57628,31913
29310,57701,31901
29336,57735,31876
29356,57748,31884
29432,57710,31929
29409,57719,31964
29312,57719,31812
29216,57648,31937
29108,57639,32026
29060,57539,32012
29108,57630,31869
29213,57600,32125
29352,57575,32045
29456,57666,32057
29536,57648,31821
29596,57649,32112
29728,57631,32091
29797,57569,32004
29852,57564,31997
30024,57552,32140
30188,57492,32088
30404,57563,32076
30740,57562,32083
31000,57591,32096
31108,57548,32086
31212,57557,31925
31424,57479,32181
31644,57479,32119
31856,57471,32117
31980,57479,31940
32152,57473,32153
32412,57444,32113
32693,57516,32084
32880,57513,32119
33044,57503,32101
33201,57465,32103
33332,57447,32066
33358,57412,31890
33312,57407,31810
33396,57391,31879
33453,57397,31813
33592,57341,32140
33868,57447,32149
33893,57428,32073
33936,57421,32113
33878,57327,32036
33928,57351,32050
33984,57343,32046
34004,57322,31879
34020,57303,31764
34184,57319,31965
34240,57317,31975
34240,57351,32007
34256,57351,31999
34232,57308,31942
34212,57343,31857
34264,57309,31808
34105,57262,31967
34069,57237,32029
34148,57238,32016
34140,57245,32063
34201,57248,31984
34190,57282,31974
34112,57222,31988
34176,57278,31921
34224,57263,31921
34168,57243,31823
34028,57199,31948
34048,57165,32013
34116,57164,32006
34088,57159,32012
33996,57180,31956
34080,57180,31900
34140,57223,31866
34108,57212,31995
34236,57211,32100
34188,57172,32104
34070,57125,32100
34008,57044,32017
33936,57116,32016
33940,57112,32042
33948,57132,32047
33996,57155,31876
34092,57132,31964
34120,57127,32118
34040,57141,32044
33856,57091,32018
33806,57063,32072
33760,57056,32071
33880,57060,32085
33800,57057,32052
33828,57023,31940
33876,57092,32029
34119,57095,32095
34062,57063,32060
34109,57040,32108
34122,57044,32074
34112,57015,31893
34104,56967,31943
34080,56999,32072
34180,56988,32066
34148,56967,31983
34064,57048,31996
34128,56996,32055
34055,57028,31960
33904,56966,32146
33956,56999,32197
34052,56957,32179
34048,56935,32220
33916,56933,32228
33964,56943,32120
34096,56908,32052
34088,56975,32210
34028,56951,32309
34108,56991,32231
34132,56951,32228
33888,56948,32241
33788,56839,32260
33884,56855,32257
33917,56876,32222
33920,56884,32171
33780,56896,32111
33944,56934,32020
34044,56895,32020
34040,56913,32218
33896,56918,32310
33752,56903,32246
33676,56839,32256
33584,56839,32224
33492,56831,31990
33444,56839,32303
33493,56860,32228
33644,56895,32126
33644,56828,32172
33680,56871,32236
33744,56795,32184
33660,56839,32085
33596,56812,32134
33616,56784,32135
33533,56795,32164
33524,56783,32090
33556,56732,31963
33564,56828,32185
33592,56812,32079
33514,56829,32115
33500,56831,32020
33454,56740,31836
33453,56756,32103
33480,56692,32034
33420,56741,32050
33332,56695,31815
33333,56775,32034
33400,56805,31985
33416,56807,31973
33452,56772,32079
33324,56781,31981
33230,56775,31837
33145,56724,32016
33144,56697,31946
33125,56711,31734
33120,56711,31961
33156,56740,31927
33193,56754,31872
33224,56759,31885
33204,56684,31799
33211,56692,31796
33216,56663,31821
33212,56692,31868
33260,56672,31716
33281,56680,31913
33216,56676,31833
33216,56710,31679
33232,56733,31781
33276,56680,31824
33184,56720,31797
33157,56672,31654
33191,56700,31751
33212,56666,31751
33172,56656,31782
33132,56644,31613
33140,56673,31767
33100,56599,31777
33028,56708,31557
32996,56704,31807
32912,56708,31767
33036,56710,31565
33036,56623,31764
32936,56638,31748
32964,56549,31657
32784,56607,31591
32832,56551,31735
32940,56647,31748
32901,56608,31549
32904,56697,31648
32892,56695,31788
32876,56673,31747
32756,56662,31706
32724,56548,31469
32620,56621,31727
32654,56615,31725
32776,56583,31721
32804,56639,31716
32908,56637,31559
32844,56681,31623
32894,56626,31735
32968,56679,31700
32992,56640,31556
32972,56608,31727
32976,56605,31684
33048,56605,31600
33044,56609,31615
33116,56624,31688
33101,56690,31647
33160,56677,31623
33177,56670,31484
33216,56653,31599
33073,56577,31636
33068,56598,31623
33120,56511,31533
33112,56580,31503
33077,56607,31598
33149,56616,31590
33208,56647,31340
33373,56655,31561
33336,56655,31603
33196,56641,31541
33132,56637,31404
33136,56583,31257
33148,56487,31556
33144,56545,31535
33096,56572,31440
32940,56612,31391
33124,56645,31464
33268,56645,31479
33212,56572,31427
33204,56631,31485
33148,56560,31345
33102,56583,31528
33032,56536,31457
32996,56566,31352
33028,56583,31516
33100,56583,31439
33125,56641,31346
33101,56645,31291
33108,56638,31490
33080,56631,31423
33100,56612,31269
33024,56495,31454
32888,56541,31412
32876,56564,31261
32904,56572,31494
32997,56583,31406
32976,56645,31349
32640,56638,31311
32044,56642,31396
31112,56624,31416
30024,56533,31421
29060,56543,31324
28240,56468,31463
27584,56536,31425
27060,56568,31366
26708,56592,31412
26528,56628,31404
27052,56644,31436
27912,56637,31337
29768,56636,31327
32708,56608,31172
36252,56580,31364
40012,56572,31529
43484,56583,31448
46476,56583,31471
48472,56628,31464
49768,56654,31479
49956,56672,31329
48773,56664,31226
46920,56656,31429
45648,56641,31478
44552,56583,31468
43332,56519,31461
42533,56556,31206
41796,56583,31469
40904,56604,31470
39768,56639,31328
38732,56636,31420
37460,56665,31461
36284,56617,31558
35156,56621,31452
34120,56583,31481
33036,56567,31295
32324,56501,31398
31748,56583,31556
31420,56631,31542
31312,56647,31511
31265,56596,31510
31149,56644,31367
30966,56556,31524
30930,56624,31529
30700,56582,31583
30592,56583,31341
30668,56583,31679
30704,56608,31623
30636,56615,31572
30772,56656,31373
30804,56648,31717
30860,56572,31631
30816,56654,31668
30752,56621,31596
30816,56583,31463
30652,56576,31647
30478,56583,31725
30572,56599,31724
30708,56620,31735
30748,56569,31716
30788,56666,31653
30920,56648,31617
30868,56583,31721
30861,56583,31845
30904,56597,31767
30960,56583,31790
31084,56583,31716
31174,56551,31584
31233,56623,31860
31276,56580,31805
31324,56656,31827
31284,56640,31572
31216,56644,31862
31252,56636,31824
31158,56605,31836
31077,56576,31844
31150,56583,31760
31076,56615,31695
30936,56621,31685
30944,56660,31606
31028,56679,31742
31056,56658,31886
31024,56572,31821
31028,56615,31816
30912,56598,31793
30829,56565,31716
30824,56583,31623
30702,56599,31874
30692,56615,31785
30600,56663,31703
30632,56583,31573
30684,56639,31802
30620,56572,31806
30537,56629,31609
30496,56539,31825
30466,56579,31807
30456,56583,31762
30424,56608,31731
30372,56617,31905
30332,56669,31808
30240,56639,31854
30128,56583,31700
30096,56649,31943
30100,56544,31849
29970,56583,31839
29848,56518,31766
29828,56580,31876
29704,56547,31928
29568,56613,31814
29580,56668,31911
29492,56660,31925
29536,56583,31744
29337,56652,32049
29288,56548,31965
29328,56613,31981
29484,56559,31818
29556,56583,32084
29545,56556,32001
29500,56623,31779
29612,56672,32044
29644,56671,32038
29600,56667,31836
29601,56666,32112
29504,56624,32063
29464,56521,31962
29356,56569,32062
29314,56500,32036
29344,56572,32085
29284,56543,31874
29220,56656,32085
29268,56631,32064
29264,56647,32007
29228,56583,31876
29312,56621,32150
29300,56559,32071
29316,56564,31904
29420,56583,32063
29492,56583,32054
29574,56621,32014
29628,56647,31802
29892,56674,32085
30076,56647,32022
30100,56598,32052
30240,56615,31833
30432,56569,32100
30489,56575,32007
30780,56567,32020
31064,56583,31814
31296,56577,32015
31636,56629,31977
31948,56573,31872
32112,56629,31780
32284,56612,31998
32460,56612,31911
32604,56567,31919
32776,56485,31909
32890,56568,31858
32912,56572,31841
33068,56577,31705
33200,56637,31783
33296,56639,31868
33405,56643,31806
33512,56614,31813
33580,56525,31708
33568,56548,31741
33568,56527,31748
33596,56549,31775
33712,56570,31461
33944,56514,31737
34084,56615,31662
34124,56631,31503
34153,56612,31700
34176,56621,31684
34180,56583,31612
34116,56567,31424
33926,56541,31572
33936,56516,31655
33908,56552,31591
33925,56511,31558
34004,56600,31565
33992,56543,31407
33988,56612,31388
34016,56607,31239
34012,56583,31596
34016,56523,31541
34036,56495,31485
34062,56528,31508
34044,56484,31495
34029,56557,31377
34086,56567,31436
34080,56599,31434
33992,56600,31442
33981,56583,31249
33924,56521,31487
33940,56509,31451
33924,56524,31361
33960,56524,31484
33924,56516,31420
33896,56473,31280
33888,56582,31460
33980,56572,31406
33928,56549,31119
33932,56575,31352
33924,56545,31388
33880,56500,31348
33773,56468,31111
33672,56519,31348
33764,56512,31343
33790,56537,31289
33836,56573,31046
33888,56576,31412
33880,56580,31328
33816,56494,31215
33792,56549,31044
33684,56412,31388
33640,56487,31312
33664,56415,31306
33493,56501,31156
33492,56447,31025
33504,56549,31305
33504,56548,31367
33572,56549,31264
33500,56531,31280
33528,56518,31226
33500,56455,31016
33313,56397,31341
33216,56468,31276
33120,56495,31204
33373,56508,31081
33468,56455,31341
33500,56540,31239
33569,56540,31267
33468,56455,31228
33424,56509,31157
33504,56404,31281
33520,56486,31245
33401,56468,31287
33348,56491,31205
33384,56492,31133
33400,56520,31298
33368,56541,31258
33304,56495,31281
33200,56521,31230
33196,56455,31348
33104,56455,31317
33008,56383,31257
33080,56477,31300
33264,56468,31276
33328,56492,31120
33377,56518,31039
33325,56532,31029
33260,56506,31268
33294,56518,31375
33245,56500,31381
33261,56447,31287
33133,56439,31329
33145,56455,31336
33292,56439,31353
33332,56469,31321
33340,56512,31239
33348,56509,31344
33380,56509,31326
33398,56503,31356
33392,56476,31239
33212,56437,31221
33152,56381,31405
33093,56437,31369
33100,56438,31334
33140,56455,31356
33220,56495,31316
33325,56495,31316
33300,56495,31276
33264,56487,31120
33181,56455,31410
33160,56423,31367
33069,56327,31342
33020,56372,31352
33029,56423,31329
33204,56440,31316
33396,56492,31074
33412,56406,31353
33368,56476,31349
33364,56431,31215
33357,56448,31237
33180,56423,31343
33156,56392,31347
33132,56421,31204
33160,56415,31418
33184,56446,31321
33230,56463,31348
33226,56484,31153
33324,56464,31375
33276,56455,31317
33172,56447,31340
33020,56359,31357
33016,56388,31274
33013,56311,31079
33060,56404,31327
33060,56420,31415
33026,56473,31321
32852,56455,31340
32896,56470,31304
32908,56448,31060
32916,56391,31423
32864,56391,31344
32728,56308,31349
32628,56388,31109
32608,56380,31389
32724,56405,31308
32828,56402,31340
32868,56476,31303
32892,56455,31220
32840,56371,31181
32760,56436,31095
32784,56384,31401
32764,56365,31309
32820,56327,31344
32816,56415,31324
32744,56413,31317
32820,56429,31054
33024,56455,31396
33056,56383,31388
32944,56440,31311
32878,56429,31335
32852,56300,31332
32796,56374,31332
32872,56379,31168
32976,56311,31236
32974,56413,31064
33016,56452,31252
33164,56356,31299
33156,56453,31303
33164,56428,31329
33184,56417,31364
33084,56391,31404
32938,56344,31421
33052,56391,31341
33056,56399,31355
33134,56421,31325
33132,56452,31207
33216,56447,31181
33268,56455,31202
33240,56445,31097
33176,56413,31108
33028,56327,31324
32936,56375,31452
32876,56351,31376
32949,56399,31367
33064,56414,31393
33070,56381,31330
33173,56455,31161
33258,56449,31448
33294,56447,31433
33284,56431,31399
33184,56391,31367
33116,56388,31444
33128,56397,31440
33156,56389,31361
33132,56408,31251
33086,56455,31409
33072,56471,31564
33061,56452,31453
32988,56439,31494
32808,56421,31485
32260,56407,31260
31585,56388,31535
30924,56351,31509
29872,56407,31540
29012,56417,31319
28320,56470,31448
27541,56455,31582
26940,56387,31524
26445,56448,31564
26336,56436,31381
26496,56412,31561
27233,56391,31574
28972,56369,31579
32004,56397,31500
35744,56441,31498
39600,56484,31694
43148,56488,31676
46320,56425,31596
48453,56495,31628
49680,56468,31428
49672,56454,31708
48464,56431,31620
46680,56380,31647
45464,56437,31660
44504,56439,31668
43356,56484,31638
42620,56505,31432
41860,56501,31429
41092,56420,31692
39956,56449,31665
38680,56423,31685
37464,56381,31564
36276,56437,31516
35028,56436,31585
34041,56446,31641
33180,56449,31671
32505,56506,31704
31828,56415,31558
31500,56487,31777
31124,56389,31751
30860,56429,31748
30748,56354,31623
30576,56431,31709
30492,56407,31825
30460,56455,31781
30572,56509,31828
30464,56484,31854
30356,56509,31668
30348,56501,31903
30428,56469,31862
30396,56441,31799
30397,56358,31952
30484,56436,31927
30533,56361,31948
30564,56480,31944
30717,56511,31873
30830,56484,31764
30812,56519,32069
30692,56512,31996
30576,56495,31981
30424,56384,31930
30280,56421,31848
30544,56373,31990
30636,56449,32050
30664,56484,32041
30788,56543,32025
30928,56517,32034
30976,56540,32097
30900,56508,32047
30892,56422,32073
30788,56455,31943
30772,56432,32157
30848,56455,32053
30940,56479,32069
30958,56455,32072
31049,56535,32081
31040,56540,32004
31076,56548,31887
30912,56537,31824
30900,56508,32100
30880,56388,32066
30796,56477,32026
30724,56484,32014
30840,56447,31933
30836,56494,31798
30796,56549,32049
30949,56564,31949
31044,56551,31980
30852,56469,31960
30750,56528,31937
30612,56492,31709
30372,56484,31973
30564,56485,31916
30722,56452,31893
30680,56508,31656
30720,56547,31963
30736,56580,31845
30586,56564,31873
30472,56469,31868
30736,56541,31879
30764,56485,31777
30608,56422,31588
30520,56455,31921
30524,56511,31901
30609,56509,31885
30564,56572,31847
30552,56568,31825
30516,56560,31810
30352,56486,31815
30152,56550,31810
29924,56503,31850
29852,56500,31845
29798,56489,31796
29748,56516,31711
29740,56549,31748
29788,56582,31906
29908,56583,31840
29784,56577,31877
29728,56561,31880
29548,56532,31853
29392,56519,31783
29316,56444,31844
29345,56516,31764
29292,56529,31943
29320,56551,31905
29312,56583,31940
29288,56583,31959
29389,56579,31745
29420,56501,32016
29320,56571,32015
29192,56524,31971
29140,56452,32004
29144,56512,32013
29276,56527,31985
29428,56550,31964
29440,56572,31900
29604,56496,31809
29508,56583,31820
29612,56573,31853
29888,56559,31834
30032,56528,31817
30080,56496,31815
30328,56484,32020
30452,56532,32135
30533,56536,32148
30504,56572,32084
30816,56598,32054
31293,56580,32058
31376,56510,32059
31681,56557,32063
31916,56506,32054
32080,56503,32056
32256,56516,32046
32417,56524,32037
32584,56528,32036
32672,56576,32028
32892,56500,32047
32933,56519,32029
32916,56583,32028
33076,56544,32041
33217,56503,32036
33284,56468,32031
33420,56475,32037
33400,56513,32037
33652,56471,32039
33744,56580,32030
33893,56572,32036
33828,56510,31968
33740,56568,31980
33712,56535,31964
33633,56423,31853
33580,56445,31800
33660,56505,31812
33785,56501,31991
33822,56455,32040
33872,56573,31997
33880,56565,32007
33928,56564,31983
33932,56548,31781
33896,56541,32006
33812,56492,31980
33728,56476,31998
33868,56484,31940
33922,56476,31740
34029,56520,31768
34136,56556,31941
34242,56565,32039
34028,56556,31974
33816,56532,31956
33840,56455,31987
33917,56484,31972
34164,56476,31989
34204,56480,31971
34148,56476,31837
34250,56447,31927
34328,56528,32052
34184,56476,31990
34208,56543,31962
34012,56535,31797
33940,56512,32052
34028,56468,31959
33948,56388,31996
33790,56455,31988
33728,56477,31941
33752,56508,31777
33916,56533,32042
34056,56545,31961
33988,56521,31991
34060,56511,31855
34036,56431,31900
33864,56455,32060
33772,56447,31969
33880,56455,31999
33796,56455,31919
33900,56469,31853
33932,56447,32069
33836,56534,31991
33786,56428,32002
33836,56487,31993
33646,56428,31860
33548,56447,31937
33484,56389,32069
33532,56420,31974
33680,56449,31984
33629,56487,31988
33724,56500,32007
33872,56501,32002
33896,56503,31999
33796,56469,31996
33672,56452,32003
33544,56443,32006
33404,56420,31996
33192,56424,31972
33360,56348,31910
33377,56455,31838
33480,56476,31820
33420,56500,31789
33416,56463,31816
33496,56479,31912
33452,56453,31996
33456,56413,32076
33346,56375,32025
33511,56391,32034
33584,56407,32063
33549,56396,32086
33518,56463,32075
33685,56455,32048
33864,56455,32087
33816,56423,32089
33808,56420,32133
33704,56385,32087
33565,56376,32033
33594,56295,31791
33624,56391,31860
33640,56407,31859
33624,56436,31873
33660,56405,31870
33684,56417,31813
33741,56421,31845
33780,56412,32015
33612,56365,32154
33500,56359,32116
33472,56359,32054
33556,56295,32072
33565,56381,32095
33624,56409,31963
33720,56415,31919
33564,56401,32160
33524,56352,32056
33484,56360,32109
33480,56274,31952
33436,56292,32030
33424,56260,32078
33556,56325,32106
33332,56348,31973
33352,56391,31901
33488,56399,32154
33376,56380,32207
33456,56375,32181
33360,56327,32154
33180,56311,32120
33109,56296,32116
33164,56256,32135
33332,56317,32157
33384,56327,32168
33380,56364,32022
33440,56375,32001
33309,56292,32030
33261,56327,31927
33169,56244,32221
32976,56288,32204
32916,56276,32172
32992,56269,32213
33048,56276,32221
33012,56236,32141
33116,56327,32305
33164,56327,32236
33205,56327,32231
33188,56327,32120
33132,56301,32334
33044,56199,32290
33190,56259,32268
33120,56255,32095
33004,56263,32328
33044,56263,32295
33020,56319,32320
33046,56260,32207
32998,56295,32238
32989,56232,32337
32968,56236,32367
32944,56192,32236
32901,56223,32446
32841,56195,32387
32792,56240,32325
32840,56264,32373
32900,56297,32391
32840,56238,32431
32780,56295,32332
32788,56232,32519
32880,56236,32431
32864,56229,32452
32948,56231,32480
33064,56212,32466
33182,56211,32317
33282,56250,32564
33248,56258,32508
33264,56285,32551
33152,56287,32324
32928,56276,32643
32849,56262,32538
32790,56208,32577
32744,56231,32423
32792,56219,32548
32925,56233,32576
33044,56242,32612
33068,56290,32493
33013,56290,32708
32900,56285,32628
32798,56215,32550
32775,56242,32652
32836,56216,32677
32953,56206,32727
32952,56224,32669
32940,56229,32530
32932,56199,32838
32932,56291,32799
32848,56300,32849
32848,56294,32782
32832,56240,32704
32840,56252,32925
32717,56155,33050
32708,56210,33008
32876,56183,33045
32936,56224,32943
32992,56199,33145
33040,56264,33230
33008,56311,33284
32888,56308,33279
32668,56284,33332
32508,56279,33192
32388,56236,33315
32140,56241,33527
31860,56236,33542
31676,56248,33557
31268,56263,33618
30652,56247,33657
29760,56308,33584
28868,56297,33747
28300,56293,33853
27780,56255,33929
27360,56242,33912
26985,56237,33972
26965,56236,34013
27081,56256,34028
27744,56248,34133
28940,56301,34220
31288,56324,34103
34376,56263,34407
37880,56300,34506
41364,56272,34518
44436,56228,34520
46313,56250,34618
47296,56254,34580
47668,56199,34592
46808,56282,34612
45280,56305,34983
43732,56254,35033
43104,56291,35028
42092,56277,35074
41312,56252,35055
40676,56199,35255
39872,56155,35308
38918,56180,35388
37776,56197,35255
36732,56220,35607
35802,56238,35574
35024,56185,35660
34139,56229,35589
33204,56189,35776
32246,56185,35910
31488,56092,35895
31078,56142,35906
30856,56151,35911
30808,56148,36115
30573,56167,36199
30520,56196,36150
30575,56197,36114
30460,56199,36416
30308,56164,36463
30220,56151,36373
30332,56101,36649
30292,56103,36659
30212,56103,36692
30200,56103,36615
30260,56104,36783
30302,56156,36951
30381,56140,36928
30349,56129,36981
30282,56048,37023
30308,56071,37102
30380,55956,37028
30616,56037,37306
30760,56029,37271
30700,56028,37332
30564,56041,37276
30536,56065,37461
30625,56065,37511
30756,56039,37551
30660,56044,37590
30628,55999,37525
30810,55959,37686
30902,55935,37789
30888,55943,37821
30852,55965,37775
30833,55981,38100
30864,56008,38016
30932,56007,38080
30810,55999,38040
30758,55964,38338
30720,55909,38260
30484,55873,38247
30404,55852,38324
30469,55884,38534
30540,55895,38476
30620,55900,38516
30586,55919,38612
30592,55860,38589
30612,55908,38663
30621,55812,38615
30528,55876,38791
30396,55844,38827
30214,55815,38859
30092,55812,38900
30102,55815,38983
30096,55843,39021
30180,55877,38972
30244,55879,39244
30248,55855,39188
30208,55839,39152
30109,55719,39447
29942,55758,39500
29832,55748,39508
29784,55758,39540
29904,55750,39536
29981,55772,39599
30009,55805,39704
29948,55807,39708
29854,55735,39766
29828,55778,39823
29860,55720,39939
29744,55701,39930
29536,55687,40064
29317,55687,40041
29268,55686,40236
29272,55714,40402
29252,55724,40413
29360,55732,40393
29268,55652,40393
29380,55701,40492
29390,55671,40507
29148,55581,40545
29128,55628,40639
29256,55623,40837
29320,55629,40895
29393,55653,40759
29409,55661,40807
29348,55588,40902
29312,55640,40865
29302,55644,40996
29112,55583,41149
28994,55559,41081
28888,55486,41063
28724,55556,41125
28540,55557,41128
28388,55559,41132
28369,55597,41178
28388,55599,41196
28584,55503,41309
28833,55590,41420
28964,55533,41351
28844,55420,41308
28812,55503,41356
28922,55495,41389
29036,55485,41375
29260,55508,41382
29608,55523,41351
29825,55524,41540
29974,55447,41401
30124,55471,41432
30244,55484,41540
30358,55449,41575
30516,55429,41445
30724,55348,41479
30974,55407,41476
31200,55463,41479
31516,55477,41423
31784,55479,41536
31824,55460,41588
31940,55453,41464
32056,55421,41479
32092,55373,41444
32144,55372,41420
32319,55375,41604
32696,55376,41584
32974,55393,41477
33104,55391,41450
33108,55397,41477
33088,55396,41409
33076,55348,41548
33024,55367,41444
33025,55316,41455
33000,55303,41396
33140,55236,41551
33252,55326,41460
33300,55303,41391
33396,55351,41420
33468,55276,41405
33472,55343,41326
33428,55327,41493
33396,55293,41342
33381,55253,41304
33368,55244,41315
33416,55239,41319
33445,55236,41406
33432,55269,41223
33412,55285,41220
33360,55296,41151
33308,55279,41116
33326,55265,41232
33340,55165,41249
33368,55196,41164
33308,55175,41038
33332,55108,40999
33389,55199,40978
33536,55215,40889
33669,55167,40940
33624,55241,40988
33544,55223,40920
33544,55221,40869
33532,55197,40704
33449,55140,40676
33456,55122,40636
33444,55129,40711
33396,55076,40520
33360,55124,40509
33400,55189,40469
33431,55141,40382
33388,55164,40317
33300,55092,40260
33172,55127,40388
33024,55047,40244
32984,55092,40128
32900,55086,40111
32864,55100,40065
32944,55111,39984
33152,55119,39882
33288,55140,39940
33356,55121,39924
33420,55129,39753
33388,55079,39728
33324,54981,39581
33276,55039,39639
33294,55037,39597
33380,55015,39485
33465,55076,39447
33516,55094,39294
33545,55020,39463
33516,55084,39338
33464,55047,39213
33404,55044,39173
33272,55005,39036
33193,54980,39071
33196,54988,39142
33136,54919,39088
33072,55015,38919
33134,55036,38824
33164,54980,38804
33192,55045,38698
33132,55023,38703
33136,54994,38782
33152,54919,38700
33218,54959,38688
33232,54941,38524
33272,54952,38440
33380,54959,38377
33436,54991,38328
33360,55005,38172
33304,54999,38356
33192,54977,38325
33138,54956,38159
33096,54847,38087
33108,54916,38084
33180,54919,37955
33196,54903,37991
33240,54919,38045
33302,54951,37892
33332,54972,37837
33377,54943,37818
33428,54940,37798
33492,54884,37712
33440,54863,37615
33385,54868,37526
33348,54791,37581
33321,54879,37637
33120,54886,37603
33088,54836,37613
33032,54902,37584
33064,54902,37388
33136,54893,37351
33188,54861,37335
33129,54836,37306
33188,54820,37215
33200,54821,37169
33240,54736,37196
33232,54836,37116
33192,54875,36999
33224,54868,36980
33156,54868,37121
33116,54847,37009
33060,54759,36948
32932,54776,36861
32856,54724,36846
32832,54763,36681
32792,54768,36709
32784,54791,36804
32900,54823,36648
33034,54820,36607
33048,54812,36452
33037,54727,36388
33017,54764,36535
33024,54733,36487
33156,54739,36404
33254,54718,36321
33384,54702,36290
33524,54748,36317
33640,54727,36231
33735,54765,36122
33648,54727,36072
33524,54738,36162
33420,54645,36135
33256,54672,36068
33148,54599,35951
33156,54677,35925
33256,54597,36000
33352,54684,35908
33440,54663,35822
33464,54716,35863
33421,54727,35817
33420,54700,35805
33316,54678,35709
33217,54631,35613
33260,54572,35719
33368,54624,35784
33456,54556,35687
33476,54655,35663
33468,54679,35639
33440,54663,35624
33444,54663,35636
33412,54648,35605
33360,54621,35524
33282,54580,35431
33272,54527,35430
33272,54567,35463
33188,54489,35668
33164,54559,35548
33148,54589,35510
33200,54612,35492
33268,54615,35495
33286,54615,35477
33272,54564,35398
33252,54544,35316
33212,54532,35413
32962,54535,35549
32244,54535,35455
31380,54567,35388
30264,54589,35405
29316,54591,35232
28509,54572,35311
27748,54535,35484
27072,54479,35356
26532,54493,35288
26584,54469,35383
27152,54453,35327
28260,54488,35300
30244,54497,35150
32800,54551,35109
35776,54480,35125
39164,54540,35335
42680,54527,35356
45792,54487,35284
47604,54461,35199
48572,54444,35203
48157,54460,35175
46528,54461,35028
44176,54492,35181
42340,54511,35167
40884,54517,35138
39828,54496,34964
39096,54480,35188
38880,54440,35071
38620,54407,35064
38376,54375,34951
37980,54407,34860
37412,54407,35159
36852,54423,35012
36260,54469,35016
35712,54459,34862
35157,54431,34866
34464,54423,34991
33740,54407,35068
33017,54342,34998
32440,54276,34961
32064,54364,34964
31890,54352,34876
31852,54391,34801
31790,54407,34988
31680,54423,35024
31704,54324,35047
31640,54372,34948
31504,54309,34957
31536,54316,35127
31452,54332,35117
31504,54238,35044
31527,54308,35004
31544,54343,35306
31620,54369,35256
31668,54279,35268
31637,54351,35249
31692,54343,35268
31732,54311,35292
31708,54279,35316
31700,54272,35335
31726,54254,35335
31724,54264,35235
31693,54305,35383
31708,54325,35404
31736,54335,35375
31716,54309,35279
31728,54303,35258
31720,54268,35415
31684,54189,35516
31656,54231,35407
31708,54239,35383
31732,54253,35394
31745,54265,35412
31768,54303,35276
31712,54301,35262
31765,54279,35460
31799,54272,35415
31688,54250,35405
31564,54141,35350
31544,54183,35319
31576,54204,35333
31661,54199,35316
31804,54215,35296
31868,54231,35180
31940,54271,35127
32024,54254,35335
31924,54247,35212
31840,54213,35195
31777,54173,35144
31712,54086,35037
31644,54167,35247
31632,54189,35140
31712,54207,35118
31796,54161,35095
31804,54231,35111
31772,54148,35116
31648,54215,35101
31568,54172,34948
31440,54145,35172
31372,54082,35095
31368,54135,34928
31356,54148,35140
31358,54175,35079
31389,54192,35031
31392,54185,34909
31412,54183,35164
31425,54175,35084
31356,54133,35079
31260,54036,34948
31204,54084,35183
31064,54103,35053
30912,54099,35029
30877,54132,35015
30960,54148,34917
31020,54140,35048
31080,54140,35069
31080,54132,35059
31036,54007,34901
30908,54053,35095
30840,54055,35053
30794,53967,34977
30684,54047,34981
30624,54093,35036
30761,54107,35043
30712,54104,34897
30588,54087,35181
30548,54087,35059
30588,54052,35057
30596,54007,34989
30484,53943,34876
30528,53990,34999
30640,53935,35053
30612,54021,35023
30817,54023,34961
30984,54022,35007
31088,54047,35059
31240,54047,35004
31254,53997,35043
31089,53980,34863
31084,53959,35079
31188,53961,35012
31460,53956,35016
31661,53975,34881
31808,53955,35134
31892,54005,35054
31928,53927,34969
32092,53977,34985
32160,53871,34932
32276,53916,34916
32448,53893,34871
32613,53853,34804
32696,53916,34770
32793,53947,34766
33026,53965,34880
33084,53956,34980
33148,53951,34900
33270,53933,34844
33310,53871,34756
33284,53860,34725
33360,53848,34958
33489,53853,34853
33472,53845,34818
33492,53889,34781
33628,53917,34616
33740,53927,34717
33784,53895,34805
33748,53847,34709
33724,53847,34722
33600,53812,34708
33460,53799,34487
33524,53807,34720
33584,53760,34607
33620,53847,34584
33688,53862,34565
33788,53823,34559
33816,53857,34500
33860,53847,34377
33876,53740,34325
33804,53753,34460
33732,53693,34508
33712,53767,34392
33728,53725,34367
33756,53796,34353
33736,53817,34228
33772,53816,34131
33810,53809,34188
33704,53813,34252
33632,53713,34228
33620,53724,34097
33644,53639,34006
33610,53728,34223
33696,53703,34128
33780,53741,34071
33776,53714,34072
33784,53766,33897
33760,53703,33947
33716,53757,34061
33684,53710,33947
33624,53693,33908
33624,53669,33903
33688,53663,33815
33781,53681,33660
33856,53708,33865
33868,53725,33753
33885,53741,33751
33940,53719,33601
33908,53716,33527
33772,53671,33476
33732,53577,33424
33636,53604,33537
33532,53639,33644
33468,53639,33509
33508,53661,33460
33705,53703,33441
33788,53694,33375
33804,53684,33268
33804,53671,33260
33768,53636,33425
33664,53543,33287
33628,53597,33287
33568,53533,33151
33556,53604,33174
33704,53629,33274
33820,53659,33172
33797,53645,33111
33688,53637,32956
33660,53636,33205
33656,53596,33124
33496,53503,33060
33388,53556,33023
33413,53569,32907
33465,53495,33001
33513,53590,32978
33628,53573,32806
33704,53613,32927
33644,53543,33020
33692,53581,32911
33668,53565,32903
33612,53485,32873
33633,53511,32807
33612,53503,32684
33516,53501,32761
33504,53567,32885
33536,53593,32775
33500,53583,32751
33468,53572,32563
33340,53564,32704
33216,53541,32793
33192,53484,32724
33312,53484,32639
33348,53487,32647
33364,53501,32455
33430,53440,32641
33452,53544,32592
33368,53469,32524
33316,53532,32524
33348,53503,32340
33272,53492,32528
33229,53463,32461
33212,53447,32408
33260,53459,32384
33354,53460,32431
33408,53485,32412
33393,53510,32308
33320,53525,32388
33312,53503,32349
33329,53495,32319
33288,53420,32279
33268,53435,32303
33313,53421,32306
33390,53426,32266
33428,53431,32257
33496,53450,32188
33468,53476,32127
33348,53492,32231
33309,53471,32223
33292,53463,32053
33244,53433,32237
33180,53412,32183
33156,53383,32176
33105,53397,32036
33072,53383,31964
33005,53357,32196
32952,53460,32124
32916,53415,32101
32856,53446,32135
32912,53445,32085
32932,53332,32086
32933,53359,31956
32917,53296,32140
32976,53356,32062
32985,53297,32045
32925,53383,31928
32976,53412,31992
33088,53423,32028
33136,53421,31981
33148,53407,31808
33068,53375,31956
32968,53340,31985
32924,53340,31981
32888,53348,31981
33028,53310,31924
33183,53361,31818
33213,53359,31825
33248,53375,31869
33273,53383,31982
33252,53375,32013
33160,53286,31895
33068,53307,31911
33032,53301,31813
33128,53319,31700
33320,53315,31937
33391,53340,31893
33404,53366,31903
33464,53300,31865
33493,53324,31684
33468,53351,31980
33448,53326,31860
33441,53287,31864
33424,53277,31860
33408,53255,31812
33364,53284,31676
33312,53319,31944
33356,53343,31867
33336,53271,31793
33293,53319,31848
33308,53255,31869
33352,53277,31868
33252,53181,31695
33212,53255,31957
33256,53255,31873
33256,53255,31909
33292,53281,31808
33284,53316,31761
33328,53280,31727
33336,53317,31693
33280,53303,31932
33181,53279,31889
33116,53231,31913
33068,53212,31885
33012,53249,31796
32807,53239,31847
32225,53207,31893
31546,53308,32032
30516,53286,32003
29456,53236,32039
28604,53284,31950
27832,53245,31934
27176,53143,31903
26472,53208,31916
26216,53164,31909
26416,53213,31917
27104,53241,31908
28488,53297,31813
30768,53277,31733
34080,53200,31824
37936,53248,32017
41952,53228,31880
45724,53196,31908
48324,53197,31833
49804,53204,31725
50236,53204,31796
49248,53239,31956
47128,53269,31894
45076,53255,31855
43760,53255,31729
42224,53248,31905
41068,53213,31844
40516,53188,31829
40136,53175,31818
39576,53188,31652
38888,53188,31826
38040,53181,31789
37197,53233,31716
36352,53165,31695
35488,53236,31852
34512,53220,31783
33565,53219,31661
32688,53172,31776
31992,53172,31775
31518,53172,31784
31252,53173,31697
31157,53191,31621
31064,53232,31717
31040,53157,31796
31050,53223,31862
31056,53221,31959
31016,53191,31917
30900,53079,31864
30812,53165,31887
30788,53156,31838
30829,53164,31821
30840,53149,31741
30956,53220,31751
31028,53221,31773
31013,53201,31776
30964,53125,31914
30944,53189,32093
30964,53127,32020
30909,53127,32029
30832,53069,32006
30825,53157,32022
30900,53181,32041
31028,53127,32058
31084,53219,31999
31109,53213,32039
31136,53189,32041
31160,53156,32032
31168,53125,31881
31176,53127,32108
31244,53116,32145
31257,53151,32064
31244,53167,32033
31308,53212,32042
31316,53208,32038
31376,53188,31866
31296,53185,31869
31200,53157,31931
31052,53127,32033
31004,53100,31959
31008,53124,31945
31090,53148,31739
31020,53157,31964
31128,53121,31972
31216,53215,31922
31236,53191,31876
31220,53127,31887
31092,53143,31719
30909,53127,31733
30852,53084,31919
30928,53127,31830
30965,53085,31832
31048,53179,31705
31076,53213,31624
31056,53208,31871
31060,53205,31830
31036,53207,31816
30924,53157,31840
30796,53148,31775
30672,53133,31645
30620,53151,31892
30544,53151,31879
30493,53181,31877
30452,53124,31884
30436,53200,31724
30256,53116,31964
30168,53188,31959
30104,53170,31919
30016,53157,31816
29960,53127,31810
29944,53148,31928
29928,53117,32076
29946,53199,32030
29988,53212,32081
30032,53225,32037
29948,53160,32043
29718,53200,32138
29648,53179,32175
29588,53159,32140
29481,53145,32153
29360,53095,32150
29240,53173,32206
29240,53197,32186
29344,53225,32207
29382,53217,32229
29374,53127,32135
29353,53215,32070
29332,53176,32122
29306,53168,32295
29157,53159,32290
29140,53089,32284
29220,53166,32252
29373,53213,32272
29464,53195,32074
29492,53221,32368
29524,53184,32286
29508,53239,32244
29500,53200,32276
29508,53167,32249
29628,53175,32137
29840,53167,32060
29952,53111,32149
30120,53213,32329
30324,53246,32260
30620,53255,32229
30876,53239,32229
31112,53191,32132
31380,53201,32012
31552,53109,32079
31792,53191,32104
32064,53181,32239
32364,53151,32192
32600,53216,32142
32825,53215,32144
32984,53252,31988
33132,53224,32133
33260,53240,32093
33344,53205,32084
33424,53202,32062
33472,53199,32073
33564,53204,31976
33664,53165,31903
33772,53236,32002
33918,53269,32054
33984,53280,31973
34024,53255,31965
34108,53204,31939
34136,53241,31809
34080,53196,31767
34098,53183,31697
34076,53183,31799
34104,53214,31781
34096,53226,31751
34172,53293,31880
34228,53295,31845
34252,53248,31757
34269,53248,31741
34212,53250,31732
34168,53215,31645
34132,53212,31525
34184,53225,31529
34172,53247,31737
34177,53277,31592
34257,53227,31582
34336,53303,31553
34272,53293,31454
34268,53289,31349
34256,53255,31277
34272,53228,31438
34301,53236,31502
34301,53254,31420
34273,53255,31406
34308,53224,31358
34368,53326,31199
34348,53329,31411
34296,53337,31319
34336,53317,31305
34400,53292,31124
34340,53255,31209
34352,53236,31341
34428,53273,31228
34516,53255,31236
34520,53324,31143
34516,53356,31086
34452,53364,31220
34356,53349,31153
34324,53319,31168
34312,53319,31036
34240,53220,30969
34140,53292,31189
34080,53311,31159
34092,53327,31068
34052,53332,31078
34104,53311,31092
34016,53382,30936
33876,53372,30978
33832,53383,31037
33956,53349,31057
33904,53325,30844
33840,53319,31050
33744,53316,31028
33728,53359,31019
33760,53377,30925
33812,53343,30804
33848,53423,30908
33872,53415,31018
33961,53335,31044
33864,53383,30969
33720,53351,30997
33688,53365,30976
33804,53364,30885
33885,53369,30894
33921,53404,30972
34008,53396,30974
33982,53436,30948
33892,53407,30774
33804,53446,31024
33676,53412,30944
33568,53383,30935
33552,53383,30784
33560,53343,30941
33600,53405,30932
33680,53445,30959
33810,53479,30800
33844,53481,30998
33844,53476,30948
33828,53471,30740
33760,53447,30916
33704,53423,30910
33660,53420,30754
33605,53420,30884
33560,53447,30988
33612,53464,30891
33620,53496,30903
33616,53511,30712
33596,53492,30842
33437,53500,30956
33264,53441,30847
33185,53445,30879
33144,53468,30745
33234,53469,30828
33388,53484,30940
33508,53444,30837
33592,53557,30848
33566,53537,30871
33496,53479,30743
33424,53543,30868
33288,53511,30860
33264,53495,30860
33140,53492,30701
33024,53509,30879
32948,53511,30914
32912,53564,30848
32920,53583,30765
33000,53604,30924
33008,53582,30844
32980,53583,30623
33012,53503,30830
32956,53511,30815
32909,53461,30701
33012,53529,30725
33064,53559,30872
33096,53596,30795
33124,53625,30800
33180,53564,30696
33152,53620,30751
33124,53576,30761
33094,53583,30782
33088,53575,30753
33004,53575,30644
32996,53593,30854
33104,53545,30764
33132,53639,30628
33200,53606,30763
33240,53685,30740
33216,53683,30744
33228,53671,30608
33236,53634,30693
33156,53615,30804
33120,53621,30720
33184,53635,30751
33202,53565,30623
33173,53693,30519
33109,53713,30822
33064,53692,30745
33076,53703,30594
33100,53723,30654
33092,53622,30791
33100,53665,30744
33140,53668,30701
33157,53613,30615
33188,53693,30583
33252,53743,30556
33248,53767,30828
33176,53695,30748
33062,53764,30772
32900,53767,30580
32800,53736,30849
32772,53712,30759
32734,53720,30772
32748,53720,30566
32800,53749,30786
32912,53767,30782
33004,53815,30596
33088,53812,30854
33064,53831,30812
33009,53812,30807
32968,53789,30666
32880,53767,30628
32833,53767,30828
32804,53796,30908
32817,53804,30816
32668,53788,30855
32241,53868,30687
31552,53871,30825
30728,53879,30845
29610,53824,30844
28632,53828,30860
27776,53832,30845
27028,53831,30727
26436,53838,30861
26100,53767,30876
26128,53895,30860
26556,53929,30827
27576,53951,30802
29328,53945,30680
32212,53903,30924
35688,53920,30842
39468,53900,30717
43316,53895,30614
46568,53892,30857
48812,53932,30827
50012,53980,30821
50096,54005,30832
48580,54021,30792
46537,54022,30648
45076,53988,30829
43804,53996,30849
42424,53974,30780
41620,53933,30791
40992,53958,30804
40264,53999,30716
39336,54039,30648
38344,54021,30628
37424,54069,30582
36528,54019,30799
35584,54048,30733
34708,54051,30777
33844,54041,30768
32980,54045,30586
32332,54065,30785
31900,54065,30784
31521,54116,30793
31218,54143,30755
31012,54160,30612
30820,54151,30896
30692,54141,30860
30540,54135,30765
30496,54103,30785
30476,54119,30924
30416,54124,30895
30448,54141,30944
30520,54184,30813
30572,54216,30964
30633,54180,31028
30706,54212,30976
30692,54141,30991
30628,54188,30821
30608,54109,31126
30616,54183,31066
30658,54199,30988
30778,54209,31155
30800,54208,31093
30832,54279,31029
30868,54226,31148
30948,54288,31173
30884,54247,31160
30852,54276,31068
30900,54244,31259
30852,54257,31158
30860,54260,31189
30937,54279,31188
31030,54276,31008
31116,54351,31231
31156,54364,31180
31140,54383,31072
31088,54367,31255
31060,54268,31159
31016,54316,31124
31005,54261,31104
31025,54320,31129
30996,54364,31140
30952,54415,30985
30940,54447,31176
30936,54460,31100
30865,54453,30989
30848,54375,31109
30820,54383,31068
30744,54399,30916
30688,54421,31087
30640,54416,31060
30628,54365,30935
30644,54477,31060
30664,54461,31028
30584,54519,31036
30488,54471,30857
30336,54531,31120
30248,54413,31042
30156,54493,31069
30118,54484,31086
30136,54503,31012
30208,54535,31030
30280,54577,31036
30332,54597,31217
30236,54623,31140
30168,54605,31144
30028,54591,31165
30004,54594,31204
29904,54561,31212
29828,54581,31090
29797,54588,31353
29736,54581,31270
29684,54655,31319
29692,54644,31192
29660,54615,31271
29594,54686,31349
29556,54660,31406
29520,54663,31264
29420,54663,31493
29340,54652,31449
29308,54672,31381
29224,54684,31455
29240,54737,31555
29216,54754,31521
29184,54757,31568
29088,54759,31556
28988,54685,31521
28884,54735,31462
28800,54629,31668
28820,54740,31719
28821,54736,31629
28808,54687,31655
28768,54775,31661
28845,54829,31622
28924,54835,31652
28948,54837,31548
28986,54836,31593
29056,54811,31703
29156,54790,31801
29174,54791,31751
29220,54812,31773
29344,54829,31735
29464,54852,31580
29604,54895,31725
29788,54903,31804
29993,54840,31893
30148,54919,31893
30348,54877,31852
30616,54855,31791
30816,54863,31799
31094,54868,31813
31364,54879,31797
31686,54939,31685
31962,54956,31602
32184,54908,31716
32352,54967,31870
32534,54957,31847
32728,54919,31806
32852,54919,31747
32933,54916,31759
33060,54893,31725
33241,54943,31628
33512,54982,31540
33584,55023,31670
33580,55023,31767
33696,55013,31652
33684,55020,31668
33612,54993,31570
33644,54968,31444
33876,54907,31618
34036,54959,31672
33984,54990,31572
33952,55032,31568
33980,55068,31576
34054,55023,31400
34120,55039,31568
34104,55071,31583
34108,54991,31525
34100,54996,31495
34104,54945,31376
34228,55020,31495
34236,55036,31443
34236,55093,31341
34276,55069,31217
34220,55125,31151
34184,55117,31433
34196,55067,31381
34168,55073,31308
34085,55061,31311
33976,55069,31164
33964,55077,31183
34016,55020,31274
34108,55135,31207
34068,55164,31197
34076,55175,31013
34064,55151,30967
34052,55108,31247
34024,55133,31133
33941,55104,31141
33968,55029,31145
34000,55125,31087
34005,55133,30897
33956,55175,31061
34008,55161,31170
34044,55201,31060
34068,55193,31039
34145,55207,30823
34165,55159,31092
34096,55087,31009
34032,55148,31007
33976,55147,31008
33956,55092,30893
33968,55215,30776
33992,55225,31061
33932,55175,30958
33848,55239,30913
33796,55225,30802
33774,55204,31037
33673,55175,30920
33648,55125,30916
33728,55189,30917
33788,55189,30785
33824,55228,30817
33828,55253,30917
33788,55175,30841
33788,55264,30852
33797,55253,30838
33788,55164,30697
33728,55191,30920
33637,55172,30825
33560,55204,30820
33652,55140,30620
33752,55263,30780
33848,55281,30814
33844,55213,30738
33780,55255,30776
33648,55271,30740
33524,55247,30545
33496,55205,30808
33544,55207,30690
33644,55212,30695
33848,55207,30590
33840,55263,30450
33836,55303,30708
33812,55277,30661
33816,55292,30437
33848,55229,30703
33872,55252,30597
33764,55215,30582
33676,55220,30569
33648,55228,30412
33608,55172,30381
33636,55271,30330
33740,55296,30592
33790,55292,30542
