ECG,EDA,RR
32360,24735,24791
32372,24740,24857
32384,24745,24836
32312,24725,24836
32368,24697,24819
32420,24684,24695
32452,24673,24772
32608,24675,24744
32648,24698,24762
32645,24711,24626
32668,24733,24725
32704,24743,24717
32728,24735,24711
32712,24721,24636
32700,24702,24583
32670,24679,24700
32580,24670,24660
32640,24676,24656
32701,24692,24672
32744,24711,24543
32700,24727,24633
32568,24741,24623
32460,24731,24644
32408,24722,24588
32376,24697,24536
32348,24677,24583
32388,24668,24599
32424,24672,24581
32400,24680,24596
32556,24711,24461
32528,24729,24573
32572,24743,24572
32644,24731,24513
32644,24724,24444
32648,24697,24538
32692,24672,24566
32736,24669,24542
32712,24665,24553
32692,24688,24564
32608,24711,24500
32608,24727,24436
32588,24741,24560
32608,24732,24530
32548,24711,24557
32613,24697,24442
32680,24679,24492
32704,24665,24540
32604,24676,24553
32501,24685,24464
32464,24709,24531
32536,24725,24511
32608,24739,24437
32604,24727,24526
32605,24713,24529
32596,24687,24556
32624,24671,24462
32623,24663,24516
32592,24669,24560
32624,24684,24528
32632,24708,24528
32710,24721,24557
32736,24725,24475
32694,24729,24474
32648,24719,24561
32604,24690,24525
32588,24667,24528
32492,24658,24455
32408,24665,24576
32432,24683,24565
32461,24697,24540
32425,24722,24463
32469,24727,24592
32540,24721,24572
32588,24705,24544
32569,24679,24540
32572,24667,24544
32505,24660,24588
32453,24654,24580
32384,24679,24601
32336,24696,24529
32316,24717,24529
32182,24725,24591
32153,24722,24613
32148,24701,24504
32100,24679,24549
32228,24665,24616
32324,24654,24583
32332,24657,24509
32292,24679,24525
32224,24697,24512
32216,24713,24543
32228,24727,24605
32212,24718,24628
32196,24698,24567
32128,24679,24619
32128,24662,24605
32117,24657,24631
32160,24654,24583
32132,24677,24534
32214,24693,24654
32180,24711,24625
32196,24719,24657
32164,24711,24615
32252,24701,24552
32228,24677,24596
32272,24660,24662
32366,24649,24660
32304,24651,24549
32321,24669,24677
32348,24686,24677
32397,24706,24560
32433,24715,24680
32397,24720,24665
32322,24693,24693
32228,24673,24644
32192,24656,24601
32380,24647,24700
32436,24652,24666
32508,24665,24688
32480,24687,24628
32488,24702,24591
32453,24713,24709
32428,24711,24689
32346,24689,24668
32293,24668,24677
32304,24658,24709
32244,24642,24640
32276,24653,24596
32228,24668,24639
32168,24684,24686
32288,24703,24740
32320,24711,24697
32248,24707,24720
32212,24686,24746
32160,24673,24644
32156,24650,24645
32278,24636,24740
32360,24641,24778
32428,24661,24756
32436,24679,24769
32404,24697,24806
32449,24701,24773
32392,24697,24701
32480,24684,24708
32480,24665,24774
32572,24641,24828
32540,24637,24805
32520,24637,24840
32544,24657,24784
32564,24675,24844
32628,24697,24834
32620,24703,24814
32636,24697,24745
32632,24679,24793
32733,24653,24842
32712,24639,24868
32708,24628,24794
32728,24634,24775
32728,24647,24839
32714,24666,24806
32740,24684,24789
32801,24692,24853
32776,24684,24839
32669,24669,24805
32640,24645,24724
32652,24630,24772
32720,24620,24853
32658,24630,24812
32708,24643,24812
32744,24660,24788
32852,24681,24702
32976,24693,24824
33168,24681,24789
33500,24668,24824
33848,24642,24709
34132,24636,24780
34332,24613,24761
34408,24615,24814
34544,24642,24797
34609,24663,24701
34604,24677,24799
34536,24688,24769
34416,24682,24735
34420,24670,24672
34384,24654,24785
34436,24632,24748
34238,24630,24764
33807,24634,24660
33152,24659,24695
32293,24673,24741
31598,24695,24744
31212,24703,24630
31005,24699,24714
30844,24672,24735
31080,24649,24616
31568,24628,24641
32064,24624,24693
32484,24623,24704
32772,24635,24596
32960,24665,24704
33040,24676,24671
33148,24683,24659
33180,24676,24675
33104,24655,24601
32972,24636,24549
32805,24612,24665
32864,24607,24645
32924,24614,24534
32936,24625,24606
32933,24641,24580
32909,24656,24506
32933,24669,24605
32858,24654,24582
32916,24647,24516
32900,24618,24551
32836,24607,24540
32812,24591,24517
32773,24596,24444
32788,24617,24514
32732,24637,24527
32698,24649,24401
32820,24655,24482
32864,24652,24479
32936,24634,24374
32993,24608,24474
33041,24593,24449
32980,24577,24402
32929,24588,24410
33021,24601,24366
33116,24628,24412
33136,24636,24406
33100,24644,24413
33148,24641,24395
33088,24617,24276
32984,24599,24361
32952,24578,24362
32940,24574,24245
33099,24564,24356
33104,24593,24335
32980,24607,24226
32916,24629,24311
32893,24632,24242
32849,24629,24310
32892,24613,24270
32825,24588,24305
32886,24575,24316
32840,24556,24225
32848,24561,24284
32892,24574,24309
32868,24601,24196
32917,24616,24305
32904,24624,24276
32876,24613,24300
32852,24599,24212
32960,24572,24256
32940,24559,24276
32832,24554,24244
32836,24551,24288
32700,24573,24280
32682,24592,24276
32726,24614,24214
32868,24615,24288
32996,24605,24316
32964,24590,24196
32860,24567,24308
32865,24549,24308
32972,24536,24190
33004,24540,24323
33016,24561,24295
33064,24583,24210
33148,24598,24310
33116,24605,24317
33128,24597,24312
33148,24573,24305
33190,24556,24189
33174,24543,24316
33248,24535,24303
33168,24535,24202
33100,24556,24295
33160,24576,24325
33184,24591,24212
33240,24596,24321
33121,24588,24319
33096,24567,24215
33120,24545,24319
33084,24532,24284
33119,24519,24223
33120,24520,24319
33136,24543,24341
33080,24564,24249
33005,24574,24313
33072,24585,24289
32968,24577,24281
32952,24562,24314
32816,24537,24351
32852,24517,24228
32868,24515,24326
32780,24516,24330
32740,24532,24225
32688,24549,24334
32568,24570,24332
32544,24575,24248
32536,24569,24321
32568,24551,24295
32548,24528,24272
32428,24513,24188
32264,24497,24315
32272,24511,24298
32337,24525,24194
32380,24551,24268
32304,24564,24181
32224,24569,24231
32168,24556,24132
32096,24540,24236
32024,24516,24212
31988,24498,24092
31972,24489,24165
31968,24496,24077
31936,24511,24145
32000,24535,24167
32012,24551,24040
31992,24550,24124
32096,24548,24028
32041,24524,24100
32036,24500,24013
32012,24484,24078
32004,24481,24092
31992,24478,23999
31972,24498,24058
31885,24516,24081
31860,24535,24039
31832,24543,24041
31796,24534,24032
31829,24513,24061
31840,24487,24010
31796,24472,24045
31848,24463,24033
31924,24469,23919
32008,24486,24013
31956,24509,23897
31892,24520,23975
31861,24529,23895
31838,24521,23964
31888,24497,23934
31892,24477,23906
31878,24460,23941
31909,24452,23865
31992,24454,23909
31972,24468,23884
31912,24497,23831
31997,24508,23883
31976,24513,23885
32036,24503,23874
32100,24487,23858
32256,24465,23745
32293,24446,23815
32422,24439,23780
32576,24441,23761
32584,24463,23781
32548,24484,23804
32544,24495,23687
32468,24505,23764
32432,24488,23726
32444,24470,23709
32420,24453,23755
32520,24428,23760
32544,24425,23686
32452,24424,23747
32453,24445,23705
32382,24466,23693
32324,24484,23719
32304,24493,23681
32312,24479,23700
32300,24459,23701
32236,24438,23722
32197,24422,23613
32320,24413,23702
32268,24420,23717
32380,24432,23605
32428,24454,23695
32492,24470,23649
32500,24476,23656
32424,24460,23695
32468,24446,23685
32440,24430,23705
32380,24402,23702
32376,24398,23692
32477,24405,23738
32544,24421,23729
32584,24437,23728
32528,24457,23725
32608,24460,23633
32592,24452,23735
32640,24439,23743
32592,24410,23632
32574,24391,23706
32384,24389,23628
32332,24393,23698
32364,24407,23648
32474,24429,23721
32510,24441,23695
32492,24441,23639
32500,24435,23628
32396,24418,23653
32453,24397,23611
32460,24375,23629
32456,24365,23622
32468,24375,23637
32432,24392,23547
32420,24412,23594
32349,24426,23543
32364,24430,23551
32320,24421,23564
32364,24407,23472
32409,24384,23548
32504,24362,23537
32626,24352,23487
32804,24357,23540
32832,24375,23506
32809,24393,23509
32756,24421,23541
32804,24418,23461
32652,24407,23559
32760,24388,23558
32804,24365,23490
32748,24348,23543
32692,24343,23539
32716,24341,23572
32754,24364,23554
32789,24381,23584
32740,24398,23491
32732,24396,23567
32620,24385,23588
32640,24374,23526
32720,24353,23586
32788,24333,23525
32752,24335,23597
32760,24338,23572
32781,24352,23543
32789,24371,23609
32796,24386,23532
32752,24393,23592
32806,24373,23607
32889,24364,23508
32900,24337,23574
32944,24323,23593
32944,24313,23574
32908,24323,23613
32864,24334,23593
32884,24354,23620
32804,24370,23519
32872,24379,23601
32824,24367,23623
32716,24348,23632
32638,24327,23564
32620,24300,23531
32612,24300,23634
32742,24308,23622
32796,24325,23527
32805,24340,23615
32842,24354,23589
32766,24356,23618
32666,24351,23615
32700,24327,23593
32692,24303,23601
32640,24292,23606
32528,24286,23634
32445,24290,23553
32408,24313,23613
32349,24320,23636
32488,24344,23536
32432,24341,23648
32588,24337,23609
32612,24319,23598
32716,24292,23636
32660,24274,23638
32692,24273,23632
32732,24279,23652
32808,24294,23686
32884,24315,23609
32892,24333,23679
32916,24332,23652
32960,24327,23729
32960,24300,23732
32992,24276,23664
33040,24263,23716
33084,24252,23701
33149,24265,23743
33312,24281,23750
33452,24300,23713
33680,24314,23784
33974,24319,23788
34260,24305,23716
34624,24287,23777
34956,24263,23701
34920,24244,23769
34896,24245,23740
34944,24253,23777
34941,24261,23748
34884,24289,23740
34777,24303,23791
34616,24317,23801
34456,24305,23727
34452,24285,23797
34484,24267,23803
33956,24255,23789
33308,24248,23799
32484,24262,23687
31760,24286,23788
31360,24300,23782
31000,24313,23724
30797,24312,23756
30960,24299,23741
31356,24284,23700
31840,24252,23760
32284,24239,23690
32592,24229,23783
32824,24232,23742
32966,24256,23776
33012,24271,23770
33036,24285,23716
32936,24292,23769
32824,24284,23687
32744,24262,23788
32878,24239,23757
32884,24229,23723
32776,24214,23681
32724,24215,23791
32704,24242,23783
32632,24257,23767
32604,24265,23704
32708,24279,23816
32648,24261,23804
32712,24244,23782
32864,24215,23744
32885,24205,23817
32864,24191,23825
32844,24201,23748
32784,24217,23831
32737,24235,23828
32748,24255,23745
32820,24250,23835
32784,24238,23844
32780,24225,23748
32872,24207,23835
32992,24183,23872
33121,24175,23866
32960,24187,23879
33056,24199,23872
33188,24223,23902
33128,24231,23815
33072,24237,23898
32932,24224,23828
33048,24213,23929
33216,24189,23904
33292,24166,23997
33316,24163,24015
33316,24169,23931
33308,24182,24041
33228,24212,24012
33108,24213,24138
33080,24221,24149
33156,24214,24088
33172,24189,24198
33272,24171,24130
33368,24148,24284
33264,24144,24284
33296,24154,24360
33320,24172,24391
33305,24189,24328
33284,24202,24437
33300,24205,24392
33412,24200,24524
33424,24169,24455
33420,24157,24573
33429,24135,24639
33412,24128,24573
33230,24143,24664
33324,24154,24611
33352,24183,24740
33352,24195,24649
33340,24193,24781
33496,24183,24721
33544,24167,24866
33668,24137,24892
33561,24126,24904
33508,24119,24943
33568,24127,24836
33688,24140,24951
33712,24162,24921
33740,24176,25004
33724,24173,25013
33696,24165,24960
33652,24148,25031
33600,24126,24934
33528,24101,25041
33473,24104,24989
33492,24113,25052
33504,24135,24958
33556,24153,25073
33600,24166,24968
33564,24164,25084
33526,24154,25073
33440,24133,25012
33373,24113,25092
33312,24092,25082
33308,24087,25036
33424,24100,25093
33456,24115,25149
33368,24136,25044
33368,24149,25111
33348,24158,25167
33248,24146,25025
33240,24122,25183
33248,24101,25193
33184,24084,25109
33058,24079,25161
32920,24090,25100
32780,24109,25188
32720,24126,25227
32831,24134,25109
32868,24143,25217
32802,24130,25196
32768,24104,25277
32780,24086,25272
32644,24071,25142
32628,24071,25245
32580,24070,25303
32588,24092,25174
32624,24109,25272
32637,24134,25201
32556,24122,25271
32444,24119,25319
32325,24100,25263
32384,24071,25278
32440,24060,25313
32385,24048,25215
32392,24058,25308
32352,24071,25301
32360,24101,25163
32416,24108,25269
32428,24119,25298
32492,24100,25147
32468,24079,25285
32457,24053,25264
32401,24044,25114
32392,24043,25229
32366,24040,25241
32357,24066,25087
32360,24085,25188
32392,24095,25133
32404,24096,25191
32468,24084,25169
32468,24069,25165
32437,24040,25190
32480,24024,25086
32493,24023,25189
32516,24028,25144
32468,24049,25068
32420,24068,25191
32404,24081,25172
32352,24084,25086
32469,24071,25160
32480,24053,25057
32400,24028,25185
32272,24015,25188
32160,24011,25089
32232,24023,25149
32333,24028,25133
32364,24055,25122
32349,24068,25185
32396,24070,25060
32444,24057,25175
32376,24036,25237
32336,24011,25079
32348,24002,25212
32316,23999,25270
32280,24008,25135
32349,24022,25236
32340,24045,25294
32311,24053,25185
32410,24053,25239
32464,24047,25269
32468,24022,25332
32484,24003,25252
32520,23988,25292
32504,23985,25288
32549,23985,25286
32556,24009,25340
32508,24031,25230
32578,24037,25356
32664,24046,25341
32660,24030,25215
32616,24010,25310
32468,23992,25305
32502,23972,25223
32672,23969,25292
32672,23978,25284
32676,23989,25172
32732,24012,25221
32812,24025,25218
32796,24030,25201
32744,24014,25108
32736,24006,25225
32852,23977,25214
32897,23964,25060
32856,23959,25208
33012,23959,25154
32944,23987,25083
32976,24007,25169
32960,24017,25156
32933,24018,25029
32856,24000,25134
32872,23983,25117
32840,23974,24999
32838,23943,25095
32752,23943,24956
32796,23953,25080
32832,23980,25091
32789,23991,25007
32762,23999,25065
32756,24007,25066
32752,23989,24952
32760,23973,25036
32856,23956,24931
32846,23935,24990
32780,23932,24933
32784,23943,24977
32689,23956,24961
32532,23984,24889
32552,23999,24957
32600,23994,24930
32692,23981,24960
32796,23957,24964
32756,23943,24829
32796,23925,24932
32818,23925,24882
32796,23929,24962
32774,23951,24904
32729,23980,24969
32688,23983,24951
32686,23991,24865
32744,23975,24941
32676,23951,24832
32644,23929,24950
32632,23916,24844
32668,23911,24920
32796,23924,24872
32808,23942,24933
32860,23959,24968
32810,23968,24827
32696,23968,24945
32628,23964,24949
32654,23938,24830
32609,23922,24924
32745,23903,24908
32816,23901,24948
32774,23906,24960
32720,23925,24833
32628,23943,24993
32518,23964,24965
32564,23962,24884
32608,23954,24968
32640,23926,24955
32792,23909,24991
32762,23890,24932
32804,23889,24935
32768,23895,24974
32704,23917,25029
32636,23943,24893
32632,23956,25021
32768,23951,25049
32762,23939,24908
32772,23912,25039
32792,23892,25065
32849,23882,25020
32832,23874,25048
32748,23891,25095
32800,23905,24972
32712,23924,25129
32679,23937,25159
32668,23937,25012
32588,23934,25140
32528,23911,25188
32520,23885,25060
32588,23873,25228
32644,23872,25223
32668,23874,25103
32676,23899,25231
32692,23909,25284
32728,23927,25143
32813,23925,25311
32892,23919,25317
32936,23896,25200
32868,23876,25285
32745,23858,25348
32652,23852,25220
32640,23872,25327
32756,23886,25272
32785,23906,25336
32804,23917,25314
32810,23916,25404
32896,23905,25351
32876,23889,25390
32948,23862,25372
33044,23853,25433
33280,23842,25287
33572,23860,25449
33812,23872,25444
34105,23897,25332
34348,23903,25409
34368,23911,25409
34320,23899,25444
34304,23876,25455
34292,23862,25344
34076,23851,25412
34016,23852,25447
33980,23858,25496
33912,23882,25356
33828,23908,25482
33380,23921,25520
32770,23927,25383
32116,23908,25532
31412,23898,25540
30840,23874,25432
30652,23857,25557
30488,23857,25567
30532,23863,25433
30973,23876,25543
31460,23895,25614
32000,23904,25509
32370,23901,25543
32664,23889,25606
32761,23869,25670
32720,23845,25526
32836,23837,25677
32884,23828,25671
32859,23845,25629
32864,23858,25750
32832,23877,25737
32781,23887,25648
32809,23885,25777
32840,23876,25762
32856,23855,25739
32876,23841,25784
32877,23820,25799
32825,23815,25862
32864,23837,25764
32904,23845,25862
32912,23865,25863
32937,23875,25786
32908,23876,25876
32704,23866,25850
32661,23844,25855
32580,23824,25931
32644,23808,25829
32652,23807,25938
32660,23814,25969
32712,23836,25808
32844,23852,25946
32896,23867,25992
32909,23863,25845
32900,23856,25949
32912,23836,26015
33064,23805,25863
33053,23794,26012
33134,23788,25981
33124,23800,26058
33058,23825,26084
32990,23843,25931
33016,23855,26057
33024,23856,26021
33048,23844,26141
33076,23822,26151
33252,23800,26119
33412,23785,26173
33366,23788,26113
33228,23799,26200
33088,23810,26076
33156,23838,26200
33096,23849,26270
33188,23849,26284
33232,23836,26305
33153,23809,26269
32992,23793,26321
32974,23778,26252
32968,23772,26309
33048,23782,26257
33120,23805,26360
33221,23821,26359
33224,23841,26204
33212,23840,26308
33260,23828,26239
33184,23807,26334
33168,23785,26356
33056,23768,26210
33168,23773,26308
33056,23781,26296
33126,23797,26274
33040,23815,26333
32965,23834,26179
32948,23828,26264
32956,23823,26258
32996,23797,26185
32952,23779,26244
33080,23764,26218
33264,23760,26223
33226,23775,26210
33056,23796,26183
33036,23815,26154
33022,23823,26198
33112,23823,26136
33089,23812,26042
33120,23784,26145
33168,23766,26167
33168,23757,25991
33212,23751,26112
33220,23771,26020
33200,23789,26069
33204,23804,26085
33273,23812,25946
33280,23825,25984
33302,23813,26020
33312,23781,25852
33352,23760,25926
33356,23750,25892
33376,23746,25853
33336,23761,25894
33354,23781,25745
33437,23799,25846
33420,23807,25700
33324,23814,25789
33216,23788,25671
33252,23775,25765
33128,23753,25618
32972,23738,25703
32980,23740,25628
32912,23747,25708
32868,23769,25686
32768,23798,25656
32612,23803,25574
32484,23803,25541
32428,23785,25529
32372,23765,25485
32416,23749,25471
32337,23741,25382
32157,23733,25429
32132,23755,25358
32236,23764,25401
32273,23783,25370
32288,23801,25336
32314,23789,25294
32296,23780,25207
32173,23762,25228
32158,23738,25063
32124,23733,25133
32200,23728,25024
32148,23740,25087
32296,23755,24980
32280,23777,25028
32257,23791,24924
32340,23789,24952
32436,23775,24879
32404,23759,24894
32280,23742,24779
32444,23719,24856
32436,23717,24716
32584,23735,24777
32472,23759,24716
32404,23776,24704
32264,23780,24710
32224,23781,24548
32236,23772,24628
32244,23746,24496
32240,23730,24568
32244,23718,24513
32184,23713,24556
32178,23727,24538
32149,23746,24439
32176,23775,24460
32156,23783,24412
32176,23774,24437
32212,23767,24425
32265,23742,24300
32272,23718,24365
32316,23713,24244
32316,23708,24339
32344,23724,24332
32376,23740,24308
32396,23756,24293
32428,23767,24157
32432,23769,24249
32548,23757,24243
32540,23729,24167
32481,23715,24188
32549,23705,24154
32580,23703,24206
32492,23716,24185
32484,23733,24158
32437,23754,24156
32412,23765,24152
32460,23773,24128
32436,23749,24045
32392,23735,24079
32360,23716,23988
32284,23697,24085
32366,23696,24012
32384,23711,24008
32512,23733,24026
32524,23756,23999
32540,23765,24028
32600,23756,24028
32665,23751,23996
32692,23730,24020
32724,23706,24000
32636,23700,23934
32689,23700,24012
32704,23707,23997
32676,23726,23916
32648,23747,23959
32652,23757,23942
32780,23751,23881
32772,23744,23952
32824,23721,23895
32836,23700,23985
32852,23687,23884
32860,23686,23944
32728,23703,23913
32820,23711,23980
32808,23738,23961
32804,23749,23849
32744,23753,23954
32740,23739,23933
32788,23716,23970
32760,23703,23966
32740,23687,23871
32688,23685,23968
32688,23695,23972
32736,23714,23959
32740,23732,23924
32688,23751,23942
32641,23747,23848
32560,23732,23935
32484,23708,23851
32452,23692,23942
32412,23683,23865
32425,23681,23962
32544,23695,23911
32572,23721,23936
32524,23732,23937
32440,23744,23848
32280,23749,23921
32268,23727,23922
32324,23711,23801
32400,23684,23932
32504,23673,23909
32656,23681,23813
32660,23687,23826
32596,23700,23892
32604,23730,23896
32608,23743,23785
32636,23740,23856
32608,23723,23777
32640,23705,23837
32688,23683,23741
32644,23677,23820
32625,23669,23742
32592,23684,23844
32556,23708,23821
32576,23725,23705
32524,23736,23780
32464,23735,23754
32416,23719,23721
32416,23701,23748
32376,23682,23649
32344,23665,23756
32309,23666,23739
32289,23679,23611
32368,23706,23690
32417,23722,23660
32500,23727,23669
32548,23730,23674
32529,23716,23559
32528,23700,23626
32525,23673,23578
32484,23662,23634
32452,23665,23613
32452,23670,23494
32424,23698,23596
32492,23716,23575
32517,23726,23497
32485,23727,23442
32480,23718,23505
32474,23690,23471
32432,23673,23525
32344,23655,23506
32332,23657,23392
32369,23678,23498
32400,23690,23492
32392,23717,23404
32344,23727,23471
32324,23716,23378
32340,23710,23484
32368,23693,23493
32413,23664,23500
32476,23661,23505
32480,23655,23401
32484,23665,23495
32476,23695,23465
32504,23709,23528
32513,23721,23446
32496,23724,23553
32524,23702,23513
32532,23687,23573
32500,23671,23512
32517,23648,23623
32536,23652,23628
32580,23671,23680
32608,23684,23708
32677,23700,23612
32717,23716,23725
32768,23721,23773
32840,23703,23688
32993,23677,23830
33260,23662,23867
33516,23652,23871
33756,23647,23919
34036,23662,23908
34244,23681,23990
34312,23706,23943
34360,23717,24070
34444,23719,24100
34469,23707,24146
34320,23692,24072
34116,23663,24212
33960,23661,24148
33888,23662,24285
33744,23681,24380
33464,23701,24365
32892,23719,24442
32252,23741,24428
31562,23737,24556
31020,23726,24517
30730,23697,24696
30612,23682,24784
30549,23677,24721
30792,23666,24885
31280,23679,24829
31796,23699,25006
32224,23714,25057
32504,23723,25085
32656,23722,25236
32716,23709,25327
32760,23686,25366
32804,23663,25351
32780,23663,25525
32769,23665,25655
32744,23673,25642
32792,23687,25761
32772,23705,25902
32777,23713,25848
32824,23721,26087
32880,23703,26167
32856,23680,26109
32856,23656,26317
32850,23653,26380
32868,23655,26503
32876,23665,26617
32900,23679,26623
32876,23700,26850
32772,23714,26932
32680,23707,27015
32664,23692,27116
32716,23677,27061
32712,23655,27332
32734,23645,27351
32732,23645,27536
32764,23660,27624
32796,23676,27738
32844,23697,27825
32880,23709,27932
32908,23702,27952
32952,23693,28093
32976,23666,28129
32936,23649,28329
32884,23643,28331
32804,23637,28508
32716,23653,28544
32664,23669,28748
32656,23691,28844
32752,23703,28801
32873,23703,28972
32972,23684,29031
33006,23672,29293
32992,23644,29388
33004,23634,29340
32961,23632,29559
32933,23653,29576
32964,23665,29829
33033,23692,29833
33072,23700,30108
33172,23700,30229
33280,23684,30253
33300,23656,30478
33340,23642,30583
33304,23629,30637
33256,23629,30864
33220,23647,31000
33164,23668,31129
33116,23692,31120
33108,23692,31317
33132,23695,31533
33156,23679,31515
33202,23668,31716
33212,23640,31929
33216,23639,31949
33189,23631,32153
33196,23644,32205
33241,23667,32399
33300,23685,32409
33276,23693,32572
33228,23695,32640
33157,23679,32916
33124,23655,32844
33136,23630,33100
33180,23633,33039
33232,23628,33348
33244,23645,33428
33241,23670,33407
33236,23687,33685
33192,23692,33661
33176,23695,33854
33200,23677,33816
33254,23653,34085
33372,23636,34044
33377,23621,34248
33332,23620,34233
33290,23644,34478
33232,23666,34567
33166,23684,34540
33153,23687,34695
33237,23693,34893
33293,23675,34950
33216,23654,35076
33184,23636,35042
33156,23628,35412
33132,23631,35447
33096,23639,35552
33054,23657,35637
33056,23676,35647
33020,23688,35820
32980,23687,35836
32960,23672,36159
32970,23653,36069
32948,23626,36277
32848,23618,36149
32720,23625,36532
32636,23644,36551
32584,23653,36559
32476,23681,36836
32380,23684,36810
32324,23687,36676
32272,23662,37013
32164,23652,37036
32090,23631,37189
32076,23616,37213
32058,23619,37237
32056,23636,37412
32112,23664,37519
32188,23679,37623
32289,23684,37620
32268,23685,37494
32228,23662,37831
32240,23644,37784
32217,23627,37949
32153,23617,37928
32084,23614,38189
32068,23631,38162
32067,23655,38079
32053,23672,38401
32056,23680,38385
32032,23681,38309
31976,23671,38596
31992,23644,38585
32058,23621,38535
32140,23618,38854
32160,23616,38823
32193,23630,38902
32244,23652,38943
32244,23667,38760
32240,23681,39108
32240,23677,39290
32256,23663,39132
32268,23644,39303
32221,23628,39199
32164,23611,39478
32140,23612,39406
32112,23629,39591
32128,23647,39585
32164,23673,39596
32216,23674,39509
32212,23674,39902
32209,23652,39811
32208,23645,40000
32246,23620,40068
32246,23621,40032
32232,23617,40180
32220,23624,40180
32290,23646,40399
32376,23657,40349
32393,23676,40248
32397,23666,40533
32408,23657,40573
32376,23641,40616
32436,23616,40597
32472,23606,40756
32496,23609,40760
32452,23627,40884
32392,23651,40900
32352,23671,40995
32328,23673,40967
32352,23670,41081
32348,23654,41144
32359,23628,41308
32352,23614,41215
32388,23601,40920
32428,23613,41401
32404,23621,41351
32372,23649,41541
32372,23656,41451
32476,23676,41441
32528,23674,41550
32548,23652,41548
32468,23628,41432
32464,23612,41735
32456,23610,41670
32412,23600,41583
32360,23621,41772
32332,23637,41753
32377,23660,41668
32404,23670,41920
32412,23669,41820
32440,23648,41735
32432,23636,41934
32394,23616,41916
32436,23599,41620
32488,23606,41897
32552,23617,41821
32580,23637,41613
32613,23661,42101
32608,23665,41977
32544,23669,41882
32520,23657,42007
32556,23623,42019
32596,23616,42172
32588,23603,42071
32600,23604,41991
32608,23614,42108
32609,23638,42068
32576,23660,42100
32576,23671,42085
32620,23665,42109
32676,23652,42247
32713,23632,42172
32772,23612,42112
32849,23597,42125
32884,23605,42023
32848,23614,42103
32776,23639,41888
32744,23655,42236
32725,23679,42284
32701,23669,42324
32692,23644,42293
32736,23633,42216
32757,23609,42268
32825,23594,42055
32828,23607,42404
32856,23621,42076
32935,23637,42524
32960,23658,42464
32929,23666,42492
32892,23657,42364
32884,23650,42590
32804,23631,42478
32768,23615,42332
32685,23599,42676
32648,23604,42612
32681,23613,42520
32716,23634,42887
32708,23657,42862
32669,23665,42685
32672,23666,42985
32712,23650,42900
32768,23631,43116
32836,23610,43004
32836,23597,43095
32816,23603,43044
32788,23620,43351
32756,23651,43255
32760,23657,43460
32704,23669,43397
32640,23669,43516
32580,23649,43684
32500,23625,43615
32504,23608,43654
32516,23601,43577
32576,23607,43928
32632,23621,44012
32684,23642,43905
32684,23649,44121
32712,23663,44244
32716,23663,44273
32748,23647,44257
32764,23628,44420
32696,23600,44325
32686,23596,44529
32660,23597,44572
32673,23616,44695
32668,23640,44472
32676,23655,44820
32724,23662,44919
32748,23663,44992
32712,23648,44864
32728,23622,45090
32780,23603,45168
32848,23594,45223
32864,23598,45154
32870,23604,45343
32860,23633,45334
32801,23649,45477
32816,23668,45262
32954,23654,45533
33168,23650,45553
33444,23623,45693
33724,23606,45446
33952,23588,45737
34208,23594,45765
34408,23613,45904
34588,23638,45788
34856,23649,45988
35112,23666,46017
35344,23658,46076
35600,23648,45957
35848,23626,46156
36120,23623,46160
36540,23604,46228
36808,23622,46017
36604,23636,46199
36064,23657,46308
35108,23683,46356
33992,23695,46076
33144,23693,46389
32308,23673,46343
31560,23646,46469
31045,23630,46159
31084,23620,46471
31440,23623,46511
31928,23624,46383
32324,23663,46525
32572,23671,46460
32684,23685,46560
32724,23676,46310
32708,23655,46492
32684,23638,46552
32624,23621,46553
32540,23610,46332
32529,23609,46561
32497,23637,46585
32441,23650,46249
32448,23664,46569
32398,23677,46542
32332,23670,46556
32392,23652,46505
32532,23629,46342
32612,23614,46528
32620,23604,46532
32636,23612,46348
32680,23623,46444
32692,23644,46401
32696,23653,46493
32732,23668,46404
32761,23660,46380
32737,23651,46456
32728,23624,46215
32704,23607,46416
32740,23600,46407
32756,23613,46190
32800,23617,46357
32805,23639,46269
32824,23657,46359
32820,23665,46324
32844,23658,46167
32888,23647,46309
32869,23620,46309
32872,23602,46237
32900,23593,46188
32924,23601,46293
32913,23620,46149
32928,23639,46225
32984,23655,45933
33004,23659,46034
33020,23658,46205
32996,23644,46212
32992,23621,46247
33008,23607,45984
33005,23589,46201
32949,23599,46192
32920,23617,46048
32864,23637,46183
32824,23655,46105
32849,23658,45868
32908,23660,46049
32936,23643,46070
32968,23618,45959
32952,23607,46076
32996,23589,46020
33008,23607,46085
33064,23613,45869
33108,23644,46044
33140,23649,45959
33172,23663,45725
33124,23657,45956
33148,23648,45949
33101,23623,45863
33136,23598,45887
33180,23593,45850
33140,23599,45841
33168,23619,45725
33216,23636,45676
33276,23657,45512
33346,23662,45626
33360,23663,45575
33384,23639,45633
33372,23615,45455
33360,23605,45559
33348,23597,45447
33317,23601,45233
33268,23615,45454
33261,23645,45324
33269,23656,45388
33292,23669,45085
33317,23662,45308
33288,23647,45308
33342,23623,45012
33392,23609,45212
33401,23595,45176
33325,23607,44948
33244,23621,45018
33244,23642,45087
33284,23657,45002
33348,23663,45063
33304,23655,44744
33236,23647,44975
33200,23622,44879
33148,23607,44959
33100,23602,44645
33020,23601,44863
33000,23617,44791
32956,23639,44548
32877,23660,44736
32812,23664,44703
32792,23668,44784
32813,23643,44487
32740,23624,44700
32656,23615,44702
32617,23611,44404
32612,23607,44596
32612,23620,44521
32601,23640,44620
32532,23661,44420
32496,23664,44572
32444,23665,44452
32385,23645,44565
32328,23626,44389
32317,23612,44488
32292,23597,44448
32332,23602,44277
32352,23623,44420
32328,23644,44455
32300,23660,44167
32285,23673,44396
32272,23660,44293
32268,23645,44401
32224,23630,44380
32194,23607,44361
32184,23607,44096
32172,23607,44332
32204,23620,44315
32180,23645,44125
32140,23657,44295
32064,23668,44295
32096,23664,44020
32176,23650,44248
32210,23621,44285
32230,23605,44142
32237,23597,44133
32212,23609,44253
32214,23628,44080
32212,23641,44125
32212,23655,44212
32196,23671,44156
32199,23661,44093
32232,23647,44135
32252,23627,44068
32276,23605,44101
32300,23597,43925
32321,23608,44039
32396,23621,43920
32447,23647,43776
32480,23663,43982
32520,23662,43951
32516,23657,43820
32488,23652,43860
32480,23624,43982
32529,23609,43911
32548,23596,43864
32572,23604,43636
32616,23626,43876
32652,23640,43885
32676,23661,43869
32736,23671,43766
32732,23662,43868
32636,23642,43741
32572,23621,43687
32568,23607,43527
32576,23594,43813
32596,23612,43800
32628,23620,43783
32572,23644,43757
32552,23661,43632
32516,23672,43783
32472,23660,43621
32444,23642,43620
32456,23626,43481
32448,23605,43740
32448,23600,43708
32448,23602,43558
32484,23628,43692
32493,23643,43573
32540,23663,43412
32576,23671,43695
32564,23668,43740
32596,23645,43511
32608,23625,43692
32624,23607,43663
32628,23601,43453
32672,23607,43677
32713,23621,43665
32741,23647,43367
32813,23663,43652
32828,23665,43509
32876,23662,43620
32900,23649,43644
32900,23630,43497
32928,23607,43625
32952,23605,43433
32860,23611,43567
32764,23630,43509
32788,23646,43397
32840,23658,43500
32868,23665,43397
32824,23666,43519
32748,23647,43181
32712,23628,43415
32704,23610,43444
32728,23604,43375
32770,23605,43372
32808,23631,43044
32820,23648,43348
32837,23666,43194
32824,23672,43319
32796,23667,43233
32768,23649,43103
32829,23621,42910
32836,23619,43143
32868,23604,43112
32892,23613,42855
32924,23634,43177
32940,23652,42981
32900,23668,42864
32924,23679,43117
32933,23677,43031
32892,23653,43088
32880,23633,42903
32828,23621,43052
32821,23605,43020
32780,23616,42812
32660,23637,43029
32528,23653,43006
32484,23673,42977
32496,23685,42889
32520,23676,42977
32561,23653,42887
32576,23631,42887
32560,23622,42894
32565,23609,42955
32515,23625,42823
32520,23641,42712
32548,23655,42919
32604,23671,42756
32632,23676,42601
32652,23680,42886
32616,23660,42831
32580,23634,42654
32560,23620,42868
32525,23608,42727
32460,23621,42476
32432,23635,42865
32436,23653,42796
32456,23677,42486
32472,23677,42852
32468,23676,42792
32476,23653,42676
32472,23637,42841
32492,23625,42817
32548,23613,42554
32540,23623,42828
32528,23639,42796
32592,23659,42820
32621,23673,42494
32660,23687,42870
32712,23674,42841
32742,23658,42708
32782,23637,42840
32764,23622,42849
32692,23605,42789
32681,23620,42692
32696,23647,42476
32624,23667,42856
32620,23679,42711
32621,23681,42849
32600,23685,42684
32700,23660,42718
32780,23643,42836
32928,23620,42688
33208,23612,42684
33456,23625,42792
33680,23642,42468
33888,23671,42799
34156,23678,42799
34388,23686,42668
34728,23681,42797
35032,23665,42444
35368,23654,42784
35628,23631,42623
35906,23624,42752
36292,23641,42717
36688,23673,42657
36920,23695,42756
36504,23716,42408
35740,23719,42747
34721,23712,42660
33684,23692,42385
32976,23684,42720
32352,23660,42565
31620,23652,42551
31124,23661,42692
31236,23679,42678
31688,23691,42503
32108,23707,42693
32456,23712,42654
32678,23701,42392
32772,23686,42650
32756,23671,42500
32672,23644,42599
32544,23636,42503
32464,23647,42234
32480,23663,42565
32520,23698,42498
32544,23706,42390
32544,23705,42524
32556,23695,42374
32508,23676,42126
32428,23660,42527
32452,23639,42373
32492,23632,42436
32492,23640,42282
32552,23663,42423
32532,23680,42391
32468,23700,42372
32408,23705,42217
32448,23696,42338
32504,23676,42201
32532,23655,41928
32560,23640,42205
32518,23633,42300
32480,23641,42223
32440,23665,41877
32436,23679,42237
32409,23690,42223
32448,23705,42153
32468,23700,42134
32464,23675,42009
32488,23660,42068
32540,23627,42052
32584,23641,41988
32568,23653,42047
32569,23661,41903
32565,23685,42119
32564,23701,42036
32608,23707,41901
32660,23694,42034
32760,23687,42001
32788,23658,41772
32816,23641,42093
32832,23637,41845
32800,23649,41941
32782,23665,42017
32741,23687,41893
32718,23692,41616
32665,23717,41844
32608,23703,41896
32601,23684,41892
32612,23662,41828
32632,23650,41821
32665,23642,41814
32681,23645,41780
32736,23671,41735
32736,23692,41821
32800,23702,41430
32809,23708,41781
32764,23706,41813
32740,23679,41735
32768,23665,41374
32828,23655,41762
32864,23645,41637
32836,23660,41636
32744,23672,41732
32740,23687,41564
32836,23705,41236
32832,23709,41670
32904,23704,41518
32956,23683,41525
33005,23664,41249
33056,23647,41509
33041,23652,41351
33029,23651,41396
33036,23661,41437
33020,23696,41317
32989,23709,41197
33032,23716,41444
33076,23708,41241
33128,23687,41068
33140,23669,41292
33164,23655,40860
33152,23655,41316
33136,23661,41177
33068,23677,41049
32981,23700,41254
32924,23716,41049
32928,23719,40814
32952,23713,41112
32992,23687,40914
32980,23675,40992
33004,23655,40884
32952,23664,40871
32940,23661,40935
32886,23676,40820
32868,23707,40884
32820,23711,40837
32748,23723,40501
32772,23723,40928
32728,23699,40671
32608,23679,40761
32540,23665,40695
32460,23655,40669
32404,23669,40695
32336,23684,40661
32208,23711,40710
32182,23729,40615
32148,23732,40269
32096,23727,40696
32064,23704,40508
32064,23687,40199
32078,23670,40613
32088,23662,40367
32105,23676,40447
32150,23687,40356
32161,23714,40364
32148,23724,40496
32101,23732,40257
32016,23725,40345
31984,23714,40229
32005,23690,40357
31984,23673,40196
31969,23669,40261
31952,23683,40199
31972,23694,40173
31957,23716,40181
31960,23735,40156
31900,23743,40148
31824,23730,40084
31793,23716,40044
31820,23699,40033
31872,23679,40036
31872,23678,39725
31866,23687,39986
31848,23703,39874
31872,23727,39697
31844,23737,40012
31864,23742,39843
31832,23740,39932
31812,23715,39815
31792,23695,40024
31769,23680,39873
31728,23676,39791
31712,23695,39956
31749,23706,39788
31720,23727,39527
31694,23748,39877
31704,23753,39745
31744,23747,39480
31762,23725,39878
31756,23700,39748
31749,23689,39709
31756,23681,39625
31720,23699,39740
31705,23714,39656
31740,23732,39640
31820,23750,39428
31860,23754,39785
31870,23746,39676
31884,23723,39566
31788,23708,39572
31692,23696,39388
31725,23690,39669
31808,23704,39637
31864,23722,39660
31934,23742,39637
31924,23757,39748
31912,23761,39593
31917,23750,39361
31912,23732,39708
31864,23719,39552
31852,23701,39476
31932,23704,39709
32004,23715,39591
32041,23724,39531
32050,23762,39709
32088,23767,39532
32076,23769,39277
32084,23771,39653
32128,23750,39524
32112,23720,39277
32142,23723,39681
32184,23708,39527
32224,23717,39481
32240,23741,39527
32276,23757,39551
32332,23781,39482
32356,23780,39512
32314,23774,39540
32273,23763,39612
32276,23732,39532
32280,23724,39652
32292,23724,39236
32360,23733,39573
32368,23750,39529
32328,23768,39444
32240,23793,39575
32128,23797,39220
32085,23783,39604
32156,23773,39519
32096,23749,39577
32004,23740,39496
31990,23735,39257
32065,23745,39572
32096,23759,39471
32172,23785,39572
32174,23799,39484
32152,23811,39674
32112,23798,39511
32076,23786,39487
32048,23760,39337
32140,23751,39685
32196,23753,39604
32292,23756,39540
32340,23780,39564
32356,23808,39593
32336,23821,39399
32344,23820,39706
32352,23815,39575
32392,23805,39572
32392,23785,39496
32380,23772,39288
32356,23767,39676
32294,23783,39471
32216,23797,39573
32196,23821,39580
32237,23841,39369
32300,23844,39492
32272,23839,39684
32252,23818,39547
32264,23804,39298
32268,23789,39634
32228,23796,39525
32216,23799,39529
32276,23818,39237
32324,23838,39583
32340,23860,39412
32380,23866,39490
32365,23869,39501
32356,23839,39551
32324,23828,39386
32264,23810,39476
32236,23807,39535
32240,23824,39444
32192,23850,39359
32208,23872,39475
32300,23887,39444
32356,23896,39453
32396,23876,39431
32388,23869,39474
32362,23857,39431
32244,23842,39348
32224,23843,39463
32196,23849,39392
32172,23872,39325
32132,23888,39409
32032,23919,39349
31926,23917,39476
31960,23913,39342
32056,23903,39188
32088,23880,39452
32111,23874,39297
32165,23870,39212
32188,23877,39399
32214,23896,39311
32209,23932,39247
32184,23943,39178
32204,23957,39047
32172,23948,39286
32156,23934,39276
32112,23911,39336
32132,23901,39263
32128,23903,39329
32160,23917,39232
32164,23940,39324
32152,23965,39216
32164,23977,39278
32236,23992,39134
32304,23982,38884
32336,23965,39285
32456,23955,38862
32648,23938,39180
32966,23925,39129
33284,23948,39244
33584,23975,39108
33808,23999,39209
33892,24013,39084
34040,24020,38993
34372,24023,39020
34697,24007,39057
35044,23991,39134
35284,23982,39020
35532,23983,39020
35932,24005,38934
36308,24037,38892
36416,24052,38965
35857,24092,39055
35022,24092,38732
34044,24085,38872
33149,24078,38816
32568,24058,38817
32008,24049,38580
31332,24046,38969
30913,24065,38836
31056,24076,38951
31468,24107,38780
31912,24124,38796
32276,24128,38854
32484,24114,38767
32576,24115,38788
32540,24090,38745
32476,24084,38821
32456,24076,38435
32441,24092,38812
32424,24114,38685
32452,24137,38711
32508,24166,38620
32520,24171,38364
32508,24160,38706
32469,24154,38573
32388,24127,38516
32392,24124,38656
32436,24120,38543
32476,24136,38292
32472,24158,38630
32484,24188,38521
32480,24200,38606
32500,24217,38470
32538,24201,38501
32549,24192,38429
32544,24172,38407
32528,24167,38368
32508,24167,38267
32468,24181,38484
32446,24216,38361
32432,24235,38263
32432,24248,38359
32484,24257,38303
32528,24253,38340
32568,24243,38191
32590,24220,38045
32640,24216,38380
32608,24217,38264
32601,24231,38225
32602,24258,38164
32630,24284,38092
32572,24309,38336
32520,24309,38222
32660,24304,38300
32748,24289,38215
32816,24279,38311
32761,24267,37919
32632,24273,38305
32556,24288,37924
32520,24308,38212
32537,24335,38116
32528,24356,38168
32556,24369,38183
32612,24355,38199
32644,24351,38220
32680,24330,38196
32736,24327,38183
32740,24324,38137
32704,24340,38106
32708,24372,38151
32736,24389,38151
32761,24411,38125
32740,24422,38041
32748,24423,38110
32744,24404,38133
32718,24385,38175
32752,24380,38109
32804,24385,38151
32852,24392,37805
32812,24427,38161
32858,24455,38020
32936,24473,38100
33012,24477,38004
33132,24468,38013
33140,24464,37945
33056,24447,37847
33016,24443,37933
32996,24447,37908
33036,24461,37978
33020,24485,37857
32956,24514,37940
32996,24533,37824
33121,24546,37880
33152,24532,37756
33168,24524,37580
33127,24511,37737
33096,24502,37527
33120,24508,37808
33144,24521,37660
33176,24543,37688
33188,24577,37628
33200,24590,37550
33212,24601,37592
33188,24593,37604
33144,24583,37543
33132,24569,37469
33104,24567,37657
33125,24567,37536
33160,24583,37537
33200,24612,37485
33182,24641,37353
33084,24656,37495
33052,24664,37338
33036,24655,37186
32948,24649,37501
32820,24636,37396
32692,24624,37343
32660,24631,37336
32636,24650,37279
32532,24668,37304
32458,24696,37285
32407,24719,37053
32361,24723,37291
32332,24727,37248
32344,24711,37204
32340,24698,37111
32384,24684,37124
32424,24695,37085
32420,24710,37080
32432,24735,37032
32420,24757,37045
32348,24775,37020
32272,24793,37121
32296,24780,37097
32364,24775,37076
32420,24756,36989
32400,24753,36940
32357,24752,36990
32372,24767,36944
32416,24801,36901
32528,24817,36863
32568,24846,36892
32596,24852,36825
32586,24848,36871
32576,24829,36907
32540,24819,36903
32500,24809,36900
32484,24815,36869
32464,24831,36777
32445,24854,36807
32400,24887,36871
32424,24906,36888
32361,24911,36843
32456,24904,36679
32436,24895,36917
32376,24882,36843
32341,24868,36884
32397,24873,36805
32376,24893,36760
32396,24916,36775
32408,24941,36706
32373,24964,36871
32380,24972,36808
32385,24965,36782
32380,24959,36783
32412,24941,36713
32380,24933,36861
32372,24940,36732
32484,24951,36807
32492,24974,36836
32537,25005,36784
32608,25023,36708
32680,25031,36696
32704,25031,36564
32709,25010,36912
32701,24996,36812
32704,24986,36680
32708,24999,36872
32809,25004,36812
32756,25032,36724
32845,25063,36900
32824,25083,36823
32812,25089,36736
32940,25085,36889
32912,25071,36818
32998,25048,36653
33040,25049,36890
32928,25053,36753
32928,25065,36711
32948,25092,36761
32973,25123,36766
33024,25136,36615
33057,25153,36909
33044,25143,36820
32976,25124,36733
32988,25104,36813
32996,25100,36757
33016,25102,36791
32989,25124,36839
32988,25145,36893
33060,25173,36812
33008,25196,36748
33000,25199,36601
33044,25193,36853
33072,25183,36814
33096,25165,36713
33116,25157,36724
33092,25156,36575
33052,25175,36847
32978,25196,36800
32924,25228,36780
32900,25244,36756
32876,25252,36652
32896,25248,36871
32876,25234,36725
32868,25223,36796
32868,25206,36684
32780,25212,36806
32752,25221,36797
32788,25253,36793
32788,25277,36773
32836,25299,36597
32896,25309,36885
32932,25296,36789
32964,25278,36683
32964,25269,36690
32984,25254,36761
33000,25265,36840
32972,25279,36777
32980,25309,36752
32944,25320,36735
32944,25345,36524
32960,25351,36820
32956,25338,36743
32924,25328,36695
32944,25308,36639
32960,25296,36572
32984,25303,36615
33056,25319,36697
33108,25345,36756
33172,25373,36678
33144,25386,36568
33145,25394,36628
33144,25389,36649
33160,25372,36631
33210,25357,36597
33252,25345,36537
33316,25350,36568
33310,25371,36592
33324,25390,36576
33372,25415,36468
33284,25431,36325
33264,25437,36623
33304,25431,36493
33344,25415,36284
33336,25394,36506
33316,25385,36478
33324,25397,36252
33352,25407,36542
33304,25428,36457
33224,25461,36332
33148,25468,36421
33049,25474,36417
33072,25469,36400
33052,25452,36359
33004,25441,36146
32882,25428,36314
32808,25430,36336
32780,25442,36341
32836,25466,36209
32940,25499,36252
33060,25506,36297
33132,25511,36342
33232,25509,36276
33268,25487,36231
33296,25472,36191
33224,25460,36127
33188,25463,36199
33295,25479,36105
33348,25501,36172
33373,25524,36135
33331,25543,36175
33316,25551,36214
33300,25543,36133
33276,25524,36183
33241,25502,36124
33280,25497,36173
33304,25493,36100
33324,25509,36024
33312,25538,36046
33392,25559,36070
33372,25573,36036
33328,25583,36037
33360,25569,36001
33396,25550,36036
33417,25536,35984
33465,25525,36014
33432,25524,35956
33376,25537,35997
33436,25557,35929
33540,25581,35924
33572,25599,35776
33548,25607,35789
33600,25593,35748
33572,25587,35857
33572,25565,35822
33608,25548,35821
33608,25551,35794
33640,25561,35796
33684,25580,35797
33652,25616,35780
33536,25630,35807
33452,25631,35740
33452,25623,35782
33480,25601,35684
33624,25583,35573
33778,25574,35615
33996,25573,35656
34240,25593,35500
34536,25607,35545
34800,25633,35373
34992,25647,35628
35132,25653,35544
35365,25646,35445
35556,25624,35444
35736,25607,35360
35881,25604,35377
35952,25598,35297
36056,25618,35312
36324,25649,35148
36664,25677,35307
36832,25687,35132
36384,25696,35289
35684,25693,35061
34844,25679,35244
34041,25660,35152
33480,25652,35172
33036,25640,35007
32492,25665,35142
32216,25681,35078
32420,25696,35033
32924,25702,34981
33532,25716,34866
33984,25703,35000
34216,25680,34940
34184,25667,34852
34128,25655,34777
34009,25653,34641
33980,25664,34864
33948,25683,34627
33908,25705,34804
33856,25719,34724
33876,25721,34572
33884,25708,34625
33836,25692,34653
33848,25669,34661
33788,25660,34591
33726,25656,34445
33712,25670,34444
33724,25689,34344
33704,25705,34519
33720,25732,34473
33816,25722,34471
33852,25714,34221
33856,25698,34421
33781,25671,34367
33744,25665,34376
33716,25663,34308
33724,25672,34254
33792,25693,34085
33766,25717,34294
33708,25728,34233
33712,25728,34237
33743,25721,34183
33764,25700,34192
33728,25676,34145
33608,25669,34117
33500,25666,34117
33428,25679,34152
33470,25696,34085
33605,25712,33973
33684,25726,34022
33736,25739,33925
33800,25721,33957
33812,25701,33892
33801,25680,33941
33748,25668,33839
33676,25668,34048
33670,25677,33991
33633,25696,33857
33612,25721,33956
33560,25734,33789
33468,25733,33880
33477,25723,33788
33496,25705,33933
33532,25684,33765
33536,25670,33910
33529,25671,33784
33498,25680,33852
33488,25701,33750
33416,25718,33935
33404,25735,33697
33456,25740,33885
33536,25724,33839
33612,25697,33879
33572,25681,33809
33564,25664,33797
33572,25671,33600
33664,25679,33652
33781,25695,33568
33799,25715,33676
33761,25735,33692
33748,25735,33652
33660,25720,33670
33568,25701,33600
33620,25678,33614
33654,25668,33366
33676,25677,33423
33652,25681,33338
33608,25701,33439
33548,25725,33282
33552,25732,33471
33601,25735,33264
33640,25723,33377
33696,25708,33364
33708,25680,33369
33694,25668,33381
33680,25665,33143
33636,25684,33212
33600,25701,33108
33524,25721,33295
33496,25731,33244
33588,25726,33237
33692,25718,33042
33744,25701,33096
33696,25679,33041
33724,25659,33073
33733,25661,32988
33767,25675,33100
33784,25693,32975
33832,25712,33085
33844,25722,33017
33780,25727,33031
33712,25719,32956
33692,25699,33016
33693,25671,32911
33710,25663,32913
33724,25656,32884
33764,25668,32812
33772,25692,32860
33812,25711,32783
33840,25724,32889
33825,25717,32747
33776,25712,32804
33612,25688,32719
33457,25668,32751
33388,25650,32661
33352,25653,32836
33284,25670,32770
33156,25689,32623
33104,25703,32674
33060,25713,32728
32944,25716,32612
32904,25701,32612
32856,25681,32492
32800,25656,32633
32728,25647,32446
32636,25640,32636
32580,25654,32581
32552,25683,32558
32533,25692,32538
32544,25709,32516
32532,25705,32488
32557,25695,32357
32508,25678,32412
32496,25657,32253
32500,25638,32360
32408,25636,32204
32461,25650,32378
32576,25671,32184
32630,25685,32335
32557,25703,32292
32508,25702,32295
32504,25684,32111
32532,25665,32239
32520,25645,32056
32413,25629,32177
32379,25628,32092
32453,25636,32012
32512,25657,32064
32544,25679,31973
32576,25689,32084
32528,25687,31948
32532,25677,32076
32486,25650,31983
32468,25633,32028
32452,25623,31897
32412,25617,31989
32396,25628,31901
32436,25647,32031
32424,25671,31996
32436,25679,31836
32448,25679,31998
32544,25665,31967
32536,25642,31884
32472,25623,31849
32420,25607,31940
32344,25601,31947
32260,25620,31893
32264,25643,31778
32276,25663,31926
32356,25672,31852
32381,25668,31884
32309,25652,31703
32252,25639,31796
32228,25617,31691
32273,25596,31783
32224,25593,31775
32080,25604,31668
32078,25631,31751
32104,25646,31658
32184,25660,31716
32342,25655,31655
32392,25638,31650
32372,25623,31748
32360,25598,31622
32389,25585,31773
32360,25586,31765
32392,25602,31641
32365,25623,31764
32384,25637,31751
32336,25647,31600
32212,25650,31686
32078,25635,31741
32028,25615,31740
32008,25596,31706
32029,25577,31652
32048,25575,31617
32044,25591,31760
32036,25607,31692
32002,25628,31572
31902,25639,31751
31848,25644,31701
31832,25627,31588
31832,25605,31564
31836,25583,31656
31816,25570,31706
31848,25571,31551
31928,25589,31719
32030,25597,31674
32012,25627,31708
32020,25636,31588
31992,25630,31733
31968,25617,31617
31972,25591,31719
32025,25568,31569
32060,25561,31751
32062,25560,31631
32104,25573,31720
32016,25593,31732
31980,25610,31593
31996,25623,31582
31964,25621,31647
32036,25606,31757
32032,25579,31653
32105,25560,31743
32140,25542,31585
32121,25540,31679
32044,25559,31653
32012,25583,31744
31928,25596,31590
31800,25620,31636
31673,25607,31741
31648,25597,31729
31680,25573,31565
31652,25556,31751
31664,25543,31689
31772,25537,31552
31836,25551,31692
31856,25569,31599
31908,25588,31560
31992,25603,31596
32078,25599,31644
32159,25583,31668
32196,25560,31523
32228,25541,31687
32232,25525,31645
32212,25532,31489
32192,25540,31561
32184,25561,31676
32228,25579,31583
32280,25578,31642
32272,25588,31461
32296,25571,31606
32316,25546,31521
32324,25529,31605
32340,25508,31439
32284,25519,31503
32236,25528,31583
32168,25548,31425
32140,25569,31495
32048,25573,31417
31932,25573,31552
31904,25561,31564
31928,25540,31460
31942,25517,31517
32030,25505,31375
32068,25505,31460
32132,25517,31528
32228,25533,31367
32244,25554,31512
32216,25567,31365
32220,25567,31536
32176,25551,31495
32152,25529,31348
32112,25500,31536
32080,25499,31460
32066,25493,31500
32020,25500,31357
32052,25527,31508
32032,25544,31473
32030,25557,31376
31918,25553,31493
31804,25532,31408
31720,25517,31385
31756,25495,31336
31784,25479,31473
31816,25477,31503
31892,25494,31445
31868,25508,31428
31874,25528,31508
31840,25541,31356
31864,25542,31452
31868,25525,31476
31864,25501,31492
31920,25479,31374
31952,25465,31477
32032,25464,31549
32160,25478,31489
32256,25497,31503
32336,25517,31396
32400,25528,31436
32356,25531,31457
32348,25508,31564
32360,25488,31401
32352,25470,31540
32296,25460,31424
32248,25449,31489
32180,25469,31416
32072,25489,31612
32040,25505,31580
31920,25512,31444
31856,25513,31501
31768,25501,31444
31872,25477,31584
31849,25460,31605
31816,25441,31509
31936,25444,31529
31962,25452,31623
31996,25478,31600
31980,25493,31543
31880,25503,31477
31868,25500,31589
31824,25484,31647
31749,25460,31639
31712,25445,31632
31804,25427,31493
31888,25420,31634
31944,25438,31564
31972,25465,31588
31989,25479,31495
32124,25490,31577
32276,25487,31494
32556,25468,31628
32872,25445,31484
33049,25425,31556
33348,25423,31480
33573,25413,31598
33749,25427,31616
33897,25450,31624
34016,25474,31560
34277,25477,31524
34476,25479,31463
34577,25471,31568
34688,25440,31607
34926,25431,31527
35230,25428,31492
35288,25429,31588
34753,25444,31444
34004,25461,31476
33062,25487,31414
32317,25496,31588
31932,25488,31552
31566,25479,31396
31164,25456,31444
31064,25435,31361
31348,25420,31437
31801,25410,31365
32284,25422,31506
32652,25440,31519
32824,25463,31482
32900,25463,31348
32876,25464,31399
32812,25450,31329
32774,25431,31423
32588,25407,31476
32472,25397,31377
32412,25392,31447
32432,25409,31364
32428,25423,31436
32432,25441,31296
32421,25457,31407
32480,25450,31299
32504,25436,31417
32533,25414,31287
32484,25391,31436
32464,25380,31387
32720,25376,31239
32872,25391,31337
33008,25410,31220
33032,25428,31332
33022,25436,31239
33052,25439,31332
33076,25414,31184
33089,25391,31311
33157,25382,31168
33184,25364,31239
33229,25361,31160
33160,25376,31213
33048,25395,31157
32960,25409,31312
32960,25416,31307
32908,25419,31324
32868,25405,31301
32864,25386,31242
32916,25365,31263
32921,25349,31128
32944,25340,31213
32960,25369,31132
33057,25377,31295
33132,25400,31301
33176,25417,31202
33164,25406,31236
33076,25386,31215
32985,25367,31333
33004,25345,31300
33048,25336,31188
33132,25333,31239
33217,25350,31206
33312,25374,31332
33341,25383,31296
33332,25392,31178
33268,25396,31353
33232,25383,31300
33304,25356,31160
33336,25332,31343
33381,25319,31218
33324,25321,31304
33324,25334,31129
33324,25348,31209
33349,25376,31140
33348,25384,31284
33320,25381,31215
33352,25367,31093
33476,25351,31168
33593,25324,31121
33600,25313,31148
33516,25305,31015
33456,25323,31128
33452,25346,31110
33429,25368,30958
33460,25375,31116
33437,25373,30983
33412,25355,31056
33372,25334,30949
33332,25313,30928
33368,25294,30878
33464,25296,30855
33604,25309,30948
33748,25327,30937
33832,25351,30785
33884,25355,30919
33840,25358,30896
33808,25342,30721
33892,25318,30892
33888,25290,30844
33957,25281,30684
33900,25286,30778
33824,25296,30804
33808,25324,30711
33812,25343,30726
33898,25343,30614
33958,25341,30753
34004,25327,30716
33994,25304,30578
34022,25289,30727
34048,25276,30678
33964,25272,30529
33876,25287,30672
33808,25308,30653
33688,25324,30481
33516,25338,30536
33334,25332,30500
33177,25317,30565
33184,25300,30551
33228,25272,30423
33292,25260,30468
33200,25265,30418
33076,25277,30535
33028,25294,30477
33000,25309,30351
32920,25320,30470
32864,25318,30461
32776,25300,30416
32736,25287,30425
32696,25260,30428
32688,25252,30394
32560,25255,30276
32572,25264,30281
32620,25282,30201
32696,25303,30272
32751,25307,30262
32656,25308,30140
32632,25293,30197
32608,25265,30164
32534,25251,30182
32488,25236,30204
32428,25239,30229
32424,25247,30080
32364,25264,30117
32336,25289,30076
32372,25300,30113
32452,25292,30153
32516,25286,30026
32528,25253,30180
32460,25239,30165
32456,25222,30012
32464,25220,30087
32540,25239,30020
32544,25255,30169
32500,25274,30149
32504,25280,30042
32520,25285,30058
32532,25261,30151
32460,25237,30023
32460,25219,30053
32484,25207,30016
32544,25204,30151
32492,25223,30134
32328,25241,30135
32260,25256,30104
32264,25279,29964
32352,25263,30036
32405,25248,29949
32474,25225,30042
32492,25199,29973
32496,25197,30103
32464,25192,29988
32444,25200,30082
32436,25231,29988
32430,25244,30071
32545,25257,29950
32652,25255,30012
32660,25229,30105
32624,25207,29996
32532,25189,30071
32432,25183,29945
32404,25183,30057
32445,25193,30096
32533,25215,30080
32588,25231,30073
32640,25239,30075
32644,25228,30057
32728,25213,30076
32625,25197,30040
32496,25175,30048
32472,25165,30024
32466,25159,29860
32464,25179,29996
32442,25196,29897
32468,25215,29999
32469,25219,29953
32673,25215,29811
32740,25204,29929
32776,25177,29940
32756,25156,29776
32676,25143,29847
32672,25151,29904
32638,25162,29853
32688,25172,29868
32728,25201,29692
32760,25205,29760
32765,25198,29839
32788,25189,29669
32792,25157,29730
32801,25140,29788
32762,25127,29627
32736,25131,29623
32748,25140,29720
32829,25160,29645
32908,25183,29603
32864,25191,29719
32752,25191,29668
32636,25172,29503
32568,25144,29628
32622,25127,29618
32680,25117,29480
32677,25116,29604
32688,25121,29586
32704,25146,29444
32724,25164,29477
32690,25170,29532
32560,25164,29389
32390,25149,29506
32364,25127,29455
32448,25108,29380
32524,25095,29335
32532,25095,29276
32468,25110,29408
32440,25127,29285
32429,25154,29334
32380,25157,29328
32276,25153,29305
32240,25137,29294
32221,25111,29279
32212,25095,29138
32209,25079,29152
32192,25081,29228
32192,25093,29175
32172,25113,29077
32316,25124,29011
32372,25136,29153
32372,25132,29117
32436,25117,29031
32417,25095,28956
32312,25077,29074
32296,25063,29097
32300,25060,28940
32316,25077,29020
32294,25095,29045
32240,25114,28956
32216,25120,28939
32309,25113,28941
32416,25095,29020
32505,25068,28880
32648,25053,28836
32708,25051,28945
32762,25045,28916
32692,25057,28855
32652,25079,28969
32660,25095,28951
32660,25108,28778
32676,25095,28953
32636,25082,28900
32632,25058,28855
32648,25036,28780
32692,25028,28758
32688,25033,28924
32660,25036,28889
32716,25063,28760
32692,25074,28860
32752,25082,28820
32808,25079,28773
32812,25063,28812
32924,25046,28839
33031,25020,28672
32993,25006,28807
32952,25010,28832
33088,25025,28764
33148,25047,28764
33224,25061,28649
33252,25071,28724
33128,25057,28708
32972,25044,28801
32916,25016,28775
32968,25003,28709
32884,24985,28739
32864,24986,28597
32820,25005,28762
32756,25025,28728
32716,25039,28631
32764,25049,28686
32832,25032,28551
32886,25021,28636
32812,25007,28705
32768,24977,28527
32760,24975,28694
32748,24981,28608
32716,24989,28572
32648,25007,28693
32556,25025,28666
32416,25035,28500
32304,25029,28581
32252,25012,28538
32240,24988,28591
32340,24961,28623
32392,24959,28559
32408,24956,28633
32380,24973,28637
32580,24988,28487
32668,25007,28533
32612,25014,28504
32688,25006,28596
32752,24987,28572
32760,24960,28442
32796,24945,28514
32866,24940,28416
32888,24933,28564
32941,24953,28407
33029,24968,28551
33036,24988,28432
33153,24994,28545
33200,24992,28576
33184,24966,28527
33140,24942,28521
33116,24925,28421
33100,24909,28552
33237,24916,28560
33320,24931,28489
33376,24951,28559
33420,24959,28452
33412,24975,28516
33444,24964,28439
33472,24945,28527
33504,24920,28395
33592,24904,28538
33628,24889,28441
33725,24895,28554
33984,24904,28497
34272,24934,28525
34616,24934,28401
34896,24949,28556
35028,24948,28452
35056,24936,28544
35020,24903,28452
35064,24883,28517
35157,24879,28409
35316,24881,28512
35244,24903,28414
35200,24919,28540
35196,24937,28525
35396,24950,28463
35380,24942,28503
34948,24933,28402
34296,24912,28449
33504,24889,28428
32744,24886,28353
32272,24887,28498
31948,24901,28431
31592,24921,28484
31460,24933,28373
31748,24938,28453
32256,24932,28492
32772,24905,28385
33198,24887,28449
33316,24861,28324
33436,24847,28431
33484,24855,28357
33452,24863,28468
33372,24889,28432
33336,24903,28305
33390,24906,28389
33384,24900,28364
33439,24886,28351
33346,24865,28365
33296,24839,28428
33316,24833,28295
33256,24830,28368
33197,24839,28335
33180,24866,28384
33132,24877,28412
33056,24882,28319
32972,24884,28309
32912,24861,28263
32932,24833,28308
32908,24816,28241
33036,24800,28356
33156,24811,28356
33248,24822,28193
33336,24839,28337
33380,24849,28329
33352,24865,28154
33325,24856,28260
33256,24839,28239
33236,24821,28226
33240,24796,28229
33328,24782,28308
33292,24780,28167
33361,24801,28296
33352,24817,28300
33284,24833,28132
33268,24844,28292
33300,24833,28287
33397,24817,28148
33511,24794,28254
33600,24772,28274
33664,24765,28181
33732,24763,28217
33792,24777,28292
33744,24806,28292
33684,24817,28135
33744,24820,28259
33726,24813,28316
33628,24798,28236
33548,24772,28268
33508,24755,28221
33444,24735,28186
33360,24743,28340
33312,24751,28319
33216,24775,28198
33130,24786,28187
33125,24799,28318
32984,24798,28320
32884,24772,28249
32924,24759,28321
33016,24729,28161
33088,24721,28321
33072,24727,28300
33121,24740,28176
33204,24759,28207
33208,24776,28264
33256,24783,28104
33237,24773,28180
33060,24757,28149
33012,24741,28260
32992,24717,28212
33000,24697,28073
33008,24709,28226
32916,24711,28190
32964,24740,28086
33092,24757,28180
33137,24764,28100
33206,24757,28203
33124,24735,28182
33065,24718,28039
33172,24695,28143
33200,24688,28172
33256,24692,28021
33330,24703,28177
33248,24722,28149
33204,24740,28015
33208,24749,28162
33284,24741,28114
33288,24722,28151
33432,24696,27992
33392,24673,28120
33321,24665,28131
33300,24669,27976
33228,24687,28064
33164,24700,28107
33196,24716,27925
33132,24725,28023
33108,24721,27904
33137,24703,28027
33156,24676,28053
33096,24658,27911
32940,24647,27948
32776,24649,28004
32688,24657,27852
32660,24687,27925
32648,24705,27953
32613,24711,27759
32545,24704,27911
32584,24686,27889
32516,24655,27886
32404,24644,27741
32232,24626,27794
32148,24631,27780
32100,24650,27740
32024,24668,27751
32000,24680,27728
32052,24688,27759
32064,24688,27654
32096,24663,27682
32104,24649,27620
32064,24623,27588
32064,24614,27601
32073,24615,27640
32141,24628,27466
32200,24648,27593
32260,24671,27576
32289,24671,27396
32264,24662,27481
32178,24646,27542
32110,24625,27460
32130,24605,27449
32176,24583,27492
32174,24591,27460
32064,24607,27285
31952,24629,27439
31892,24644,27349
31868,24654,27389
31928,24642,27223
31940,24631,27332
31976,24602,27341
31948,24583,27184
31996,24574,27315
32016,24575,27258
32060,24596,27199
32112,24608,27162
32173,24628,27209
32266,24639,27095
32232,24634,27228
32196,24608,27200
32145,24591,27036
32232,24565,27189
32200,24551,27156
32228,24555,27004
32270,24575,27076
32202,24596,27022
32176,24612,27081
32173,24619,27104
32120,24612,26963
32116,24594,27025
32058,24565,27074
31992,24549,26936
32028,24532,27015
32036,24543,27041
31962,24556,27001
31992,24577,27031
32132,24591,26990
32168,24601,26996
32221,24593,26853
32253,24572,26976
32268,24549,26823
32350,24521,26927
32392,24518,26978
32456,24524,26854
32384,24534,26924
32444,24557,26953
32536,24573,26802
32594,24581,26887
32496,24576,26812
32488,24557,26908
32400,24526,26922
32324,24505,26825
32433,24493,26855
32349,24505,26909
32232,24519,26857
32288,24536,26894
32416,24557,26744
32436,24562,26832
32440,24553,26805
32368,24536,26873
32336,24510,26901
32308,24489,26884
32341,24483,26886
32328,24487,26773
32325,24501,26868
32348,24523,26726
32412,24529,26905
32541,24550,26887
32668,24534,26724
32616,24519,26824
32608,24491,26809
32544,24471,26792
32528,24463,26874
32498,24469,26711
32444,24487,26846
32414,24503,26801
32448,24513,26840
32488,24525,26854
32509,24512,26758
32586,24498,26805
32672,24477,26716
32684,24454,26761
32669,24442,26675
32636,24451,26758
32632,24461,26727
32640,24489,26779
32570,24494,26791
32580,24508,26770
32556,24504,26653
32512,24483,26697
32520,24455,26630
32588,24436,26676
32684,24423,26630
32784,24436,26704
32888,24449,26677
32871,24465,26578
32752,24485,26658
32708,24487,26610
32784,24479,26620
32720,24464,26620
32641,24442,26585
32572,24423,26607
32544,24413,26476
32548,24417,26588
32660,24431,26569
32664,24449,26596
32696,24471,26444
32690,24472,26574
32696,24463,26590
32692,24449,26425
32672,24423,26580
32684,24405,26549
32724,24396,26503
32740,24404,26444
32749,24409,26519
32757,24433,26541
32748,24450,26400
32804,24455,26476
32868,24447,26532
32964,24425,26348
32932,24410,26479
32876,24380,26510
32880,24379,26416
32956,24382,26459
32992,24397,26494
33070,24416,26339
33000,24432,26415
33046,24438,26400
32944,24431,26474
32884,24410,26464
32964,24393,26436
33008,24377,26448
33100,24366,26308
33101,24372,26396
33068,24380,26383
33056,24404,26332
33034,24417,26372
33012,24421,26348
33040,24412,26281
33012,24396,26367
33004,24374,26399
33056,24353,26295
33008,24348,26355
32964,24353,26252
32908,24368,26333
32856,24389,26334
32812,24398,26245
32897,24407,26329
32844,24405,26353
32712,24387,26185
32504,24365,26321
32376,24350,26329
32328,24332,26204
32342,24333,26256
32312,24355,26199
32324,24369,26255
32340,24388,26185
32297,24393,26279
32256,24390,26279
32196,24364,26129
32400,24345,26274
32540,24322,26261
32500,24311,26132
32600,24321,26197
32648,24335,26249
32668,24356,26143
32572,24372,26217
32516,24382,26223
32480,24373,26104
32436,24357,26208
32560,24329,26215
32540,24316,26052
32552,24303,26192
32568,24307,26046
32496,24324,26143
32428,24347,26143
32440,24357,26175
32440,24367,26180
32416,24352,26026
32420,24340,26119
32388,24312,26056
32420,24295,26143
32576,24284,26063
32560,24288,26169
32696,24310,26140
32796,24324,26077
32757,24344,26036
32704,24357,26107
32532,24341,26064
32388,24324,26130
32353,24297,26112
32228,24284,26081
32292,24268,26028
32284,24285,26008
32336,24294,26150
32381,24311,26149
32504,24327,25996
32724,24332,26140
32900,24322,26119
33156,24308,26088
33604,24287,26124
33936,24268,26139
34096,24254,26084
34199,24267,26021
34344,24279,26119
34522,24300,26142
34552,24317,26057
34493,24327,25981
34340,24324,26133
34084,24302,26119
34020,24287,26021
34189,24266,26109
34148,24271,26094
33872,24273,26000
33204,24292,26117
32496,24310,26110
31756,24336,25954
31116,24339,26053
30884,24332,26037
30594,24303,26115
30368,24285,26122
30685,24265,25974
31132,24247,26127
31564,24257,26132
32069,24268,26082
32428,24289,26128
32672,24303,25988
32792,24308,26111
32888,24307,26036
33008,24279,26149
32960,24263,26013
32912,24243,26194
32732,24231,26153
32668,24232,26079
32980,24253,26191
33000,24270,26233
33032,24289,26140
32917,24292,26213
32952,24292,26207
33032,24264,26295
33033,24237,26311
33044,24216,26197
33060,24215,26353
33088,24217,26344
33064,24239,26297
33136,24258,26324
33126,24270,26412
32936,24279,26341
32868,24277,26500
32889,24248,26540
32832,24228,26418
32736,24209,26572
32685,24199,26653
32633,24204,26569
32644,24222,26727
32704,24244,26696
32660,24261,26801
32676,24263,26834
32833,24253,26809
32960,24247,26940
33024,24213,26959
33041,24192,26959
33080,24182,27092
32932,24195,27118
33040,24204,27027
33034,24230,27208
32896,24244,27212
32886,24249,27181
32924,24237,27319
32872,24220,27396
32896,24199,27287
32832,24181,27465
32732,24173,27377
32784,24175,27567
33025,24196,27488
33080,24212,27621
33156,24235,27613
33188,24238,27726
33114,24228,27634
33128,24204,27713
33158,24194,27700
33108,24172,27772
33112,24165,27740
33136,24165,27824
33128,24186,27778
33180,24213,27835
33145,24218,27858
33208,24224,27871
33192,24219,27893
33200,24207,27757
33124,24179,27884
33104,24160,27757
33112,24149,27841
33108,24159,27831
33180,24174,27887
33248,24199,27785
33300,24205,27853
33220,24221,27791
33112,24204,27880
33136,24189,27849
33188,24169,27682
33373,24147,27774
33492,24148,27664
33407,24153,27766
33172,24164,27690
33208,24180,27782
33349,24199,27693
33456,24212,27758
33500,24199,27764
33428,24183,27689
33328,24154,27760
33280,24141,27743
33252,24132,27583
33212,24137,27669
33196,24153,27641
33028,24176,27720
32960,24191,27715
33012,24196,27694
33029,24184,27681
33056,24165,27574
33048,24148,27672
32940,24131,27645
32840,24123,27475
32804,24123,27597
32881,24148,27620
32852,24165,27546
32832,24179,27588
32812,24182,27449
32760,24183,27564
32820,24160,27547
32704,24139,27448
32596,24126,27487
32404,24115,27356
32396,24113,27412
32400,24133,27337
32400,24157,27420
32448,24177,27364
32460,24175,27418
32392,24169,27339
32245,24144,27381
32189,24128,27332
32057,24111,27244
32045,24100,27261
32086,24102,27180
32184,24126,27296
32186,24147,27254
32116,24164,27161
32156,24169,27217
32144,24156,27247
32080,24141,27159
32020,24117,27214
31872,24101,27184
31832,24090,27188
31892,24093,27054
31948,24109,27132
31901,24138,27116
31909,24150,27067
31982,24158,27117
32006,24151,27124
32061,24132,26962
32032,24103,27109
32108,24089,27077
32092,24080,26968
32160,24080,27068
32152,24102,27068
32233,24127,27039
32353,24140,27031
32384,24145,26911
32512,24140,26905
32552,24119,26944
32492,24095,26993
32444,24079,26830
32416,24071,26963
32501,24079,26929
32492,24092,26799
32473,24117,26842
32376,24135,26861
32396,24137,26810
32320,24132,26725
32244,24109,26842
32286,24081,26806
32304,24071,26696
32296,24057,26761
32368,24071,26732
32373,24084,26759
32389,24102,26677
32340,24124,26644
32273,24129,26693
32309,24125,26618
32341,24103,26539
32372,24085,26644
32368,24062,26673
32404,24049,26520
32384,24058,26639
32448,24071,26605
32508,24101,26486
32424,24112,26567
32381,24122,26488
32141,24116,26537
31921,24094,26351
31937,24077,26424
31964,24055,26417
31956,24048,26459
32072,24053,26344
32154,24071,26324
32230,24096,26351
32376,24103,26380
32440,24111,26224
32404,24103,26287
32356,24090,26319
32380,24065,26144
32448,24044,26236
32440,24036,26254
32380,24040,26107
32424,24068,26149
32434,24089,26135
32468,24100,26025
32513,24108,26144
32420,24092,26119
32342,24081,26049
32334,24054,25974
32340,24037,25932
32340,24031,25999
32364,24039,26046
32484,24061,25893
32444,24076,25957
32464,24095,25980
32432,24099,25945
32392,24084,25940
32316,24071,25781
32412,24044,25791
32529,24031,25845
32612,24020,25876
32592,24031,25752
32452,24053,25814
32440,24062,25673
32404,24087,25804
32445,24086,25787
32480,24071,25716
32424,24060,25747
32356,24037,25619
32225,24025,25700
32340,24016,25718
32320,24022,25564
32256,24044,25646
32297,24061,25680
32344,24079,25522
32381,24084,25635
32284,24071,25588
32436,24055,25511
32456,24035,25588
32356,24019,25551
32352,24012,25590
32384,24020,25549
32461,24037,25446
32513,24055,25552
32684,24071,25481
32813,24071,25505
32752,24065,25436
32662,24053,25530
32552,24023,25478
32576,24012,25534
32604,24000,25506
32624,24007,25357
32624,24027,25496
32602,24047,25468
32576,24069,25340
32508,24071,25429
32400,24061,25372
32344,24041,25465
32288,24019,25436
32224,24011,25434
32192,23999,25305
32144,24007,25391
32152,24021,25305
32336,24047,25382
32420,24058,25312
32540,24069,25375
32620,24057,25427
32669,24030,25298
32668,24011,25380
32657,23999,25336
32682,23984,25411
32681,23996,25413
32809,24012,25287
32868,24037,25380
32892,24053,25252
32824,24060,25370
32696,24047,25259
32676,24031,25376
32772,24004,25332
32928,23990,25364
32920,23987,25289
32928,23993,25405
32845,24014,25400
32821,24026,25280
32750,24041,25380
32640,24052,25258
32625,24045,25400
32438,24020,25268
32532,24001,25377
32621,23983,25421
32640,23978,25321
32624,23999,25403
32540,24005,25316
32428,24028,25409
32296,24049,25429
32340,24048,25352
32380,24039,25415
32408,24022,25289
32453,23997,25417
32336,23980,25301
32453,23976,25427
32544,23986,25461
32516,24001,25468
32521,24014,25405
32436,24045,25433
32428,24044,25395
32576,24037,25503
32680,24018,25506
32780,23988,25383
32786,23975,25504
32833,23972,25396
32837,23981,25503
32852,23996,25474
32896,24009,25534
32880,24037,25577
32840,24036,25543
32832,24029,25568
32744,24013,25448
32632,23989,25589
32621,23968,25529
32598,23973,25649
32421,23973,25664
32592,23991,25514
32704,24008,25632
32602,24037,25544
32542,24036,25684
32492,24028,25727
32700,24009,25605
32701,23981,25684
32628,23967,25628
32784,23957,25732
32928,23965,25688
33135,23989,25788
33444,24013,25772
33752,24031,25728
33952,24029,25823
34161,24018,25828
34224,24003,25717
34260,23975,25828
34204,23963,25849
34232,23961,25719
34164,23972,25882
34020,23992,25840
33940,24012,25805
33936,24032,25752
33984,24039,25831
33872,24033,25893
33428,24016,25755
32689,24001,25849
32004,23981,25836
31524,23981,25885
31308,23985,25896
31184,24011,25789
30872,24025,25884
30733,24037,25794
31072,24039,25948
31632,24022,25953
32164,24004,25924
32536,23988,26002
32828,23972,26002
33000,23971,26013
33040,23975,26016
33024,23989,25937
33072,24009,26021
32984,24027,25928
32956,24025,26087
32980,24013,26029
33017,23997,26098
32952,23972,25995
32832,23961,26076
32772,23952,26077
32746,23965,26116
32670,23982,26062
32680,24000,26127
32616,24022,25997
32664,24021,26116
32656,24010,26069
32652,23994,26151
32692,23967,26081
32792,23953,26152
32820,23940,26183
32808,23959,26095
32696,23973,26173
32800,24002,26093
32742,24009,26155
32720,24025,26080
32748,24004,26167
32936,23989,26136
33076,23958,26020
33093,23948,26128
32988,23942,26077
32909,23951,26172
32968,23977,26108
32948,23988,26193
33044,24006,26241
32996,24010,26152
33060,23996,26208
33072,23977,26220
33020,23955,26170
32924,23941,26332
32936,23943,26357
32893,23944,26309
32824,23969,26353
32781,23983,26293
32712,24000,26373
32752,24007,26365
32772,23997,26489
32865,23975,26492
32876,23956,26460
32860,23935,26515
32892,23935,26432
32850,23942,26528
32744,23962,26504
32732,23983,26575
32796,24003,26578
32748,24004,26509
32736,23994,26639
32824,23975,26613
32797,23948,26549
32904,23936,26541
32916,23927,26652
32936,23941,26585
32980,23956,26625
33036,23991,26508
33132,23992,26660
33256,23999,26656
33356,23989,26483
33333,23972,26588
33220,23946,26532
33188,23934,26641
33176,23933,26628
33280,23943,26584
33260,23961,26562
33152,23982,26548
33040,23992,26564
32956,23997,26604
32960,23985,26522
33020,23970,26586
33040,23945,26473
32972,23930,26556
32976,23930,26440
32964,23940,26536
32908,23949,26467
33008,23973,26558
33113,23997,26448
33188,23996,26571
33198,23991,26512
33072,23969,26594
33092,23946,26515
33084,23933,26564
33052,23924,26604
33056,23940,26556
33005,23949,26587
32952,23979,26450
32852,23991,26570
32842,23997,26500
32840,23991,26599
32861,23967,26468
32928,23943,26597
32928,23927,26556
33012,23926,26596
32988,23940,26531
32844,23949,26597
32781,23972,26599
32600,23989,26496
32508,23996,26544
32496,23981,26477
32433,23967,26576
32388,23945,26593
32224,23926,26445
32008,23925,26592
32020,23930,26444
32052,23957,26575
32148,23974,26471
32156,23993,26596
32048,23996,26558
31828,23982,26444
31616,23972,26539
31504,23943,26473
31616,23928,26568
31704,23919,26436
31928,23929,26584
31924,23954,26486
31953,23972,26598
32076,23988,26548
32172,23994,26476
32108,23979,26540
32098,23972,26460
32172,23941,26572
32148,23926,26612
32140,23917,26452
32032,23932,26581
31800,23959,26532
31837,23969,26615
31922,23986,26568
32050,23989,26640
32080,23976,26513
32064,23957,26597
32101,23932,26556
32124,23925,26682
31916,23918,26703
31998,23929,26712
31996,23943,26653
32029,23967,26663
31956,23980,26681
31968,23991,26642
32013,23977,26746
31981,23961,26683
31892,23933,26755
31740,23921,26705
31808,23913,26760
31824,23923,26709
31908,23945,26788
31956,23972,26724
32076,23975,26780
32196,23982,26709
32288,23972,26829
32356,23955,26732
32400,23935,26841
32332,23911,26740
32242,23913,26887
32128,23921,26799
32116,23940,26892
32013,23966,26844
31972,23983,26896
32012,23975,26895
32044,23969,26817
32036,23951,26852
32068,23935,26759
32092,23914,26907
32160,23915,26861
32276,23921,26897
32412,23943,26768
32484,23957,26887
32520,23980,26844
32525,23983,26808
32548,23970,26838
32608,23948,26693
32621,23929,26825
32652,23916,26692
32600,23905,26806
32528,23921,26678
32476,23937,26776
32436,23953,26768
32444,23975,26847
32436,23983,26748
32480,23964,26836
32536,23950,26768
32532,23929,26848
32572,23905,26847
32480,23911,26805
32456,23919,26732
32564,23933,26846
32618,23959,26733
32488,23973,26774
32565,23973,26721
32436,23964,26828
32384,23943,26836
32340,23921,26733
32324,23909,26792
32184,23910,26737
32209,23915,26801
32268,23935,26817
32400,23953,26738
32396,23970,26813
32300,23975,26828
32404,23961,26844
32332,23944,26780
32244,23927,26841
32256,23909,26817
32238,23905,26863
32269,23911,26872
32320,23935,26859
32277,23952,26812
32324,23970,26800
32340,23975,26877
32260,23959,26869
32228,23944,26745
32296,23919,26816
32340,23908,26884
32340,23897,26780
32336,23912,26864
32349,23932,26720
32484,23952,26877
32484,23969,26832
32408,23973,26906
32456,23961,26777
32388,23941,26868
32444,23919,26824
32468,23905,26793
32564,23903,26898
32597,23909,26748
32548,23933,26864
32501,23949,26820
32432,23965,26861
32480,23970,26828
32460,23959,26881
32644,23943,26945
32565,23917,26905
32612,23908,26864
32533,23901,26911
32644,23911,26860
32724,23933,26952
32744,23953,26979
32704,23960,26959
32660,23973,26948
32696,23965,26873
32689,23933,26953
32612,23921,26895
32568,23908,26970
32573,23895,27020
32556,23908,26885
32560,23920,26995
32568,23944,26874
32684,23967,26962
32696,23967,26928
32756,23953,27054
32720,23940,26990
32628,23919,26973
32544,23901,27064
32528,23901,27037
32570,23902,26926
32596,23926,27073
32640,23938,27043
32668,23958,26901
32700,23965,27062
32740,23954,27076
32684,23934,26938
32696,23909,27087
32644,23903,27012
32516,23895,27087
32480,23903,26917
32472,23925,27060
32508,23944,26974
32520,23965,27057
32540,23966,27021
32456,23952,27060
32552,23932,27088
32609,23908,27009
32708,23895,27109
32704,23892,27124
32716,23896,26998
32720,23921,27141
32548,23941,27161
32456,23964,27017
32340,23967,27112
32268,23953,27015
32285,23927,27151
32360,23912,27089
32388,23896,27148
32452,23887,27125
32492,23900,27225
32456,23927,27170
32584,23942,27148
32652,23952,27068
32748,23956,27172
32764,23951,27246
32785,23925,27169
32696,23911,27188
32576,23890,27116
32616,23888,27209
32688,23888,27190
32672,23916,27302
32736,23938,27293
32836,23953,27140
32944,23949,27287
33116,23950,27176
33328,23929,27285
33784,23903,27321
34108,23890,27231
34328,23888,27345
34392,23896,27262
34479,23923,27333
34496,23943,27276
34400,23964,27382
34228,23968,27389
34044,23959,27381
33760,23943,27325
33540,23916,27406
33480,23911,27306
33196,23905,27413
32588,23917,27431
31968,23944,27423
31197,23964,27272
30764,23981,27360
30560,23983,27444
30520,23973,27329
30424,23943,27388
30728,23924,27308
31144,23904,27399
31616,23901,27348
32056,23917,27416
32424,23925,27316
32664,23948,27390
32792,23959,27372
32868,23965,27476
32826,23956,27493
32760,23935,27481
32756,23913,27393
32752,23900,27425
32756,23895,27364
32782,23903,27515
32800,23924,27457
32904,23937,27377
32926,23960,27472
33024,23949,27420
33132,23947,27540
33144,23930,27539
33220,23911,27405
33344,23892,27464
33357,23896,27374
33428,23901,27513
33470,23911,27401
33340,23943,27502
33276,23949,27407
33280,23956,27556
33262,23946,27564
33184,23933,27421
33152,23903,27516
33172,23892,27469
33248,23898,27550
33336,23900,27567
33412,23911,27452
33332,23939,27551
33164,23950,27415
33196,23956,27562
33216,23943,27468
33216,23921,27609
33200,23903,27617
33244,23889,27541
33124,23887,27580
33143,23885,27545
33134,23910,27674
33180,23933,27551
33156,23955,27661
33108,23951,27583
33053,23940,27713
33112,23921,27741
33071,23901,27743
33124,23882,27748
33177,23885,27764
33120,23893,27728
33256,23910,27759
33133,23929,27663
33052,23948,27745
32928,23944,27744
33096,23940,27857
33096,23922,27850
33076,23899,27832
33008,23885,27864
33082,23884,27737
33164,23889,27845
33184,23908,27906
33225,23937,27772
33282,23946,27892
33180,23952,27809
33076,23935,27941
33120,23916,27953
33076,23903,27805
33176,23884,27981
33132,23876,27976
33248,23901,27905
33276,23910,27952
33354,23935,27860
33324,23948,28008
33503,23948,28014
33492,23936,27853
33624,23919,27996
33676,23903,28012
33615,23881,27869
33608,23880,28055
33584,23892,28029
33604,23909,27906
33604,23935,28055
33593,23943,28046
33576,23946,27974
33544,23941,27932
33449,23924,28056
33461,23903,28068
33496,23884,27917
33501,23881,28090
33586,23886,28095
33612,23908,27927
33670,23925,28040
33740,23943,28089
33792,23948,27938
33803,23932,28109
33820,23917,28046
33720,23894,27992
33608,23877,28067
33508,23876,28118
33488,23885,27985
33436,23911,28039
33336,23939,27966
33168,23948,28047
33060,23955,28111
32949,23930,27935
32912,23911,28015
32864,23901,27969
32760,23877,28085
32692,23877,28093
32608,23899,27908
32612,23903,28041
32660,23924,27960
32628,23942,27988
32520,23943,28013
32473,23933,28001
32585,23919,28039
32648,23894,28023
32648,23881,27910
32568,23872,28033
32432,23881,27943
32328,23904,28028
32269,23924,28009
32153,23938,27890
32028,23948,27968
32020,23938,27854
32032,23908,27995
31968,23893,27982
31948,23876,27799
31993,23876,27958
32026,23889,27946
32049,23909,27820
32076,23930,27934
32000,23940,27956
31906,23943,27776
31796,23939,27868
31872,23913,27932
31800,23889,27751
31857,23873,27888
31972,23875,27812
31996,23884,27873
32037,23897,27880
32084,23925,27730
32096,23943,27844
32288,23943,27746
32310,23929,27861
32268,23906,27853
32236,23892,27686
32264,23875,27831
32348,23874,27740
32332,23883,27759
32373,23900,27825
32425,23924,27773
32436,23939,27774
32504,23933,27625
32484,23930,27717
32504,23911,27668
32500,23880,27788
32497,23873,27774
32525,23871,27602
32484,23874,27751
32477,23905,27764
32557,23919,27625
32622,23932,27716
32642,23940,27773
32610,23929,27671
32328,23906,27745
32228,23888,27631
32128,23873,27746
32164,23870,27718
32297,23877,27742
32320,23900,27769
32400,23919,27674
32296,23932,27681
32332,23937,27766
32320,23925,27636
32260,23909,27770
32365,23878,27749
32452,23871,27633
32496,23866,27749
32560,23875,27742
32648,23892,27773
32604,23910,27721
32497,23935,27772
32473,23935,27679
32364,23917,27748
32369,23898,27652
32360,23887,27713
32344,23866,27655
32372,23866,27716
32332,23877,27792
32404,23895,27661
32480,23919,27770
32552,23929,27629
32572,23932,27725
32592,23924,27615
32585,23902,27772
32532,23877,27656
32544,23866,27761
32484,23869,27610
32436,23872,27745
32480,23886,27604
32597,23912,27707
32656,23930,27596
32668,23925,27681
32656,23918,27576
32648,23893,27669
32744,23876,27631
32726,23863,27744
32808,23861,27602
32748,23879,27744
32588,23892,27744
32629,23910,27684
32628,23933,27708
32712,23927,27585
32728,23918,27719
32800,23895,27663
32748,23877,27716
32684,23866,27708
32816,23856,27596
32736,23876,27718
32648,23890,27668
32564,23920,27760
32484,23921,27796
32580,23937,27712
32664,23925,27744
32684,23899,27715
32592,23884,27711
32476,23867,27836
32500,23865,27869
32580,23871,27777
32556,23890,27847
32420,23916,27813
32452,23926,27868
32532,23927,27916
32660,23919,27786
32676,23897,27908
32570,23876,27820
32416,23864,27903
32664,23857,27978
32577,23877,27968
32468,23889,27985
32696,23917,27852
32741,23924,27964
32888,23929,27929
32820,23909,28036
33100,23900,28030
33125,23879,27996
33085,23856,28068
32975,23861,27977
32908,23875,28149
32865,23895,28143
32876,23912,28041
32868,23929,28223
32816,23927,28193
32772,23924,28069
32660,23900,28237
32600,23887,28265
32688,23860,28121
32608,23860,28320
32712,23868,28326
32820,23887,28262
32816,23906,28317
32720,23930,28378
32744,23932,28242
32796,23915,28369
32704,23893,28420
32684,23876,28413
32548,23858,28329
32612,23859,28469
32800,23872,28478
32800,23885,28452
32832,23914,28430
32784,23930,28415
32800,23925,28528
32824,23908,28551
32780,23897,28536
32600,23876,28543
32636,23860,28501
32748,23853,28469
32728,23871,28568
32868,23887,28651
32860,23911,28524
32700,23925,28708
32589,23924,28704
32588,23911,28615
32480,23892,28679
32552,23877,28698
32600,23855,28777
32733,23855,28693
32744,23865,28710
32792,23885,28812
32748,23904,28713
32704,23927,28876
32780,23925,28855
32832,23908,28756
32860,23892,28775
32792,23864,28847
32648,23856,28912
32516,23850,28770
32612,23871,28855
32688,23881,28865
32888,23908,28791
32968,23917,28750
33176,23918,28926
33484,23910,28890
33952,23882,28916
34212,23871,28924
34429,23850,28903
34596,23847,28845
34644,23866,28845
34696,23879,28774
34665,23910,28869
34496,23921,28854
34248,23929,28740
34124,23919,28801
33892,23903,28751
33832,23887,28861
33512,23871,28880
33000,23865,28891
32404,23895,28876
31792,23915,28770
31108,23928,28845
30644,23943,28745
30500,23943,28837
30484,23925,28706
30788,23909,28797
31220,23880,28721
31603,23869,28882
32120,23868,28859
32478,23880,28746
32668,23900,28844
32928,23917,28687
33040,23927,28765
33004,23933,28717
32980,23911,28839
32954,23892,28836
32928,23879,28656
32964,23856,28749
32974,23864,28837
33044,23876,28781
33076,23887,28812
33172,23911,28665
33068,23921,28798
33088,23919,28740
33216,23910,28676
33240,23893,28845
33324,23856,28807
33364,23854,28720
33266,23855,28655
33286,23870,28844
33337,23880,28820
33340,23908,28655
33284,23921,28766
33304,23923,28653
33209,23910,28725
33120,23886,28671
33052,23862,28807
33032,23852,28796
33084,23845,28637
33188,23865,28740
33192,23889,28631
33188,23903,28802
33168,23924,28786
33240,23919,28633
33278,23904,28722
33216,23882,28632
33148,23863,28751
33204,23852,28603
33232,23851,28696
33296,23863,28612
33358,23880,28652
33408,23903,28612
33369,23908,28748
33376,23911,28724
33348,23905,28558
33373,23891,28719
33388,23866,28704
33400,23853,28599
33424,23849,28630
33437,23858,28679
33452,23881,28647
33504,23904,28540
33441,23914,28660
33412,23913,28643
33308,23902,28605
33260,23884,28594
33280,23860,28535
33320,23847,28549
33348,23857,28413
33344,23860,28557
33330,23885,28522
33312,23908,28516
33276,23911,28332
33277,23919,28404
33292,23909,28261
33297,23881,28314
33268,23864,28228
33232,23852,28362
33240,23849,28309
33308,23862,28206
33336,23887,28260
33332,23903,28202
33360,23915,28188
33317,23917,28020
33288,23902,28071
33276,23887,27952
33276,23864,28070
33256,23847,28037
33249,23844,28030
33304,23863,27995
33416,23878,27946
33452,23900,27781
33412,23913,27813
33284,23919,27718
33228,23904,27812
33268,23881,27704
33337,23863,27760
33426,23844,27716
33492,23843,27598
33540,23860,27577
33564,23878,27453
33556,23900,27501
33641,23916,27333
33598,23910,27423
33536,23898,27351
33440,23878,27199
33356,23857,27261
33336,23855,27223
33324,23847,27028
33272,23859,27076
33216,23881,27014
33184,23906,26803
33180,23916,26868
33124,23911,26818
33074,23906,26676
33056,23879,26584
32992,23863,26568
32940,23849,26556
32844,23842,26363
32820,23865,26409
32752,23877,26356
32664,23902,26151
32628,23913,26188
32580,23914,26114
32560,23903,26060
32576,23878,26071
32516,23857,26033
32414,23845,25875
32344,23842,25845
32310,23855,25860
32272,23884,25804
32208,23900,25788
32168,23919,25789
32140,23913,25645
32140,23901,25696
32172,23881,25543
32222,23856,25627
32277,23844,25565
32276,23845,25607
32285,23863,25509
32230,23879,25570
32132,23905,25508
32148,23913,25508
32180,23916,25353
32236,23900,25440
32356,23877,25381
32424,23856,25473
32521,23840,25468
32580,23849,25442
32484,23860,25438
32396,23879,25283
32401,23893,25412
32396,23918,25294
32336,23911,25402
32285,23892,25264
32200,23881,25360
32140,23856,25298
32100,23844,25347
32144,23844,25272
32177,23860,25346
32205,23877,25389
32284,23903,25296
32352,23903,25377
32324,23913,25378
32348,23906,25361
32372,23877,25260
32384,23859,25377
32369,23841,25362
32352,23842,25311
32396,23850,25261
32442,23884,25348
32469,23896,25398
32396,23911,25279
32348,23909,25368
32364,23901,25348
32404,23868,25386
32364,23852,25339
32352,23845,25432
32400,23838,25476
32480,23853,25433
32536,23876,25397
32569,23894,25469
32572,23907,25540
32469,23911,25413
32400,23894,25546
32316,23873,25569
32364,23855,25492
32452,23838,25556
32505,23843,25422
32528,23856,25573
32554,23872,25607
32572,23895,25610
32596,23909,25616
32516,23904,25501
32412,23896,25597
32357,23877,25471
32380,23859,25633
32444,23841,25636
32460,23838,25558
32460,23850,25612
32444,23875,25652
32544,23897,25677
32560,23908,25546
32532,23906,25669
32438,23892,25625
32384,23872,25718
32325,23849,25764
32357,23839,25633
32372,23839,25781
32328,23852,25828
32328,23879,25813
32324,23892,25863
32368,23905,25727
32428,23908,25893
32466,23895,25847
32492,23875,25973
32528,23847,26004
32608,23837,26033
32660,23837,25900
32644,23853,26031
32644,23875,26078
32637,23896,26180
32670,23909,26207
32728,23903,26156
32684,23892,26297
32664,23868,26324
32576,23849,26228
32472,23844,26380
32441,23837,26381
32517,23857,26503
32592,23875,26488
32628,23890,26665
32588,23904,26725
32596,23906,26610
32596,23893,26796
32596,23877,26791
32532,23857,26901
32460,23837,26968
32402,23839,26988
32476,23852,27161
32520,23876,27101
32558,23893,27277
32576,23909,27342
32586,23904,27415
32592,23893,27532
32624,23872,27550
32620,23850,27597
32624,23839,27762
32678,23844,27727
32744,23850,27933
32676,23872,28068
32593,23891,27972
32493,23900,28148
32432,23909,28305
32408,23901,28292
32360,23876,28396
32384,23844,28434
32416,23841,28649
32436,23843,28713
32352,23861,28649
32352,23877,28861
32432,23892,28828
32494,23911,28999
32588,23906,28954
32660,23887,29188
32738,23872,29113
32752,23844,29290
32716,23840,29447
32712,23843,29537
32712,23852,29582
32692,23879,29575
32628,23893,29687
32580,23903,29852
32517,23906,29880
32520,23892,29969
32472,23875,29920
32396,23856,30146
32377,23837,30185
32416,23836,30316
32472,23852,30268
32520,23876,30500
32524,23897,30445
32573,23904,30676
32532,23906,30789
32480,23887,30871
32580,23865,30965
32660,23844,31013
32688,23836,31142
32708,23836,31107
32784,23854,31266
32796,23864,31289
32880,23895,31589
32872,23909,31624
32864,23897,31606
32940,23884,31772
32942,23863,31784
32941,23841,31944
32960,23835,31989
33048,23835,32135
33136,23848,32165
33216,23873,32327
33368,23896,32360
33592,23900,32512
33922,23901,32561
34260,23890,32796
34460,23866,32720
34724,23841,33006
34916,23837,33052
35048,23832,32980
35304,23849,33246
35484,23875,33300
35556,23895,33380
35632,23911,33287
35696,23908,33535
35712,23903,33473
35992,23888,33775
36104,23869,33790
35808,23854,33720
35256,23864,33973
34452,23881,34008
33356,23906,33956
32564,23925,34110
32009,23932,34013
31564,23932,34344
31241,23916,34335
31300,23889,34212
31692,23866,34558
32224,23852,34554
32732,23850,34431
33088,23863,34746
33308,23891,34749
33396,23912,34708
33380,23923,34864
33273,23914,34925
33098,23903,34935
32968,23884,34982
32884,23855,34905
32820,23847,35212
32780,23844,35196
32760,23865,35278
32678,23884,35274
32598,23902,35228
32562,23909,35276
32548,23913,35220
32520,23899,35348
32524,23874,35496
32570,23855,35512
32600,23844,35608
32665,23839,35591
32700,23859,35572
32745,23882,35612
32764,23893,35553
32768,23908,35730
32764,23911,35639
32752,23887,35748
32808,23866,35759
32869,23845,35687
32908,23841,35702
32988,23837,35797
32948,23853,35847
32829,23875,35842
32796,23894,35844
32808,23905,35920
32797,23909,35904
32784,23894,35935
32838,23864,36002
32821,23851,35847
32849,23837,36100
32828,23841,36028
32812,23864,36146
32893,23873,36083
32952,23900,36118
32940,23905,36021
32948,23906,36329
32992,23886,36276
33016,23865,36221
33016,23849,36458
33070,23837,36376
33188,23835,36509
33260,23852,36489
33340,23873,36516
33364,23901,36637
33356,23908,36697
33324,23903,36692
33236,23888,36725
33180,23869,36706
33120,23852,36860
33080,23833,36852
33093,23840,36863
33136,23853,36729
33164,23873,37103
33180,23899,37052
33172,23909,37064
33212,23901,37097
33216,23897,37164
33172,23879,37100
33136,23847,37092
33192,23834,37198
33256,23836,37311
33292,23856,37422
33304,23883,37365
33266,23902,37353
33296,23906,37414
33346,23910,37453
33386,23892,37480
33396,23868,37468
33399,23844,37548
33373,23837,37357
33369,23844,37745
33388,23852,37655
33412,23873,37622
33448,23898,37845
33420,23909,37733
33372,23910,37604
33336,23894,37940
33356,23865,37869
33334,23849,37957
33344,23842,37912
33376,23841,37860
33376,23859,38072
33340,23878,38012
33317,23900,37975
33294,23905,38070
33276,23909,38074
33236,23889,38137
33192,23866,38180
33148,23849,38220
33124,23833,38212
33088,23840,38165
33020,23855,38161
33008,23876,38288
33012,23895,38321
33004,23908,38245
32974,23905,38375
32985,23895,38424
32980,23868,38370
32976,23847,38321
32952,23841,38353
32952,23845,38402
32960,23854,38406
32900,23874,38519
32840,23887,38596
32772,23904,38509
32600,23901,38517
32469,23891,38568
32472,23877,38349
32532,23851,38764
32588,23839,38681
32548,23839,38703
32512,23863,38701
32464,23872,38772
32386,23897,38743
32352,23904,38783
32325,23901,38713
32344,23889,38513
32352,23867,38829
32412,23853,38818
32388,23839,38644
32376,23849,38918
32360,23853,38848
32356,23879,38824
32324,23895,38960
32268,23900,38941
32216,23902,38959
32158,23892,38913
32200,23865,38908
32244,23844,39019
32252,23844,39017
32208,23841,39012
32216,23858,38996
32284,23869,38757
32413,23895,39096
32548,23908,39057
32584,23907,39055
32509,23890,38987
32428,23861,38894
32408,23853,39139
32424,23839,39136
32440,23843,39058
32468,23856,39036
32500,23877,39152
32432,23897,39289
32414,23901,39175
32452,23901,39139
32476,23883,39250
32456,23860,39205
32420,23844,39191
32432,23833,39191
32434,23844,39244
32512,23855,39175
32532,23872,39216
32572,23894,39190
32488,23901,39172
32468,23908,39004
32488,23893,39398
32572,23867,39317
32637,23844,39412
32700,23836,39316
32696,23837,39279
32726,23849,39253
32748,23873,39068
32720,23895,39494
32664,23901,39380
32628,23904,39314
32540,23884,39287
32508,23869,39255
32509,23847,39452
32500,23833,39400
32488,23844,39453
32559,23855,39303
32632,23879,39425
32640,23899,39341
32684,23906,39406
32652,23902,39122
32632,23891,39420
32637,23866,39121
32736,23844,39519
32780,23833,39397
32788,23845,39329
32729,23856,39357
32576,23879,39109
32476,23888,39484
32428,23905,39404
32472,23902,39460
32504,23883,39385
32544,23861,39088
32564,23840,39470
32560,23837,39296
32496,23839,39140
32464,23849,39359
32456,23873,39369
32420,23887,39487
32477,23903,39056
32536,23905,39463
32604,23891,39342
32632,23861,39316
32668,23841,39124
32704,23837,39446
32680,23836,39333
32648,23852,39454
32660,23872,39333
32692,23899,39244
32705,23898,39411
32720,23898,39284
32772,23890,39152
32836,23863,39340
32924,23847,39288
32996,23832,39236
33060,23831,39393
33092,23855,39279
33132,23876,39292
33149,23892,39212
33101,23905,38983
33164,23909,39382
33220,23888,39276
33212,23864,39362
33169,23845,39284
33088,23833,39380
32960,23840,39285
32908,23852,39198
32944,23873,39284
32888,23888,39287
32844,23909,39205
32836,23901,39287
32814,23886,39284
32809,23862,39271
32876,23847,39252
32900,23836,39205
32836,23839,39323
32841,23848,39261
32864,23875,39175
32858,23895,39230
32865,23900,39207
32904,23900,39244
32894,23881,39287
32840,23865,39302
32800,23845,39184
32792,23836,39132
32748,23845,39168
32704,23854,39201
32689,23872,39195
32752,23904,39205
32772,23908,39284
32844,23895,39278
32777,23886,39361
32700,23867,39244
32693,23840,38983
32704,23835,39385
32680,23843,39276
32692,23849,39351
32669,23879,39271
32564,23893,39351
32536,23904,39284
32580,23903,39385
32600,23885,39276
32652,23864,39196
32664,23842,39161
32676,23838,39261
32672,23838,39229
32716,23855,39164
32748,23872,39063
32728,23895,39375
32640,23907,39216
32668,23896,39265
32672,23885,39175
32764,23860,39292
32856,23841,39154
32944,23837,38964
33160,23839,39374
33508,23849,39257
33808,23868,39324
33986,23884,39247
34128,23896,39183
34324,23904,39157
34624,23879,38951
34968,23873,39316
35196,23847,39204
35365,23832,39189
35488,23839,39164
35652,23862,38909
35896,23887,39316
36213,23905,39168
36289,23923,39151
35856,23916,39093
35132,23906,39175
34208,23888,39125
33280,23872,39116
32608,23863,39140
31946,23863,38868
31268,23882,39207
30988,23902,39072
31237,23911,38909
31724,23920,39204
32260,23911,39074
32680,23899,39080
32892,23877,39047
32980,23860,39153
32976,23855,38772
32976,23845,39124
32964,23868,38727
32936,23889,39041
32912,23909,38791
32884,23918,39093
32860,23911,38961
32813,23895,38913
32760,23870,38884
32720,23857,38772
32669,23844,38852
32672,23858,38837
32664,23865,38822
32704,23890,38829
32612,23909,38844
32576,23911,38869
32544,23907,38908
32516,23893,38846
32478,23871,38788
32464,23854,38708
32420,23844,38551
32514,23844,38719
32568,23862,38714
32640,23878,38734
32660,23903,38788
32688,23907,38759
32704,23909,38852
32740,23892,38746
32756,23866,38858
32776,23847,38724
32744,23841,38788
32684,23841,38700
32704,23861,38660
32740,23876,38682
32804,23900,38652
32800,23903,38637
32832,23900,38623
32864,23889,38768
32836,23866,38468
32848,23848,38864
32804,23836,38460
32804,23840,38797
32860,23851,38688
32892,23885,38727
32888,23898,38681
32925,23902,38717
32932,23909,38743
32913,23886,38724
33009,23866,38624
33102,23838,38707
33092,23837,38719
33056,23837,38783
32992,23854,38914
33029,23872,38529
33040,23908,38906
33116,23903,38511
33128,23900,38839
33128,23895,38783
33124,23865,38883
33116,23845,38785
33132,23831,38857
33136,23840,38756
33120,23856,38689
33116,23874,38546
33088,23895,38633
33112,23911,38726
33140,23898,38705
33216,23892,38597
33380,23865,38391
33548,23839,38763
33588,23839,38624
33604,23836,38397
33556,23856,38705
33524,23872,38589
33608,23897,38582
33652,23908,38559
33637,23901,38475
33608,23893,38485
33632,23864,38232
33640,23844,38597
33656,23837,38485
33668,23838,38478
33684,23854,38368
33644,23875,38438
33608,23890,38495
33584,23907,38407
33588,23906,38407
33548,23882,38325
33504,23868,38285
33512,23840,38300
33552,23834,38070
33500,23842,38420
33440,23860,38311
33432,23877,38045
33420,23899,38390
33340,23913,38287
33256,23903,38336
33148,23890,38230
33021,23861,37980
32912,23847,38335
32812,23837,38239
32772,23837,38136
32702,23854,38208
32646,23879,37916
32644,23896,38279
32600,23917,38165
32576,23907,37977
32485,23886,38034
32316,23860,37876
32208,23844,38207
32188,23839,38080
32132,23837,37990
32100,23857,38160
32088,23877,38023
32120,23901,37847
32080,23905,37999
32020,23908,37731
32004,23884,38047
32028,23869,37936
32064,23854,38036
32100,23840,37924
32089,23838,37983
32060,23857,37853
32044,23879,37699
32110,23893,37951
32104,23914,37810
32084,23906,37764
32056,23895,37686
32031,23869,37503
32044,23848,37714
32116,23839,37826
32084,23839,37698
32030,23859,37616
32040,23879,37566
31972,23903,37393
31944,23911,37549
31948,23909,37699
32040,23885,37511
32088,23866,37609
32101,23846,37584
32180,23834,37518
32176,23845,37543
32160,23859,37449
32208,23879,37495
32232,23902,37262
32320,23910,37541
32388,23907,37492
32384,23884,37228
32388,23872,37497
32384,23845,37436
32392,23845,37461
32360,23838,37356
32372,23859,37439
32468,23879,37411
32572,23903,37156
32612,23909,37295
32600,23901,37404
32606,23887,37307
32644,23862,37358
32648,23844,37232
32644,23833,37375
32604,23841,37301
32629,23858,37340
32656,23878,37153
32684,23902,37412
32701,23902,37268
32748,23900,37058
32776,23882,37284
32828,23863,37236
32856,23844,37297
32904,23828,37367
33016,23842,37276
33076,23849,37165
33064,23880,37344
33010,23893,37159
32900,23901,36994
32784,23906,37327
32744,23881,37222
32748,23861,37278
32824,23840,37175
32864,23836,37068
32828,23844,37240
32852,23850,37189
32852,23877,37229
32800,23896,37127
32797,23903,36975
32856,23900,37217
32876,23878,37120
32836,23867,37029
32792,23842,37063
32805,23839,37077
32784,23838,37093
32797,23854,37052
32840,23879,36961
32728,23891,37127
32688,23904,37028
32704,23899,37052
32688,23885,36918
32709,23866,36825
32736,23847,37042
32732,23836,36893
32764,23836,36828
32756,23858,36861
32745,23874,36692
32728,23893,36844
32741,23898,36644
32700,23896,36866
32736,23885,36781
32732,23871,36556
32665,23844,36849
32669,23836,36742
32764,23836,36524
32808,23854,36728
32864,23879,36615
32849,23897,36484
32864,23900,36597
32904,23897,36743
32944,23879,36553
33000,23860,36644
33024,23845,36507
33020,23838,36692
33004,23839,36570
33013,23859,36471
33044,23869,36474
33032,23893,36519
33040,23905,36404
33070,23904,36548
33056,23891,36479
33008,23864,36229
32932,23849,36502
32821,23834,36389
32799,23842,36309
32776,23859,36341
32760,23879,36301
32800,23903,36420
32828,23911,36376
32816,23909,36248
32740,23887,36448
32636,23869,36333
32672,23852,36229
32600,23840,36388
32536,23844,36305
32500,23856,36202
32470,23881,36349
32468,23899,36183
32576,23909,36263
32648,23902,36159
32644,23888,36316
32628,23868,36215
32604,23842,36116
32556,23839,36308
32512,23840,36155
32496,23860,36205
32504,23878,36084
32552,23898,36269
32621,23903,36152
32592,23909,36056
32534,23889,36246
32496,23864,36143
32485,23845,36197
32500,23839,36145
32543,23844,36025
32584,23865,36144
32568,23881,36125
32533,23900,36017
32616,23908,36145
32676,23911,36096
32708,23884,36164
32772,23860,36098
32872,23849,36000
32896,23837,35992
32880,23845,35830
32836,23855,36088
32812,23887,35989
32840,23903,36041
32912,23907,36095
32996,23911,36004
33056,23887,35885
33176,23870,36103
33392,23844,36013
33590,23845,35934
33808,23849,35884
34040,23865,35983
34176,23880,35957
34437,23899,35924
34656,23909,35788
34880,23909,36001
35052,23895,35894
35164,23872,35815
35308,23864,35817
35644,23850,35786
35988,23864,35772
35980,23883,35847
35436,23903,35895
34664,23927,35793
33720,23936,35590
32904,23933,35846
32388,23917,35807
31928,23896,35684
31448,23872,35810
31240,23866,35775
31540,23873,35692
31960,23887,35728
32396,23904,35669
32720,23923,35692
32888,23929,35624
32932,23924,35665
32928,23904,35692
32880,23884,35765
32876,23871,35683
32800,23863,35567
32538,23865,35556
32404,23879,35426
32344,23904,35714
32472,23922,35645
32552,23927,35536
32596,23922,35556
32564,23908,35612
32552,23886,35614
32468,23866,35375
32493,23861,35489
32496,23860,35542
32589,23877,35548
32736,23900,35580
32801,23912,35357
32840,23929,35636
32808,23924,35508
32776,23897,35367
32800,23879,35622
32821,23863,35519
32760,23850,35293
32768,23860,35460
32736,23878,35412
32725,23902,35481
32705,23918,35532
32724,23920,35441
32798,23917,35253
32777,23903,35533
32760,23881,35368
32748,23865,35452
32744,23852,35282
32828,23863,35446
32965,23882,35375
33044,23898,35217
33094,23910,35477
33064,23925,35407
33084,23911,35253
33092,23898,35439
33093,23876,35382
33024,23861,35384
32996,23852,35219
33048,23856,35444
33136,23871,35361
33188,23897,35416
33276,23919,35304
33194,23926,35464
33144,23917,35440
33104,23901,35345
33076,23884,35202
33113,23866,35301
33160,23857,35359
33150,23863,35374
33212,23883,35380
33353,23897,35359
33372,23924,35244
33476,23925,35311
33500,23925,35335
33479,23896,35203
33412,23887,35370
33308,23868,35265
33336,23860,35104
33404,23868,35277
33457,23883,35232
33441,23904,35111
33400,23927,35167
33413,23938,34941
33408,23927,35208
33456,23908,34897
33500,23884,35102
33476,23868,34904
33456,23865,34951
33452,23864,34920
33462,23882,34962
33448,23908,34756
33484,23932,34988
33513,23938,34935
33508,23932,34789
33476,23916,34880
33460,23892,34645
33456,23877,34895
33376,23861,34785
33352,23881,34661
33396,23888,34686
33448,23914,34560
33436,23940,34711
33428,23943,34676
33392,23943,34526
33364,23919,34565
33338,23898,34392
33253,23881,34535
33220,23878,34534
33209,23880,34468
33152,23905,34476
33108,23921,34341
33080,23940,34357
32993,23944,34300
32876,23940,34368
32832,23927,34321
32868,23905,34100
32844,23894,34176
32792,23879,34119
32668,23893,34127
32592,23912,34017
32484,23930,34228
32448,23950,34122
32436,23959,34020
32448,23947,34069
32438,23933,33860
32460,23908,34007
32432,23894,33784
32380,23890,33996
32340,23891,33744
32172,23917,33913
32044,23940,33769
31992,23956,33616
31976,23967,33845
31952,23957,33759
31880,23943,33767
31796,23930,33703
31812,23906,33717
31805,23900,33614
31780,23895,33657
31832,23925,33572
31932,23947,33580
32028,23959,33524
32128,23969,33543
32216,23968,33468
32220,23944,33269
32124,23932,33454
32124,23909,33357
32192,23907,33216
32172,23911,33244
32116,23931,33132
32077,23949,33294
32080,23973,33209
32129,23983,33097
32152,23973,33214
32140,23959,33183
32096,23935,33116
32140,23919,33051
32148,23916,33133
32096,23919,32976
31985,23943,33054
31852,23964,32976
31804,23985,33063
31896,23985,32901
32028,23980,33081
32056,23967,33012
32124,23943,32936
32200,23933,32864
32192,23927,32768
32196,23932,32881
32116,23953,32805
32132,23974,32895
32212,23984,32846
32216,24005,32900
32173,23997,32788
32176,23980,32794
32124,23956,32852
32136,23940,32732
32184,23932,32876
32176,23943,32775
32172,23964,32655
32200,23981,32798
32240,24004,32767
32328,24007,32700
32520,23997,32743
32493,23988,32765
32444,23970,32801
32520,23947,32767
32604,23943,32662
32592,23951,32754
32472,23970,32601
32308,23988,32815
32396,24012,32770
32608,24027,32632
32736,24020,32665
32789,23999,32625
32772,23973,32797
32784,23958,32761
32772,23951,32620
32716,23967,32796
32624,23980,32657
32637,24004,32744
32652,24028,32604
32648,24037,32775
32644,24028,32705
32612,24008,32555
32688,23988,32772
32708,23976,32740
32688,23964,32732
32720,23983,32624
32711,23992,32565
32669,24023,32647
32632,24036,32732
32629,24045,32665
32600,24039,32519
32549,24029,32663
32597,24002,32621
32588,23994,32511
32552,23981,32693
32628,23993,32488
32628,24011,32676
32564,24033,32635
32560,24054,32476
32556,24061,32676
32480,24053,32493
32432,24044,32656
32452,24017,32615
32336,24013,32493
32340,24001,32591
32380,24006,32627
32401,24025,32505
32448,24053,32529
32479,24071,32441
32536,24079,32609
32576,24069,32593
32576,24061,32494
32576,24038,32576
32622,24011,32516
32678,24015,32549
32650,24027,32452
32700,24039,32507
32768,24063,32540
32813,24080,32409
32920,24096,32429
32858,24084,32358
32892,24071,32548
32952,24055,32442
32944,24029,32337
32910,24031,32544
32940,24047,32510
32906,24060,32359
32884,24080,32460
32964,24106,32512
33024,24111,32516
33012,24103,32500
32952,24089,32551
32856,24071,32508
32764,24057,32423
32812,24044,32485
32762,24054,32469
32760,24084,32496
32812,24101,32374
32804,24118,32444
32708,24124,32356
32637,24124,32462
32628,24117,32521
32689,24092,32542
32676,24071,32404
32684,24065,32548
32696,24076,32548
32700,24095,32405
32657,24121,32559
32564,24141,32532
32480,24148,32410
32405,24135,32605
32400,24120,32559
32472,24108,32431
32524,24084,32562
32552,24081,32543
32536,24103,32429
32508,24117,32491
32504,24135,32400
32542,24153,32454
32536,24159,32480
32556,24155,32390
32487,24140,32457
32428,24121,32564
32416,24108,32561
32464,24107,32407
32556,24106,32453
32584,24129,32393
32600,24151,32582
32708,24170,32475
32676,24178,32549
32660,24175,32391
32592,24154,32592
32500,24136,32507
32460,24126,32380
32564,24123,32552
32748,24122,32509
32885,24148,32360
32996,24174,32554
33096,24184,32466
33296,24196,32518
33540,24192,32326
33864,24172,32397
34160,24156,32496
34360,24136,32443
34508,24128,32326
34592,24145,32536
34684,24165,32389
34829,24195,32342
34884,24212,32461
34896,24228,32417
34840,24224,32327
34912,24204,32453
35086,24186,32346
35153,24182,32508
34780,24180,32476
34112,24185,32524
33288,24215,32479
32560,24239,32444
32016,24256,32373
31576,24258,32469
31097,24256,32450
30916,24231,32361
31180,24215,32459
31628,24204,32302
32034,24193,32459
32364,24199,32377
32652,24217,32430
32732,24236,32327
32741,24252,32463
32704,24267,32385
32621,24261,32238
32572,24245,32430
32584,24217,32401
32620,24205,32372
32692,24199,32407
32724,24215,32438
32704,24233,32232
32687,24247,32384
32736,24264,32244
32804,24276,32369
32813,24268,32349
32756,24256,32221
32686,24229,32397
32804,24227,32208
32948,24210,32375
32964,24228,32234
32920,24253,32297
32908,24269,32236
32796,24282,32420
32850,24293,32356
32821,24283,32219
32856,24271,32292
32800,24249,32244
32864,24236,32415
32904,24229,32359
32924,24233,32281
32980,24258,32343
33048,24279,32229
33068,24297,32274
33088,24305,32383
33060,24299,32232
33080,24284,32285
33133,24260,32213
33192,24249,32433
33184,24245,32309
33153,24250,32376
33069,24266,32420
33125,24295,32477
33105,24315,32428
33097,24320,32271
33153,24309,32463
33202,24296,32364
33184,24284,32312
33177,24262,32452
33204,24264,32412
33221,24268,32483
33266,24292,32322
33248,24314,32482
33272,24326,32446
33248,24333,32497
33324,24333,32335
33344,24315,32375
33408,24300,32556
33345,24283,32479
33140,24274,32509
33168,24284,32327
33304,24303,32447
33368,24330,32425
33412,24343,32452
33356,24353,32294
33408,24349,32489
33372,24329,32435
33356,24308,32429
33336,24295,32396
33270,24292,32279
33376,24303,32262
33392,24319,32190
33392,24349,32233
33404,24360,32224
33420,24370,32159
33452,24357,32332
33448,24345,32175
33550,24326,32084
33568,24314,32253
33550,24309,32136
33548,24310,32049
33588,24337,32236
33620,24358,32135
33652,24377,32165
33664,24387,32080
33624,24377,32071
33660,24358,31982
33632,24341,32149
33680,24330,32088
33630,24320,32036
33580,24327,32041
33548,24354,31892
33511,24371,32072
33504,24389,32002
33449,24399,31873
33381,24392,31998
33252,24376,31991
33208,24359,31868
33292,24338,31879
33296,24337,31965
33324,24348,31957
33288,24365,31883
33228,24391,31780
33204,24407,31933
33152,24412,31861
33084,24397,31890
33040,24389,31730
32984,24368,31908
32908,24359,31824
32876,24340,31677
32800,24354,31879
32660,24377,31829
32629,24397,31664
32540,24420,31756
32541,24417,31791
32548,24414,31636
32526,24399,31657
32492,24383,31744
32536,24364,31584
32616,24357,31751
32568,24369,31701
32568,24387,31604
32433,24413,31573
32288,24430,31548
32299,24431,31623
32340,24429,31599
32336,24410,31457
32313,24391,31636
32368,24380,31600
32428,24369,31438
32464,24380,31522
32428,24407,31482
32424,24421,31556
32368,24436,31389
32301,24445,31564
32316,24436,31444
32336,24416,31355
32328,24399,31381
32328,24384,31404
32320,24381,31433
32232,24385,31470
32174,24412,31302
32224,24430,31360
32244,24447,31272
32212,24455,31430
32152,24439,31421
32112,24431,31308
32056,24409,31332
32108,24388,31369
32116,24385,31388
32112,24391,31224
32048,24417,31398
32056,24441,31345
32109,24460,31209
32161,24462,31300
32224,24454,31335
32256,24435,31256
32316,24412,31284
32396,24400,31143
32404,24391,31207
32324,24399,31135
32262,24417,31313
32286,24440,31229
32428,24457,31127
32512,24469,31303
32604,24461,31268
32629,24447,31148
32660,24420,31160
32624,24407,31121
32572,24398,31290
32530,24406,31225
32556,24429,31111
32560,24447,31285
32564,24465,31239
32588,24473,31077
32548,24467,31263
32544,24452,31204
32597,24432,31064
32576,24409,31137
32564,24404,31105
32576,24413,31187
32620,24436,31108
32664,24452,31064
32700,24470,31156
32748,24481,31016
32788,24477,31042
32792,24444,31127
32780,24431,31138
32796,24412,30965
32752,24411,31073
32660,24420,31019
32540,24438,30908
32480,24459,30985
32492,24474,30972
32468,24485,30860
32520,24470,30972
32544,24454,30908
32588,24431,30980
32597,24417,30801
32504,24413,30862
32432,24421,30776
32388,24439,30852
32352,24461,30752
32348,24481,30792
32380,24484,30768
32392,24476,30721
32481,24460,30820
32492,24438,30738
32506,24421,30833
32520,24414,30662
32468,24423,30764
32508,24436,30646
32464,24465,30809
32382,24484,30732
32332,24489,30635
32396,24478,30743
32452,24461,30717
32456,24433,30590
32556,24423,30639
32528,24417,30569
32484,24428,30711
32480,24445,30664
32380,24469,30532
32404,24484,30592
32485,24484,30526
32477,24482,30625
32382,24458,30516
32385,24444,30676
32433,24424,30649
32480,24420,30630
32488,24429,30625
32508,24445,30648
32589,24469,30612
32610,24484,30471
32628,24491,30584
32644,24480,30489
32612,24461,30655
32604,24437,30628
32581,24421,30653
32676,24419,30609
32732,24431,30480
32816,24438,30672
32864,24461,30661
32948,24483,30508
32984,24491,30628
32970,24484,30708
32976,24455,30727
32908,24436,30716
32801,24420,30605
32768,24419,30762
32708,24428,30823
32596,24447,30703
32608,24475,30897
32641,24486,30881
32668,24492,30973
32688,24479,30857
32740,24456,31073
32776,24439,31032
32794,24421,31035
32736,24417,31280
32720,24431,31272
32644,24447,31397
32608,24462,31317
32592,24481,31495
32740,24484,31538
32788,24477,31574
32736,24452,31836
32780,24438,31908
32824,24419,31905
32762,24421,32024
32728,24420,32176
32692,24446,32384
32687,24461,32407
32668,24478,32564
32668,24481,32621
32684,24472,32967
32732,24455,33056
32724,24433,33063
32716,24423,33420
32648,24409,33558
32620,24421,33584
32572,24439,33943
32502,24461,33948
32516,24479,34022
32576,24487,34403
32617,24471,34469
32696,24455,34527
32751,24436,34991
32736,24414,35100
32728,24407,35176
32732,24423,35360
32681,24432,35406
32544,24460,35902
32484,24473,35928
32472,24477,35932
32372,24468,36359
32360,24446,36487
32406,24425,36460
32489,24405,36876
32560,24408,36949
32580,24413,36996
32573,24430,37473
32620,24453,37535
32576,24471,37796
32559,24471,37857
32584,24465,37969
32624,24438,38063
32676,24421,38020
32806,24404,38418
32912,24399,38490
33112,24413,38428
33302,24428,38951
33700,24449,38960
34004,24469,39220
34220,24477,39228
34264,24460,39280
34204,24444,39408
34240,24421,39573
34284,24405,39621
34492,24404,39740
34488,24415,39806
34336,24430,39886
34280,24462,39916
34272,24478,40335
34232,24484,40257
34032,24470,40301
33458,24460,40528
32792,24437,40564
31956,24420,40548
31301,24420,40852
30964,24424,40804
30729,24450,40804
30680,24462,40869
30956,24480,40711
31437,24481,41206
32016,24469,41164
32402,24451,41129
32700,24425,41340
32984,24405,41333
33028,24405,41121
33104,24415,41455
33020,24429,41476
32976,24449,41444
33101,24463,41715
33016,24466,41604
33120,24458,41540
33132,24439,41660
33092,24415,41681
33180,24396,41759
33240,24397,41718
33296,24397,41622
33344,24420,41637
33364,24434,41735
33304,24461,41673
33208,24465,41607
33264,24446,41351
33228,24433,41812
33156,24411,41557
33230,24390,41294
33230,24384,41665
33192,24388,41567
33176,24415,41465
33096,24436,41447
33057,24447,41168
33032,24455,41599
33000,24441,41426
33101,24425,41500
33116,24402,41340
33136,24383,41314
33176,24385,41192
33236,24388,40896
33264,24415,41040
33184,24423,41024
33252,24439,40965
33367,24447,40660
33452,24432,40966
33464,24418,40536
33433,24393,40928
33471,24376,40776
33446,24370,40703
33429,24375,40637
33368,24402,40624
33388,24418,40520
33348,24434,40503
33361,24444,40392
33336,24425,40090
33313,24415,40460
33300,24385,40282
33248,24367,40041
33252,24366,40327
33302,24375,40148
33364,24393,40028
33396,24413,39953
33404,24429,40033
33360,24421,39957
33376,24417,40006
33284,24404,39832
33249,24380,39911
33356,24364,39736
33407,24359,39604
33400,24369,39644
33336,24384,39566
33264,24419,39421
33360,24423,39335
33448,24421,39412
33476,24421,39397
33477,24392,39268
33424,24372,39153
33414,24365,39078
33332,24351,38838
33333,24361,39073
33316,24383,39000
33296,24397,38919
33340,24419,38812
33276,24422,38801
33236,24417,38756
33272,24388,38693
33284,24372,38605
33268,24356,38585
33208,24355,38548
33232,24361,38383
33273,24376,38342
33398,24398,38316
33437,24409,38195
33448,24416,38156
33464,24404,38196
33484,24386,37800
33456,24357,37917
33432,24344,37855
33420,24343,37820
33428,24353,37733
33396,24372,37570
33360,24391,37588
33312,24404,37573
33312,24410,37383
33352,24405,37212
33368,24379,37177
33350,24356,37159
33236,24340,37156
33084,24332,36832
32996,24349,36844
32772,24362,36740
32645,24383,36693
32557,24398,36501
32509,24403,36424
32468,24397,36231
32408,24372,36273
32364,24348,36149
32328,24335,36092
32304,24327,36052
32272,24340,35943
32296,24356,35663
32308,24379,35804
32297,24395,35621
32258,24403,35457
32232,24389,35513
32192,24363,35324
32128,24345,35282
32088,24329,35154
32172,24317,35156
32280,24329,34975
32352,24347,34980
32356,24367,34788
32308,24384,34750
32303,24391,34728
32292,24372,34707
32220,24364,34524
32209,24333,34487
32204,24315,34139
32232,24315,34311
32288,24318,34145
32336,24348,33933
32444,24359,33926
32501,24376,33847
32429,24386,33764
32388,24368,33462
32432,24349,33580
32472,24324,33438
32472,24309,33216
32440,24301,33145
32380,24313,32951
32388,24327,33044
32404,24355,32884
32472,24368,32610
32524,24368,32661
32556,24364,32405
32608,24348,32425
32628,24315,32140
32644,24298,32135
32700,24303,31916
32764,24309,31852
32800,24327,31678
32804,24351,31724
32749,24357,31552
32690,24374,31332
32680,24361,31349
32708,24343,31140
32712,24313,31125
32716,24300,30893
32716,24295,30848
32724,24293,30695
32720,24321,30737
32692,24341,30652
32663,24356,30561
32676,24353,30500
32716,24353,30241
32768,24337,30213
32804,24309,30079
32856,24288,30053
32805,24293,29922
32744,24300,29939
32662,24317,29831
32664,24333,29784
32640,24348,29642
32638,24359,29645
32636,24341,29598
32680,24324,29487
32672,24303,29479
32676,24286,29487
32688,24279,29440
32704,24291,29407
32708,24310,29340
32680,24325,29311
32588,24349,29141
32528,24350,29214
32568,24335,29053
32588,24312,29114
32596,24290,29056
32620,24276,28932
32624,24269,28983
32616,24287,28951
32552,24301,28900
32510,24321,28846
32500,24336,28831
32500,24344,28769
32536,24327,28655
32612,24308,28738
32644,24292,28715
32712,24271,28675
32728,24265,28666
32684,24273,28645
32668,24297,28617
32672,24315,28617
32716,24328,28597
32776,24338,28575
32821,24320,28569
32808,24307,28480
32782,24281,28549
32796,24265,28449
32797,24262,28496
32704,24276,28407
32584,24287,28556
32480,24308,28557
32480,24327,28549
32612,24335,28578
32632,24316,28580
32604,24295,28586
32500,24270,28528
32402,24256,28604
32356,24254,28525
32424,24265,28656
32432,24276,28692
32476,24300,28614
32484,24319,28740
32484,24321,28751
32404,24310,28796
32384,24293,28731
32404,24265,28790
32413,24255,28854
32416,24245,28759
32428,24263,28889
32408,24278,29018
32532,24295,28940
32586,24312,29121
32616,24323,29186
32672,24303,29095
32592,24284,29257
32468,24260,29244
32432,24247,29429
32449,24239,29519
32432,24253,29413
32432,24263,29607
32376,24285,29700
32336,24306,29789
32380,24309,29876
32452,24302,29927
32584,24273,30020
32656,24252,29932
32704,24242,30080
32796,24235,30087
32793,24240,30256
32884,24263,30404
32940,24284,30503
32920,24296,30556
32836,24299,30592
32808,24295,30732
32864,24264,30692
32932,24251,30789
33020,24231,30804
33060,24235,31072
33032,24239,31048
33029,24253,31071
33054,24274,31295
33004,24293,31206
32917,24295,31476
32821,24286,31389
32780,24261,31525
32748,24247,31544
32777,24228,31823
32774,24215,31734
32780,24231,31960
32784,24246,32046
32816,24270,32107
32876,24288,32129
32844,24289,32129
32748,24277,32364
32672,24257,32469
32568,24238,32527
32476,24221,32629
32480,24217,32616
32557,24224,32701
32572,24236,32880
32608,24268,32819
32668,24279,33090
32693,24289,33053
32720,24272,33216
32702,24242,33137
32652,24232,33287
32548,24217,33452
32440,24214,33549
32365,24227,33602
32328,24233,33586
32332,24255,33671
32332,24274,33645
32382,24276,33926
32372,24260,33956
32400,24247,33858
32348,24225,34104
32360,24214,34181
32332,24205,34157
32350,24206,34361
32348,24230,34421
32394,24245,34404
32460,24265,34463
32520,24272,34415
32532,24260,34604
32612,24235,34804
32641,24215,34797
32668,24205,34733
32712,24196,34956
32744,24205,34977
32832,24228,34868
32872,24247,35087
32940,24256,34952
33168,24266,35302
33504,24250,35276
33833,24228,35293
34120,24205,35385
34408,24188,35292
34652,24181,35620
34752,24196,35596
34876,24213,35649
35072,24239,35714
35136,24254,35672
35297,24260,35770
35352,24255,35725
35468,24242,36071
35748,24225,36044
35944,24207,35956
35832,24199,36260
35320,24221,36261
34680,24236,36225
33717,24263,36312
32876,24275,36469
32120,24279,36593
31498,24271,36628
31094,24246,36676
30966,24225,36674
31204,24199,36596
31620,24204,36998
31972,24208,36953
32229,24226,37058
32452,24247,37064
32604,24261,37119
32732,24260,37068
32764,24245,37397
32765,24225,37410
32756,24204,37407
32750,24191,37541
32792,24183,37373
32842,24192,37746
32824,24213,37789
32813,24228,37852
32788,24242,37890
32750,24247,37729
32700,24236,38141
32746,24220,38055
32712,24192,38221
32748,24175,38265
32802,24167,38247
32906,24179,38148
32852,24199,38588
32824,24224,38565
32852,24231,38503
32784,24243,38788
32748,24222,38734
32805,24199,38759
32844,24182,39017
32848,24166,38924
32872,24156,38769
32880,24180,39145
32880,24188,39157
32845,24207,39143
32812,24227,39257
32784,24230,39399
32752,24216,39482
32752,24194,39504
32780,24172,39510
32790,24157,39559
32724,24159,39626
32692,24165,39808
32736,24185,39856
32793,24204,40069
32789,24212,40024
32856,24212,40052
32840,24206,40052
32804,24185,40228
32800,24159,40301
32828,24145,40261
32808,24143,40450
32772,24154,40521
32805,24169,40504
32790,24191,40649
32784,24205,40668
32760,24214,40695
32736,24205,40855
32748,24181,40877
32756,24161,40868
32824,24137,40957
32880,24130,41007
32892,24146,41016
32888,24165,41196
32925,24185,41151
32974,24198,41263
32977,24199,41343
33020,24196,41388
33056,24166,41220
33028,24151,41743
33056,24134,41719
33129,24132,41828
33196,24141,41776
33286,24158,41903
33340,24186,41989
33360,24198,41948
33296,24193,42152
33180,24184,42237
33180,24165,42352
33300,24143,42376
33392,24133,42136
33488,24122,42631
33565,24135,42625
33560,24152,42397
33520,24166,42788
33512,24189,42758
33536,24190,42988
33540,24177,42748
33540,24156,43132
33508,24135,43232
33512,24117,43124
33564,24118,43357
33540,24124,43383
33536,24147,43541
33472,24165,43285
33466,24175,43556
33432,24177,43636
33376,24170,43675
33338,24154,43541
33276,24128,43844
33124,24117,43884
33128,24105,44032
33144,24132,43761
33164,24139,44004
33088,24164,44012
33020,24175,44212
32956,24177,44149
32893,24164,44254
32864,24138,44310
32824,24119,44068
32672,24105,44359
32554,24101,44358
32436,24117,44145
32388,24139,44455
32376,24161,44420
32340,24170,44551
32380,24167,44321
32348,24157,44561
32341,24134,44540
32360,24116,44660
32365,24101,44385
32396,24100,44528
32372,24109,44516
32352,24125,44600
32352,24148,44775
32352,24161,44716
32392,24160,44556
32412,24146,44832
32416,24128,44807
32390,24104,44933
32310,24092,44695
32284,24087,44924
32244,24100,44901
32225,24120,44972
32224,24136,45063
32252,24160,44872
32252,24154,45085
32248,24132,45063
32252,24123,45152
32248,24097,45017
32248,24085,45191
32216,24079,45185
32241,24082,45308
32260,24103,45056
32300,24125,45303
32420,24140,45336
32480,24155,45396
32472,24137,45199
32440,24105,45453
32412,24095,45432
32360,24079,45518
32344,24071,45516
32304,24079,45479
32244,24100,45607
32260,24118,45376
32324,24139,45620
32352,24133,45638
32440,24121,45757
32484,24100,45662
32448,24082,45720
32398,24069,45844
32420,24063,45876
32432,24069,45885
32492,24088,45693
32532,24101,45959
32604,24129,45958
32580,24127,45799
32553,24111,46175
32544,24093,46152
32596,24064,45952
32640,24060,46301
32652,24047,46364
32624,24061,46223
32604,24076,46412
32544,24102,46517
32556,24114,46548
32616,24119,46388
32524,24105,46660
32449,24081,46736
32400,24062,46756
32368,24047,46855
32320,24044,46942
32328,24057,46984
32336,24070,46925
32336,24092,47061
32428,24111,47161
32520,24106,47212
32576,24099,47263
32560,24071,47076
32676,24055,47348
32708,24038,47344
32800,24039,47476
32808,24045,47302
32740,24066,47544
32768,24086,47589
32644,24103,47716
32464,24105,47428
32372,24088,47807
32360,24068,47817
32408,24041,47924
32472,24030,47852
32432,24031,48017
32444,24037,48049
32504,24055,48068
32520,24071,48072
32524,24084,48224
32516,24085,48135
32528,24076,48284
32532,24061,48336
32512,24037,48250
32508,24019,48390
32488,24013,48338
32496,24030,48455
32541,24046,48340
32570,24070,48500
32532,24079,48440
32448,24085,48534
32394,24065,48188
32388,24052,48524
32348,24029,48577
32341,24009,48583
32344,24007,48588
32326,24017,48484
32356,24043,48621
32412,24062,48588
32396,24071,48640
32392,24076,48526
32364,24066,48628
32298,24044,48622
32256,24019,48384
32240,24004,48612
32316,23996,48604
32358,24012,48628
32428,24028,48558
32517,24048,48589
32532,24071,48597
32468,24063,48476
32420,24056,48576
32360,24033,48536
32296,24012,48263
32224,23999,48504
32264,23993,48409
32236,24001,48485
32216,24025,48421
32228,24042,48367
32224,24060,48372
32246,24063,48358
32264,24045,48301
32272,24031,48245
32288,24005,48109
32296,23990,48239
32332,23989,48222
32365,23992,48125
32456,24009,48039
32540,24031,47773
32588,24044,48044
32624,24055,47935
32604,24037,47990
32536,24014,47832
32449,23995,47828
32401,23981,47668
32444,23981,47822
32526,23993,47684
32525,24005,47401
