ECG,EDA,RR
32636,20756,26332
32624,20746,26276
32580,20758,26248
32500,20784,26283
32452,20785,26364
32396,20807,26213
32372,20814,26375
32396,20805,26327
32437,20803,26380
32480,20782,26223
32460,20788,26308
32433,20785,26396
32449,20783,26353
32512,20809,26398
32560,20821,26408
32600,20841,26276
32636,20849,26368
32688,20836,26367
32712,20839,26436
32740,20821,26287
32708,20806,26465
32744,20813,26375
32768,20835,26372
32708,20845,26292
32580,20867,26493
32484,20882,26420
32488,20885,26361
32480,20885,26313
32444,20859,26397
32488,20855,26501
32486,20845,26464
32536,20847,26448
32604,20858,26359
32677,20885,26460
32768,20894,26445
32985,20912,26523
33236,20903,26359
33552,20905,26429
33852,20900,26528
34088,20871,26437
34256,20869,26436
34455,20876,26462
34736,20881,26496
35064,20902,26522
35360,20927,26384
35576,20953,26460
35808,20951,26557
36088,20952,26422
36480,20955,26383
36660,20933,26580
36168,20920,26550
35280,20931,26441
34200,20941,26592
33116,20966,26550
32372,20973,26476
31840,20991,26462
31316,20999,26581
30996,20998,26554
31180,20969,26490
31608,20958,26472
32068,20951,26616
32448,20957,26574
32708,20956,26605
32812,20977,26471
32924,20993,26469
32984,21007,26551
32981,21017,26601
32893,20999,26441
32829,20987,26561
32740,20980,26515
32704,20965,26452
32676,20973,26570
32688,20979,26627
32756,21005,26503
32788,21025,26595
32832,21029,26535
32849,21041,26633
32898,21036,26567
32940,21012,26631
32997,20999,26497
33020,20985,26458
33036,20994,26669
33088,20999,26615
33096,21024,26645
33080,21030,26484
33020,21055,26660
32952,21068,26614
32925,21044,26653
32956,21049,26492
32992,21021,26680
33028,21017,26604
33064,21007,26559
33076,21025,26498
33060,21039,26685
33017,21063,26656
32980,21069,26695
32960,21084,26557
32936,21069,26536
32961,21063,26663
32924,21036,26759
32933,21038,26669
32904,21036,26768
32862,21050,26637
32789,21071,26777
32752,21083,26796
32776,21104,26839
32816,21103,26722
32857,21087,26730
32820,21085,26806
32797,21057,26890
32793,21061,26789
32824,21068,26913
32820,21069,26919
32796,21095,26935
32805,21117,26980
32868,21114,27009
32932,21124,27015
32914,21106,27051
32956,21096,26935
32992,21095,26900
33044,21084,27039
33100,21088,27073
33092,21087,27106
33060,21108,26941
33040,21130,27063
33020,21135,27120
33000,21143,27033
32941,21125,26982
32888,21121,27097
32892,21101,27168
32924,21101,27104
32989,21093,27105
33126,21106,27057
33200,21143,27155
33252,21144,27013
33308,21161,27004
33372,21152,27167
33376,21151,27042
33416,21130,27109
33420,21122,27127
33432,21111,27124
33516,21114,27031
33584,21132,27032
33556,21141,27037
33549,21167,27108
33552,21173,26956
33564,21186,27102
33516,21162,27013
33480,21155,27088
33405,21133,26996
33381,21127,26978
33384,21139,27111
33348,21135,27057
33320,21157,27071
33292,21173,26973
33308,21184,26908
33320,21188,27029
33312,21182,26922
33244,21160,27024
33161,21161,26988
33080,21140,27047
32972,21157,26933
32916,21159,26965
32848,21167,26948
32804,21193,27037
32796,21206,26861
32824,21209,27061
32844,21193,27011
32800,21184,26978
32815,21163,26924
32788,21153,26845
32728,21156,27021
32640,21166,27005
32556,21185,26869
32495,21196,26973
32436,21215,26956
32436,21209,26985
32480,21207,26829
32504,21190,26903
32532,21185,26924
32564,21159,26837
32592,21172,26885
32608,21180,26868
32596,21196,26932
32588,21209,26772
32624,21223,26921
32636,21229,26871
32676,21202,26769
32676,21193,26891
32670,21175,26838
32664,21177,26727
32662,21175,26772
32648,21174,26745
32608,21211,26822
32600,21223,26660
32640,21220,26816
32608,21225,26726
32564,21223,26774
32516,21194,26603
32452,21190,26780
32436,21191,26669
32440,21180,26741
32432,21190,26730
32464,21205,26684
32528,21239,26628
32532,21243,26549
32548,21232,26710
32596,21214,26637
32544,21199,26662
32484,21194,26589
32442,21184,26612
32372,21192,26575
32352,21189,26653
32389,21208,26548
32456,21218,26473
32484,21237,26653
32549,21234,26609
32584,21223,26511
32644,21206,26436
32716,21187,26628
32745,21187,26534
32729,21182,26597
32736,21202,26452
32740,21216,26577
32836,21220,26487
32942,21232,26565
32964,21241,26400
32944,21221,26553
32901,21212,26524
32876,21183,26548
32852,21188,26388
32792,21197,26398
32777,21199,26540
32756,21228,26455
32728,21228,26521
32720,21254,26516
32744,21247,26524
32768,21248,26394
32812,21220,26372
32777,21208,26487
32784,21190,26514
32756,21190,26510
32732,21209,26471
32692,21217,26441
32632,21238,26505
32600,21238,26507
32620,21249,26505
32576,21231,26508
32540,21216,26329
32481,21205,26482
32480,21191,26400
32536,21196,26399
32564,21213,26331
32580,21231,26284
32536,21241,26360
32496,21241,26449
32532,21244,26439
32544,21237,26372
32512,21215,26309
32500,21202,26349
32480,21191,26356
32476,21199,26220
32500,21201,26194
32536,21227,26328
32492,21236,26213
32508,21248,26240
32500,21263,26260
32524,21243,26244
32560,21214,26124
32622,21205,26053
32640,21188,26012
32652,21193,26039
32716,21216,26137
32791,21223,26133
32704,21237,26039
32692,21246,26100
32736,21241,25928
32801,21234,26091
32844,21214,25968
32872,21198,26033
32833,21196,25934
32800,21191,25841
32748,21221,25999
32748,21217,25799
32704,21247,25904
32660,21247,25919
32638,21245,25884
32612,21226,25887
32612,21219,25912
32608,21202,25899
32626,21195,25901
32596,21193,25820
32620,21211,25774
32608,21220,25769
32616,21239,25726
32600,21253,25718
32596,21238,25693
32564,21230,25671
32556,21225,25842
32557,21200,25742
32608,21199,25804
32684,21189,25804
32756,21207,25677
32764,21218,25732
32736,21239,25722
32628,21244,25779
32609,21239,25648
32596,21234,25676
32548,21215,25746
32540,21207,25749
32396,21191,25677
32444,21197,25653
32416,21200,25711
32368,21223,25710
32372,21234,25620
32321,21251,25540
32420,21249,25552
32458,21223,25669
32560,21218,25574
32556,21209,25644
32348,21196,25529
32413,21193,25640
32416,21207,25614
32552,21220,25555
32625,21244,25575
32680,21239,25604
32612,21241,25521
32545,21252,25486
32593,21220,25414
32672,21192,25434
32748,21192,25436
32744,21186,25409
32724,21207,25457
32736,21219,25557
32696,21244,25508
32652,21247,25561
32605,21242,25575
32544,21237,25497
32600,21204,25429
32512,21197,25510
32492,21191,25575
32404,21193,25474
32396,21199,25528
32328,21221,25412
32372,21232,25415
32346,21249,25363
32332,21237,25534
32404,21231,25457
32504,21220,25495
32556,21195,25369
32616,21189,25313
32680,21188,25333
32736,21207,25366
32772,21220,25417
32796,21224,25289
32792,21237,25253
32804,21231,25390
32961,21228,25348
32960,21197,25271
33048,21198,25223
33040,21189,25165
32992,21181,25284
32908,21209,25185
32868,21223,25176
32796,21230,25181
32919,21231,25193
32958,21241,25060
32932,21212,24979
32881,21204,25151
32932,21194,25069
32892,21178,25048
33104,21188,25065
33436,21199,25041
33768,21201,25024
34004,21225,24900
34192,21225,24826
34332,21238,24791
34448,21223,24768
34612,21196,24809
34776,21198,24906
34936,21192,24835
35056,21185,24845
35180,21201,24685
35364,21216,24628
35568,21237,24788
35644,21260,24710
35116,21251,24714
34280,21241,24524
33300,21220,24567
32396,21214,24490
31772,21199,24532
31305,21213,24549
30768,21219,24524
30633,21229,24447
30968,21244,24367
31532,21260,24276
32073,21245,24236
32517,21234,24212
32808,21208,24233
33032,21204,24271
33140,21180,24220
33244,21195,24156
33256,21201,24105
33206,21221,24085
33128,21223,24100
33092,21237,24060
33014,21226,23969
32941,21228,23940
32889,21196,23867
32892,21193,23837
32864,21193,23804
32800,21188,23734
32788,21199,23686
32805,21217,23592
32876,21226,23629
32892,21234,23669
32928,21220,23630
32960,21219,23484
32989,21193,23383
33068,21180,23484
33173,21169,23431
33252,21172,23377
33336,21189,23351
33424,21209,23335
33408,21228,23236
33428,21239,23098
33420,21224,23193
33356,21212,23175
33276,21192,23130
33252,21173,23089
33189,21183,23063
33273,21172,23018
33304,21174,23012
33260,21199,22982
33252,21212,22946
33213,21225,22936
33220,21231,22912
33236,21217,22898
33237,21188,22798
33236,21184,22695
33204,21167,22828
33220,21175,22755
33192,21180,22759
33120,21199,22745
33176,21204,22737
33284,21223,22720
33352,21215,22706
33412,21207,22684
33346,21180,22625
33312,21170,22514
33236,21160,22557
33108,21169,22471
33000,21173,22532
32948,21191,22581
32937,21203,22520
32904,21215,22476
33044,21207,22494
33120,21212,22480
33140,21189,22308
33220,21167,22436
33272,21170,22378
33296,21169,22380
33336,21169,22318
33328,21191,22214
33348,21194,22186
33308,21212,22304
33256,21219,22267
33264,21195,22242
33356,21182,22247
33352,21157,22233
33408,21163,22200
33436,21155,22193
33400,21172,22167
33406,21183,22113
33360,21213,22117
33360,21211,22100
33456,21225,22081
33422,21197,22087
33377,21186,21999
33401,21157,21922
33480,21157,21955
33549,21153,22011
33598,21170,22013
33601,21196,21972
33585,21196,21975
33552,21212,21981
33544,21215,21890
33516,21188,21845
33508,21192,21967
33508,21173,21951
33553,21161,21857
33504,21153,21836
33416,21183,21912
33412,21182,21922
33424,21217,21924
33424,21210,21878
33332,21216,21860
33189,21196,21863
33040,21179,21902
33004,21172,21899
32964,21157,21842
32924,21150,21806
32888,21170,21776
32892,21181,21879
32829,21201,21853
32718,21201,21825
32680,21201,21844
32677,21188,21745
32628,21184,21710
32560,21164,21832
32508,21161,21785
32460,21156,21803
32452,21174,21745
32424,21181,21668
32416,21203,21765
32348,21209,21784
32336,21207,21732
32336,21198,21738
32324,21181,21750
32212,21152,21621
32244,21156,21700
32192,21149,21740
32064,21167,21707
31984,21173,21689
31892,21189,21609
31870,21209,21710
31864,21207,21697
31860,21183,21698
31852,21173,21653
31836,21157,21639
31872,21145,21565
31928,21144,21583
31972,21156,21633
31996,21168,21655
32013,21184,21670
32072,21193,21688
32073,21192,21660
31988,21199,21679
31922,21173,21686
31836,21159,21634
31840,21138,21574
31818,21149,21656
31912,21167,21693
32056,21179,21682
32140,21188,21678
32226,21189,21656
32337,21186,21577
32348,21176,21588
32402,21164,21599
32464,21145,21717
32468,21138,21677
32380,21156,21713
32392,21151,21599
32380,21169,21699
32429,21186,21730
32448,21191,21729
32464,21192,21639
32417,21164,21729
32425,21160,21716
32344,21143,21753
32352,21142,21720
32292,21137,21702
32330,21155,21689
32468,21159,21773
32513,21179,21663
32660,21193,21804
32864,21173,21780
32929,21172,21804
32904,21152,21777
32876,21142,21693
32870,21125,21777
32860,21139,21806
32902,21161,21845
32912,21163,21732
32830,21176,21861
32816,21196,21841
32836,21178,21868
32796,21180,21825
32748,21153,21759
32720,21143,21874
32664,21127,21876
32628,21148,21864
32620,21139,21911
32608,21159,21872
32581,21175,21836
32612,21184,21794
32672,21188,21929
32696,21164,21905
32656,21151,21939
32680,21136,21883
32660,21132,21908
32621,21129,21956
32624,21144,21919
32677,21152,21837
32797,21186,21854
32804,21188,21989
32868,21178,21936
32868,21177,21972
32930,21157,21983
32932,21142,21869
32856,21120,21908
32817,21139,21957
32813,21151,21988
32780,21159,21996
32784,21180,21997
32820,21180,21957
32876,21178,21913
32940,21160,21871
32920,21153,21974
32840,21127,21974
32860,21124,21988
32724,21130,22007
32660,21129,21968
32697,21156,21931
32708,21185,21877
32632,21180,21916
32705,21180,22037
32800,21187,21986
32888,21143,21893
32916,21139,21936
32964,21122,22044
32980,21126,22021
32900,21135,22009
32856,21157,22023
32788,21169,22036
32681,21180,22049
32706,21178,22003
32677,21148,21933
32692,21149,22059
32712,21148,22072
32701,21121,22061
32676,21127,22039
32636,21135,21966
32671,21160,21972
32728,21162,22109
32692,21176,22062
32704,21177,22080
32692,21172,22111
32772,21142,22044
32800,21136,21982
32764,21119,22121
32776,21133,22101
32800,21138,22110
32836,21159,22031
32888,21165,22132
32964,21183,22094
32976,21168,22126
32944,21167,22000
32992,21149,22036
32992,21135,22140
33020,21119,22117
33068,21143,22129
33088,21140,22139
33056,21149,22153
33044,21166,22076
33008,21173,22029
32928,21181,22167
32980,21155,22134
33040,21158,22158
32932,21135,22181
32884,21114,22096
32856,21126,22183
32904,21133,22185
32877,21156,22170
32866,21180,22129
32856,21173,22224
32916,21183,22189
32924,21168,22230
32912,21136,22206
32850,21127,22142
32824,21119,22284
32772,21132,22245
32676,21138,22293
32800,21153,22213
32860,21164,22255
32861,21183,22285
32860,21177,22340
32868,21156,22358
32932,21145,22268
32916,21126,22268
32852,21130,22398
32877,21127,22358
32868,21133,22407
32828,21148,22375
32824,21161,22337
32764,21168,22369
32760,21175,22432
32692,21159,22452
32688,21151,22500
32673,21132,22413
32748,21117,22501
32788,21121,22513
32740,21136,22564
32660,21157,22460
32688,21164,22489
32744,21179,22575
32752,21180,22516
32752,21165,22508
32724,21140,22685
32800,21135,22660
32708,21115,22711
32689,21127,22688
32704,21129,22598
32728,21152,22750
32768,21160,22746
32800,21169,22808
32900,21164,22723
33012,21153,22740
33204,21151,22857
33472,21127,22887
33632,21128,22832
33873,21121,22780
34132,21122,22815
34232,21154,22881
34276,21174,22984
34352,21166,22976
34372,21181,23033
34528,21169,22933
34764,21152,23060
34908,21135,23077
35156,21136,23127
35392,21131,23068
35564,21149,23037
35440,21164,23068
34828,21188,23187
33936,21197,23236
32876,21182,23134
32048,21185,23253
31580,21164,23276
31240,21153,23298
30884,21135,23354
30848,21146,23264
31256,21149,23385
31744,21172,23369
32069,21171,23420
32472,21176,23447
32624,21184,23452
32720,21180,23490
32808,21145,23540
32780,21149,23418
32727,21128,23589
32777,21127,23580
32864,21140,23617
32736,21158,23670
32850,21175,23567
32877,21186,23709
32897,21167,23719
32850,21171,23756
32882,21145,23722
32925,21133,23832
33020,21117,23791
33076,21119,23819
33056,21149,23780
33064,21159,23856
33216,21170,23942
33236,21170,23838
33209,21169,23901
33120,21156,23983
33008,21135,23917
32977,21124,23876
32940,21123,23993
33014,21117,24037
32980,21141,23872
32896,21149,24049
32796,21153,24009
32806,21164,24078
32892,21164,23924
32960,21150,24017
33042,21141,24047
33017,21129,24116
32860,21108,24016
32796,21123,24155
32812,21127,24146
32888,21150,24044
32956,21156,24125
33100,21172,24215
33028,21165,24192
33136,21145,24254
33240,21138,24193
33236,21116,24184
33230,21111,24238
33176,21126,24300
33148,21124,24358
33156,21149,24205
33124,21161,24412
33092,21153,24361
33162,21160,24416
33180,21146,24422
33121,21125,24380
33120,21118,24423
32992,21121,24504
32870,21109,24444
32908,21129,24408
32940,21135,24420
32932,21154,24580
32876,21157,24522
32932,21172,24564
33005,21149,24608
33076,21125,24524
32976,21124,24492
33004,21103,24578
33016,21113,24549
32980,21126,24626
32992,21137,24532
33024,21157,24474
33056,21169,24585
33044,21157,24616
33064,21149,24550
33044,21126,24486
33052,21112,24550
33024,21111,24628
33044,21103,24540
33037,21125,24439
33088,21127,24577
33164,21159,24583
33158,21152,24520
33180,21157,24564
33186,21145,24468
33248,21127,24444
33340,21122,24564
33396,21103,24468
33380,21109,24530
33326,21121,24526
33301,21144,24417
33261,21150,24355
33188,21168,24367
33224,21176,24476
33237,21154,24437
33256,21127,24409
33216,21125,24420
33124,21116,24348
33036,21111,24329
33016,21127,24407
32900,21151,24329
32820,21160,24377
32816,21167,24252
32836,21156,24258
32848,21164,24294
32765,21130,24334
32704,21121,24260
32592,21103,24294
32628,21116,24110
32540,21125,24209
32496,21138,24197
32516,21151,24232
32489,21169,24069
32468,21165,24188
32332,21149,24140
32380,21132,24178
32238,21108,24109
32244,21108,24033
32076,21121,24164
32084,21127,23977
32020,21135,24039
32005,21163,24104
32020,21168,24076
32072,21153,24001
32068,21146,24037
32052,21137,23940
31920,21109,23844
31832,21111,23996
31876,21118,23957
31816,21129,23849
31844,21151,23872
31837,21156,23872
31847,21168,23872
31900,21159,23734
31932,21154,23862
31945,21141,23833
31910,21116,23677
31912,21118,23769
31908,21112,23705
31908,21138,23726
31904,21154,23634
31905,21159,23515
31973,21164,23643
31944,21172,23620
31913,21147,23444
31961,21132,23585
31972,21117,23510
32012,21117,23518
31984,21113,23425
31940,21133,23469
31936,21156,23385
31912,21162,23404
31845,21175,23328
31884,21164,23252
31864,21156,23351
31860,21141,23290
31950,21127,23221
31940,21128,23206
31932,21120,23180
31929,21141,23193
31973,21170,23112
32024,21189,23013
32049,21183,23122
31982,21172,23067
32028,21167,23024
32052,21140,22948
32068,21130,22967
32145,21129,22973
32216,21130,23001
32224,21150,22926
32248,21177,22917
32186,21180,22852
32156,21194,22749
32208,21176,22812
32220,21173,22806
32184,21156,22827
32144,21143,22733
32096,21139,22714
32044,21142,22769
31961,21168,22698
32020,21175,22672
32088,21193,22700
32117,21198,22583
32128,21193,22503
32160,21190,22612
32104,21176,22629
32124,21156,22540
32056,21156,22541
31920,21156,22548
31912,21180,22433
31980,21197,22513
32025,21206,22444
32148,21212,22457
32148,21202,22393
32134,21199,22368
32097,21188,22263
32104,21170,22234
32121,21169,22296
32132,21167,22348
32136,21181,22294
32160,21213,22245
32204,21223,22153
32200,21223,22182
32184,21220,22204
32152,21216,22180
32101,21194,22116
32173,21184,22112
32296,21187,22153
32332,21193,22157
32389,21194,22087
32424,21223,22007
32432,21241,22137
32316,21241,22120
32180,21246,22089
32220,21224,22085
32281,21228,22028
32376,21211,21954
32460,21195,22006
32576,21204,21994
32604,21223,22028
32644,21236,21994
32680,21261,21998
32720,21260,22004
32724,21265,22006
32688,21247,21885
32692,21245,21889
32704,21231,21972
32772,21216,22001
32776,21229,21959
32728,21236,21988
32756,21258,21949
32782,21281,21985
32736,21283,21904
32656,21287,21847
32688,21276,21989
32656,21260,21949
32748,21245,21975
32813,21238,21944
32672,21254,21880
32532,21266,21980
32552,21296,21968
32577,21303,21976
32520,21313,21989
32452,21302,21927
32463,21293,21935
32548,21279,21934
32568,21276,21886
32416,21269,21877
32368,21276,21935
32398,21289,21932
32304,21307,21901
32396,21316,22045
32308,21341,21963
32300,21334,22050
32492,21315,22066
32518,21310,22057
32496,21306,22086
32580,21293,22096
32536,21299,22111
32480,21319,22084
32548,21329,22015
32500,21349,22148
32621,21367,22117
32544,21348,22162
32557,21347,22124
32560,21337,22047
32520,21316,22196
32556,21320,22169
32570,21335,22186
32653,21343,22202
32705,21364,22070
32620,21394,22215
32636,21398,22210
32574,21395,22192
32600,21371,22181
32576,21365,22106
32500,21355,22210
32516,21351,22189
32492,21372,22202
32460,21383,22210
32284,21404,22173
32293,21412,22085
32240,21423,22188
32212,21409,22180
32288,21404,22170
32252,21404,22149
32293,21380,22125
32280,21379,22148
32288,21380,22166
32444,21407,22046
32556,21429,22152
32548,21438,22147
32620,21450,22132
32644,21444,22105
32596,21432,22128
32594,21428,22068
32536,21404,21985
32532,21415,22101
32437,21412,22114
32484,21429,21974
32366,21452,22092
32208,21472,22047
32176,21477,22084
32356,21474,21993
32424,21467,22065
32452,21454,22060
32545,21437,22013
32528,21436,21936
32448,21455,21932
32380,21463,21961
32493,21484,22040
32484,21503,22031
32404,21510,22060
32512,21508,22007
32592,21503,21935
32648,21493,21940
32669,21469,21953
32704,21476,22019
32736,21492,22084
32852,21487,22050
33008,21526,22087
33032,21540,22092
33156,21536,22002
33376,21541,21989
33648,21528,22108
33788,21521,22093
33877,21517,22090
34084,21519,22003
34140,21510,22119
34284,21535,22103
34313,21563,22125
34228,21570,22023
34092,21580,22046
34048,21590,22141
33996,21573,22100
34164,21569,22075
34212,21564,22074
33844,21556,22148
33156,21572,22129
32401,21589,22120
31588,21620,22106
31086,21631,22176
30680,21615,22190
30404,21636,22153
30360,21620,22181
30669,21607,22196
31252,21599,22094
31814,21592,22145
32189,21593,22180
32317,21611,22211
32620,21634,22156
32712,21645,22144
32696,21658,22209
32832,21662,22213
32872,21642,22217
32926,21639,22133
32872,21611,22152
32772,21615,22229
32820,21632,22210
33012,21636,22221
33040,21663,22198
33004,21671,22184
32948,21695,22112
32856,21682,22244
32600,21676,22262
32737,21674,22220
32804,21635,22261
32845,21657,22213
32761,21662,22169
32760,21677,22225
32880,21696,22257
32840,21705,22205
32824,21717,22140
32797,21708,22196
32760,21709,22294
32745,21704,22255
32708,21690,22288
32637,21687,22176
32692,21693,22291
32768,21716,22319
32824,21724,22236
32894,21735,22349
32884,21763,22330
32824,21756,22300
32736,21739,22351
32708,21735,22384
32748,21717,22300
32752,21717,22373
32784,21721,22417
32840,21735,22346
32844,21769,22433
32856,21781,22373
32944,21780,22461
32972,21784,22458
32973,21785,22505
32925,21763,22415
32880,21751,22487
32780,21756,22495
32680,21765,22487
32702,21773,22528
32752,21797,22495
32760,21812,22526
32744,21822,22544
32768,21815,22580
32773,21807,22489
32780,21802,22549
32820,21786,22570
32872,21783,22439
32816,21797,22557
32776,21804,22561
32832,21844,22423
32956,21853,22549
33104,21854,22510
33166,21854,22441
33304,21844,22361
33372,21837,22375
33364,21825,22447
33416,21828,22458
33448,21825,22407
33548,21845,22409
33545,21858,22356
33580,21888,22292
33660,21887,22323
33689,21889,22369
33748,21884,22303
33829,21873,22308
33844,21856,22236
33896,21848,22178
33928,21863,22265
33880,21877,22226
33836,21892,22162
33852,21920,22102
33904,21923,22069
33904,21918,22132
33808,21910,22142
33644,21909,21996
33588,21889,22041
33584,21895,22080
33636,21898,22063
33632,21919,21999
33624,21933,22004
33588,21945,21985
33480,21961,21868
33452,21958,21869
33388,21947,21900
33345,21938,21857
33288,21921,21833
33308,21923,21701
33248,21927,21672
33164,21949,21740
33136,21963,21680
33092,21988,21610
33024,21989,21533
32908,22005,21564
32800,21978,21489
32732,21970,21407
32744,21967,21349
32696,21951,21413
32630,21963,21342
32552,21984,21320
32588,21996,21249
32608,22015,21193
32564,22028,21118
32548,22023,21085
32444,22023,21114
32336,21998,21076
32220,21987,21050
32156,21999,20942
32092,21993,20889
32076,22009,20865
32020,22032,20870
31964,22050,20841
31916,22055,20811
31936,22059,20767
31938,22051,20742
31936,22032,20717
31848,22012,20685
31788,22022,20664
31814,22029,20624
31872,22041,20548
31860,22061,20526
31808,22089,20538
31808,22086,20496
31800,22085,20452
31785,22077,20463
31760,22061,20440
31760,22061,20406
31800,22053,20393
31849,22052,20380
31864,22072,20342
31904,22088,20298
31950,22105,20337
31988,22123,20292
32024,22119,20284
32080,22106,20265
32116,22098,20218
32168,22085,20197
32224,22077,20182
32230,22092,20226
32242,22100,20204
32284,22124,20200
32264,22148,20198
32192,22144,20157
32196,22146,20149
32176,22134,20164
32180,22124,20204
32196,22121,20191
32256,22104,20209
32220,22121,20214
32220,22132,20194
32288,22158,20226
32368,22171,20269
32461,22183,20282
32520,22185,20321
32564,22176,20325
32524,22160,20334
32488,22140,20360
32456,22137,20455
32448,22147,20453
32452,22158,20476
32496,22182,20548
32448,22192,20644
32416,22200,20668
32408,22207,20730
32424,22204,20757
32393,22182,20777
32444,22179,20894
32464,22166,20986
32496,22185,21020
32508,22189,21105
32509,22209,21100
32493,22226,21160
32472,22237,21287
32464,22242,21399
32397,22221,21434
32342,22213,21520
32328,22199,21517
32336,22200,21668
32348,22212,21740
32340,22219,21832
32368,22244,21822
32412,22255,21965
32421,22266,22034
32453,22268,22140
32481,22248,22102
32548,22241,22279
32608,22236,22340
32660,22228,22397
32668,22237,22397
32684,22247,22569
32680,22273,22632
32612,22279,22737
32572,22297,22831
32524,22293,22835
32452,22287,22906
32416,22264,22928
32385,22265,23107
32368,22260,23223
32376,22264,23300
32412,22277,23349
32461,22295,23463
32536,22323,23473
32560,22333,23540
32556,22320,23639
32600,22312,23702
32572,22302,23799
32485,22290,23829
32532,22284,23871
32552,22300,23945
32628,22308,24068
32648,22337,24194
32697,22353,24288
32760,22360,24380
32708,22352,24454
32660,22345,24468
32572,22334,24447
32502,22319,24512
32488,22320,24602
32508,22321,24809
32607,22340,24823
32652,22368,24933
32680,22373,25016
32680,22384,25090
32728,22392,25161
32769,22377,25109
32736,22356,25119
32686,22351,25279
32668,22357,25375
32660,22348,25452
32652,22367,25567
32628,22387,25645
32576,22407,25644
32564,22427,25733
32556,22416,25758
32562,22411,25816
32581,22394,25942
32596,22389,26119
32639,22375,26128
32600,22386,26269
32585,22399,26350
32656,22419,26441
32690,22437,26517
32724,22453,26482
32728,22454,26537
32716,22436,26770
32714,22419,26885
32741,22409,26892
32768,22404,26971
32792,22413,27103
32792,22423,27172
32768,22452,27293
32732,22460,27365
32764,22477,27474
32844,22468,27625
32949,22455,27684
33012,22450,27847
33016,22436,27973
32936,22437,28077
32917,22437,28196
32902,22453,28293
32860,22475,28421
32832,22497,28516
32804,22503,28639
32800,22506,28753
32784,22484,28805
32712,22487,28927
32672,22466,29063
32704,22463,29177
32676,22479,29305
32668,22494,29432
32672,22511,29559
32712,22520,29761
32760,22525,29830
32809,22526,29940
32796,22522,30214
32801,22505,30177
32804,22496,30288
32744,22499,30484
32681,22490,30751
32706,22513,30911
32748,22530,30977
32752,22548,31145
32772,22559,31287
32756,22557,31431
32733,22549,31423
32704,22531,31567
32668,22520,31777
32668,22519,31972
32657,22524,32188
32656,22542,32260
32684,22559,32342
32736,22581,32580
32844,22581,32575
32940,22588,32798
33028,22575,33104
33156,22564,33199
33388,22551,33146
33693,22545,33385
33960,22559,33604
34237,22567,33888
34472,22596,33908
34608,22618,34017
34744,22621,34199
34964,22627,34384
35148,22602,34567
35268,22606,34509
35320,22601,34636
35392,22595,34804
35441,22592,35036
35600,22623,35217
35505,22639,35437
34980,22655,35625
34380,22672,35807
33488,22668,35953
32584,22656,36053
31968,22644,36172
31348,22635,36309
30888,22640,36503
30800,22639,36438
31092,22647,36585
31560,22666,36788
32009,22680,36652
32357,22702,37040
32608,22687,37242
32713,22689,37239
32800,22673,37373
32840,22654,37514
32836,22655,37639
32784,22650,37751
32676,22668,37575
32580,22697,37919
32549,22703,38165
32504,22725,38110
32481,22718,38245
32532,22715,38297
32592,22687,38436
32620,22684,38510
32624,22672,38713
32660,22684,38848
32716,22688,38935
32768,22723,38766
32782,22732,38999
32820,22733,39149
32850,22738,39291
32879,22730,39388
32920,22717,39485
32901,22706,39652
32904,22711,39716
32896,22705,39821
32856,22712,40076
32772,22735,40049
32788,22754,40092
32796,22765,40213
32784,22763,40345
32789,22757,40209
32740,22749,40392
32717,22729,40551
32724,22729,40748
32732,22735,40960
32712,22741,40871
32692,22764,40999
32664,22787,41100
32656,22790,40871
32668,22790,41189
32712,22791,41496
32753,22768,41388
32804,22754,41525
32877,22753,41567
32948,22764,41701
33038,22780,41701
33125,22788,41892
33200,22808,42033
33236,22825,42102
33268,22821,42029
33232,22814,42152
33256,22793,42288
33208,22788,42193
33248,22791,42517
33320,22785,42479
33334,22801,42310
33348,22822,42704
33384,22836,42556
33397,22849,42777
33384,22852,42791
33400,22836,42567
33413,22827,42815
33480,22813,42996
33552,22804,42930
33624,22818,43105
33636,22832,43172
33600,22849,43198
33560,22863,43056
33561,22868,43132
33528,22875,43304
33500,22867,43380
33548,22852,43428
33564,22850,43460
33530,22844,43462
33496,22838,43485
33540,22863,43495
33572,22876,43428
33604,22901,43480
33612,22896,43591
33632,22908,43526
33656,22893,43582
33645,22872,43743
33684,22871,43420
33656,22865,43601
33660,22874,43677
33646,22882,43732
33636,22908,43828
33664,22924,43513
33732,22926,43615
33728,22935,43673
33764,22919,43765
33764,22909,43839
33724,22894,43760
33704,22895,43705
33674,22901,43869
33616,22918,43872
33532,22930,43876
33485,22951,43879
33464,22964,43636
33400,22952,43820
33312,22955,43725
33241,22937,43840
33148,22922,43692
33068,22924,43655
32976,22918,43775
32880,22940,43716
32805,22959,43689
32755,22976,43749
32696,22985,43444
32608,22982,43623
32590,22983,43612
32588,22964,43749
32544,22951,43568
32492,22950,43527
32448,22951,43360
32424,22969,43668
32396,22980,43324
32376,23005,43493
32348,23020,43570
32320,23014,43600
32308,22998,43287
32260,22994,43520
32224,22981,43477
32252,22975,43537
32292,22974,43543
32272,22993,43524
32301,23008,43183
32334,23024,43175
32328,23036,43219
32320,23035,43388
32342,23030,43451
32372,23020,43396
32356,23002,43433
32420,22997,43324
32476,23005,43404
32560,23029,43280
32560,23036,43436
32544,23060,43092
32620,23068,43263
32696,23060,43392
32728,23061,43239
32740,23037,43415
32716,23033,43206
32748,23027,43389
32820,23028,43239
32840,23040,43424
32832,23060,43408
32880,23081,43117
32916,23093,43328
32948,23087,43375
32956,23092,43364
32925,23077,43413
32900,23047,43112
32900,23057,43311
32904,23061,43412
32908,23063,43303
32944,23099,43399
32960,23119,43394
32976,23112,43086
33008,23120,43270
33008,23109,43398
33028,23096,43358
33080,23084,43348
33044,23084,43079
32953,23081,43399
32893,23102,43396
32900,23125,43372
32893,23129,43388
32904,23153,43304
32968,23145,43360
33050,23138,43391
33060,23128,43057
33065,23103,43213
32996,23109,43372
32980,23114,43364
32976,23125,43329
32988,23143,43222
32960,23162,43300
32964,23175,43284
32944,23175,43345
32996,23159,43109
33060,23143,43089
33109,23132,43324
33152,23129,43308
33184,23143,43172
33204,23153,43288
33189,23172,43305
33132,23188,43271
33092,23199,42948
33140,23199,43068
33156,23188,43185
33168,23172,43215
33228,23161,43180
33208,23153,43268
33224,23168,43241
33184,23175,43244
33208,23198,43229
33256,23207,43225
33288,23231,43228
33284,23229,43207
33312,23209,43220
33384,23199,43210
33376,23187,43143
33372,23177,43087
33316,23185,43213
33280,23207,43225
33236,23225,43244
33256,23245,42909
33265,23255,43167
33289,23247,43200
33272,23240,43252
33260,23220,43217
33276,23219,43261
33256,23215,43181
33192,23218,43134
33144,23237,43276
33144,23245,43271
33188,23261,43271
33256,23276,42957
33332,23282,43260
33384,23271,43324
33420,23251,42998
33493,23239,43311
33472,23239,43352
33445,23237,43353
33438,23258,43298
33438,23275,43385
33397,23289,43076
33392,23299,43260
33452,23310,43407
33524,23289,43373
33580,23282,43461
33652,23271,43143
33696,23260,43480
33744,23261,43399
33822,23276,43212
33884,23306,43453
33876,23316,43513
33784,23324,43559
33724,23331,43271
33656,23318,43605
33617,23303,43590
33612,23292,43399
33590,23290,43624
33584,23300,43524
33588,23305,43707
33568,23324,43565
33564,23337,43704
33576,23356,43599
33532,23349,43765
33564,23349,43548
33661,23332,43694
33696,23313,43713
33640,23308,43828
33640,23323,43617
33644,23335,43773
33592,23356,43804
33516,23367,43893
33424,23374,43580
33344,23377,43590
33328,23366,43732
33354,23346,43861
33396,23338,43800
33380,23333,43957
33367,23338,43676
33348,23359,43808
33256,23376,43909
33245,23388,43837
33312,23396,43992
33380,23398,43749
33424,23391,43935
33456,23371,43825
33501,23361,43968
33524,23370,43800
33537,23364,43845
33516,23380,43973
33432,23404,43777
33364,23407,43911
33325,23420,43884
33345,23414,43777
33368,23407,43908
33448,23394,43582
33476,23383,43799
33486,23374,43865
33504,23389,43732
33528,23399,43857
33557,23427,43673
33662,23431,43711
33776,23441,43728
34004,23440,43805
34280,23422,43610
34565,23412,43709
34816,23413,43756
34904,23401,43400
34976,23399,43561
35172,23429,43655
35428,23445,43636
35680,23464,43578
35992,23465,43583
36252,23463,43592
36528,23461,43568
36804,23452,43220
37148,23439,43224
37300,23451,43380
36804,23458,43425
35996,23465,43303
34944,23492,43404
34000,23506,43188
33340,23517,43317
32672,23521,43305
31992,23505,43133
31604,23481,43141
31829,23468,42886
32314,23461,43137
32813,23471,43164
33196,23488,43128
33428,23497,43108
33508,23517,42820
33516,23521,43033
33476,23517,43037
33396,23506,42925
33344,23501,42813
33240,23486,42901
33240,23476,42901
33248,23487,42741
33216,23499,42532
33216,23508,42887
33213,23525,42804
33220,23549,42645
33244,23533,42824
33216,23530,42671
33216,23503,42524
33230,23495,42717
33252,23495,42671
33272,23502,42529
33232,23513,42684
33216,23532,42625
33236,23551,42380
33241,23558,42613
33232,23548,42432
33224,23539,42207
33164,23525,42541
33168,23518,42335
33212,23509,42452
33284,23513,42307
33334,23532,42420
33324,23551,42375
33272,23559,42015
33284,23566,42380
33320,23566,42305
33336,23565,42019
33352,23549,42192
33362,23527,42348
33376,23529,42332
33408,23540,42255
33380,23548,41940
33392,23564,42316
33401,23581,42158
33420,23589,41953
33432,23586,42160
33440,23581,42366
33449,23559,42173
33444,23541,42296
33472,23549,42097
33552,23544,42375
33578,23568,42185
33568,23582,42240
33529,23598,42201
33530,23605,42277
33500,23597,42231
33508,23589,41900
33565,23580,42340
33632,23564,42092
33632,23557,42156
33636,23568,42060
33618,23585,42200
33589,23599,42247
33552,23615,42129
33592,23616,42087
33668,23614,42087
33740,23609,42029
33833,23588,41784
33876,23575,42108
33928,23581,41879
33908,23582,41935
33916,23593,41534
33932,23615,41634
33932,23638,41757
33904,23632,41892
33840,23633,41705
33789,23622,41773
33764,23617,41612
33690,23594,41559
33660,23597,41476
33636,23600,41567
33600,23621,41419
33628,23639,41516
33668,23655,41409
33654,23650,41381
33608,23649,41348
33512,23633,41223
33431,23630,41335
33376,23618,41351
33305,23609,41307
33220,23622,41077
33148,23628,41084
33056,23654,41080
33000,23668,40957
32941,23677,41100
32888,23670,40939
32848,23651,40916
32813,23646,40886
32792,23637,40769
32728,23623,40964
32696,23638,40780
32692,23644,40740
32640,23667,40493
32576,23676,40739
32452,23692,40617
32340,23687,40349
32276,23672,40612
32218,23657,40569
32208,23649,40423
32141,23648,40538
32076,23652,40526
31985,23665,40394
31892,23689,40412
31852,23700,40272
31796,23708,40442
31800,23707,40272
31757,23692,39957
31728,23681,40213
31648,23665,40336
31568,23666,40144
31528,23669,39943
31500,23687,40208
31520,23700,40045
31564,23716,40053
31600,23724,39876
31592,23719,39867
31570,23711,39900
31508,23703,39944
31444,23685,39941
31412,23679,39752
31432,23687,39789
31492,23700,39789
31520,23717,39540
31512,23735,39652
31504,23743,39728
31489,23737,39676
31478,23730,39524
31496,23705,39540
31484,23696,39546
31488,23703,39532
31540,23703,39502
31576,23717,39430
31648,23734,39562
31616,23751,39352
31572,23756,39346
31520,23747,39303
31476,23732,39240
31456,23720,39208
31508,23708,39301
31500,23705,39390
31524,23716,39339
31532,23725,39328
31544,23749,39324
31588,23764,39317
31608,23770,39205
31648,23767,39038
31636,23758,39111
31597,23737,39104
31580,23725,39111
31604,23731,38998
31668,23735,39037
31774,23747,39145
31812,23767,39157
31872,23781,39019
31960,23781,38929
32072,23783,38966
32104,23775,39010
32092,23752,38971
32060,23749,38964
32064,23743,38940
32082,23748,38863
32092,23773,38988
32100,23780,38948
32064,23801,38996
32012,23813,38748
31980,23807,38842
31984,23781,38823
31948,23777,38710
31976,23767,38777
32073,23765,38877
32137,23769,38852
32228,23783,38774
32328,23801,38652
32376,23818,38624
32356,23827,38679
32361,23815,38671
32269,23808,38663
32176,23798,38652
32148,23787,38639
32188,23780,38343
32188,23790,38307
32216,23803,38476
32213,23825,38465
32176,23836,38468
32132,23849,38443
32096,23851,38530
32148,23830,38564
32248,23823,38309
32328,23806,38311
32360,23796,38324
32388,23810,38353
32448,23825,38324
32444,23841,38127
32444,23859,38208
32492,23864,38286
32476,23865,38279
32476,23845,38316
32452,23837,38197
32416,23831,38061
32424,23821,38105
32425,23829,37961
32440,23852,38173
32421,23875,38137
32385,23881,37956
32417,23890,37783
32456,23886,37960
32524,23869,37733
32548,23862,37981
32572,23855,38024
32536,23851,37844
32533,23848,37895
32581,23870,37884
32624,23895,37655
32704,23909,37772
32696,23910,37933
32737,23915,37767
32832,23897,37780
32868,23889,37675
32916,23880,37736
32965,23874,37719
32968,23879,37672
33038,23900,37596
33112,23924,37377
33140,23935,37668
33192,23947,37499
33184,23943,37582
33140,23935,37300
33046,23921,37428
32950,23912,37564
32978,23901,37605
33008,23910,37449
32933,23928,37361
32910,23956,37496
32984,23965,37396
33056,23972,37396
33084,23975,37269
33044,23958,37255
32998,23943,37337
33032,23940,37229
33002,23941,37405
32948,23942,37263
32933,23966,37121
32897,23981,37346
32872,23996,37214
32840,24004,36957
32774,24005,37116
32696,23994,37257
32628,23980,37049
32630,23969,37124
32584,23967,36858
32552,23975,37080
32520,24000,37046
32508,24017,37051
32480,24030,36789
32452,24043,36980
32452,24042,37054
32512,24028,37021
32536,24012,36852
32516,24013,36936
32536,24004,36807
32580,24017,36994
32589,24036,36782
32644,24055,36857
32660,24071,36679
32644,24077,36708
32628,24085,36868
32628,24069,36735
32652,24062,36733
32692,24050,36612
32744,24047,36808
32765,24063,36692
32804,24076,36587
32876,24106,36696
32921,24110,36604
32972,24120,36601
33082,24123,36493
33224,24117,36660
33428,24101,36536
33672,24092,36527
33908,24085,36527
34148,24100,36596
34384,24132,36383
34680,24142,36456
35057,24164,36431
35432,24176,36359
35764,24178,36432
36076,24167,36424
36400,24153,36297
36776,24158,36308
37068,24150,36304
37100,24167,36065
36420,24196,36314
35472,24215,36222
34424,24239,36262
33524,24250,36108
32956,24248,36184
32281,24239,35996
31585,24228,36213
31299,24216,36092
31560,24216,35873
32012,24230,35999
32432,24245,36102
32784,24261,36042
32997,24279,35924
33132,24293,35905
33140,24281,35981
33072,24287,35964
32968,24269,35933
32917,24267,35828
32872,24271,36005
32832,24276,35901
32813,24291,35655
32840,24315,35847
32884,24340,35767
32928,24338,35625
32952,24340,35916
32924,24327,35817
32940,24314,35708
33000,24319,35837
33064,24315,35784
33124,24327,35652
33108,24348,35808
33060,24365,35708
33004,24383,35496
33024,24396,35607
33048,24399,35616
33070,24380,35671
33056,24377,35591
33097,24367,35589
33148,24373,35605
33196,24380,35479
33193,24405,35637
33184,24427,35573
33192,24443,35365
33129,24452,35508
33104,24453,35605
33128,24455,35524
33184,24447,35310
33230,24429,35414
33264,24439,35412
33284,24445,35615
33288,24468,35508
33288,24493,35415
33324,24503,35576
33364,24522,35539
33431,24517,35407
33516,24507,35545
33586,24503,35500
33680,24497,35549
33740,24495,35345
33784,24513,35533
33804,24530,35673
33772,24551,35642
33724,24580,35591
33684,24583,35604
33677,24583,35397
33688,24576,35606
33720,24566,35696
33752,24565,35660
33776,24564,35676
33848,24583,35641
33848,24601,35588
33868,24621,35758
33948,24642,35712
34024,24655,35633
34076,24655,35719
34144,24637,35586
34116,24639,35598
34112,24626,35716
34176,24630,35788
34233,24653,35653
34328,24672,35704
34392,24693,35684
34464,24719,35492
34508,24726,35583
34520,24721,35743
34533,24717,35589
34544,24708,35620
34572,24709,35632
34640,24708,35468
34660,24727,35578
34680,24748,35505
34608,24769,35585
34616,24788,35367
34632,24790,35564
34688,24811,35546
34713,24796,35461
34740,24780,35463
34740,24783,35511
34708,24789,35309
34660,24800,35375
34520,24817,35528
34436,24847,35399
34428,24863,35428
34436,24871,35311
34417,24869,35484
34464,24871,35322
34465,24868,35392
34493,24852,35206
34520,24865,35422
34469,24876,35335
34428,24896,35342
34488,24918,35228
34456,24941,35380
34388,24951,35297
34168,24950,35154
34022,24948,35332
33933,24938,35156
33948,24938,35215
34008,24945,35228
33982,24951,34996
34004,24974,35079
33992,24996,35212
33992,25019,35168
34008,25022,35072
34008,25031,35114
33944,25025,34884
33852,25014,34996
33772,25010,35087
33764,25019,34996
33808,25037,34789
33832,25047,34847
33865,25072,34917
33900,25095,34977
33908,25106,34879
33940,25108,34842
33900,25095,34823
33812,25093,34781
33720,25082,34553
33682,25090,34606
33716,25113,34693
33800,25133,34692
33908,25155,34631
33952,25175,34597
34005,25189,34375
34040,25184,34592
34056,25183,34431
34124,25167,34482
34188,25165,34310
34292,25177,34364
34400,25189,34373
34457,25214,34233
34424,25236,34249
34424,25255,34273
34424,25262,34061
34496,25261,34095
34568,25253,34142
34608,25247,34041
34696,25241,34114
34724,25255,33956
34716,25268,33940
34624,25293,34013
34564,25319,33841
34536,25327,33941
34468,25347,33870
34452,25341,33730
34474,25340,33860
34512,25325,33791
34576,25324,33623
34588,25327,33711
34638,25349,33744
34694,25369,33597
34720,25392,33628
34752,25413,33608
34696,25423,33391
34636,25420,33415
34688,25417,33409
34752,25407,33527
34808,25407,33361
34789,25407,33262
34805,25428,33280
34880,25447,33400
34956,25469,33262
35040,25487,33175
35048,25503,33236
34988,25501,33334
34928,25493,33172
34900,25487,33259
34829,25481,33053
34820,25485,33073
34749,25500,33082
34736,25527,33228
34756,25550,33179
34792,25573,33113
34848,25576,32947
34880,25575,33080
34916,25575,33114
34980,25561,33028
34984,25565,33052
34960,25570,32924
34910,25577,32914
34856,25607,32833
34832,25631,32941
34844,25652,32813
34824,25661,32936
34760,25662,32788
34752,25653,32923
34744,25651,32812
34752,25644,32880
34736,25652,32717
34749,25669,32877
34816,25684,32833
34892,25707,32652
34977,25728,32677
35008,25735,32720
35032,25735,32782
35032,25732,32614
35088,25724,32725
35096,25714,32775
35124,25727,32652
35124,25740,32711
35152,25763,32536
35160,25786,32708
35173,25799,32577
35200,25815,32668
35214,25814,32493
35180,25815,32684
35132,25797,32556
35128,25788,32463
35100,25796,32487
35096,25810,32622
35144,25829,32527
35164,25862,32588
35136,25885,32436
35176,25886,32625
35193,25889,32534
35278,25877,32436
35352,25874,32501
35446,25868,32482
35488,25876,32549
35516,25894,32457
35504,25913,32460
35460,25932,32528
35486,25956,32372
35448,25967,32428
35384,25962,32513
35324,25959,32413
35325,25948,32412
35424,25943,32344
35576,25950,32556
35572,25967,32500
35528,25984,32357
35472,26009,32535
35336,26025,32502
35250,26038,32351
35284,26037,32551
35296,26031,32480
35256,26020,32369
35248,26018,32464
35224,26022,32428
35244,26038,32532
35239,26059,32386
35288,26081,32452
35324,26100,32551
35392,26111,32399
35404,26102,32543
35408,26101,32570
35360,26089,32432
35324,26095,32530
35300,26096,32519
35290,26111,32474
35284,26133,32531
35247,26159,32550
35212,26181,32481
35176,26180,32689
35100,26183,32599
35036,26173,32672
34964,26161,32532
34936,26164,32680
34936,26170,32636
34992,26177,32711
35080,26205,32581
35124,26231,32644
35120,26247,32744
35104,26247,32690
35126,26244,32769
35076,26247,32612
35008,26231,32756
34948,26234,32718
34965,26241,32804
34940,26257,32804
34884,26273,32673
34868,26297,32813
34904,26316,32853
34968,26322,32844
35040,26316,32705
35012,26309,32791
34996,26303,32873
34960,26296,32743
34912,26306,32791
34944,26316,32871
35012,26337,32946
35132,26359,32816
35228,26377,32855
35236,26389,32927
35380,26386,32785
35568,26375,32919
35776,26367,32973
35992,26363,32880
36184,26367,32799
36324,26382,32986
36572,26404,32965
36894,26430,32821
37224,26452,32984
37472,26458,33015
37592,26463,33026
37708,26453,33004
37988,26451,32894
38304,26454,32984
38432,26458,32841
37944,26468,32852
37088,26493,32991
36024,26530,32848
35044,26543,33052
34456,26555,32993
34044,26543,32871
33516,26541,33015
33189,26529,33052
33328,26522,33003
33660,26531,32876
34006,26543,33061
34280,26553,33031
34424,26583,32896
34464,26596,33085
34480,26604,33004
34452,26599,33054
34454,26580,32909
34405,26580,32960
34424,26574,33020
34372,26581,33084
34300,26599,32938
34240,26614,33127
34164,26631,33008
34140,26655,33104
34157,26661,32972
34128,26655,33144
34076,26649,33085
34004,26631,33098
33880,26631,33136
33736,26631,32994
33664,26655,33135
33661,26673,33094
33552,26698,33151
33464,26708,32991
33472,26713,33173
33532,26710,33055
33561,26708,33136
33556,26697,32969
33464,26690,32996
33368,26692,33170
33253,26708,33125
33207,26733,32987
33264,26748,32960
33357,26769,33080
33364,26778,33094
33380,26767,32965
33432,26767,33145
33436,26751,33047
33460,26745,33137
33412,26745,33153
33408,26759,32981
33429,26783,33010
33484,26805,33197
33520,26821,33136
33536,26831,33196
33624,26820,33044
33764,26813,33196
33816,26796,33129
33852,26801,33183
33840,26811,33245
33776,26821,33266
33773,26838,33124
33728,26863,33271
33656,26879,33199
33592,26882,33308
33568,26879,33158
33473,26865,33369
33398,26860,33308
33484,26859,33333
33496,26856,33189
33496,26868,33368
33482,26899,33333
33457,26912,33177
33377,26928,33355
33364,26940,33287
33348,26934,33151
33321,26922,33148
33372,26919,33306
33404,26909,33183
33492,26912,33257
33674,26927,33105
33756,26946,33158
33773,26960,33219
33830,26980,33142
33800,26991,33172
33860,26983,32977
33868,26974,32976
33772,26970,33096
33748,26966,32921
33764,26962,33029
33724,26983,33015
33604,27004,32960
33492,27020,32966
33409,27036,32775
33292,27044,32800
33248,27041,32889
33276,27031,32744
33300,27015,32663
33388,27015,32647
33520,27020,32676
33576,27031,32729
33616,27050,32551
33660,27074,32687
33616,27095,32604
33628,27090,32607
33596,27095,32421
33488,27082,32565
33436,27073,32497
33336,27062,32500
33284,27073,32445
33244,27086,32366
33120,27105,32425
33029,27123,32229
32876,27141,32376
32708,27142,32279
32532,27133,32196
32392,27134,32192
32272,27119,32204
32232,27115,32220
32148,27120,32071
32064,27140,32077
31928,27158,32141
31788,27180,31943
31693,27189,32075
31612,27201,32053
31500,27200,31931
31448,27195,31844
31368,27173,31988
31336,27169,31949
31296,27170,31773
31284,27188,31885
31348,27204,31784
31456,27226,31832
31537,27233,31661
31604,27247,31721
31600,27244,31767
31493,27224,31572
31412,27221,31734
31316,27216,31664
31248,27220,31513
31268,27232,31550
31300,27253,31582
31352,27264,31584
31364,27287,31445
31328,27293,31377
31365,27284,31480
31416,27279,31502
31469,27265,31401
31560,27261,31442
31592,27262,31436
31620,27271,31276
31580,27292,31238
31592,27319,31353
31616,27336,31270
31604,27335,31325
31588,27331,31170
31584,27324,31137
31684,27305,31247
31744,27304,31264
31705,27311,31210
31736,27324,31184
31748,27342,31165
31668,27367,31164
31692,27381,31140
31717,27380,30972
31764,27373,31071
31800,27367,31054
31772,27355,31056
31776,27346,31036
31812,27349,30844
31855,27363,31004
31884,27384,30914
31940,27407,30951
31944,27416,30771
31884,27429,30919
31854,27417,30804
31818,27405,30855
31822,27392,30727
31776,27391,30666
31672,27399,30770
31552,27413,30705
31524,27430,30756
31460,27451,30596
31444,27461,30653
31456,27474,30684
31424,27461,30628
31400,27452,30599
31424,27441,30631
31456,27436,30466
31548,27440,30489
31500,27452,30573
31380,27471,30531
31344,27487,30527
31344,27511,30345
31358,27519,30492
31336,27508,30426
31329,27501,30320
31373,27484,30268
31418,27468,30335
31452,27487,30332
31460,27492,30343
31456,27516,30181
31384,27531,30200
31280,27551,30223
31224,27551,30218
31220,27553,30227
31306,27537,30061
31332,27527,30172
31376,27519,30097
31376,27519,30116
31380,27533,29925
31356,27555,30065
31336,27572,29988
31368,27585,30015
31420,27591,29859
31417,27584,29844
31412,27580,29927
31464,27567,29878
31597,27559,29764
31648,27560,29716
31670,27564,29776
31580,27591,29796
31524,27605,29703
31516,27628,29669
31500,27628,29601
31404,27623,29573
31389,27611,29634
31368,27607,29636
31349,27599,29540
31332,27600,29462
31412,27612,29567
31476,27626,29545
31561,27645,29390
31624,27668,29510
31716,27668,29446
31725,27668,29476
31716,27646,29295
31616,27639,29440
31528,27631,29359
31516,27637,29383
31532,27653,29272
31632,27676,29207
31737,27684,29249
31777,27700,29319
31788,27697,29309
31712,27703,29255
31616,27690,29218
31561,27677,29134
31557,27671,29235
31544,27668,29220
31377,27692,29093
31292,27703,29079
31317,27720,29156
31372,27742,29127
31424,27741,29153
31471,27737,29172
31504,27732,28997
31612,27716,29122
31748,27711,29123
31792,27709,28996
31848,27722,29097
31841,27737,29078
31928,27759,29023
31896,27773,28928
31732,27778,28930
31540,27774,29047
31396,27763,29044
31397,27751,29039
31376,27741,28895
31316,27748,28978
31244,27756,29007
31288,27780,28972
31344,27799,28960
31384,27811,28892
31296,27812,28948
31180,27812,28924
31144,27796,28948
31116,27783,28802
31116,27777,28807
31104,27780,28868
31080,27794,28896
31056,27810,28780
31002,27830,28851
30948,27839,28863
30948,27845,28815
30972,27844,28789
31040,27836,28793
30997,27814,28807
31000,27813,28724
30992,27812,28624
30992,27823,28702
30960,27847,28736
30920,27857,28685
30908,27879,28708
30964,27879,28635
30948,27878,28584
30952,27860,28521
30992,27852,28524
31004,27841,28585
31040,27845,28614
31028,27861,28584
31045,27879,28568
31185,27890,28511
31300,27911,28536
31392,27908,28381
31696,27911,28464
32096,27889,28421
32356,27869,28452
32552,27870,28287
32689,27871,28365
32736,27884,28349
32766,27907,28279
32941,27919,28341
33216,27942,28280
33532,27945,28248
33777,27940,28191
33902,27925,28217
34104,27916,28237
34336,27910,28072
34128,27918,28203
33316,27941,28181
32456,27959,28056
31448,27982,28099
30689,27999,28107
30182,28002,28044
29608,28000,28012
29216,27985,28031
29345,27975,28043
29745,27963,27892
30084,27957,28023
30668,27962,27973
30886,27980,27974
30966,27997,27906
30948,28009,27867
30965,28017,27940
30992,28004,27929
30976,28004,27795
30892,27977,27829
30936,27973,27845
30889,27980,27864
30944,27988,27865
30996,28011,27750
31072,28017,27821
31110,28039,27759
31120,28032,27736
31192,28036,27796
31316,28016,27769
31469,27999,27789
31576,27993,27655
31632,27993,27762
31704,28000,27737
31752,28025,27655
31724,28044,27676
31656,28055,27698
31552,28059,27696
31468,28057,27648
31460,28032,27557
31400,28025,27661
31280,28022,27646
31224,28023,27660
31228,28034,27576
31244,28053,27516
31254,28069,27542
31308,28082,27638
31480,28082,27610
31644,28073,27576
31762,28058,27612
31821,28040,27532
31720,28039,27492
31758,28039,27557
31753,28055,27602
31728,28074,27579
31648,28095,27569
31636,28103,27620
31632,28107,27489
31712,28096,27620
31712,28084,27586
31676,28073,27527
31670,28063,27516
31684,28065,27604
31664,28074,27613
31620,28094,27624
31512,28119,27640
31429,28127,27517
31424,28133,27645
31413,28121,27604
31424,28108,27648
31436,28097,27548
31444,28079,27518
31436,28089,27559
31429,28103,27609
31405,28119,27616
31393,28137,27584
31504,28151,27536
31564,28149,27620
31617,28146,27592
31644,28132,27541
31644,28115,27527
31688,28107,27529
31764,28111,27504
31868,28120,27418
31876,28132,27493
31808,28158,27503
31681,28167,27450
31620,28179,27348
31632,28167,27448
31694,28148,27429
31772,28135,27286
31720,28125,27389
31720,28131,27348
31736,28143,27365
31772,28160,27223
31684,28181,27304
31580,28196,27288
31500,28194,27231
31368,28184,27220
31332,28167,27182
31372,28154,27148
31560,28156,27164
31620,28158,27143
31652,28167,27139
31712,28181,27132
31732,28204,27021
31749,28209,26996
31752,28212,26957
31700,28204,27039
31656,28189,26990
31568,28179,27001
31452,28166,26876
31424,28177,26860
31424,28188,26879
31432,28205,26852
31332,28216,26900
31225,28237,26863
31224,28239,26809
31153,28224,26741
31064,28216,26721
30952,28189,26756
30828,28191,26780
30728,28194,26737
30520,28215,26734
30340,28221,26695
30244,28248,26631
30213,28252,26693
30260,28256,26657
30288,28236,26641
30300,28237,26603
30297,28219,26524
30356,28204,26533
30340,28213,26568
30416,28216,26576
30512,28236,26538
30601,28261,26522
30648,28270,26511
30604,28261,26502
30544,28260,26491
30414,28240,26439
30336,28231,26375
30369,28225,26414
30408,28212,26452
30408,28236,26400
30376,28253,26405
30416,28273,26372
30528,28279,26304
30718,28281,26297
30838,28268,26369
30804,28256,26351
30730,28247,26341
30712,28238,26288
30636,28247,26270
30616,28252,26239
30604,28265,26239
30632,28290,26256
30696,28292,26303
30756,28295,26295
30872,28285,26272
30892,28271,26292
30944,28258,26249
31008,28245,26212
30944,28256,26215
30956,28263,26271
31046,28277,26272
31128,28298,26200
31200,28301,26230
31220,28308,26247
31193,28295,26257
31164,28285,26270
31196,28268,26240
31156,28263,26204
31108,28261,26188
30989,28270,26258
30840,28288,26245
30688,28307,26285
30600,28319,26280
30620,28321,26295
30724,28309,26308
30778,28288,26230
30812,28279,26325
30856,28271,26309
30944,28276,26333
31068,28279,26265
31214,28295,26284
31392,28317,26357
31520,28324,26349
31556,28323,26372
31528,28319,26385
31484,28295,26309
31492,28287,26408
31456,28276,26393
31356,28282,26419
31333,28293,26437
31248,28302,26361
31220,28327,26457
31276,28336,26446
31302,28343,26423
31296,28335,26442
31336,28309,26500
31384,28301,26476
31372,28291,26503
31317,28295,26446
31284,28301,26473
31340,28319,26508
31512,28332,26503
31636,28347,26503
31712,28350,26540
31828,28327,26553
31816,28319,26487
31696,28308,26563
31576,28293,26547
31416,28295,26572
31296,28311,26516
31356,28324,26565
31488,28341,26564
31680,28353,26555
31792,28351,26565
31816,28340,26581
31845,28325,26599
31832,28311,26530
31792,28303,26540
31756,28302,26583
31773,28319,26609
31732,28337,26568
31709,28352,26516
31696,28356,26617
31644,28357,26598
31664,28349,26565
31796,28332,26536
31789,28319,26625
31808,28303,26600
31828,28312,26625
31776,28324,26545
31804,28338,26637
31856,28359,26622
31884,28362,26649
31872,28359,26572
31824,28356,26589
31828,28341,26671
31806,28324,26655
31716,28317,26684
31632,28318,26602
31752,28330,26703
31860,28341,26688
31956,28359,26714
32056,28374,26647
32008,28374,26651
31972,28357,26746
32028,28349,26732
32044,28327,26760
32056,28317,26680
32080,28327,26759
32048,28333,26783
31944,28348,26780
31860,28367,26802
31833,28365,26745
31788,28372,26724
31769,28361,26770
31776,28347,26826
31772,28332,26825
31900,28330,26861
31824,28324,26772
31890,28336,26869
31996,28349,26862
32108,28364,26894
32184,28381,26791
32193,28380,26895
32186,28369,26913
32156,28351,26840
32096,28338,26825
32140,28325,26916
32224,28335,26928
32213,28341,26912
32076,28351,26897
31918,28373,26839
31776,28383,26935
31712,28376,26912
31648,28377,26852
31644,28359,26920
31748,28345,26928
31876,28335,26933
31988,28332,26894
31976,28343,26834
31968,28357,26860
32084,28373,26940
32165,28380,26916
32244,28380,26853
32300,28373,26835
32228,28359,26916
32208,28340,26926
32196,28326,26852
32092,28335,26884
32072,28340,26908
32088,28361,26876
32156,28372,26855
32064,28386,26824
31968,28389,26908
31904,28368,26865
31940,28367,26901
31968,28341,26852
31952,28333,26801
31940,28332,26874
31980,28348,26887
32092,28358,26877
32217,28373,26820
32436,28383,26781
32812,28384,26869
33125,28372,26849
33296,28359,26876
33530,28341,26772
33640,28334,26812
33816,28333,26865
34017,28349,26838
34236,28367,26844
34309,28377,26818
34308,28390,26789
34325,28397,26748
34360,28386,26848
34498,28372,26844
34568,28359,26813
34324,28351,26837
33444,28358,26756
32532,28366,26772
31716,28391,26830
30976,28412,26800
30478,28422,26817
30064,28423,26737
29852,28412,26708
30132,28395,26804
30556,28367,26780
31074,28357,26788
31504,28352,26732
31796,28367,26685
32005,28383,26727
32112,28396,26777
32145,28405,26749
32060,28406,26751
31974,28397,26722
31996,28374,26660
31952,28356,26652
32004,28345,26727
32092,28356,26726
32180,28360,26688
32334,28375,26710
32524,28386,26708
32608,28403,26592
32652,28397,26688
32728,28389,26680
32732,28372,26703
32904,28350,26614
32980,28345,26596
32968,28343,26580
32968,28353,26612
32992,28372,26660
32936,28384,26638
32888,28395,26632
32862,28396,26639
32900,28376,26618
32904,28357,26631
32876,28348,26533
32884,28340,26627
32940,28341,26597
32956,28349,26626
32852,28359,26567
32724,28381,26537
32636,28393,26569
32428,28384,26608
32320,28377,26636
32316,28365,26536
32344,28345,26637
32424,28336,26651
32568,28343,26637
32712,28347,26677
32664,28367,26584
32574,28377,26625
32572,28391,26705
32604,28395,26692
32672,28381,26716
32808,28364,26753
32864,28348,26678
33065,28328,26755
33256,28332,26775
33276,28349,26788
33296,28367,26769
33252,28388,26732
33229,28385,26790
33012,28388,26809
32941,28378,26837
32932,28358,26757
32984,28348,26854
33039,28335,26828
33116,28334,26855
33212,28343,26855
33300,28359,26748
33280,28374,26853
33268,28385,26844
33280,28390,26747
33253,28372,26741
33192,28359,26830
33088,28345,26804
33048,28325,26822
33080,28329,26765
33224,28353,26705
33276,28353,26791
33281,28373,26794
33240,28387,26790
33160,28384,26751
33133,28372,26741
33156,28359,26759
33220,28341,26758
33292,28332,26668
33380,28332,26633
33444,28336,26629
33326,28354,26645
33220,28372,26631
33184,28389,26583
33144,28378,26580
33040,28369,26607
33056,28353,26576
33033,28338,26642
33012,28327,26604
32980,28330,26623
32877,28337,26550
32789,28349,26559
32751,28365,26589
32798,28377,26573
32840,28380,26584
32896,28368,26505
32872,28346,26474
32748,28340,26521
32716,28328,26552
32588,28327,26538
32624,28339,26518
32680,28356,26535
32736,28366,26503
32816,28373,26442
32880,28372,26494
32844,28365,26525
32736,28348,26516
32720,28337,26489
32672,28325,26481
32624,28327,26481
32588,28329,26488
32520,28349,26416
32456,28359,26379
32348,28375,26417
32288,28376,26454
32392,28359,26450
32368,28347,26444
32386,28331,26421
32324,28317,26420
32252,28323,26404
32188,28327,26410
32132,28351,26345
32124,28365,26325
32120,28368,26325
32184,28377,26320
32244,28361,26335
32264,28351,26357
32276,28324,26341
32232,28319,26321
32209,28321,26337
32188,28329,26288
32179,28343,26242
32232,28357,26237
32292,28365,26239
32341,28367,26239
32225,28360,26279
31988,28345,26285
31956,28325,26288
32017,28317,26291
32044,28314,26288
32132,28325,26284
32189,28341,26284
32200,28356,26244
32260,28361,26205
32308,28365,26281
32324,28356,26249
32360,28343,26231
32400,28325,26199
32381,28316,26265
32328,28314,26255
32316,28319,26200
32360,28343,26187
32362,28350,26184
32312,28361,26185
32372,28357,26262
32324,28350,26245
32244,28335,26244
32240,28327,26244
32165,28304,26245
32228,28310,26247
32200,28316,26258
32164,28327,26264
32152,28351,26266
32140,28357,26238
32117,28357,26223
32037,28355,26189
31992,28333,26217
31968,28317,26245
32052,28308,26261
32064,28309,26192
32101,28311,26267
32168,28332,26241
32276,28348,26254
32420,28351,26218
32572,28351,26161
32700,28336,26184
32752,28327,26205
32752,28313,26222
32700,28300,26184
32686,28300,26151
32620,28309,26134
32568,28324,26132
32493,28341,26138
32484,28349,26126
32524,28350,26188
32484,28341,26175
32420,28325,26143
32308,28309,26134
32185,28300,26141
32180,28300,26095
32157,28308,26052
32228,28320,26053
32208,28343,26075
32192,28346,26083
32180,28348,26053
32228,28343,26057
32297,28316,26028
32232,28305,26023
32200,28295,26008
32276,28294,25921
32336,28310,25905
32328,28317,25910
32304,28337,25959
32240,28345,25925
32188,28348,25927
32180,28341,25916
32116,28319,25908
32120,28305,25897
32276,28292,25821
32216,28289,25796
32100,28303,25810
32036,28316,25853
32182,28339,25844
32220,28334,25829
32380,28341,25833
32545,28325,25772
32600,28308,25756
32648,28295,25744
32597,28285,25739
32508,28287,25735
32480,28294,25809
32488,28309,25784
32640,28321,25791
32776,28341,25706
32860,28328,25781
32880,28319,25749
32932,28308,25770
32884,28290,25708
32884,28285,25704
32824,28276,25754
32766,28293,25748
32720,28303,25686
32777,28319,25686
32800,28332,25717
33064,28326,25734
33104,28321,25677
33180,28303,25702
33128,28279,25698
33056,28283,25668
32932,28279,25651
32996,28278,25656
32836,28299,25660
32948,28313,25699
32944,28325,25684
32908,28329,25679
32832,28316,25681
32721,28305,25600
32896,28289,25669
33048,28277,25665
33022,28277,25660
33040,28287,25668
33000,28292,25639
32970,28317,25621
32909,28321,25599
32724,28318,25620
32716,28319,25647
32696,28295,25656
32632,28276,25607
32632,28276,25592
32652,28269,25600
32685,28281,25654
32733,28290,25648
32736,28308,25663
32764,28321,25663
32734,28320,25657
32772,28309,25616
32868,28293,25607
32876,28269,25617
32865,28260,25627
32912,28261,25606
32869,28268,25593
32776,28279,25586
32671,28306,25604
32632,28309,25622
32608,28317,25606
32669,28307,25543
32604,28289,25559
32668,28276,25591
32692,28261,25564
32680,28263,25551
32736,28273,25526
32832,28278,25479
32924,28300,25503
32920,28308,25500
32980,28303,25478
32920,28303,25433
32936,28283,25389
32920,28268,25419
32860,28256,25418
32936,28255,25389
33140,28260,25374
33384,28279,25351
33488,28295,25312
33596,28308,25269
33748,28303,25244
33876,28296,25229
34028,28285,25209
34254,28265,25196
34376,28252,25176
34396,28255,25165
34396,28270,25148
34372,28287,25169
34486,28305,25147
34532,28313,25132
34344,28316,25113
33612,28317,25096
32673,28301,25046
31640,28291,25024
31000,28287,25022
30624,28283,25008
30416,28289,24977
30360,28303,24964
30676,28309,24962
31288,28318,24983
31872,28321,24966
32400,28305,24941
32736,28293,24936
32808,28279,24909
32792,28256,24881
32813,28262,24852
32780,28263,24876
32712,28278,24865
32808,28301,24844
32972,28301,24836
33004,28304,24830
33060,28294,24817
33088,28284,24804
33049,28261,24753
33020,28252,24796
32992,28252,24779
32892,28262,24772
32848,28276,24761
32780,28293,24745
32703,28295,24740
32648,28303,24733
32736,28295,24728
32864,28276,24716
32956,28261,24701
32888,28244,24695
32988,28247,24679
33004,28253,24673
33129,28270,24658
33156,28291,24641
33080,28295,24610
33056,28295,24620
33153,28291,24620
33324,28263,24613
33369,28253,24601
33413,28242,24586
33400,28236,24583
33360,28253,24566
33340,28265,24577
33312,28274,24551
33344,28293,24544
33432,28293,24538
33520,28288,24567
33472,28265,24568
33432,28253,24572
33396,28240,24560
33416,28238,24568
33424,28249,24564
33412,28263,24556
33348,28277,24575
33236,28293,24561
33232,28295,24605
33368,28285,24613
33400,28268,24615
33344,28250,24627
33324,28238,24625
33372,28236,24630
33448,28250,24626
33416,28263,24632
33348,28276,24621
33268,28295,24603
33244,28295,24604
33192,28285,24612
33224,28274,24620
33344,28245,24612
33428,28236,24588
33432,28242,24571
33412,28245,24551
33422,28261,24565
33408,28272,24556
33356,28292,24548
33324,28287,24532
33264,28281,24516
33140,28263,24484
33216,28249,24453
33146,28240,24441
32976,28233,24423
32988,28246,24415
32973,28261,24393
32868,28274,24395
32864,28286,24374
32960,28292,24357
33092,28281,24337
33216,28269,24321
33256,28250,24306
33204,28240,24279
33221,28240,24251
33292,28249,24255
33376,28260,24232
33476,28279,24208
33665,28289,24160
33742,28284,24136
33688,28284,24164
33576,28266,24146
33376,28249,24125
33188,28240,24103
33064,28239,24081
33056,28248,24068
33036,28269,24052
33056,28276,24041
33048,28290,24029
33061,28295,24012
32992,28285,24008
32873,28268,24000
32712,28255,23988
32597,28244,23976
32668,28247,23973
32568,28253,23943
32448,28268,23943
32334,28285,23940
32302,28295,23934
32324,28294,23925
32277,28287,23921
32148,28277,23907
32032,28263,23889
32017,28254,23881
32044,28252,23884
32044,28261,23862
32012,28278,23864
31992,28289,23862
32080,28311,23845
32080,28297,23846
31968,28288,23836
32030,28290,23829
31956,28258,23834
31818,28250,23823
31760,28256,23800
31744,28271,23809
31801,28276,23808
31832,28295,23808
31876,28311,23793
31900,28305,23796
31944,28305,23785
31926,28285,23793
31816,28277,23776
31684,28266,23766
31620,28265,23768
31616,28268,23773
31580,28286,23757
31496,28300,23746
31520,28313,23756
31564,28305,23756
31617,28316,23732
31637,28295,23731
31668,28279,23735
31664,28272,23739
31644,28265,23732
31684,28281,23724
31796,28295,23720
31892,28304,23724
31940,28321,23710
31936,28321,23717
31892,28318,23709
31860,28303,23711
31936,28295,23709
32016,28277,23705
32121,28283,23709
32117,28285,23698
32088,28301,23697
32088,28327,23687
32080,28332,23685
32084,28332,23692
32028,28327,23692
31972,28319,23693
31900,28292,23696
31860,28294,23700
31911,28292,23690
31928,28301,23693
31980,28315,23698
32076,28334,23701
32204,28348,23705
32312,28346,23711
32384,28343,23705
32356,28327,23700
32228,28309,23705
32125,28309,23712
32104,28303,23715
32040,28316,23716
32076,28335,23717
32112,28343,23724
32124,28356,23730
32136,28365,23743
32192,28356,23743
32240,28343,23748
32256,28319,23766
32217,28316,23772
32204,28317,23777
32220,28327,23773
32248,28341,23789
32176,28367,23796
32076,28376,23820
32048,28374,23836
32016,28377,23853
31992,28360,23872
31924,28345,23892
31980,28334,23917
31981,28335,23945
31868,28349,23969
31808,28364,23993
31868,28388,24018
31946,28391,24045
31904,28401,24085
31860,28395,24132
31833,28378,24176
31829,28364,24211
31889,28357,24229
32028,28359,24280
32113,28364,24324
32108,28391,24372
32093,28403,24393
32040,28406,24463
32010,28415,24503
32008,28412,24557
31976,28402,24616
32008,28388,24640
32048,28378,24718
32108,28375,24776
32193,28384,24823
32221,28405,24884
32292,28423,24948
32264,28445,25033
32268,28437,25045
32186,28440,25130
32212,28423,25220
32176,28413,25273
32140,28398,25353
32137,28404,25381
32156,28408,25456
32220,28437,25500
32229,28452,25568
32256,28463,25669
32276,28469,25783
32236,28473,25840
32202,28454,25932
32172,28439,26020
32125,28431,26068
32164,28425,26119
32292,28441,26167
32280,28463,26280
32146,28486,26379
32108,28493,26436
32076,28496,26552
32076,28496,26615
32056,28483,26661
32085,28464,26798
32236,28457,26942
32376,28463,27036
32480,28471,27132
32560,28477,27209
32596,28503,27301
32600,28524,27413
32644,28522,27517
32685,28516,27624
32719,28506,27757
32648,28496,27878
32540,28488,27999
32456,28484,27985
32420,28503,28110
32340,28512,28279
32277,28535,28487
32252,28557,28596
32228,28559,28696
32166,28557,28832
32144,28541,28965
32148,28532,29137
32101,28524,29260
32052,28526,29381
32044,28537,29508
32040,28551,29544
32092,28572,29697
32137,28580,29956
32236,28591,30060
32320,28585,30221
32380,28564,30296
32352,28560,30445
32333,28550,30663
32300,28557,30741
32316,28569,30860
32392,28580,30945
32472,28609,31068
32480,28623,31193
32472,28628,31495
32556,28620,31637
32656,28604,31769
32744,28593,31897
32884,28589,32041
33113,28593,32153
33432,28603,32376
33776,28625,32457
34004,28633,32501
34216,28649,32664
34436,28652,32808
34560,28645,32982
34784,28644,33259
34976,28629,33388
35088,28627,33609
35077,28631,33732
35076,28647,33821
35088,28661,33922
35161,28689,34084
35212,28711,34239
34934,28724,34544
34332,28717,34663
33576,28708,34918
32592,28696,35104
31852,28689,35121
31220,28692,35260
30692,28712,35583
30424,28732,35682
30584,28749,35960
31109,28760,35952
31652,28762,36121
32168,28754,36439
32534,28743,36620
32744,28729,36756
32856,28711,36964
32924,28719,37117
32872,28725,37296
32788,28748,37365
32740,28772,37508
32732,28788,37623
32664,28797,37828
32562,28789,37983
32464,28776,38173
32408,28765,38330
32400,28748,38476
32460,28759,38632
32592,28766,38780
32588,28790,38919
32596,28802,39081
32588,28821,39212
32556,28831,39108
32500,28823,39325
32452,28811,39551
32444,28805,39653
32352,28800,39874
32276,28797,40096
32276,28807,40126
32308,28829,40241
32289,28848,40388
32244,28865,40204
32332,28871,40540
32416,28865,40599
32488,28854,40801
32450,28839,40912
32360,28839,41082
32364,28836,41175
32361,28852,41156
32324,28867,41327
32308,28887,41428
32344,28902,41530
32428,28911,41636
32568,28906,41725
32588,28895,41596
32588,28890,41773
32564,28874,41892
32572,28871,42031
32626,28886,42100
32544,28908,42316
32444,28926,42481
32480,28940,42575
32633,28952,42516
32678,28945,42708
32816,28930,42847
32960,28919,42671
32956,28919,42853
32920,28917,42960
32864,28924,43144
32845,28949,43209
32852,28972,43435
32892,28988,43508
32896,28994,43599
32988,28991,43671
32981,28983,43751
33004,28964,43800
33032,28959,43900
33188,28967,43956
33168,28977,43932
33274,28995,44090
33422,29015,44159
33470,29033,44208
33356,29039,44295
33312,29036,44340
33344,29025,44372
33308,29015,44428
33408,29007,44461
33452,29006,44520
33480,29021,44545
33504,29042,44576
33508,29053,44575
33460,29072,44551
33572,29078,44364
33576,29076,44551
33654,29066,44630
33520,29061,44684
33484,29050,44640
33444,29055,44636
33380,29063,44712
33400,29082,44601
33492,29096,44712
33521,29122,44461
33572,29126,44484
33608,29122,44521
33648,29111,44636
33678,29089,44639
33684,29089,44585
33724,29085,44551
33688,29111,44583
33613,29117,44591
33532,29141,44551
33465,29159,44492
33500,29171,44463
33456,29160,44468
33360,29151,44199
33192,29140,44216
33004,29132,44268
32860,29138,44280
32760,29148,44187
32712,29165,44160
32616,29186,44108
32540,29200,44001
32485,29208,44053
32388,29207,44014
32320,29191,43976
32244,29188,43620
32196,29182,43644
32137,29180,43743
32180,29191,43700
32263,29217,43648
32304,29231,43567
32304,29246,43540
32240,29242,43176
32112,29255,43340
32076,29239,43229
32040,29225,42980
31944,29219,43200
31860,29220,43061
31892,29232,43073
31864,29255,42841
31844,29277,42932
31829,29292,42884
31788,29294,42619
31688,29299,42775
31592,29278,42668
31552,29272,42645
31572,29259,42332
31649,29267,42361
31732,29279,42489
31796,29292,42292
31812,29317,42316
31840,29326,41957
31848,29321,42182
31848,29329,42161
31896,29319,42102
31860,29305,41797
31828,29300,41948
31802,29297,42021
31816,29310,41794
31936,29332,41845
32029,29348,41668
32196,29366,41694
32368,29375,41702
32444,29357,41343
32452,29357,41557
32416,29343,41472
32344,29333,41520
32338,29335,41340
32332,29353,41540
32340,29367,41343
32348,29391,41387
32300,29396,41256
32252,29410,41350
32164,29413,41246
32088,29398,41256
32064,29384,40964
32040,29377,41081
32040,29372,41140
32008,29380,41205
31960,29407,41130
32008,29425,41108
32132,29445,41165
32216,29445,41168
32356,29439,41133
32416,29425,41108
32452,29412,41068
32533,29400,40929
32556,29407,40928
32512,29415,40951
32392,29441,40904
32309,29455,40740
32285,29465,40748
32308,29477,40933
32305,29479,40783
32352,29465,40525
32408,29448,40687
32376,29430,40839
32364,29439,40621
32368,29447,40701
32372,29465,40412
32380,29481,40645
32421,29500,40744
32492,29504,40620
32536,29503,40623
32584,29493,40448
32656,29473,40679
32624,29470,40543
32624,29468,40280
32637,29476,40418
32564,29493,40583
32528,29519,40582
32460,29535,40408
32532,29541,40445
32620,29526,40477
32660,29524,40244
32708,29510,40420
32772,29503,40414
32833,29492,40461
32862,29508,40333
32888,29525,40511
32916,29551,40357
33004,29562,40245
33028,29573,40528
33008,29559,40421
32984,29548,40441
32912,29540,40215
32864,29530,40471
32813,29526,40420
32765,29540,40436
32732,29559,40487
32744,29572,40271
32756,29598,40489
32780,29599,40578
32816,29589,40506
32837,29575,40540
32904,29569,40256
32917,29555,40424
32892,29559,40612
32865,29567,40592
32828,29583,40532
32840,29600,40596
32832,29613,40468
32880,29620,40668
32968,29612,40607
32996,29607,40617
33041,29588,40656
33145,29587,40535
33181,29580,40572
33156,29588,40756
33109,29606,40625
33065,29631,40711
33048,29644,40756
32909,29649,40487
32734,29640,40578
32584,29635,40748
32424,29613,40877
32224,29612,40721
32128,29610,40852
32096,29615,40580
32184,29641,40756
32300,29644,40951
32360,29671,40967
32428,29673,40901
32448,29676,40950
32464,29648,40696
32508,29648,40989
32580,29633,41092
32640,29636,41061
32709,29644,40996
32740,29658,41012
32784,29677,41063
32852,29689,41072
32928,29693,41103
33000,29687,41095
33036,29676,40870
33017,29663,41223
33044,29655,41109
33064,29650,41041
33004,29671,41095
32960,29676,41188
32944,29695,40884
32936,29711,41070
32944,29703,41268
33016,29703,41287
33140,29686,41153
33360,29679,41179
33728,29676,41208
34044,29671,41216
34344,29676,41020
34540,29689,41253
34656,29711,41313
34908,29729,41264
35208,29739,41238
35392,29737,41248
35532,29725,41213
35724,29710,41105
36000,29696,41197
36308,29703,41201
36676,29708,40907
36648,29726,40954
36136,29753,41015
35352,29779,41220
34332,29787,41119
33488,29780,41132
32780,29767,41153
32116,29754,41144
31642,29744,40853
31648,29741,40988
32032,29752,41004
32532,29760,41036
32976,29777,41177
33244,29796,41142
33441,29799,41125
33508,29784,41110
33468,29773,40996
33376,29762,41039
33221,29753,41031
33100,29749,41012
32984,29755,40727
32950,29772,40873
32948,29785,40839
32916,29805,40864
32936,29805,40992
32940,29804,41037
32928,29788,41014
32988,29773,40901
33080,29766,40673
33068,29762,40810
33061,29765,40813
32996,29789,40805
32966,29804,41006
32925,29821,40967
32871,29828,40869
32796,29810,40629
32740,29805,40740
32692,29793,40744
32700,29778,40740
32744,29777,40825
32812,29780,40928
32872,29797,40895
32832,29818,40732
32796,29831,40785
32752,29834,40812
32712,29828,40529
32736,29812,40656
32776,29807,40654
32740,29788,40760
32704,29787,40695
32718,29785,40750
32764,29804,40789
32740,29839,40654
32720,29852,40660
32781,29847,40650
32784,29845,40658
32860,29835,40620
32940,29814,40722
33018,29807,40724
33105,29801,40882
33188,29807,40954
33253,29822,40959
33256,29844,40794
33308,29854,40893
33344,29860,40653
33380,29855,40785
33424,29839,40853
33408,29816,41029
33409,29820,40884
33428,29818,40965
33388,29822,40825
33260,29833,40926
33172,29857,41060
33096,29869,40953
32998,29875,40967
32932,29865,40977
32884,29852,40706
32888,29838,40918
32860,29831,41044
32848,29816,40867
32850,29831,40934
32846,29841,40684
32800,29868,40943
32804,29879,40978
32852,29895,40829
32966,29884,40814
33048,29871,40844
33056,29841,40863
33024,29831,40867
33016,29831,40733
33046,29840,40743
33088,29862,40737
33120,29872,40436
33116,29887,40455
33076,29888,40501
33065,29890,40438
33088,29877,40472
33175,29860,40455
33300,29847,40493
33368,29841,40559
33492,29852,40556
33564,29869,40548
33608,29882,40517
33670,29897,40404
33648,29900,40417
33700,29903,40402
33812,29879,40367
33808,29861,40341
33816,29855,40326
33808,29855,40037
33716,29861,40144
33636,29873,40137
33512,29892,40127
33460,29909,40212
33444,29916,40241
33404,29898,40092
33370,29892,40164
33212,29872,39892
33237,29863,39939
33224,29861,40020
33302,29862,40159
33244,29876,40008
33188,29904,40028
33142,29914,40017
33124,29905,39749
33156,29909,39853
33156,29901,39860
33100,29876,39865
33052,29865,40015
32984,29860,39800
32956,29872,39893
33016,29883,39624
32985,29894,39847
32944,29919,39726
32868,29919,39808
32708,29919,39697
32608,29909,39804
32468,29895,39709
32376,29877,39583
32412,29876,39735
32388,29884,39620
32356,29895,39628
32368,29911,39473
32409,29925,39496
32428,29933,39592
32408,29918,39421
32357,29909,39477
32373,29895,39196
32444,29879,39341
32464,29881,39319
32480,29880,39351
32512,29901,39084
32545,29914,39178
32572,29918,39265
32508,29935,39145
32396,29925,39193
32416,29919,38968
32370,29893,39108
32368,29879,39112
32380,29879,38980
32380,29887,39018
32352,29895,38861
32325,29919,38976
32332,29929,38909
32309,29932,38732
32221,29928,38796
32172,29917,38753
32160,29905,38776
32140,29890,38642
32136,29876,38672
32148,29892,38683
32109,29905,38653
32096,29927,38588
32152,29935,38580
32254,29940,38421
32284,29935,38559
32237,29921,38406
32120,29905,38276
31976,29892,38436
31944,29889,38336
31988,29892,38416
32096,29914,38269
32204,29927,38327
32332,29937,38335
32460,29935,38220
32568,29930,38309
32613,29918,38086
32576,29903,38189
32520,29887,38277
32441,29887,38213
32356,29889,38060
32344,29908,38229
32333,29927,38028
32358,29935,38119
32448,29942,38089
32472,29935,37868
32509,29919,37914
32464,29904,38012
32416,29892,37893
32428,29884,37927
32382,29895,37928
32356,29905,37910
32320,29926,37763
32324,29935,37918
32384,29941,37796
32460,29935,37805
32500,29918,37572
32508,29908,37624
32580,29894,37668
32712,29887,37648
32788,29888,37674
32796,29900,37658
32828,29918,37476
32877,29925,37524
32808,29935,37522
32796,29939,37511
32762,29920,37509
32808,29902,37500
32769,29895,37269
32808,29886,37375
32924,29893,37332
32976,29904,37383
33024,29919,37359
33100,29938,37349
33064,29941,37140
33028,29933,37132
32980,29917,37156
32912,29906,37271
32912,29892,37302
32953,29886,37148
32940,29892,37169
33008,29904,37009
33140,29924,37008
33160,29927,37148
33112,29951,37172
33060,29932,37102
32996,29919,37062
32928,29908,37048
32876,29891,37033
32816,29892,37044
32792,29892,36856
32761,29913,37000
32792,29911,36986
32860,29929,36983
32881,29942,36772
32856,29935,36748
32800,29924,36793
32708,29903,36813
32616,29893,36843
32492,29892,36933
32440,29893,36794
32422,29910,36849
32404,29924,36672
32414,29941,36764
32492,29943,36884
32508,29932,36759
32542,29924,36812
32600,29908,36644
32692,29892,36821
32753,29886,36733
32848,29889,36783
32896,29898,36584
32924,29916,36615
32916,29937,36721
32916,29933,36692
32864,29924,36719
32796,29920,36750
32748,29901,36664
32702,29881,36777
32724,29881,36630
32748,29887,36716
32773,29903,36543
32776,29916,36724
32732,29926,36748
32712,29941,36636
32656,29924,36716
32592,29916,36516
32553,29896,36653
32528,29887,36717
32532,29878,36652
32589,29881,36637
32660,29893,36644
32784,29911,36697
32988,29927,36540
33168,29935,36541
33336,29927,36680
33572,29911,36644
33864,29887,36581
34112,29876,36673
34368,29869,36508
34568,29871,36689
34708,29895,36565
34892,29906,36628
35132,29918,36445
35380,29924,36485
35532,29924,36518
35684,29909,36653
35964,29897,36493
36308,29880,36399
36448,29877,36612
36124,29892,36493
35352,29903,36564
34404,29933,36383
33460,29945,36349
32812,29945,36441
32252,29942,36526
31612,29933,36539
31204,29908,36496
31346,29902,36388
31796,29890,36432
32296,29885,36465
32733,29901,36300
33012,29913,36278
33152,29927,36420
33232,29935,36444
33176,29929,36319
33120,29921,36287
33040,29897,36364
32921,29882,36176
32893,29868,36209
32903,29879,36372
32925,29893,36272
32904,29911,36220
32888,29922,36240
32820,29919,36274
32770,29921,36276
32688,29903,36096
32636,29887,36103
32632,29868,36231
32621,29862,36183
32576,29874,36188
32576,29884,36196
32528,29903,36013
32488,29915,36012
32448,29919,36070
32456,29916,36196
32496,29894,36119
32568,29877,35948
32596,29863,35980
32664,29861,36088
32725,29868,36121
32740,29873,36036
32665,29894,36047
32608,29896,35899
32580,29908,35909
32584,29905,36076
32637,29887,36072
32596,29865,36076
32548,29861,36065
32564,29853,36013
32576,29858,35981
32620,29873,35952
32609,29880,36015
32628,29895,36028
32630,29900,36068
32664,29893,36076
32688,29879,36084
32712,29864,36087
32704,29855,36091
32824,29835,36092
32916,29844,36041
32912,29859,36065
32872,29874,36065
32912,29880,36110
32892,29895,36148
32849,29881,36182
32748,29868,36200
32664,29860,36205
32653,29838,36057
32704,29831,36057
32734,29839,36094
32788,29849,36260
32872,29862,36261
32960,29879,36236
33064,29882,36255
33036,29873,36212
32996,29868,36221
32988,29845,36248
33044,29828,36212
33074,29828,36244
33040,29822,36240
32948,29839,36226
32872,29853,36207
32844,29859,36209
32897,29873,36172
32972,29865,36160
32980,29855,36170
32993,29834,36069
33032,29829,36012
33096,29819,36073
33209,29820,36040
33284,29839,36013
33312,29854,35965
33352,29863,35957
33432,29871,35966
33476,29863,35976
33441,29853,36020
33460,29830,36012
33436,29816,35996
33484,29812,35988
33510,29813,35836
33425,29831,35804
33356,29844,35975
33342,29852,35940
33324,29862,35929
33348,29857,35950
33360,29846,35945
33388,29831,35784
33391,29812,35973
33372,29807,35837
33324,29804,35911
33248,29822,35923
33204,29840,35788
33148,29845,35945
33108,29860,35877
33004,29846,35894
32932,29836,35735
32884,29820,35796
32805,29803,35874
32764,29797,35806
32732,29804,35689
32729,29808,35692
32684,29821,35813
32660,29839,35737
32648,29845,35684
32644,29842,35668
32669,29831,35672
32680,29809,35727
32608,29790,35545
32392,29789,35645
32244,29796,35670
32160,29812,35549
32120,29824,35573
32137,29839,35584
32096,29849,35375
32032,29831,35383
31952,29827,35420
31873,29797,35493
31837,29784,35380
31880,29780,35385
31948,29787,35407
31976,29804,35308
32012,29818,35300
32056,29828,35280
32080,29831,35142
32136,29824,35117
32176,29820,35193
32164,29805,35237
32180,29787,35173
32140,29774,35066
32152,29783,35111
32164,29796,35092
32196,29807,35092
32301,29821,34895
32316,29823,34892
32320,29822,34861
32332,29802,34841
32396,29788,34805
32479,29775,34814
32506,29759,34936
32480,29769,34885
32368,29783,34758
32257,29799,34782
32232,29815,34788
32292,29814,34776
32360,29808,34594
32324,29793,34568
32272,29783,34661
32208,29764,34685
32236,29757,34561
32260,29767,34627
32340,29775,34604
32484,29793,34589
32636,29799,34398
32725,29815,34385
32764,29804,34361
32750,29782,34505
32788,29767,34324
32896,29757,34302
32968,29745,34297
33000,29755,34279
32992,29767,34279
32992,29776,34398
32952,29793,34402
32828,29797,34384
32756,29793,34338
32724,29780,34308
32680,29761,34329
32668,29752,34333
32628,29746,34300
32592,29738,34263
32544,29756,34183
32436,29771,34193
32292,29792,34220
32128,29796,34230
32044,29792,34227
32172,29770,34068
32336,29743,34081
32474,29740,34084
32624,29732,34143
32736,29739,34127
32757,29748,34062
32716,29760,34031
32672,29781,33980
32688,29778,33975
32714,29768,33967
32704,29762,33948
32728,29741,34084
32736,29735,34086
32676,29725,34084
32688,29719,34016
32772,29737,34031
32840,29751,34021
32808,29761,34028
32852,29760,33871
32840,29765,33864
32924,29753,33879
32920,29737,33829
32936,29716,33824
32972,29701,33799
32900,29713,33799
32772,29726,33885
32632,29751,33937
32494,29756,33888
32381,29765,33860
32349,29760,33884
32296,29749,33721
32396,29729,33740
32501,29703,33731
32598,29700,33796
32697,29698,33812
32648,29727,33813
32550,29729,33799
32464,29750,33773
32428,29755,33744
32404,29755,33764
32456,29733,33741
32540,29716,33733
32620,29702,33684
32688,29700,33605
32718,29698,33556
32754,29702,33556
32836,29722,33535
32840,29736,33534
32864,29741,33513
32845,29735,33516
32820,29727,33646
32756,29703,33515
32676,29684,33620
32656,29684,33615
32644,29692,33600
32656,29697,33594
32684,29713,33577
32708,29725,33567
32840,29732,33565
32932,29732,33543
32992,29706,33542
32988,29700,33381
33020,29679,33350
33007,29670,33349
32960,29679,33337
32968,29690,33341
32992,29703,33439
33028,29716,33366
33056,29727,33452
33120,29719,33352
33124,29703,33377
33124,29680,33383
33056,29669,33361
32992,29668,33372
32882,29654,33385
32852,29680,33247
32788,29697,33226
32680,29703,33207
32650,29717,33345
32664,29712,33334
32744,29703,33317
32804,29679,33310
32876,29663,33312
32910,29651,33159
32909,29653,33169
32792,29671,33175
32744,29679,33124
32792,29695,33120
32833,29695,33111
32872,29697,33271
32904,29686,33260
32925,29671,33249
33006,29652,33237
33188,29646,33231
33444,29643,33221
33728,29663,33180
34041,29668,33122
34348,29684,33185
34544,29689,33191
34760,29681,33042
34972,29671,33127
35276,29653,33181
35556,29642,33151
35800,29639,33062
36069,29636,33069
36384,29660,33103
36717,29676,33142
36832,29691,33091
36257,29700,32959
35421,29703,32971
34392,29695,32932
33440,29684,32948
32783,29664,32946
32208,29652,32948
31652,29663,32927
31441,29669,32976
31644,29687,33045
31996,29702,33015
32416,29703,33011
32760,29694,32925
33058,29676,32901
33140,29655,32936
33088,29641,33049
33162,29641,33071
33132,29636,33051
33152,29651,33023
33209,29669,32993
33188,29680,33072
33104,29685,33017
33036,29676,32972
32996,29660,33079
32960,29645,33087
32980,29633,33092
32941,29619,33108
32868,29627,33104
32852,29636,33050
32840,29651,33012
32881,29664,33045
32945,29666,33012
32960,29666,33063
33076,29653,32997
33220,29644,32948
33276,29624,32956
33304,29613,33047
33272,29617,33071
33209,29625,33015
33117,29640,33068
33144,29652,33086
33200,29658,32911
33244,29649,33092
33268,29645,32984
33304,29631,33030
33268,29615,33042
33228,29606,33073
33247,29615,33048
33264,29621,33073
33196,29637,33081
33104,29645,32957
33076,29655,33076
33052,29644,33031
32960,29620,33124
32853,29618,33004
32812,29602,33007
32832,29596,33116
32896,29596,33149
32920,29613,33199
32929,29626,33221
32896,29647,33245
32916,29642,33239
32980,29636,33231
33016,29629,33157
33082,29612,33135
33113,29591,33297
33132,29588,33224
33114,29583,33317
33076,29607,33196
33016,29614,33247
33052,29632,33375
32984,29639,33278
32988,29637,33332
33048,29620,33357
33088,29602,33364
33140,29584,33223
33140,29574,33214
33124,29585,33208
33140,29595,33254
33180,29608,33287
33216,29631,33215
33292,29631,33172
33388,29629,33180
33364,29615,33153
33357,29597,33136
33340,29581,33124
33342,29583,33182
33312,29576,33144
33284,29590,33081
33336,29607,33071
33438,29607,33054
33440,29628,33044
33456,29621,33031
33544,29606,33023
33556,29577,32999
33644,29575,33079
33701,29575,33096
33700,29572,33112
33708,29584,33073
33744,29606,33003
33774,29612,33023
33680,29626,33028
33508,29617,32884
33336,29601,32847
33160,29583,32853
33037,29575,32921
32948,29564,32933
32948,29567,32927
32970,29575,32836
32916,29591,32844
32848,29607,32840
32804,29612,32853
32824,29612,32735
32785,29603,32673
32748,29580,32692
32720,29567,32752
32732,29556,32732
32768,29561,32615
32782,29573,32618
32741,29590,32692
32600,29607,32703
32485,29607,32576
32444,29607,32612
32436,29597,32609
32420,29572,32468
32380,29565,32437
32424,29554,32397
32412,29556,32508
32440,29570,32548
32408,29591,32495
32404,29598,32495
32384,29596,32413
32365,29598,32364
32372,29588,32359
32316,29572,32361
32285,29553,32357
32356,29550,32343
32333,29559,32325
32280,29569,32209
32298,29575,32184
32288,29596,32147
32216,29603,32124
32200,29592,32086
32168,29589,32074
32032,29562,32053
31876,29554,32020
31888,29540,32052
31916,29545,31996
31920,29556,31956
31952,29573,31948
32052,29589,32068
32144,29601,31956
32244,29596,31916
32292,29576,31874
32270,29560,31903
32224,29551,31972
32161,29543,31983
32068,29545,31980
32092,29563,31919
32120,29575,31879
32168,29580,31898
32192,29591,31930
32196,29584,31821
32242,29575,31787
32316,29557,31758
32369,29540,31743
32420,29533,31824
32448,29540,31881
32470,29544,31879
32572,29565,31796
32672,29580,31786
32708,29583,31813
32660,29579,31841
32680,29570,31845
32628,29543,31725
32560,29537,31702
32516,29526,31692
32478,29532,31804
32420,29546,31844
32408,29561,31759
32433,29572,31830
32404,29583,31734
32336,29582,31720
32288,29567,31789
32268,29556,31789
32288,29532,31829
32312,29525,31664
32284,29529,31836
32300,29541,31741
32340,29551,31783
32344,29567,31798
32304,29575,31801
32273,29575,31668
32293,29561,31655
32316,29538,31653
32364,29528,31617
32464,29525,31588
32464,29529,31653
32500,29536,31721
32456,29559,31686
32380,29574,31625
32380,29572,31664
32448,29575,31572
32497,29553,31495
32472,29543,31561
32440,29526,31581
32407,29516,31605
32404,29525,31452
32376,29539,31432
32388,29549,31399
32384,29564,31429
32320,29572,31428
32220,29572,31503
32168,29567,31490
32189,29540,31412
32200,29529,31423
32220,29513,31399
32260,29525,31414
32292,29532,31332
32213,29550,31298
32108,29567,31268
32048,29573,31239
31998,29567,31213
32020,29551,31216
31996,29539,31239
31997,29527,31232
32040,29517,31180
32172,29516,31198
32392,29520,31272
32628,29537,31269
32748,29554,31239
32772,29564,31211
32776,29572,31204
32740,29548,31167
32616,29533,31218
32509,29521,31168
32429,29508,31153
32368,29512,31173
32384,29527,31164
32452,29539,31163
32520,29558,31159
32632,29562,31060
32678,29551,31028
32704,29547,30991
32768,29528,31016
32692,29508,31046
32604,29497,31061
32580,29513,31102
32584,29519,31020
32544,29533,31062
32488,29551,31076
32469,29564,31074
32544,29553,30999
32644,29545,30948
32724,29513,30938
32816,29507,30903
32862,29495,30926
32832,29505,31036
32736,29516,30991
32676,29537,30988
32640,29548,30993
32592,29554,31009
32632,29553,31045
32604,29535,30916
32584,29522,30948
32505,29499,31059
32512,29502,30991
32481,29497,31033
32484,29513,30975
32478,29526,31065
32532,29545,30972
32632,29553,30962
32685,29549,30951
32764,29535,30909
32808,29516,30944
32796,29502,30937
32788,29490,30941
32748,29501,30935
32716,29509,31014
32728,29523,31104
32781,29535,31060
32764,29543,31078
32752,29540,31017
32804,29527,30965
32764,29518,31056
32677,29494,31105
32572,29487,31043
32536,29492,31050
32512,29498,31079
32512,29516,31071
32536,29536,31085
32552,29541,31096
32508,29524,30944
32512,29528,31072
32644,29511,31025
32738,29496,31066
32868,29481,31070
33080,29477,30919
33392,29498,31066
33736,29516,30997
33992,29529,31029
34228,29535,30916
34528,29528,30902
34741,29514,30844
34997,29499,30957
35288,29491,30925
35492,29476,30956
35620,29489,30833
35785,29494,30772
35965,29517,30916
36096,29526,30900
36068,29548,30895
35444,29541,30845
34664,29537,30817
33688,29526,30847
32754,29505,30668
32168,29511,30768
31629,29504,30798
31120,29527,30720
30980,29535,30711
31331,29538,30753
31864,29545,30621
32324,29541,30653
32576,29528,30653
32732,29513,30676
32813,29496,30572
32828,29489,30528
32820,29487,30656
32817,29493,30609
32868,29514,30540
32832,29520,30491
32856,29539,30608
32856,29519,30537
32816,29513,30583
32720,29508,30425
32636,29489,30559
32584,29477,30512
32580,29479,30513
32600,29486,30534
32660,29506,30544
32704,29517,30460
32704,29524,30413
32716,29522,30441
32748,29508,30471
32768,29499,30426
32788,29476,30425
32793,29465,30500
32824,29463,30404
32772,29482,30484
32748,29503,30451
32672,29511,30484
32672,29515,30479
32660,29519,30484
32722,29500,30441
32752,29487,30426
32752,29469,30431
32632,29462,30487
32664,29467,30449
32652,29477,30484
32608,29494,30492
32700,29503,30504
32712,29517,30394
32704,29508,30364
32696,29498,30456
32668,29477,30500
32628,29460,30549
32648,29459,30504
32652,29451,30565
32689,29455,30596
32704,29480,30613
32684,29499,30548
32762,29500,30554
32864,29504,30564
32892,29481,30566
32932,29468,30591
32989,29447,30604
33088,29440,30576
33132,29447,30593
33177,29460,30591
33264,29479,30599
33292,29493,30646
33352,29496,30638
33436,29487,30636
33476,29481,30660
33504,29463,30636
33504,29447,30615
33412,29438,30621
33300,29432,30636
33221,29455,30758
33168,29469,30714
33256,29484,30720
33188,29493,30753
33172,29478,30591
33164,29478,30580
33116,29448,30711
33100,29441,30713
33072,29436,30700
33052,29437,30664
33036,29447,30685
33080,29460,30687
33112,29472,30668
33176,29476,30558
33164,29484,30501
33164,29469,30639
33101,29455,30591
33084,29432,30500
33076,29421,30488
33032,29427,30539
33141,29442,30550
33204,29457,30549
33240,29471,30573
33272,29476,30424
33264,29479,30457
33304,29465,30529
33304,29442,30485
33308,29431,30526
33308,29416,30377
33332,29423,30373
33312,29434,30476
33305,29447,30497
33216,29467,30456
33244,29476,30460
33244,29472,30486
33224,29465,30469
33180,29436,30473
33240,29417,30488
33204,29420,30493
33130,29409,30471
33044,29429,30494
32961,29437,30471
32920,29447,30408
32896,29452,30359
32848,29467,30320
32780,29447,30327
32668,29428,30357
32657,29417,30327
32628,29406,30323
32524,29409,30324
32481,29421,30372
32460,29439,30409
32408,29452,30445
32421,29461,30409
32372,29456,30383
32218,29444,30380
32021,29433,30367
31892,29399,30416
31880,29402,30314
31944,29404,30316
32024,29420,30272
32096,29420,30278
32122,29441,30354
32148,29458,30324
32272,29454,30349
32304,29436,30231
32376,29423,30176
32389,29407,30309
32400,29392,30260
32396,29393,30274
32445,29403,30155
32500,29417,30183
32536,29437,30228
32448,29447,30200
32357,29447,30224
32276,29429,30112
32216,29412,30069
32160,29399,30045
32202,29391,30028
32204,29391,30036
32212,29396,30022
32224,29417,30025
32232,29428,30034
32220,29439,30052
32212,29442,30112
32168,29425,30076
32004,29411,30033
31964,29395,30038
31969,29385,30044
31984,29383,30046
32028,29392,29892
32088,29414,29933
32056,29421,29988
32048,29431,30000
32028,29430,30018
32024,29413,29950
32072,29399,29945
32072,29380,29888
32048,29377,29863
32036,29373,29998
32052,29383,29970
32060,29404,29997
32016,29409,30002
31997,29429,29908
31984,29421,29933
31996,29412,29992
32032,29396,29954
32104,29377,29973
32144,29360,29922
32169,29368,29841
32174,29380,29898
32202,29396,29940
32192,29410,29927
32188,29421,29958
32160,29421,29975
32148,29414,29972
32156,29391,29975
32068,29374,29926
32024,29354,29924
32068,29361,29924
32156,29372,29887
32292,29390,29806
32308,29399,29834
32284,29409,29790
32317,29412,29774
32428,29393,29829
32496,29383,29876
32520,29365,29891
32612,29353,29805
32584,29348,29766
32576,29369,29737
32616,29380,29815
32660,29385,29869
32744,29394,29844
32816,29393,29783
32860,29385,29732
32840,29367,29828
32904,29350,29779
32913,29341,29774
32924,29348,29796
32968,29359,29724
32957,29373,29684
32980,29388,29677
32988,29395,29717
32972,29396,29765
32946,29380,29748
32929,29359,29754
32864,29348,29703
32840,29341,29736
32850,29341,29621
32880,29349,29575
32844,29364,29684
32776,29383,29652
32809,29391,29693
32868,29385,29561
32951,29367,29616
32956,29352,29665
32948,29343,29615
32892,29324,29638
32836,29329,29647
32824,29341,29545
32772,29357,29500
32656,29369,29488
32632,29377,29559
32616,29382,29543
32644,29370,29570
32644,29351,29500
32676,29333,29412
32752,29327,29422
32856,29319,29504
32916,29327,29527
32900,29348,29484
32886,29359,29481
32852,29369,29500
32832,29367,29496
32860,29360,29396
32884,29340,29333
32916,29326,29388
32888,29317,29460
32812,29316,29436
32662,29318,29407
32576,29335,29406
32631,29357,29422
32684,29365,29319
32652,29364,29285
32632,29348,29343
32653,29334,29381
32664,29320,29352
32588,29305,29356
32560,29311,29367
32560,29319,29361
32672,29334,29353
32692,29356,29348
32724,29361,29268
32704,29354,29259
32704,29353,29228
32796,29322,29212
32892,29309,29305
32884,29301,29284
32886,29300,29252
32864,29308,29252
32868,29319,29247
32908,29340,29231
32920,29351,29247
32897,29349,29253
32889,29341,29247
32914,29318,29164
32905,29306,29134
32960,29294,29165
32992,29300,29152
33016,29300,29130
33024,29319,29124
32984,29333,29108
32928,29349,29049
32948,29335,29132
32944,29329,29152
32876,29308,29165
32804,29301,29153
32764,29293,29140
32697,29287,29112
32676,29297,29119
32782,29317,29124
32829,29327,29135
32828,29341,29064
32858,29333,29033
32884,29325,29067
32948,29309,29084
33088,29299,29072
33388,29283,29100
33704,29276,29029
33964,29287,28965
34237,29301,28980
34460,29319,29060
34592,29322,29038
34756,29324,29023
34864,29314,28940
34940,29300,28974
35088,29286,28992
35256,29273,29061
35368,29279,29045
35508,29292,28953
35580,29310,28956
35468,29333,29014
34836,29332,29017
33984,29343,28902
32952,29337,28982
32048,29319,28997
31392,29308,28975
30876,29302,28935
30440,29305,28890
30328,29309,28905
30688,29321,29034
31216,29329,28990
31680,29341,28969
32052,29343,28892
32295,29321,28959
32485,29313,29020
32500,29282,28991
32404,29284,29028
32416,29276,28901
32388,29281,29015
32364,29299,29009
32368,29319,29028
32412,29320,28964
32432,29325,28994
32440,29305,29055
32480,29293,29021
32468,29276,29047
32548,29269,29063
32588,29265,29012
32541,29280,28944
32524,29295,29065
32500,29300,29092
32520,29319,29050
32429,29311,29064
32428,29307,29075
32444,29293,29036
32388,29270,29040
32250,29255,29103
32240,29259,29097
32240,29268,29116
32156,29289,29065
32084,29295,28993
32108,29311,29124
32133,29303,29100
32124,29297,29151
32184,29281,29078
32289,29260,29145
32336,29250,29133
32456,29249,29149
32596,29257,29140
32712,29270,29159
32780,29281,29238
32772,29300,29181
32756,29300,29138
32832,29280,29154
32864,29261,29203
32840,29245,29217
32836,29240,29295
32828,29243,29365
32826,29246,29400
32788,29265,29410
32784,29287,29429
32824,29294,29424
32836,29292,29487
32916,29284,29441
33004,29258,29470
33076,29245,29429
33128,29229,29469
33168,29227,29535
33192,29244,29588
33172,29267,29636
33176,29285,29616
33228,29287,29620
33300,29285,29654
33340,29279,29661
33384,29260,29621
33424,29228,29602
33404,29228,29545
33376,29237,29640
33436,29239,29661
33476,29255,29682
33533,29260,29612
33532,29277,29542
33500,29270,29593
33460,29265,29606
33452,29253,29600
33485,29236,29658
33417,29223,29612
33368,29223,29623
33296,29233,29613
33216,29249,29605
33121,29263,29604
33012,29279,29517
33004,29275,29427
33008,29262,29425
32977,29248,29534
32981,29237,29480
33000,29221,29500
32992,29219,29410
33040,29223,29348
33032,29245,29326
33053,29253,29444
33172,29265,29373
33200,29271,29371
33220,29258,29308
33200,29233,29231
33024,29222,29250
32960,29211,29243
32996,29212,29254
33108,29219,29305
33088,29237,29240
33040,29245,29234
32948,29258,29248
32856,29260,29101
32824,29254,29140
32720,29235,29172
32609,29221,29171
32588,29211,29048
32632,29215,29073
32620,29221,29117
32654,29233,29080
32648,29253,29076
32638,29252,29034
32574,29259,28933
32572,29245,28973
32500,29232,29028
32472,29214,29001
32484,29207,28980
32452,29202,28995
32400,29209,28839
32340,29233,28965
32312,29239,28910
32325,29257,28904
32248,29261,28900
32196,29242,28820
32260,29222,28865
32288,29200,28839
32332,29191,28858
32382,29191,28708
32348,29209,28776
32388,29217,28773
32429,29234,28796
32488,29241,28727
32560,29243,28638
32578,29232,28724
32535,29220,28717
32460,29204,28716
32486,29188,28710
32492,29188,28694
32538,29191,28701
32652,29213,28703
32728,29229,28697
32780,29243,28679
32870,29237,28668
32890,29226,28660
32828,29212,28646
32724,29202,28574
32638,29183,28486
32552,29183,28551
32509,29191,28575
32460,29215,28548
32466,29229,28573
32388,29231,28505
32416,29239,28453
32480,29223,28457
32544,29209,28525
32624,29191,28465
32684,29183,28499
32792,29176,28433
32728,29191,28358
32664,29205,28457
32668,29221,28423
32644,29233,28413
32493,29234,28423
32452,29228,28359
32500,29208,28299
32536,29191,28410
32540,29183,28384
32460,29178,28263
32352,29188,28384
32348,29204,28373
32424,29216,28295
32452,29228,28284
32508,29235,28324
32648,29220,28328
32832,29191,28340
32953,29179,28214
32988,29172,28300
32936,29172,28256
32912,29181,28184
32830,29191,28279
32776,29215,28264
32712,29224,28176
32596,29224,28179
32594,29214,28242
32688,29191,28232
32692,29181,28221
32712,29169,28244
32720,29173,28188
32648,29176,28106
32620,29191,28125
32653,29204,28217
32768,29221,28197
32764,29220,28160
32848,29209,28083
32904,29185,28196
32888,29175,28156
32844,29161,28173
32764,29165,28117
32672,29172,28052
32574,29191,28149
32508,29211,28133
32476,29220,28120
32512,29209,28135
32564,29208,28151
32588,29188,28064
32586,29175,28021
32612,29169,28058
32620,29162,28136
32640,29172,28131
32676,29191,28093
32780,29204,28097
32852,29209,28100
32872,29219,28100
32901,29209,28098
32832,29188,28105
32714,29180,28112
32676,29171,28078
32636,29164,28097
32628,29173,28098
32588,29181,28093
32600,29195,28109
32638,29220,28025
32637,29223,28015
32624,29213,27976
32620,29191,27968
32706,29160,27975
32788,29164,28069
32797,29159,28084
32744,29167,28090
32712,29182,28055
32684,29211,28076
32613,29205,28089
32548,29214,28091
32516,29207,28091
32596,29190,28047
32640,29181,28005
32696,29167,28012
32700,29166,27989
32686,29167,28101
32693,29191,28087
32741,29207,28071
32740,29223,28079
32773,29218,28101
32860,29206,28104
32925,29186,28055
33092,29175,28055
33148,29171,28028
33232,29157,28047
33241,29175,28026
33272,29191,28057
33256,29215,28065
33144,29215,28015
33164,29221,28079
33147,29209,28145
33040,29191,28118
32988,29180,28128
33026,29164,28141
33108,29164,28146
33088,29172,28153
33088,29191,28175
33044,29204,28112
33024,29218,28123
33076,29221,28194
33028,29209,28135
33020,29191,28078
33060,29185,28063
33052,29173,28100
33032,29161,28167
33048,29177,28198
33032,29191,28185
32956,29207,28217
32940,29218,28213
32980,29224,28197
32900,29210,28220
32869,29196,28216
32860,29191,28190
32912,29169,28232
32964,29171,28168
32936,29180,28143
32928,29191,28106
32788,29209,28128
32740,29223,28128
32760,29228,28110
32796,29220,28196
32844,29202,28224
32980,29185,28216
33108,29170,28226
33196,29175,28184
33220,29172,28210
33228,29200,28149
33316,29212,28100
33140,29227,28100
33008,29223,28158
33028,29220,28209
33036,29199,28193
33052,29185,28181
32936,29170,28212
32876,29171,28116
32912,29187,28100
32964,29196,28193
33024,29214,28178
33160,29228,28152
33252,29229,28162
33332,29224,28183
33416,29211,28125
33590,29191,28061
33893,29173,28180
34304,29175,28143
34632,29183,28158
34980,29199,28114
35232,29216,28105
35360,29220,28044
35560,29228,28039
35748,29220,28061
35853,29206,28141
35845,29191,28103
35788,29189,28122
35656,29190,28004
35692,29204,28062
35616,29220,28109
35104,29239,28073
34340,29258,28083
33470,29256,28053
32656,29256,27972
32128,29240,28070
31804,29225,28064
31461,29214,28052
31349,29215,28079
31540,29215,27999
31968,29233,27988
32342,29243,28074
32608,29258,28064
32837,29261,28041
33040,29247,28071
33076,29236,27964
33116,29221,28036
33032,29209,28072
32900,29209,28057
32876,29219,28049
32836,29223,28069
32784,29249,28084
32876,29261,28012
33004,29263,28020
33020,29252,28089
32808,29234,28081
32920,29215,28069
32990,29205,28092
32940,29205,28108
32848,29214,28061
32792,29236,28028
32830,29249,28004
32916,29257,28024
32956,29262,28098
32952,29253,28089
32908,29236,28073
32924,29221,28060
32944,29215,28060
32925,29204,28046
32862,29222,28044
32896,29231,28045
32933,29259,28036
32973,29260,28038
33046,29262,28061
33056,29247,28048
33168,29247,27967
33200,29235,27956
33300,29216,27929
33324,29209,28028
33408,29228,28039
33384,29241,28033
33396,29257,28016
33436,29264,28004
33444,29268,28015
33474,29256,28021
33512,29249,28040
33508,29229,27966
33528,29218,27973
33484,29220,27956
33464,29230,27938
33376,29238,27940
33352,29264,28025
33344,29273,28036
33344,29277,28023
33336,29266,28028
33470,29248,28039
33557,29232,28045
33580,29229,28039
33552,29220,28039
33448,29238,27930
33356,29247,27958
33364,29264,27927
33424,29281,27896
33476,29287,27896
33480,29279,27952
33484,29267,27960
33556,29248,27924
33692,29237,27916
33728,29236,27868
33748,29245,27863
33748,29260,27757
33652,29276,27764
33530,29283,27773
33412,29290,27743
33384,29285,27706
33356,29267,27689
33356,29252,27638
33404,29237,27551
33532,29239,27617
33568,29247,27590
33608,29267,27468
33688,29287,27532
33632,29290,27503
33580,29293,27425
33480,29293,27358
33480,29270,27423
33469,29252,27375
33510,29232,27366
33572,29247,27279
33604,29263,27224
33612,29271,27281
33616,29287,27231
33600,29297,27236
33660,29306,27213
33662,29293,27143
33500,29279,27129
33420,29262,27141
33393,29255,27097
33240,29252,27092
33216,29263,27031
33164,29279,26992
33124,29287,27047
32948,29309,26999
32780,29300,26997
32784,29297,26948
32748,29289,26884
32656,29269,26910
32572,29260,26930
32512,29258,26917
32461,29256,26846
32432,29282,26831
32470,29298,26863
32464,29315,26831
32384,29303,26828
32332,29306,26762
32264,29290,26724
32284,29270,26761
32204,29260,26748
32177,29258,26717
32090,29268,26717
31944,29287,26645
31878,29300,26596
31984,29308,26615
32032,29317,26620
32033,29308,26597
32041,29294,26583
32013,29273,26564
32068,29264,26493
32112,29268,26440
32148,29275,26490
32196,29287,26459
32272,29303,26375
32244,29319,26384
32174,29316,26412
32144,29311,26353
32118,29295,26333
32052,29278,26311
31940,29269,26284
31864,29261,26276
31848,29272,26231
31862,29297,26167
31887,29306,26217
31972,29327,26176
31984,29319,26149
31896,29319,26127
31828,29300,26119
31832,29284,26086
31808,29259,26039
31772,29274,26028
31790,29281,26049
31772,29299,26016
31892,29310,26008
31908,29321,25968
31983,29319,25924
32068,29319,25910
32189,29302,25899
32280,29284,25892
32332,29270,25903
32404,29264,25910
32392,29283,25873
32380,29293,25872
32352,29313,25864
32240,29333,25848
32288,29331,25836
32340,29314,25826
32376,29308,25815
32380,29292,25799
32352,29283,25793
32340,29271,25784
32376,29282,25765
32420,29293,25743
32408,29314,25747
32400,29319,25731
32401,29324,25697
32448,29319,25692
32480,29309,25680
32464,29287,25660
32472,29279,25642
32488,29275,25636
32420,29277,25629
32456,29288,25620
32432,29311,25615
32460,29326,25639
32600,29329,25628
32748,29316,25615
32848,29298,25615
32816,29281,25602
32773,29269,25572
32765,29268,25557
32668,29277,25572
32720,29295,25575
32528,29319,25582
32516,29327,25581
32472,29327,25572
32532,29323,25565
32548,29311,25571
32552,29285,25536
32552,29274,25572
32636,29270,25580
32704,29280,25580
32744,29293,25577
32840,29307,25583
32836,29318,25596
32816,29327,25572
32880,29314,25613
32908,29303,25614
32892,29285,25633
32904,29269,25620
32964,29267,25648
33030,29283,25657
33052,29292,25692
32964,29305,25661
32836,29319,25718
32736,29324,25732
32641,29316,25742
32636,29300,25734
32592,29286,25727
32588,29275,25777
32584,29268,25805
32596,29282,25806
32604,29289,25830
32588,29308,25815
32469,29319,25829
32526,29332,25853
32608,29316,25876
32718,29294,25876
32808,29276,25863
32908,29269,25915
32936,29263,25942
32902,29271,25944
32828,29288,25970
32793,29303,25950
32826,29313,25958
32774,29304,25959
32700,29317,26010
32680,29292,26030
32644,29280,26027
32620,29271,26053
32668,29260,26020
32508,29271,26020
32472,29285,26091
32422,29305,26087
32416,29314,26103
32388,29318,26112
32364,29318,26129
32372,29303,26143
32457,29276,26158
32508,29262,26140
32596,29256,26130
32680,29268,26151
32660,29287,26161
32724,29297,26166
32796,29315,26178
32821,29316,26194
32756,29311,26231
32680,29295,26264
32620,29279,26285
32452,29265,26299
32365,29267,26311
32337,29273,26303
32348,29285,26321
32352,29297,26340
32384,29308,26311
32396,29318,26300
32452,29309,26381
32460,29295,26383
32492,29279,26392
32568,29263,26415
32532,29263,26404
32428,29266,26404
32374,29287,26392
32344,29306,26401
32336,29311,26409
32352,29316,26449
32384,29309,26460
32484,29299,26469
32564,29285,26466
32626,29262,26489
32670,29257,26571
32745,29264,26583
32744,29282,26594
32744,29296,26620
32744,29308,26621
32788,29311,26631
32800,29303,26652
32740,29293,26669
32688,29272,26656
32512,29265,26644
32372,29257,26669
32319,29258,26661
32460,29283,26666
32560,29297,26684
32632,29307,26717
32648,29303,26733
32608,29311,26803
32624,29293,26804
32620,29276,26820
32592,29255,26823
32612,29258,26841
32604,29256,26860
32536,29271,26848
32528,29277,26825
32516,29306,26853
32538,29308,26905
32484,29303,26900
32464,29284,26908
32420,29268,26921
32384,29252,26935
32404,29255,26951
32404,29259,26944
32465,29270,26938
32732,29293,26944
33049,29303,26969
33398,29296,26972
33652,29292,26950
33912,29278,26951
34184,29267,26967
34338,29255,26972
34497,29245,26928
34768,29252,26953
34968,29266,26953
35012,29287,26978
34989,29302,26909
34840,29301,26887
34796,29301,26933
34852,29297,26978
34694,29281,26969
34108,29266,26948
33332,29273,26977
32533,29284,26904
31826,29296,26945
31453,29316,26964
31200,29324,26976
30980,29327,26912
31061,29314,26897
31492,29303,26896
32005,29285,26924
32408,29264,26991
32653,29265,26970
32888,29271,26965
33000,29286,26979
33068,29293,26985
33036,29314,26987
33144,29302,26988
33265,29301,26987
33268,29290,26997
33172,29277,26971
33116,29258,26925
33056,29257,26912
32992,29265,26936
32952,29284,26958
32912,29295,26988
32860,29311,27028
32812,29309,27037
32796,29307,26994
32817,29287,27052
32886,29268,27068
32880,29252,27058
32924,29252,27044
32909,29256,27001
32936,29273,27001
32960,29293,27088
33020,29295,27079
33024,29305,27021
32904,29294,27086
32900,29285,27088
32960,29262,27100
32989,29249,27078
32998,29246,27037
32966,29256,27130
32840,29268,27117
32812,29285,27143
32780,29295,27151
32768,29301,27136
32697,29295,27113
32740,29269,27085
32769,29265,27199
32740,29255,27184
32728,29247,27207
32556,29251,27233
32592,29266,27157
32694,29284,27225
32788,29295,27284
32948,29293,27289
33122,29285,27317
33160,29281,27277
33180,29260,27262
33145,29244,27343
33000,29240,27385
32948,29243,27396
32956,29268,27386
32904,29285,27364
32772,29290,27364
32892,29296,27478
32888,29292,27466
32848,29276,27486
32912,29260,27513
32904,29245,27456
32954,29241,27446
32988,29252,27537
32770,29262,27540
32960,29276,27533
33048,29294,27532
33016,29294,27536
32964,29287,27556
32808,29278,27514
32754,29263,27455
32808,29246,27468
32932,29243,27552
32936,29244,27527
32892,29259,27505
33060,29276,27440
33144,29292,27495
33204,29299,27529
33184,29292,27493
33112,29273,27500
33058,29255,27399
33028,29244,27468
32960,29236,27450
33040,29241,27425
33120,29259,27361
33152,29281,27380
33144,29290,27428
33224,29296,27417
33324,29287,27315
33404,29276,27367
33465,29251,27357
33488,29242,27343
33492,29236,27303
33508,29239,27273
33396,29260,27252
33404,29275,27260
33376,29280,27303
33240,29297,27269
33080,29284,27244
32952,29277,27225
32892,29252,27225
32868,29239,27221
32792,29238,27157
32708,29247,27108
32718,29255,27087
32596,29274,27124
32548,29289,27128
32508,29293,27109
32444,29285,27094
32420,29273,27084
32372,29261,27081
32396,29240,27015
32292,29238,27016
32220,29251,27033
32140,29261,26997
32072,29283,26959
32128,29293,26904
32072,29292,26879
32044,29279,26862
32064,29279,26879
32168,29259,26842
32256,29239,26825
32237,29232,26845
32213,29244,26822
32200,29256,26775
32120,29268,26714
32121,29287,26704
32040,29282,26742
31936,29289,26703
31929,29269,26668
31916,29255,26596
32101,29237,26582
32160,29232,26601
32268,29239,26612
32320,29255,26587
32321,29264,26558
32440,29285,26484
32488,29286,26521
32520,29277,26431
32632,29261,26414
32708,29248,26433
32749,29234,26407
32796,29232,26391
32720,29236,26348
32657,29248,26321
32704,29264,26319
32660,29285,26287
32572,29284,26337
32472,29275,26309
32480,29265,26281
32398,29246,26276
32405,29233,26212
32468,29223,26184
32488,29236,26175
32520,29242,26208
32564,29265,26176
32544,29283,26172
32740,29278,26144
32700,29271,26132
32608,29263,26076
32476,29244,26085
32476,29224,26116
32452,29225,26085
32404,29229,26081
32372,29246,26040
32352,29265,26017
32384,29276,25998
32468,29280,26039
32520,29277,26009
32520,29261,26002
32560,29237,25968
32504,29220,25925
32368,29222,25900
32306,29223,25908
32392,29241,25905
32285,29262,25918
32212,29273,25884
32300,29271,25872
32348,29265,25837
32376,29252,25812
32436,29228,25820
32428,29223,25812
32389,29210,25790
32280,29217,25757
32296,29234,25713
32356,29253,25754
32300,29266,25716
32344,29261,25705
32300,29263,25656
32249,29244,25634
32260,29220,25659
32296,29212,25625
32408,29204,25620
32440,29218,25567
32446,29228,25574
32520,29236,25567
32512,29252,25553
32440,29257,25521
32396,29253,25492
32180,29242,25461
32104,29220,25489
32108,29207,25452
32032,29197,25441
32124,29212,25409
32032,29213,25385
32088,29239,25397
32248,29252,25376
32248,29258,25361
32268,29240,25332
32352,29231,25296
32372,29214,25325
32405,29202,25304
32484,29191,25276
32504,29197,25265
32478,29213,25232
32496,29227,25216
32544,29237,25236
32580,29246,25209
32716,29229,25197
32752,29214,25161
32852,29196,25165
32917,29191,25157
33061,29174,25141
33057,29182,25137
33052,29196,25100
33096,29207,25105
33020,29225,25092
32972,29234,25089
32880,29223,25061
32952,29207,25049
33044,29191,25052
32972,29175,25038
32961,29164,25038
32936,29169,24996
32974,29185,25000
33044,29203,25005
33033,29220,25006
32996,29213,24980
32896,29220,24966
32832,29192,24959
32760,29186,24961
32728,29165,24921
32732,29165,24897
32745,29157,24922
32712,29175,24919
32716,29191,24897
32808,29204,24899
32856,29211,24888
32921,29204,24878
33012,29190,24874
33096,29167,24830
33124,29147,24839
33096,29148,24821
33080,29148,24844
32992,29167,24842
32884,29174,24838
32800,29191,24826
32836,29190,24804
32758,29190,24796
32721,29172,24793
32660,29159,24800
32725,29145,24809
32684,29137,24808
32698,29141,24807
32724,29151,24802
32797,29170,24809
32756,29182,24823
32718,29180,24796
32852,29175,24796
32943,29158,24793
32952,29145,24833
32948,29124,24829
32860,29123,24825
32684,29124,24825
32612,29135,24837
32604,29144,24839
32576,29165,24836
32652,29167,24809
32741,29161,24824
32784,29136,24855
32770,29122,24861
32784,29104,24868
32912,29107,24852
32876,29102,24863
32865,29117,24865
32824,29132,24871
32888,29145,24865
32976,29142,24876
33029,29132,24869
33065,29121,24875
33044,29096,24872
32948,29094,24872
32888,29083,24874
32813,29081,24877
32796,29093,24868
32806,29116,24868
32870,29127,24861
33006,29135,24859
33140,29124,24854
33232,29111,24856
33292,29081,24861
33308,29076,24833
33396,29063,24824
33257,29068,24822
33224,29077,24820
33280,29097,24825
33312,29102,24820
33324,29108,24836
33352,29100,24825
33520,29089,24804
33784,29065,24809
34088,29049,24823
34276,29039,24824
34440,29045,24813
34452,29056,24809
34384,29071,24807
34468,29084,24783
34596,29095,24797
34748,29087,24806
34840,29065,24805
34889,29055,24802
34876,29044,24796
34956,29033,24797
34873,29045,24798
34465,29048,24800
33804,29073,24800
32912,29092,24779
32058,29085,24772
31510,29090,24764
31324,29071,24771
31102,29056,24765
31036,29032,24771
31388,29028,24784
31996,29020,24788
32556,29028,24786
33052,29047,24780
33292,29052,24772
33397,29052,24763
33448,29048,24783
33465,29043,24796
33417,29013,24788
33221,28999,24786
33200,28988,24770
33148,28990,24791
33156,29003,24788
33228,29020,24804
33412,29029,24793
33300,29031,24769
33372,29023,24782
33432,29006,24793
33480,28989,24804
33380,28966,24806
33296,28962,24803
33198,28971,24806
33268,28980,24817
33364,28994,24832
33544,29002,24814
33506,29001,24828
33470,28999,24816
33336,28975,24797
33424,28959,24820
33460,28941,24815
33552,28928,24827
33500,28932,24820
33576,28948,24804
33732,28967,24804
34022,28971,24809
33968,28980,24804
33784,28967,24813
33668,28953,24844
33636,28933,24857
33580,28919,24850
33560,28909,24864
33472,28911,24869
33428,28920,24882
33344,28936,24893
33300,28948,24900
33182,28963,24917
33080,28943,24956
33029,28920,24983
32952,28915,24992
32834,28897,25016
32781,28880,25032
32732,28888,25065
32868,28896,25092
33020,28909,25117
33068,28927,25149
33121,28930,25151
33148,28917,25163
33125,28903,25212
33156,28881,25255
33340,28871,25277
33292,28861,25294
33294,28860,25324
33308,28873,25308
33336,28888,25330
33308,28894,25368
33340,28904,25409
33348,28892,25440
33460,28878,25444
33480,28860,25470
33568,28846,25495
33576,28836,25460
33632,28836,25525
33664,28841,25532
33740,28863,25556
33780,28877,25569
33665,28873,25549
33648,28873,25565
33685,28853,25612
33624,28836,25615
33604,28821,25632
33524,28807,25639
33428,28807,25602
33404,28825,25662
33344,28839,25649
33364,28852,25665
33460,28852,25621
33564,28844,25650
33653,28831,25677
33704,28807,25666
33709,28790,25678
33744,28781,25682
33764,28783,25636
33805,28789,25633
33700,28813,25628
33534,28812,25666
33452,28821,25688
33412,28807,25686
33400,28802,25673
33364,28782,25681
33352,28769,25680
33312,28758,25645
33332,28753,25654
33296,28773,25686
33173,28788,25671
33168,28792,25689
33180,28793,25684
33184,28789,25697
33121,28769,25689
33001,28752,25671
32900,28736,25676
32920,28728,25653
32796,28725,25644
32713,28742,25676
32653,28758,25665
32636,28773,25670
32637,28775,25645
32580,28764,25628
32645,28748,25608
32601,28725,25655
32644,28714,25664
32604,28700,25649
32572,28705,25630
32552,28713,25605
32548,28728,25577
32488,28733,25628
32368,28743,25599
32516,28736,25598
32560,28721,25585
32480,28703,25554
32592,28684,25535
32616,28674,25502
32404,28676,25517
32548,28692,25546
32541,28701,25525
32428,28706,25513
32376,28713,25509
32408,28708,25507
32572,28688,25453
32692,28673,25448
32720,28661,25446
32765,28651,25468
32708,28652,25447
32708,28653,25452
32816,28670,25445
32937,28682,25435
32868,28687,25381
32904,28679,25373
32912,28661,25407
32789,28640,25390
32748,28639,25372
32668,28622,25356
32720,28621,25347
32784,28636,25334
32772,28649,25321
32692,28665,25325
32636,28666,25285
32721,28661,25257
32724,28644,25238
32592,28623,25228
32512,28610,25261
32533,28594,25266
32574,28599,25252
32564,28609,25252
32616,28628,25226
32604,28636,25202
32560,28632,25245
32536,28642,25223
32548,28621,25224
32548,28596,25232
32664,28580,25180
32720,28568,25220
32748,28567,25228
32736,28583,25215
32709,28596,25216
32604,28612,25173
32552,28613,25168
32536,28609,25212
32488,28590,25198
32516,28574,25189
32564,28551,25207
32548,28542,25148
32556,28550,25174
32574,28551,25181
32612,28575,25184
32532,28581,25140
32588,28588,25173
32608,28581,25141
32648,28568,25172
32756,28550,25161
32824,28527,25119
32788,28519,25145
32896,28524,25148
32840,28535,25095
32925,28541,25092
32956,28556,25129
32988,28559,25115
32965,28551,25109
32940,28538,25060
32948,28517,25108
32887,28500,25084
32788,28494,25081
32860,28499,25028
32940,28503,25056
32964,28521,25044
33028,28535,25033
33088,28535,25050
33108,28533,25026
33152,28513,25047
33188,28508,24997
33248,28480,25042
33252,28476,25021
33188,28476,25024
33156,28487,24993
33120,28492,24980
33108,28511,25006
33096,28508,25000
33226,28517,25019
33301,28495,24996
33254,28468,24996
33276,28457,24961
33272,28447,24960
33112,28444,24980
33108,28455,24998
33016,28472,25000
32988,28485,24976
32900,28484,24970
32988,28481,24949
32994,28467,24960
33164,28448,24957
33320,28434,24965
33348,28417,24942
33296,28423,24937
33112,28436,24984
33084,28446,24968
33124,28455,24976
33205,28471,24945
33288,28453,24932
33300,28437,24972
33262,28423,24952
33318,28404,24965
33308,28396,24929
33368,28397,24914
33437,28410,24927
33536,28420,24946
33620,28437,24964
33588,28441,24940
33532,28432,24945
33560,28415,24948
33588,28405,24910
33584,28384,24954
33628,28375,24932
33692,28377,24942
33720,28390,24943
33812,28401,24932
33685,28411,24901
33604,28421,24921
33520,28417,24933
33505,28391,24932
33477,28378,24913
33406,28361,24897
33352,28345,24920
33232,28359,24937
33124,28360,24933
33224,28380,24922
33280,28393,24924
33244,28399,24919
33252,28395,24922
33244,28380,24882
33156,28360,24904
33060,28335,24913
33068,28327,24908
33062,28333,24889
33056,28340,24871
33092,28357,24896
33140,28370,24888
33104,28368,24893
33092,28362,24871
33104,28348,24836
33040,28332,24855
33045,28317,24877
33144,28311,24853
33156,28303,24863
33048,28319,24853
32996,28326,24852
32928,28340,24815
32918,28346,24847
32936,28345,24833
33116,28329,24833
33078,28305,24794
33100,28289,24789
33220,28285,24800
33348,28284,24813
33445,28294,24815
33477,28301,24804
33408,28325,24773
33208,28331,24773
33100,28319,24764
33019,28308,24788
32801,28287,24757
32892,28273,24773
32956,28265,24783
32948,28263,24770
33016,28271,24780
33080,28287,24748
33184,28303,24737
33392,28308,24767
33484,28305,24773
33646,28289,24768
34021,28261,24767
34330,28249,24749
34564,28238,24740
34828,28236,24770
35008,28250,24769
35128,28261,24777
35256,28276,24740
35520,28284,24773
35616,28274,24773
35685,28267,24776
35496,28246,24788
35316,28237,24780
35220,28225,24791
35008,28235,24796
34556,28253,24812
33636,28273,24786
32834,28281,24814
31948,28281,24834
31609,28282,24822
31480,28273,24817
31236,28258,24864
31153,28228,24873
31660,28216,24853
32249,28214,24916
32775,28226,24913
33148,28232,24937
33552,28250,24925
33752,28252,24936
33948,28245,24979
33948,28231,25018
33926,28208,25026
33780,28198,25040
33640,28191,25076
33592,28191,25106
33416,28200,25091
33340,28211,25141
33278,28228,25213
33136,28231,25221
33088,28228,25260
33064,28211,25236
33036,28195,25276
33128,28176,25366
33140,28167,25374
33252,28167,25428
33168,28180,25433
33380,28196,25440
33418,28198,25485
33396,28206,25569
33492,28202,25593
33481,28188,25621
33624,28167,25656
33584,28145,25651
33460,28143,25697
33481,28147,25743
33536,28159,25802
33576,28167,25757
33652,28181,25878
33660,28191,25896
33572,28185,25942
33472,28166,25915
33461,28143,25959
33416,28141,26045
33480,28119,26005
33192,28124,26116
33229,28140,26172
33290,28141,26159
33476,28158,26261
33405,28164,26281
33413,28160,26300
33454,28148,26316
33570,28129,26428
33584,28110,26468
33620,28098,26485
33628,28102,26532
33644,28119,26581
33640,28128,26523
33628,28145,26565
33524,28149,26678
33480,28151,26710
33494,28125,26732
33521,28108,26779
33620,28087,26767
33692,28077,26740
33500,28080,26780
33456,28097,26779
33436,28106,26899
33572,28120,26913
33533,28129,26930
33516,28125,26951
33496,28115,26893
33640,28092,27015
33792,28076,27020
33800,28067,27012
33760,28065,27020
33577,28077,27047
33504,28093,27005
33332,28103,26977
33336,28119,26997
33401,28108,27079
33420,28093,27093
33408,28078,27092
33368,28058,27119
33436,28050,27053
33508,28045,27072
33620,28062,27143
33724,28076,27156
33708,28085,27136
33669,28092,27150
33708,28093,27173
33768,28079,27142
33740,28060,27137
33828,28039,27073
33872,28031,27103
33748,28025,27135
33728,28039,27180
33788,28053,27238
33772,28071,27201
33820,28077,27240
33944,28071,27241
33917,28058,27143
33824,28037,27129
33720,28021,27212
33576,28008,27265
33400,28014,27236
33300,28020,27276
33268,28039,27173
33172,28061,27167
33124,28057,27260
33044,28054,27285
32938,28031,27268
32871,28015,27269
32792,28005,27309
32596,27991,27277
32648,28001,27300
32653,28008,27201
32656,28028,27295
32633,28039,27293
32668,28044,27308
32725,28039,27268
32728,28026,27228
32776,28004,27204
32872,27988,27220
32980,27983,27277
32944,27977,27324
32908,27986,27309
32701,28005,27341
32632,28020,27266
32612,28025,27204
32662,28017,27309
32612,28011,27325
32620,27990,27214
32720,27971,27303
32816,27961,27313
32840,27961,27329
32824,27968,27287
32884,27977,27228
32816,28005,27348
32712,28007,27317
32612,28007,27333
32652,27990,27294
32580,27970,27355
32520,27954,27325
32460,27944,27352
32472,27940,27284
32580,27955,27348
32632,27973,27349
32729,27977,27300
32768,27988,27353
32728,27982,27343
32752,27969,27254
32720,27956,27365
32613,27943,27368
32468,27930,27304
32457,27932,27309
32512,27943,27373
32548,27949,27303
32600,27965,27380
32576,27976,27373
32468,27971,27294
32424,27958,27407
32332,27932,27380
32276,27919,27364
32208,27910,27327
32240,27910,27417
32292,27927,27394
32332,27940,27433
32397,27953,27303
32540,27962,27396
32648,27956,27401
32720,27940,27447
32704,27920,27320
32644,27908,27455
32572,27887,27448
32516,27896,27347
32484,27901,27452
32520,27917,27430
32597,27941,27357
32684,27941,27348
32791,27936,27421
32890,27922,27432
32924,27905,27351
32852,27891,27386
32816,27876,27388
32892,27877,27349
32968,27884,27382
32980,27908,27365
32924,27917,27332
