ECG,EDA,RR
30256,17629,31604
30400,17683,31356
30420,17657,31552
30432,17735,31596
30396,17687,31629
30292,17698,31729
30273,17776,31459
30238,17700,31656
30256,17693,31479
30380,17745,31712
30524,17669,31645
30529,17723,31765
30540,17669,31804
30608,17756,31681
30556,17693,31789
30478,17703,31910
30432,17733,31604
30352,17716,31933
30386,17699,31630
30408,17756,31878
30484,17681,31623
30584,17674,31781
30600,17772,31661
30592,17701,31769
30600,17708,31887
30512,17783,31916
30460,17734,32031
30432,17731,31719
30473,17811,31831
30596,17739,31749
30672,17705,32028
30684,17702,32017
30656,17691,32141
30632,17765,31831
30556,17766,32196
30498,17741,31885
30464,17735,32028
30529,17778,32081
30556,17729,32210
30632,17799,32338
30685,17725,32036
30708,17714,32263
30668,17705,32228
30576,17735,32364
30532,17733,32487
30489,17777,32301
30436,17758,32359
30488,17836,32454
30512,17767,32526
30617,17735,32569
30672,17710,32631
30712,17768,32772
30730,17729,32696
30764,17726,32775
30692,17822,32526
30516,17815,32924
30385,17769,32842
30372,17752,32813
30364,17794,32796
30457,17740,32921
30597,17799,32991
30656,17732,32988
30666,17724,32960
30680,17767,33055
30632,17751,33168
30532,17766,33085
30508,17772,33140
30548,17761,32863
30612,17853,33181
30710,17764,32987
30860,17731,33152
30956,17789,33264
31040,17749,33213
31072,17737,33248
31040,17820,33237
30992,17786,33351
31028,17770,33055
31084,17852,33398
31180,17790,33334
31351,17765,33420
31546,17744,33336
31637,17749,33287
31688,17749,33377
31764,17732,33409
31824,17806,33488
31904,17798,33444
31980,17780,33601
32060,17825,33501
32176,17776,33657
32361,17745,33320
32620,17774,33524
32793,17761,33476
32897,17739,33668
33020,17798,33575
33044,17780,33670
33076,17870,33823
33108,17796,33492
33216,17887,33656
33261,17789,33716
33420,17767,33775
33668,17751,33775
33776,17818,33853
33828,17759,34000
33881,17830,33873
33848,17791,33974
33780,17778,34070
33737,17833,34004
33866,17797,34140
33908,17776,34071
33981,17865,34197
34076,17751,34093
34148,17756,34217
34196,17737,34156
34200,17853,34287
34132,17811,34212
34076,17797,34237
33976,17783,34269
33944,17849,34389
33976,17789,34311
34045,17771,34263
34096,17730,34322
34112,17799,34373
34048,17771,34406
34020,17879,34449
33966,17781,34369
33840,17786,34478
33745,17799,34503
33716,17780,34433
33697,17853,34499
33772,17773,34631
33905,17860,34581
33920,17759,34671
33888,17753,34600
33820,17847,34764
33700,17791,34684
33552,17793,34625
33480,17804,34614
33480,17786,34692
33541,17799,34793
33604,17862,34772
33680,17772,34896
33704,17879,34795
33712,17773,34935
33672,17869,34685
33560,17799,34768
33480,17800,34751
33396,17823,34823
33416,17793,34908
33472,17847,34886
33514,17786,35005
33620,17865,34630
33636,17781,34969
33660,17769,34763
33594,17814,34951
33528,17801,34775
33440,17900,35012
33344,17823,34766
33324,17807,34940
33386,17823,34932
33472,17783,35023
33584,17861,35113
33604,17784,35109
33616,17786,35207
33532,17885,34852
33424,17815,35078
33352,17814,35065
33336,17857,35173
33336,17821,35271
33326,17805,35207
33384,17897,35332
33516,17820,35247
33528,17800,35367
33504,17788,35124
33476,17882,35246
33393,17830,35220
33320,17845,35431
33312,17823,35309
33316,17911,35463
33364,17836,35373
33428,17807,35488
33460,17884,35404
33484,17808,35492
33516,17806,35436
33524,17847,35502
33484,17841,35463
33374,17841,35268
33320,17961,35603
33349,17849,35493
33324,17834,35538
33416,17878,35268
33484,17825,35534
33508,17807,35519
33508,17845,35508
33536,17829,35569
33492,17953,35597
33420,17865,35740
33388,17852,35345
33420,17908,35745
33414,17858,35654
33476,17894,35679
33553,17826,35569
33616,17916,35606
33632,17837,35445
33660,17847,35847
33568,17844,35725
33396,17866,35572
33332,17915,35869
33352,17878,35772
33373,17863,35792
33445,17882,35791
33532,17844,35717
33612,17823,35676
33588,17946,35804
33524,17899,35810
33420,17869,35751
33353,17873,35604
33292,17978,35732
33308,17889,35559
33324,17878,35968
33364,17855,35892
33408,17831,35797
33436,17911,35937
33442,17859,35647
33412,17948,35831
33292,17886,35870
33200,17885,35876
33176,17909,35879
33173,17892,35821
33188,17871,35783
33228,17927,36064
33276,17853,35677
33284,17943,35864
33284,17873,35820
33284,17863,35837
33204,17910,35863
33116,17909,35975
33080,17885,35967
33096,17957,36102
33112,17901,35988
33164,17868,36061
33208,17879,35982
33221,17860,36076
33196,17902,35883
33165,17878,36094
33118,17905,36045
33040,17966,35969
32984,17919,35998
32992,17892,35774
32998,18003,36184
33076,17895,36080
33176,17860,36177
33220,17919,35892
33214,17885,36025
33172,17983,36071
33104,17943,36052
33013,17918,36031
32964,18018,36051
32936,17929,36040
32992,17901,36069
33037,17975,36048
33120,17887,36030
33208,17869,36050
33168,17923,36041
33121,17893,36031
32993,18005,36081
32980,17936,35918
32952,17927,36029
32932,18028,36108
32972,17925,36158
33012,17895,36276
33100,17983,36169
33152,17932,36166
33098,17890,36041
33068,17887,35945
33029,17972,36037
32956,17937,35994
32976,17915,36039
33004,18004,36038
32980,17952,36118
32988,17907,35885
33076,17890,36125
33125,17983,36092
33156,17903,36055
33117,17888,36113
33077,18020,36155
32974,17948,36141
32976,17943,36174
32940,18021,36242
32876,17932,36205
32932,17895,36309
32980,17967,36225
32956,17913,36223
32890,17913,36210
32876,17900,36250
32799,17956,35943
32700,17930,36086
32680,17993,36218
32702,17943,36191
32764,17927,36265
32829,17969,36230
32928,17912,36252
32960,17924,35969
32960,17927,36133
32900,17918,36115
32808,17993,36179
32742,17959,36223
32768,17954,36206
32804,18021,36167
32908,17956,36140
33004,17938,36103
33104,17896,36236
33104,17973,36195
33104,17915,36292
33076,17977,35896
33004,17951,36036
32932,18071,36084
32912,17968,36087
32992,17963,36056
33040,17927,36121
33092,17934,36228
33200,17909,36135
33316,17943,36063
33236,17906,36162
33172,17959,36122
33076,17947,35990
32980,18000,36197
32965,17964,35824
32964,18055,35983
33000,17973,36069
33096,17925,36131
33216,17993,36055
33264,17924,36117
33216,17917,36124
33148,18027,36226
33048,18020,36088
32944,17975,36175
32932,17957,36071
32992,18049,36052
32992,17960,35980
33092,18007,36060
33210,17935,36095
33253,17927,35767
33264,17949,35951
33252,17925,36073
33172,18061,36016
33052,18028,35959
32992,17975,35999
33088,17963,36023
33136,17979,35996
33144,17949,35933
33156,17920,35990
33156,17969,36044
33097,17931,35701
33084,18047,36051
33044,17983,35716
32912,17963,35847
32776,18055,35745
32652,17968,35816
32596,17967,35771
32524,17937,35804
32448,17989,35733
32208,17948,35865
31860,17934,35824
31356,18030,35790
30764,17988,35795
30230,17984,35769
29948,18057,35789
29904,18029,35862
30008,17983,35549
30253,17944,35815
30742,17987,35645
31704,17948,35689
33006,18015,35815
34488,17971,35809
36568,18088,35912
39124,18004,35556
41736,17971,35745
44192,18033,35740
46181,17999,35744
47172,17905,35869
46772,17981,35617
45684,17945,35630
44464,18121,35633
42624,18057,35623
40416,18021,35453
38960,18005,35727
38276,17980,35413
37740,18069,35584
37092,18001,35748
36412,18085,35719
35664,17964,35613
34892,17941,35717
34200,18028,35680
33536,17977,35647
32872,17980,35684
32192,18007,35412
31646,18002,35564
31168,17988,35636
30809,17984,35684
30616,17956,35543
30540,17966,35580
30444,17948,35635
30384,18015,35651
30308,17970,35413
30176,18067,35556
30068,18001,35653
30068,17992,35245
30092,17989,35493
30100,18001,35308
30220,17961,35429
30266,18031,35512
30365,17957,35228
30349,17957,35401
30312,18035,35069
30225,17988,35300
30116,17991,35036
30172,18060,35357
30200,17993,35055
30276,17975,35364
30392,18044,35049
30512,17957,35196
30592,17959,35108
30684,18037,35196
30676,17974,35278
30624,17973,35089
30528,18052,35132
30548,17994,35204
30556,17979,34894
30585,18031,35255
30686,17964,34882
30788,17946,35076
30796,17957,35225
30816,17951,35125
30800,18037,35208
30728,17992,35100
30708,17985,35066
30676,18037,34790
30656,17986,35156
30668,17974,35023
30758,17998,35087
30884,17957,34945
30860,17947,34874
30772,18026,34935
30724,17988,34925
30656,17992,35004
30576,17991,34895
30556,18071,34823
30576,18021,34821
30612,17978,34714
30688,17956,34708
30732,17995,34703
30728,17957,34700
30728,17951,34617
30756,18004,34814
30684,17986,34791
30596,17988,34884
30516,17973,34753
30508,17997,34810
30520,17971,34524
30616,17997,34828
30648,17957,34805
30660,17943,34789
30700,17949,34697
30704,18038,34788
30701,17999,34900
30644,17990,34846
30613,17998,34848
30604,17986,34868
30632,17973,34800
30736,18020,34758
30786,17985,34893
30800,17956,34967
30794,17943,34892
30760,18042,34823
30632,18025,35057
30516,17988,34964
30544,17975,35065
30552,17973,34965
30594,18032,34901
30660,17978,34965
30740,17958,34994
30784,17941,35084
30790,17942,34999
30825,17952,34910
30764,18060,35129
30724,18022,34989
30716,17988,34804
30760,17975,34982
30853,18052,34985
30948,17984,35079
31068,17953,34973
31188,17933,35079
31170,18015,34969
31170,17953,35007
31108,17968,34933
31092,18055,34949
31168,18033,34877
31249,17975,34832
31341,17977,34839
31448,17945,34856
31596,18013,34908
31708,17938,34700
31780,17941,34823
31836,17937,34823
31774,18017,34847
31836,17983,34859
31956,17973,34814
32126,17972,34919
32330,17980,34804
32520,17946,34823
32724,17925,34788
32900,18033,34756
33014,17941,34773
33064,17943,34812
33033,17956,34761
33064,18028,34830
33124,17968,34740
33224,17955,34828
33284,18037,34695
33405,17944,34684
33576,18039,34422
33652,17935,34652
33744,18019,34733
33798,17959,34703
33768,17967,34788
33756,17959,34687
33804,18080,34729
33768,18063,34532
33804,17981,34471
33844,17926,34590
33953,18001,34612
33961,17929,34663
33964,17917,34789
33940,17961,34514
33824,17967,34623
33774,17947,34567
33700,18023,34532
33736,17962,34386
33792,17959,34733
33856,17924,34407
33892,17943,34567
33860,17914,34629
33804,17909,34770
33796,18005,34661
33680,17950,34655
33576,17949,34407
33596,18043,34582
33564,17957,34687
33572,18041,34679
33636,17921,34768
33744,18004,34527
33780,17917,34626
33695,17899,34717
33676,17925,34695
33584,17930,34672
33408,17978,34815
33377,17956,34543
33388,17927,34590
33413,17958,34694
33508,17912,34695
33588,18017,34751
33597,17933,34684
33540,17914,34764
33518,17927,34644
33420,17961,34735
33332,17951,34423
33358,18052,34608
33328,17938,34495
33284,17909,34541
33292,17944,34564
33374,17903,34544
33460,17886,34614
33468,17915,34543
33440,17904,34612
33420,17998,34399
33340,17945,34420
33288,17937,34310
33284,17913,34628
33279,18001,34253
33328,17911,34369
33456,17876,34384
33508,17924,34381
33521,17903,34377
33532,17899,34413
33448,17953,34412
33320,17935,34468
33302,17897,34505
33390,17935,34460
33384,17903,34404
33380,17922,34360
33449,17888,34388
33504,17869,34305
33532,17969,34504
33508,17893,34159
33416,17910,34485
33336,17911,34420
33368,17959,34480
33464,17911,34407
33440,17901,34384
33478,17967,34378
33558,17884,34489
33576,17969,34413
33568,17888,34468
33588,17881,34403
33512,17999,34399
33464,17911,34386
33400,17898,34407
33412,17988,34367
33388,17896,34356
33424,17877,34317
33536,17955,34268
33580,17864,34300
33604,17860,34396
33500,17933,34356
33400,17905,34318
33388,17908,34287
33421,17895,34248
33477,17950,34230
33532,17895,34311
33634,17878,34292
33724,17849,34300
33688,17933,34320
33592,17862,34311
33444,17871,34277
33268,17958,34221
33176,17936,34023
33188,17903,34351
33172,17884,34293
33340,17946,34335
33444,17863,34276
33481,17836,34370
33500,17911,34260
33472,17927,34198
33488,17869,34263
33460,17875,34251
33308,17991,34239
33276,17925,34267
33202,17884,34237
33224,17860,34296
33376,17924,34240
33468,17846,34296
33560,17848,34225
33524,17831,34208
33449,17932,34199
33388,17873,34324
33308,17867,33983
33256,17884,34220
33260,17865,34298
33248,17916,34214
33332,17848,34316
33408,17823,34201
33432,17865,34181
33429,17845,34180
33452,17835,34181
33448,17932,34090
33316,17868,33965
33172,17861,34336
33165,17848,34228
33153,17943,34126
33212,17871,34288
33260,17826,33959
33280,17920,34097
33232,17829,34128
33188,17826,34217
33148,17893,34262
33096,17872,34222
33073,17847,34191
33072,17943,34228
33080,17852,34310
33116,17817,34237
33204,17810,34276
33257,17869,34212
33240,17825,34231
33176,17820,34194
33096,17932,34133
32992,17871,34212
32980,17853,33977
32942,17935,34197
32926,17839,34066
32988,17809,34226
33069,17857,33963
33120,17815,34072
33177,17797,33949
33156,17894,34188
33057,17841,33924
32938,17839,34311
32910,17951,34204
32912,17892,34100
32930,17829,34183
33004,17794,33922
33100,17864,34258
33164,17809,34188
33092,17799,34124
33052,17804,34111
32992,17908,34156
32876,17876,34182
32852,17841,34132
32850,17812,33981
32853,17911,34269
32980,17799,34140
33077,17794,34265
33104,17780,34150
33056,17881,34076
32997,17810,34116
32992,17818,34053
32916,17817,34014
32876,17869,34053
32884,17821,34114
32980,17801,34124
33040,17844,34114
33096,17784,34137
33156,17881,34148
33096,17791,34103
33062,17787,34028
32980,17804,34090
32908,17879,34116
32912,17823,34132
32894,17804,34250
32884,17820,33892
32940,17773,34053
32988,17809,33975
33058,17772,34159
32992,17775,34125
32924,17777,34108
32788,17889,34072
32633,17829,33996
32588,17815,33999
32600,17794,33876
32672,17860,34236
32797,17767,34121
32908,17749,34164
32908,17826,34112
32936,17766,34085
32924,17762,34055
32752,17830,34072
32652,17799,34101
32726,17884,34127
32824,17799,34085
32864,17777,34161
32968,17759,34078
33042,17848,34020
33141,17757,34023
33168,17752,34080
33088,17768,34050
33020,17769,34002
33040,17791,33901
33024,17885,34005
33052,17788,34087
33076,17767,34015
33120,17791,34008
33236,17741,33941
33285,17750,33908
33240,17737,33876
33200,17820,33899
33061,17779,33927
32964,17790,33893
32949,17770,34010
32980,17796,33807
33065,17747,33849
33116,17810,33897
33181,17743,33927
33197,17732,33714
33113,17852,34087
32968,17799,33981
32924,17779,33930
32924,17776,33881
32912,17875,33701
32872,17823,34080
32904,17765,33957
32956,17767,34069
33000,17780,33981
33028,17737,34055
33004,17819,33972
32996,17761,34028
32880,17758,33980
32752,17755,33984
32772,17847,33959
32800,17764,34029
32820,17840,33948
32872,17732,33988
32936,17723,33908
32904,17823,33861
32829,17799,33935
32728,17735,33680
32632,17737,33975
32609,17859,33933
32536,17775,34048
32461,17742,33735
32478,17809,33799
32452,17728,33926
32360,17701,33913
32120,17732,34012
31824,17722,33897
31441,17720,33828
30828,17789,33859
30244,17752,33765
29968,17756,33736
29860,17826,33807
29916,17738,33862
30212,17709,33954
30708,17788,33846
31496,17708,33855
32632,17700,33817
34016,17759,33880
35948,17753,33559
38408,17726,33698
41008,17872,33554
43348,17791,33927
45216,17751,33810
46144,17666,33866
45733,17769,33553
44660,17722,33668
43532,17764,33671
41804,17786,33726
39672,17749,33711
38160,17855,33796
37456,17751,33908
37066,17722,33535
36476,17807,33791
35852,17702,33647
35256,17683,33728
34596,17793,33791
33980,17783,33773
33372,17710,33853
32704,17718,33799
32077,17764,33743
31592,17720,33901
31166,17791,33593
30848,17717,33732
30624,17689,33737
30516,17708,33791
30416,17680,33728
30320,17765,33555
30312,17708,33693
30160,17711,33617
30108,17798,33662
30056,17719,33604
30025,17701,33643
30024,17745,33642
30076,17692,33627
30173,17747,33693
30224,17673,33564
30256,17669,33637
30240,17717,33385
30173,17716,33616
30109,17703,33524
30149,17795,33595
30220,17747,33496
30260,17695,33522
30326,17680,33431
30396,17655,33370
30433,17656,33507
30462,17703,33441
30460,17684,33543
30389,17692,33438
30308,17692,33543
30296,17729,33430
30368,17698,33460
30420,17756,33345
30512,17666,33414
30564,17655,33336
30584,17717,33326
30632,17675,33407
30616,17663,33438
30580,17706,33473
30528,17697,33403
30532,17677,33509
30536,17749,33397
30532,17679,33381
30616,17737,33271
30681,17651,33263
30692,17645,33132
30728,17639,33448
30684,17700,33126
30516,17684,33209
30502,17670,33235
30524,17721,33332
30572,17677,33407
30688,17661,33310
30742,17736,33404
30804,17646,33287
30844,17639,33333
30792,17634,33057
30756,17662,33263
30732,17676,33278
30644,17668,33324
30616,17695,33455
30592,17659,33247
30576,17695,33316
30604,17636,33413
30666,17696,33380
30724,17637,33437
30748,17624,33415
30752,17717,33540
30640,17669,33196
30565,17663,33390
30542,17713,33255
30564,17665,33409
30572,17643,33510
30681,17703,33662
30656,17631,33307
30676,17703,33505
30732,17633,33644
30809,17623,33598
30788,17681,33654
30656,17663,33385
30644,17645,33579
30624,17721,33493
30612,17645,33655
30681,17610,33773
30768,17660,33703
30804,17621,33669
30816,17710,33663
30860,17633,33744
30844,17639,33748
30772,17721,33785
30712,17653,33836
30700,17634,33781
30768,17711,33857
30876,17623,33824
31028,17588,33877
31093,17643,33572
31180,17615,33836
31168,17608,33588
31132,17718,33872
31168,17654,33610
31220,17628,33798
31240,17705,33770
31300,17625,33836
31464,17600,33823
31565,17685,33909
31704,17609,33940
31778,17581,33915
31848,17699,34044
31782,17652,33956
31866,17634,34055
31957,17610,33717
32060,17677,33965
32144,17615,33884
32352,17588,33884
32532,17618,33917
32648,17591,34025
32780,17575,34089
32817,17692,34076
32880,17615,34193
32936,17604,34087
32984,17599,34150
33014,17675,34134
33084,17607,34084
33304,17599,34046
33380,17563,34157
33500,17572,34224
33636,17614,34212
33700,17591,34266
33614,17704,34257
33509,17620,34205
33468,17597,34303
33468,17613,34407
33512,17573,34285
33612,17625,34277
33716,17572,34341
33832,17561,34415
33904,17572,34521
33920,17568,34516
33888,17651,34655
33695,17612,34295
33472,17677,34545
33312,17595,34607
33444,17565,34657
33596,17638,34704
33732,17552,34713
33808,17550,34768
33840,17641,34729
33736,17618,34708
33568,17596,34791
33436,17582,34840
33369,17616,34893
33312,17583,35034
33312,17647,34780
33422,17564,34946
33496,17535,35039
33480,17610,34975
33424,17558,34863
33404,17567,34871
33288,17566,34934
33184,17633,35015
33204,17602,35022
33297,17589,35095
33288,17670,35028
33316,17558,35074
33388,17526,34844
33424,17652,34878
33456,17615,34709
33392,17559,35044
33309,17560,34980
33216,17650,35092
33182,17572,34954
33248,17562,34836
33384,17587,34789
33468,17541,34832
33532,17508,34805
33532,17584,34813
33488,17552,34668
33465,17542,34812
33386,17679,34852
33232,17570,34925
33241,17552,35013
33324,17579,34695
33340,17540,34916
33362,17556,34992
33461,17529,34949
33484,17623,34982
33476,17554,34951
33508,17543,35047
33401,17543,34988
33336,17573,34892
33304,17661,34925
33333,17559,35005
33344,17526,34995
33432,17564,35045
33552,17523,35124
33561,17516,35076
33576,17505,35069
33552,17565,35118
33412,17549,35238
33336,17663,34871
33308,17569,35220
33317,17545,34887
33412,17513,35306
33472,17532,35061
33548,17494,35217
33580,17580,35320
33556,17508,35283
33580,17508,35261
33473,17640,35175
33364,17597,35308
33278,17549,35413
33313,17523,35070
33310,17617,35439
33342,17513,35369
33436,17503,35384
33504,17483,35444
33516,17581,35519
33564,17535,35463
33428,17527,35565
33392,17637,35521
33377,17527,35591
33288,17524,35460
33356,17499,35456
33440,17569,35620
33500,17492,35302
33492,17479,35476
33428,17551,35340
33440,17508,35684
33332,17511,35625
33260,17596,35677
33240,17526,35628
33317,17501,35665
33440,17540,35352
33453,17487,35500
33521,17479,35493
33532,17586,35572
33544,17496,35677
33500,17501,35615
33244,17501,35550
33092,17620,35483
33160,17549,35370
33236,17511,35537
33268,17479,35524
33380,17514,35479
33464,17469,35413
33476,17474,35457
33444,17570,35504
33393,17545,35469
33257,17516,35319
33188,17519,35591
33212,17488,35428
33200,17573,35671
33160,17510,35565
33200,17461,35569
33332,17447,35572
33412,17575,35519
33400,17478,35533
33324,17477,35524
33212,17479,35532
33116,17602,35501
33076,17519,35503
33065,17492,35551
33104,17463,35584
33184,17572,35572
33232,17497,35625
33176,17450,35671
33188,17458,35663
33168,17452,35686
33096,17567,35675
32992,17485,35676
33000,17478,35734
32980,17593,35733
33012,17478,35742
33072,17429,35879
33096,17427,35799
33148,17489,35840
33136,17453,35794
33084,17445,35903
32988,17556,35616
32908,17475,35808
32892,17455,35709
32950,17476,35796
32952,17461,35828
33032,17427,35495
33164,17500,35799
33204,17432,35501
33140,17422,35906
33084,17554,35796
32980,17503,35862
32868,17489,35674
32844,17474,35709
32944,17449,35700
33024,17547,35493
33108,17451,35687
33108,17425,35698
33176,17415,35881
33172,17414,35803
33156,17511,35807
33032,17495,35726
32976,17464,35711
32980,17447,35734
32940,17525,35599
32948,17439,35732
32940,17428,35509
32892,17412,35927
32916,17503,35636
32985,17439,35687
33033,17433,35525
32924,17445,35741
32784,17538,35853
32780,17451,35837
32789,17449,35909
32812,17425,35768
32896,17396,35749
33004,17433,35775
33001,17415,35763
32994,17518,35806
32909,17426,35896
32752,17431,35842
32628,17506,35847
32638,17463,35780
32712,17444,35732
32669,17426,35714
32652,17393,35748
32800,17444,35689
32824,17407,35748
32864,17381,35710
32836,17485,35780
32760,17471,35697
32623,17437,35628
32584,17433,35847
32701,17417,35778
32808,17479,35785
32920,17483,35807
32980,17434,35703
33065,17399,35763
33013,17385,35733
33012,17384,35717
32934,17492,35757
32783,17432,35772
32804,17409,35860
32852,17511,35748
32960,17412,35860
33056,17375,35724
33153,17436,35728
33156,17393,35632
33144,17495,35671
33116,17399,35791
32984,17399,35658
32940,17476,35627
32924,17411,35394
32948,17399,35644
32928,17471,35712
32976,17388,35631
33028,17381,35683
33027,17352,35335
32997,17360,35508
32924,17422,35532
32820,17415,35586
32780,17397,35580
32812,17392,35588
32889,17477,35585
32936,17391,35677
33060,17349,35800
33180,17453,35726
33236,17378,35847
33168,17372,35725
33032,17384,35732
32948,17384,35784
32893,17463,35767
32768,17398,35821
32737,17372,35801
32832,17455,35821
32950,17369,35831
33151,17350,35896
33176,17344,35885
33088,17439,35842
33020,17380,35684
32872,17385,36135
32774,17468,35719
32748,17399,36148
32700,17381,36053
32640,17359,36103
32608,17340,36068
32548,17456,36169
32340,17425,36076
32076,17349,36077
31776,17354,35878
31228,17367,36116
30636,17455,36036
30305,17385,36159
30176,17380,36072
30248,17351,36026
30596,17367,35931
31076,17345,36052
31592,17330,35796
32404,17446,35925
33450,17362,35972
34668,17359,36064
36576,17435,36129
38816,17380,35836
41180,17337,36013
43272,17395,36166
44544,17347,36048
44520,17326,36145
43724,17415,36067
42688,17353,36189
41420,17312,36044
39528,17466,36164
37828,17379,35765
36820,17359,36066
36376,17476,35842
36172,17384,36096
35764,17332,35987
35188,17313,35957
34684,17431,35824
34136,17378,36240
33588,17344,36127
33208,17357,36248
32604,17412,35932
32160,17367,36057
31796,17340,36091
31476,17381,36024
31329,17327,35964
31200,17308,36050
31034,17377,35912
30884,17319,36249
30708,17326,36191
30616,17400,36260
30529,17361,36167
30620,17437,36039
30660,17349,36053
30684,17318,36103
30692,17387,36119
30760,17317,36052
30788,17315,35889
30792,17393,35973
30756,17334,35812
30740,17348,36215
30748,17429,36061
30764,17364,36206
30736,17340,36089
30801,17395,36103
30808,17297,36079
30876,17292,36127
30820,17372,36066
30816,17301,36153
30908,17306,36018
30871,17397,36145
30848,17335,36030
30894,17317,36126
30984,17391,35721
31109,17319,36146
31144,17298,36015
31302,17281,35951
31208,17277,35874
31141,17333,35716
31104,17304,36149
30968,17316,36006
30972,17313,35937
31073,17377,35990
31073,17323,35932
31101,17307,35880
31201,17272,35889
31236,17335,35825
31236,17301,35633
31296,17297,36061
31284,17300,35943
31170,17316,35841
30964,17316,35901
30905,17313,35912
30973,17389,35897
30992,17313,36009
31026,17276,35877
31237,17279,35847
31326,17260,35829
31280,17265,35760
31324,17368,35703
31300,17319,35708
31156,17286,35789
31108,17393,35754
31040,17372,35759
31084,17285,35736
31188,17265,35785
31197,17249,35738
31168,17311,35820
31252,17255,35868
31270,17276,35834
31170,17284,35740
31144,17375,35700
31084,17312,35717
31016,17294,35910
31036,17262,35553
31132,17335,35964
31168,17263,35847
31192,17247,35908
31176,17288,35591
31116,17261,35843
31020,17279,35920
30896,17364,35975
30868,17325,35910
30820,17276,35904
30900,17251,35940
30980,17300,36016
31100,17249,35984
31137,17239,35924
31098,17233,36019
31048,17341,36014
30956,17310,35945
30904,17285,35903
30916,17263,35932
30996,17317,35918
31112,17260,35797
31260,17225,36154
31434,17287,36013
31532,17239,35999
31552,17325,35995
31493,17255,35965
31404,17263,35908
31264,17263,35785
31292,17362,36152
31364,17270,36004
31460,17253,35839
31620,17219,36167
31736,17228,36041
31876,17233,35964
32012,17215,36157
32027,17231,36013
32060,17370,35719
32024,17314,36074
32100,17255,35900
32015,17239,35924
32150,17314,36137
32432,17221,36030
32649,17205,36005
32704,17317,35943
32868,17253,35753
32916,17241,36132
32862,17352,36013
32876,17255,36112
32944,17236,36007
32968,17261,36055
33168,17234,35694
33394,17196,36020
33464,17300,35942
33552,17234,35927
33520,17218,35908
33528,17317,35936
33397,17243,35943
33252,17225,35980
33253,17316,35959
33376,17237,36055
33504,17211,35907
33605,17268,35781
33655,17203,35998
33661,17254,35838
33660,17218,35887
33648,17204,35989
33560,17284,35847
33504,17237,35752
33495,17218,35726
33488,17316,35743
33548,17243,35794
33668,17197,35873
33668,17281,35919
33648,17197,35580
33732,17200,36013
33728,17200,35591
33584,17253,35845
33429,17226,35581
33320,17216,35870
33301,17299,35798
33308,17197,35858
33392,17189,35876
33372,17165,35820
33413,17235,35841
33508,17194,35874
33484,17190,35975
33320,17299,35856
33292,17240,35773
33325,17223,35783
33385,17204,35743
33476,17308,35669
33496,17223,35512
33436,17180,35701
33454,17168,35671
33432,17172,35730
33400,17181,35764
33256,17267,35746
33232,17221,35847
33198,17202,35703
33244,17263,35820
33376,17211,35679
33508,17172,35671
33501,17158,35631
33460,17159,35521
33424,17259,35636
33364,17228,35625
33248,17204,35724
33240,17211,35609
33297,17191,35600
33380,17214,35609
33464,17175,35719
33564,17271,35289
33632,17197,35699
33564,17163,35292
33500,17173,35681
33480,17173,35581
33380,17190,35512
33312,17283,35420
33312,17219,35271
33220,17187,35508
33276,17276,35484
33381,17185,35493
33428,17150,35321
33284,17161,35655
33317,17151,35527
33285,17161,35449
33249,17274,35389
33117,17229,35268
33120,17188,35631
33266,17175,35493
33320,17251,35612
33400,17157,35216
33544,17139,35575
33630,17135,35188
33573,17189,35567
33384,17159,35440
33260,17164,35502
33164,17253,35181
33172,17185,35349
33193,17165,35127
33192,17263,35517
33284,17213,35410
33404,17135,35419
33420,17143,35397
33468,17124,35325
33400,17252,35331
33168,17170,35284
33064,17177,35240
33118,17155,35108
33160,17153,35455
33177,17133,35334
33332,17184,35435
33401,17124,35327
33388,17110,35428
33384,17123,35293
33308,17197,35305
33276,17172,35226
33120,17166,35154
33127,17156,35158
33148,17146,34969
33176,17253,35372
33260,17144,35244
33276,17116,35281
33364,17124,34932
33376,17110,35300
33274,17231,35223
33128,17174,35323
33166,17166,35202
33146,17151,35117
33124,17153,35086
33168,17121,34940
33192,17170,35079
33136,17124,34933
33048,17117,35237
33100,17103,35169
33149,17231,35244
33056,17154,35060
32960,17268,35124
33057,17157,35249
33058,17136,35117
33005,17106,35173
32908,17211,35134
32972,17102,35214
33120,17089,34996
33152,17213,34988
33118,17168,34863
33044,17166,35225
33048,17140,34823
33028,17119,35132
33120,17242,34791
33192,17127,35026
33194,17106,34783
33189,17087,35037
33040,17122,34974
33096,17104,35004
33066,17109,35057
33021,17116,34989
32900,17169,34964
32908,17133,34956
32904,17116,35020
32996,17171,34991
33129,17099,34997
33138,17068,35114
33268,17138,35021
33269,17098,34948
33256,17175,35028
33060,17108,34728
33010,17184,34901
32948,17126,34909
32980,17105,34972
32936,17103,35110
32980,17073,34925
33064,17097,34983
33108,17070,35120
33112,17142,34969
33013,17103,35103
32920,17102,34876
32836,17127,34999
32772,17226,34880
32737,17109,34884
32884,17084,34975
33020,17079,35079
32966,17065,34724
33056,17093,34845
33040,17078,34887
32960,17202,34945
32876,17119,34999
32756,17231,34964
32764,17166,35013
32704,17098,34964
32704,17162,34980
32692,17078,34856
32752,17189,34916
32784,17072,34951
32728,17080,34852
32724,17071,34967
32780,17169,35118
32808,17113,34980
32856,17188,34868
32976,17101,34927
33044,17153,35023
33001,17062,35149
33112,17180,35008
33104,17070,34992
32928,17162,34911
32864,17091,34950
32761,17095,34994
32864,17157,35092
33061,17094,35127
33304,17148,35044
33344,17081,35124
33456,17162,35186
33508,17068,35109
33377,17154,35030
33196,17066,35061
33140,17192,35175
32988,17095,35135
33042,17190,35155
33061,17089,35200
33272,17079,35316
33398,17059,35223
33504,17099,35273
33380,17044,35239
33068,17146,35327
33124,17044,35284
33048,17061,35388
33024,17165,35007
32896,17089,35172
32920,17065,35147
32940,17099,35345
32902,17049,35266
33080,17132,35271
33185,17060,35132
33268,17045,35398
33293,17041,35354
33188,17156,35468
33042,17078,35348
32916,17077,35455
32924,17061,35332
32898,17095,35320
32858,17044,35028
33140,17124,35316
33248,17038,35269
33192,17031,35413
33192,17151,35284
33168,17061,35380
32912,17060,35236
32708,17177,35140
32673,17061,35189
32632,17052,35111
32648,17128,35105
32800,17029,35072
32740,17033,35132
32654,17020,34921
32421,17055,35031
32040,17047,35007
31656,17147,35057
31188,17097,34934
30736,17066,34980
30520,17147,35044
30516,17060,34988
30692,17027,34921
30948,17015,34845
31188,17044,34888
31608,17031,34882
32340,17027,34874
33332,17175,34765
34600,17097,34733
36480,17069,34836
38576,17062,34808
40744,17049,34737
42688,17029,34560
43860,16999,34811
43748,16996,34505
43016,17116,34644
42110,17047,34647
40765,17057,34730
39088,17025,34518
37608,17164,34704
36688,17066,34492
36352,17027,34583
36172,17006,34503
35700,17111,34638
35032,17020,34499
34436,17027,34599
33728,17025,34648
33256,17102,34711
32845,17058,34838
32556,17163,34460
32165,17039,34597
31884,17007,34812
31584,17046,34748
31372,17010,34815
31190,17109,34758
30984,17020,34876
30836,17021,34479
30693,17130,34850
30601,17041,34743
30492,17034,34841
30560,17124,34725
30700,17059,34684
30704,17007,34599
30728,16984,34388
30772,17100,34757
30754,17011,34408
30582,17024,34732
30532,17026,34601
30468,17117,34637
30628,17036,34337
30793,17022,34431
30788,17097,34259
30844,17063,34569
30988,16997,34502
31108,16997,34487
31180,16983,34473
31104,17071,34553
31038,17025,34417
31060,17021,34535
31056,17115,34119
31152,17021,34258
31052,17008,34217
31088,16970,34241
31076,17060,34163
31190,17007,34407
31220,16983,34367
31126,16999,34439
31001,17021,34340
30984,17076,34269
31008,17020,34303
30928,17017,34183
30872,16983,34452
31010,17060,34337
31138,17015,34317
31220,16985,34308
31104,16967,34367
31050,17072,34295
31092,17037,34246
31112,17009,34252
31092,16996,34327
30989,17109,34249
31140,17036,34202
31220,16967,34215
31296,16973,34124
31404,16958,34104
31472,17031,34150
31312,16994,34196
31176,16999,34102
31200,16999,34346
31169,17085,34223
31133,17013,34082
31188,16983,34345
31428,16967,34254
31312,17061,34303
31300,17009,34235
31268,16971,34238
31248,16975,34205
31212,17069,34092
31264,17028,34414
31220,17000,34301
31156,16980,34425
31148,17023,34339
31289,16959,34441
31392,16956,34348
31261,16948,34432
31184,17035,34374
31228,16999,34398
31140,16998,34397
31036,16982,34521
31116,17049,34422
31113,16990,34512
31074,16965,34425
31208,16945,34365
31216,17023,34340
31148,16957,34371
31268,16943,34436
31296,17037,34425
31200,16989,34455
31104,16989,34452
31092,17073,34461
31036,16993,34454
31236,16966,34461
31372,16938,34448
31516,16967,34468
31496,16957,34523
31416,16937,34492
31493,17018,34597
31384,16987,34461
31376,16966,34557
31402,17067,34454
31540,16981,34561
31700,16959,34244
31805,17044,34461
31988,16951,34160
32025,16945,34327
32148,16929,34092
32095,17049,34381
32017,16999,34119
32096,16977,34384
32152,16967,34303
32176,16956,34420
32444,16981,34030
32528,16935,34373
32590,16917,34277
32596,16968,34273
32784,16937,34220
32657,16943,34351
32576,17060,34222
32764,17002,34311
32868,16975,34215
32892,16947,34193
33024,17047,34172
33172,16944,34180
33404,16935,34093
33468,16919,34031
33564,16923,34085
33505,17021,33854
33336,17004,34174
33304,16990,33963
33344,16967,33968
33356,16940,33949
33460,16942,34143
33544,16916,33991
33692,16954,34060
33596,16917,33973
33616,16927,33941
33508,16933,33893
33488,17053,33839
33420,16979,33781
33352,16967,33813
33348,16942,33764
33464,16917,33638
33500,16908,33994
33504,16967,33856
33497,16918,33940
33576,16903,33857
33704,17029,33980
33568,17028,33895
33644,16978,33844
33600,16950,33887
33632,16932,33799
33584,16969,33779
33480,16923,33901
33440,16901,33969
33434,16910,33916
33472,16895,33786
33480,17041,33924
33448,17015,33927
33448,16959,34027
33488,16942,33958
33420,17030,34073
33428,16993,33949
33492,16909,33935
33496,16907,33949
33409,16889,33913
33312,16894,33860
33159,17022,33700
33108,16961,33976
33180,16954,33703
33352,16940,34101
33296,17055,33983
33336,16921,33866
33344,16891,33917
33468,16879,33962
33528,17011,33924
33452,16925,33899
33376,16929,33740
33284,16927,34061
33168,17051,34000
33152,17013,34113
33198,16931,34025
33328,16901,33940
33381,16972,33780
33461,16895,34037
33481,16903,33761
33412,16884,33901
33364,16963,33948
33249,16933,33933
33152,16925,33946
33296,17028,34044
33391,16925,34140
33400,16907,34049
33388,16967,33904
33412,16894,34087
33384,16879,34055
33457,16909,34004
33328,16916,33808
33220,16927,34132
33159,16914,33799
33116,16940,34019
33204,16919,34133
33380,16885,34085
33468,16883,33977
33540,16882,33981
33552,16875,34025
33444,16952,34046
33328,16908,34084
33264,16912,34105
33124,16905,34075
33232,16951,34084
33280,16913,34149
33224,16985,34245
33364,16880,34140
33540,16884,34143
33486,16863,33956
33444,16978,34260
33332,16935,34171
33160,16924,34277
33204,16902,34183
33172,16958,34311
33196,16913,34206
33400,16892,34324
33456,16968,34203
33302,16886,34351
33116,16887,34122
33212,16876,34220
33252,16898,34271
33132,16913,34231
33084,16911,34268
33128,16895,34239
33208,16886,34167
33224,16953,34118
33336,16876,34288
33388,16868,34307
33348,16847,34349
33294,16950,34318
33161,16907,34276
33008,16903,34311
32992,16891,34279
32933,16892,34293
32897,16974,34104
32968,16871,34311
33040,16844,34294
33044,16945,34289
33109,16864,34337
33009,16854,34325
32944,16995,34205
32855,16918,34591
32908,16893,34468
32892,17000,34620
32908,16919,34532
33045,16881,34533
33088,16839,34500
32976,16956,34445
33040,16892,34693
33089,16862,34599
33089,16873,34639
32980,16880,34594
32949,16973,34544
32936,16902,34521
32916,16895,34636
33020,16870,34620
33104,16852,34669
33057,16852,34692
33101,16845,34599
33012,16845,34841
32900,16956,34719
32806,16891,34596
32816,16885,34834
32764,16882,34732
32880,16868,34614
32924,16923,34685
33010,16853,34724
32992,16855,34673
32932,16838,34677
32880,16850,34852
32801,16956,34849
32661,16916,34861
32648,16892,34857
32708,16867,34796
32721,16957,34760
32760,16864,34746
32864,16845,34897
32900,16837,34909
32884,16931,34936
32880,16847,34908
32822,16873,34841
32688,16867,34778
32704,16970,34796
32832,16899,34937
32956,16868,34692
33023,16974,34963
33228,16881,34948
33221,16845,35021
33204,16836,34927
33202,16839,34873
33176,16903,34814
33152,16885,34806
33136,16861,34972
33124,16965,34964
33200,16891,34980
33260,16849,34933
33369,16821,34885
33434,16822,34932
33432,16943,34952
33332,16923,34873
33232,16884,34968
33136,16871,34951
33048,16873,34919
33033,16860,34836
33020,16937,34951
33016,16898,34863
33020,16833,34839
33024,16830,34837
32996,16914,34813
33020,16932,34750
33016,16903,34949
32974,16898,34951
32952,16880,34889
32996,16868,34821
33020,16869,34924
33060,16836,34908
33076,16820,34892
33068,16934,34943
33076,16843,34924
33045,16837,34909
32984,16838,34847
33088,16945,34927
33224,16868,34936
33300,16855,35073
33264,16840,34943
33285,16819,35021
33316,16813,34876
33232,16896,34903
33120,16833,34908
32946,16833,34773
32728,16846,35157
32576,16956,35069
32542,16926,35143
32500,16869,35111
32480,16847,35151
32558,16815,35124
32504,16810,35149
32348,16934,35148
32086,16870,35237
31664,16849,35253
31124,16837,35305
30668,16859,35390
30512,16849,35532
30596,16839,35713
30768,16920,35655
31220,16880,35856
31817,16851,35813
32524,16830,35759
33380,16832,35841
34476,16804,35783
36032,16966,36111
37716,16932,36159
39424,16864,36320
41172,16855,36272
42132,16855,36132
41972,16822,36509
41436,16770,36519
40780,16917,36702
39728,16895,36668
38168,16833,36842
36648,16844,36452
35460,16851,36929
34840,16841,36764
34708,16934,36764
34376,16879,37091
33912,16831,37021
33580,16823,36989
33156,16817,37206
32814,16834,37168
32624,16823,37256
32480,16836,37245
32248,16839,37212
31888,16959,37285
31536,16932,37284
31305,16879,37333
31200,16823,37375
31092,16800,37413
30949,16856,37440
30904,16810,37415
30888,16820,37325
30812,16823,37600
30784,16945,37611
30856,16915,37733
30968,16842,37669
31072,16834,37791
31120,16806,37349
31216,16855,37580
31324,16804,37375
31248,16805,37863
31068,16804,37737
30904,16823,37812
30876,16907,37756
30840,16850,37919
30877,16837,37823
30907,16815,37959
30964,16907,37860
31112,16849,37805
31278,16797,37780
31296,16802,37863
31392,16797,38041
31332,16922,37895
31244,16858,38012
31210,16832,37919
31245,16826,37892
31172,16805,37780
31256,16861,37641
31448,16791,37892
31522,16799,37895
31364,16797,37993
31353,16791,37913
31328,16805,37795
31252,16933,37921
31236,16871,37917
31228,16821,38007
31264,16815,37863
31360,16783,37965
31488,16883,37841
31536,16869,37604
31465,16846,37879
31472,16793,37613
31448,16807,37840
31373,16812,37708
31417,16809,37799
31480,16806,37772
31553,16799,37686
31652,16894,37593
31652,16865,37358
31704,16820,37816
31628,16791,37652
31564,16791,37657
31500,16804,37588
31356,16884,37538
31343,16841,37553
31340,16812,37244
31332,16812,37612
31316,16772,37177
31441,16766,37591
31592,16852,37460
31649,16799,37556
31776,16785,37383
31741,16809,37309
31782,16804,37277
31740,16901,37341
31556,16837,37279
31516,16812,36965
31544,16787,37382
31389,16775,37245
31244,16769,37152
31132,16767,37148
31168,16824,37255
31228,16811,37156
31167,16805,37253
31172,16801,37124
31072,16851,37116
31040,16793,37057
31104,16873,37134
31108,16798,36999
31160,16775,36929
31196,16762,36777
31312,16840,36772
31260,16796,36784
31152,16812,36837
31200,16895,36731
31200,16823,36677
31136,16796,36628
31128,16759,36743
31268,16749,36640
31334,16791,36648
31393,16772,36581
31469,16753,36636
31404,16876,36476
31372,16857,36470
31470,16845,36324
31544,16818,36318
31615,16805,36399
31740,16776,36198
31852,16763,36175
31980,16754,36132
31960,16846,36070
31884,16815,35969
31848,16793,35921
31936,16781,35941
32057,16776,35905
32124,16897,35837
32181,16888,35704
32380,16755,35856
32612,16866,35705
32773,16785,35762
32801,16766,35579
32884,16775,35591
32897,16781,35335
32912,16805,35351
32877,16780,35334
32952,16869,35414
33032,16789,35284
33137,16755,35327
33216,16751,35170
33333,16760,35036
33440,16751,34935
33376,16751,34969
33316,16763,35026
33336,16783,34748
33216,16797,34812
33200,16785,34727
33318,16763,34609
33332,16743,34610
33428,16738,34628
33508,16843,34505
33493,16766,34388
33388,16761,34341
33264,16783,34282
33268,16775,34247
33253,16864,33953
33218,16793,34156
33248,16783,33772
33328,16740,33988
33440,16721,33664
33524,16798,33748
33449,16745,33718
33413,16745,33733
33292,16891,33716
33206,16837,33628
33224,16817,33532
33268,16772,33231
33436,16756,33431
33484,16773,33252
33504,16746,33286
33412,16731,33300
33412,16817,32881
33413,16757,32925
33348,16769,32899
33301,16779,32804
33329,16757,32768
33328,16869,32765
33384,16861,32673
33473,16812,32592
33576,16741,32511
33580,16743,32517
33600,16837,32499
33608,16754,32180
33620,16769,32225
33540,16758,32138
33488,16869,32077
33464,16862,32113
33468,16821,32135
33561,16748,31990
33654,16740,31920
33644,16723,31623
33624,16726,31692
33560,16816,31743
33506,16767,31684
33412,16772,31698
33465,16875,31403
33496,16842,31383
33452,16763,31461
33488,16844,31292
33560,16784,31220
33592,16749,31127
33516,16739,31108
33476,16740,30949
33392,16743,31154
33317,16869,30935
33328,16859,31095
33365,16795,30992
33356,16777,31017
33433,16740,30887
33472,16733,30873
33508,16716,30786
33448,16718,30825
33372,16828,30697
33297,16755,30592
33265,16768,30380
33264,16749,30625
33305,16747,30292
33300,16818,30343
33312,16745,30326
33388,16731,30389
33412,16713,30436
33437,16772,30109
33406,16743,30149
33344,16751,30140
33180,16741,30166
33156,16820,30197
33113,16773,30155
33192,16759,30173
33336,16732,29892
33413,16702,30103
33384,16838,30023
33349,16768,30093
33309,16750,29781
33225,16759,29916
33164,16748,29751
33116,16863,29807
33164,16833,29679
33192,16785,29915
33208,16725,29862
33268,16725,29902
33332,16703,29813
33360,16831,29881
33316,16766,29591
33232,16753,29670
33012,16764,29601
33076,16740,29692
33028,16850,29534
32984,16776,29607
33114,16724,29553
33192,16719,29636
33160,16814,29783
33116,16739,29661
33148,16728,29612
33056,16852,29535
32958,16824,29567
32961,16784,29479
32960,16757,29572
32948,16726,29410
33016,16826,29604
33066,16706,29442
33164,16720,29485
33152,16705,29578
33168,16705,29681
33124,16841,29588
33076,16769,29527
33048,16745,29371
33097,16755,29673
33156,16717,29575
33242,16808,29642
33285,16726,29447
33300,16704,29447
33308,16821,29471
33324,16797,29543
33226,16746,29473
33232,16746,29556
33193,16730,29504
33240,16830,29556
33312,16729,29632
33413,16693,29525
33472,16782,29539
33524,16725,29340
33472,16706,29543
33452,16809,29341
33358,16742,29589
33232,16750,29508
33210,16733,29560
33160,16726,29501
33148,16795,29441
33248,16730,29412
33272,16706,29305
33274,16708,29582
33284,16693,29507
33292,16822,29583
33196,16796,29504
33080,16743,29529
33036,16729,29341
33068,16763,29448
33120,16737,29415
33180,16693,29496
33269,16685,29365
33260,16685,29533
33180,16797,29284
33188,16729,29563
33116,16743,29476
33088,16741,29500
33052,16727,29452
33044,16711,29375
33080,16830,29377
33144,16714,29383
33188,16705,29478
33220,16687,29365
33260,16791,29436
33232,16721,29340
33108,16727,29556
32972,16742,29504
32804,16736,29454
32704,16708,29487
32600,16814,29429
32487,16719,29504
32276,16692,29428
31933,16701,29412
31352,16691,29367
30912,16703,29412
30480,16791,29343
30233,16764,29502
30272,16733,29356
30644,16717,29412
31328,16813,29396
31984,16725,29500
32780,16695,29540
33836,16689,29527
35328,16714,29609
37404,16712,29319
39368,16699,29465
41120,16838,29409
42632,16765,29424
43016,16722,29405
42052,16712,29505
41032,16682,29540
40152,16838,29519
38804,16740,29501
37121,16710,29461
35985,16695,29490
35092,16720,29343
34712,16781,29624
34876,16741,29548
34898,16726,29420
34508,16708,29649
34180,16796,29572
33861,16695,29645
33621,16671,29575
33429,16783,29588
33196,16735,29564
32724,16732,29479
32248,16723,29510
31952,16837,29440
31692,16739,29560
31474,16722,29431
31381,16687,29613
31354,16772,29428
31248,16708,29652
31120,16703,29519
31026,16693,29482
30896,16727,29524
30804,16730,29409
30760,16709,29703
30802,16741,29397
30872,16708,29642
31000,16756,29383
31080,16679,29613
31096,16677,29564
31108,16765,29661
31069,16697,29575
31016,16709,29633
30960,16706,29547
30920,16796,29653
30961,16713,29376
31112,16697,29477
31272,16768,29460
31366,16673,29588
31385,16754,29559
31365,16687,29410
31364,16694,29589
31332,16813,29476
31246,16729,29611
31248,16701,29489
31208,16761,29542
31222,16705,29614
31372,16772,29720
31512,16665,29461
31496,16661,29548
31472,16731,29552
31408,16684,29477
31292,16786,29557
31232,16717,29571
31247,16700,29719
31280,16751,29813
31312,16691,29549
31392,16735,29748
31472,16670,29669
31484,16663,29628
31408,16676,29756
31364,16670,29847
31288,16747,29572
31212,16711,29750
31190,16767,29856
31252,16703,29671
31281,16791,29810
31364,16689,29877
31436,16667,29805
31432,16661,29820
31470,16765,29645
31448,16709,29842
31353,16703,29681
31280,16692,29837
31272,16751,29709
31300,16697,29904
31344,16676,29831
31424,16753,29937
31472,16720,29759
31460,16676,29988
31424,16669,29991
31440,16661,30019
31369,16681,29969
31328,16689,30061
31300,16725,30045
31287,16701,29906
31268,16677,30032
31416,16677,30018
31472,16647,30143
31528,16743,30103
31520,16695,30148
31480,16674,29988
31349,16688,30260
31212,16802,30220
31189,16721,30356
31288,16687,30237
31368,16679,30190
31576,16645,30179
31712,16738,30117
31729,16716,30402
31708,16703,30272
31700,16669,30148
31608,16673,30340
31664,16777,30166
31680,16697,30373
31746,16677,30181
31744,16766,30477
31848,16662,30413
31996,16631,30513
32088,16709,30412
32128,16651,30539
32149,16652,30233
32036,16690,30482
32020,16754,30231
32056,16692,30343
32108,16666,30265
32201,16765,30575
32368,16655,30471
32473,16628,30572
32612,16700,30260
32700,16659,30447
32744,16654,30297
32692,16722,30569
32708,16694,30486
32714,16784,30541
32676,16683,30500
32844,16654,30561
33001,16729,30498
33172,16639,30507
33160,16647,30458
33242,16647,30373
33261,16750,30586
33188,16680,30480
33104,16671,30516
33128,16775,30490
33204,16693,30453
33292,16671,30372
33348,16648,30480
33386,16749,30592
33376,16665,30376
33384,16651,30596
33376,16643,30316
33212,16759,30494
33119,16741,30503
33100,16671,30588
33236,16679,30503
33255,16644,30481
33372,16729,30498
33510,16633,30484
33556,16631,30496
33480,16671,30529
33388,16655,30297
33256,16645,30461
33132,16783,30416
33172,16708,30424
33248,16679,30552
33308,16647,30572
33281,16705,30646
33319,16626,30594
33284,16617,30524
33168,16684,30573
33248,16649,30605
33260,16670,30533
33217,16783,30616
33290,16740,30436
33308,16665,30540
33342,16643,30549
33372,16711,30565
33388,16631,30468
33428,16631,30727
33472,16745,30460
33416,16660,30721
33372,16668,30699
33308,16651,30594
33284,16723,30589
33290,16664,30521
33281,16654,30799
33508,16619,30727
33544,16720,30684
33437,16645,30685
33392,16633,30622
33396,16637,30703
33288,16646,30630
33220,16721,30607
33300,16671,30508
33301,16666,30819
33252,16767,30712
33349,16647,30812
33421,16614,30707
33448,16663,30591
33468,16625,30508
33428,16651,30701
33316,16777,30599
33256,16697,30685
33278,16661,30496
33244,16647,30808
33222,16743,30692
33264,16663,30784
33348,16623,30491
33392,16618,30586
33365,16746,30601
33324,16631,30714
33248,16656,30697
33192,16639,30693
33220,16660,30841
33196,16645,30536
33212,16659,30628
33300,16620,30688
33358,16601,30764
33372,16647,30782
33276,16623,30775
33288,16735,30716
33228,16647,30557
33166,16634,30770
33096,16682,30658
33116,16646,30781
33128,16628,30740
33212,16711,30772
33272,16619,30885
33272,16720,30613
33260,16642,30727
33208,16639,30757
33029,16635,30829
32948,16664,30927
32984,16659,30655
33004,16623,30764
33021,16689,30693
33152,16613,30724
33261,16596,30776
33288,16687,30863
33313,16609,30932
33228,16602,30703
33080,16704,30866
32960,16645,30780
32868,16637,30885
32964,16733,31001
33056,16629,30919
33104,16591,30812
33132,16667,30833
33160,16604,30921
33184,16609,30958
33128,16732,31004
32952,16644,31111
32876,16640,31007
32776,16733,30940
32788,16641,30975
32792,16753,31038
32862,16613,31014
32954,16597,31103
32992,16663,31163
32944,16611,30903
32897,16608,31164
32732,16750,30937
32672,16647,31167
32656,16628,31228
32680,16660,31198
32612,16622,31239
32800,16591,31004
32879,16629,31117
32984,16596,31255
33004,16594,31247
32928,16677,31175
32868,16633,31340
32836,16647,31319
32857,16619,31398
32916,16708,31345
32912,16639,31450
33008,16601,31139
33040,16700,31346
33016,16613,31197
33028,16604,31311
33072,16601,31223
32996,16709,31311
32884,16638,31327
32848,16613,31372
32956,16611,31239
32996,16710,31455
33037,16634,31455
33148,16605,31500
33208,16583,31489
33186,16643,31383
33096,16605,31391
32985,16612,31411
32892,16731,31429
32900,16651,31305
32912,16627,31417
32916,16593,31438
32996,16630,31482
33048,16592,31489
33048,16575,31581
33076,16695,31695
32988,16603,31409
32841,16609,31534
32854,16735,31389
32896,16667,31644
32904,16615,31492
32872,16604,31652
32852,16580,31701
32892,16612,31686
32884,16593,31810
32884,16591,31730
32900,16590,31804
32916,16690,31739
32864,16631,31688
32845,16621,31663
32856,16621,31570
32864,16598,31879
32924,16576,31777
33032,16561,31676
33053,16658,31773
33010,16585,31823
32956,16604,31796
32757,16610,31651
32544,16731,31716
32340,16649,31745
32150,16611,31740
31872,16607,31756
31684,16571,31832
31280,16665,31775
30816,16583,31879
30388,16580,31919
30176,16671,31907
30096,16612,31989
30200,16615,31900
30564,16693,31860
31136,16655,31823
32012,16604,31928
33244,16580,32047
34728,16673,31718
36732,16585,31908
39028,16543,32046
41352,16687,31740
43424,16648,31928
44556,16634,31877
44512,16592,31895
43824,16757,31900
43140,16634,32000
42237,16574,31917
40717,16696,31967
39228,16605,32029
38188,16588,32039
37560,16747,31940
36900,16652,32048
36052,16615,32157
35352,16688,31975
34876,16620,32076
34272,16591,32180
33796,16639,31876
33368,16575,32092
32944,16555,32084
32450,16631,32138
31910,16594,32085
31444,16687,32237
31128,16623,32054
30924,16598,32126
30698,16708,32108
30588,16673,32141
30613,16575,32173
30592,16567,32135
30552,16618,32252
30464,16590,32120
30408,16590,32231
30284,16605,32115
30268,16644,32162
30332,16621,32088
30350,16610,32132
30448,16591,32061
30544,16580,32071
30608,16597,32025
30708,16641,32100
30798,16575,32004
30744,16581,32096
30656,16695,31746
30601,16621,31845
30590,16608,31860
30664,16595,31925
30700,16605,31856
30796,16573,31917
30900,16554,31850
30916,16648,31946
30844,16626,31870
30804,16593,31852
30736,16600,31860
30684,16653,31980
30712,16600,32033
30768,16588,31989
30840,16687,32022
30884,16593,32004
30972,16565,32084
30996,16637,31781
31001,16604,32089
30989,16591,31973
30856,16601,31892
30828,16605,31870
30832,16689,31897
30808,16603,31988
30780,16581,32068
30934,16674,31751
31057,16598,31940
31132,16567,31718
31148,16561,32060
31024,16563,31947
30893,16592,31836
30824,16677,31828
30788,16600,31839
30788,16597,31844
30860,16567,31748
30912,16669,32002
30964,16615,31958
31008,16559,31952
30980,16569,31845
30902,16575,31717
30792,16687,31909
30736,16677,31974
30784,16617,31888
30858,16580,31983
30968,16661,32015
31104,16558,32023
31156,16542,32064
31172,16628,32037
31100,16564,32100
31056,16575,31964
30881,16661,32076
30784,16591,32089
30777,16582,32142
30740,16685,32240
30864,16605,31924
31040,16561,32237
31044,16561,32205
31012,16543,32247
31044,16648,32238
31056,16586,32253
30968,16590,32263
30904,16581,32324
30849,16688,32243
30836,16658,32191
30976,16595,32164
31188,16556,32225
31304,16542,32260
31343,16544,32206
31296,16613,32278
31228,16571,32301
31124,16578,32069
31137,16575,32183
31168,16674,32105
31248,16655,32348
31364,16569,32055
31484,16554,32297
31576,16535,32117
31652,16593,32183
31612,16556,32221
31657,16550,32263
31617,16579,32206
31601,16626,32249
31700,16581,32252
31852,16585,32235
31944,16547,32198
32134,16539,32215
32290,16620,32137
32360,16569,32125
32434,16540,32231
32488,16667,32221
32476,16588,32327
32528,16583,31976
32629,16693,32100
32748,16581,32225
32824,16540,32206
33010,16577,32293
33148,16543,32188
33192,16530,32292
33272,16657,32176
33288,16647,32237
33198,16576,32199
33272,16581,32167
33373,16559,32181
33428,16639,32237
33460,16558,32158
33540,16655,32160
33604,16535,32089
33612,16541,32078
33588,16614,32032
33592,16616,32140
33456,16582,31945
33422,16681,32072
33360,16591,32050
33416,16572,32164
33444,16661,32180
33552,16537,32191
33565,16519,32301
33556,16595,31975
33572,16545,32070
33600,16661,32260
33512,16574,32188
33376,16701,32124
33304,16581,32138
33292,16551,32221
33314,16630,32316
33405,16551,32122
33520,16517,32124
33500,16629,32144
33504,16560,32241
33430,16543,32364
33328,16649,32084
33329,16573,32252
33308,16685,32261
33320,16562,32231
33276,16531,32285
33316,16626,32375
33424,16540,32117
33456,16521,32221
33396,16533,32325
33352,16526,32259
33260,16647,32352
33196,16565,32073
33222,16553,32148
33284,16647,32124
33265,16551,32228
33357,16509,32185
33436,16551,32111
33445,16533,32207
33412,16513,32316
33352,16637,31977
33252,16585,32109
33172,16567,32119
33129,16671,32199
33116,16604,32297
33212,16549,31954
33304,16533,32239
33420,16507,32028
33441,16518,32060
33376,16559,32021
33288,16548,32076
33248,16546,32085
33180,16585,32156
33184,16575,31993
33208,16567,32177
33264,16526,31941
33436,16577,32224
33488,16535,32179
33504,16523,32260
33516,16629,32193
33440,16567,32202
33312,16565,32188
33263,16551,32303
33300,16627,32187
33280,16557,32253
33188,16532,32180
33344,16608,32111
33480,16529,32093
33480,16507,32167
33428,16593,32135
33420,16540,32157
33348,16535,32173
33232,16658,32189
33217,16582,32093
33168,16546,32120
33312,16519,32133
33436,16593,32197
33532,16514,32302
33484,16519,32219
33532,16498,32279
33500,16623,32207
33377,16567,32119
33348,16556,32144
33252,16542,32164
33212,16647,32148
33237,16574,32132
33357,16509,32250
33360,16583,32348
33396,16517,32113
33372,16500,32240
33312,16553,32375
33216,16541,32089
33124,16661,32220
33108,16567,32247
33100,16525,32316
33145,16595,32376
33198,16510,32135
33092,16485,32260
33036,16607,32231
33040,16517,32341
32932,16516,32457
32860,16636,32337
32904,16575,32465
32877,16541,32344
32932,16531,32318
32952,16517,32172
32996,16567,32279
33044,16516,32372
33017,16495,32416
32988,16540,32519
32901,16519,32228
32786,16572,32424
32797,16533,32553
32904,16620,32223
32992,16537,32421
33080,16501,32511
33144,16591,32484
33209,16506,32516
33160,16511,32257
33184,16493,32582
33196,16605,32401
33185,16544,32526
33096,16519,32584
33108,16571,32564
33128,16533,32602
33232,16578,32474
33326,16502,32579
33368,16604,32668
33349,16527,32623
33292,16505,32663
33268,16507,32439
33188,16535,32516
33132,16517,32570
33057,16559,32650
33064,16540,32736
33128,16636,32428
33096,16500,32612
33180,16478,32713
33220,16517,32689
33181,16497,32806
33145,16641,32453
33084,16535,32750
33020,16525,32705
32964,16629,32646
32952,16533,32544
33020,16508,32643
33108,16484,32587
33184,16573,32661
33188,16490,32748
33140,16500,32755
33104,16493,32843
33008,16639,32775
32944,16606,32745
32928,16535,32773
32988,16508,32919
33048,16548,32562
33109,16497,32788
33160,16471,32657
33212,16580,32695
33149,16530,32593
33088,16511,32935
32984,16524,32833
32832,16519,32751
32716,16567,32791
32592,16527,32759
32612,16484,32762
32488,16549,32762
32264,16484,32728
31992,16481,32757
31474,16570,32818
30936,16508,32837
30456,16511,32862
30212,16614,32775
30224,16559,32918
30364,16529,32887
30728,16502,32973
31276,16483,32903
32127,16565,32960
33240,16492,32903
34616,16479,32956
36564,16488,32884
38752,16614,32709
40980,16558,32969
43048,16539,32912
44421,16499,33063
44544,16492,32950
43876,16563,33047
43157,16495,32712
42284,16482,32828
40780,16597,32869
39216,16537,32974
38092,16542,33009
37533,16650,32975
37004,16570,32992
36292,16519,32887
35636,16510,32919
35110,16589,32924
34528,16521,32965
34040,16489,32876
33596,16487,32985
33101,16507,32995
32468,16595,33052
31880,16523,32884
31404,16521,33016
31048,16514,33050
30836,16566,33045
30765,16503,33074
30692,16488,33041
30684,16476,33036
30760,16485,33188
30839,16556,32951
30788,16527,33232
30753,16521,33031
30784,16619,33180
30804,16541,33210
30745,16504,33252
30650,16472,33364
30648,16501,33257
30660,16486,33392
30662,16580,33056
30664,16519,33192
30576,16516,33252
30556,16615,33360
30524,16526,33436
30636,16514,33439
30692,16478,33599
30580,16530,33519
30512,16484,33679
30426,16471,33369
30380,16489,33645
30356,16487,33828
30292,16597,33552
30324,16517,33852
30420,16500,34016
30460,16571,33776
30548,16485,34041
30672,16465,34076
30824,16564,34229
30920,16483,34288
30952,16479,34362
30980,16567,34624
30912,16518,34640
30838,16495,34757
30820,16529,34713
30848,16507,34893
30878,16495,34981
31026,16462,35117
31104,16461,35132
31092,16527,35194
31009,16471,35236
30992,16485,35268
30872,16495,35396
30816,16596,35200
30844,16519,35479
30860,16508,35368
30888,16476,35573
30957,16506,35730
30968,16466,35804
30912,16460,35961
30888,16462,35917
30836,16545,36039
30784,16515,36005
30800,16513,36093
30836,16491,36111
30854,16578,36253
30976,16499,36167
31076,16472,36332
31012,16453,36248
31080,16561,36341
31184,16488,36087
31216,16493,36341
31200,16511,36093
31132,16501,36473
31060,16489,36472
31076,16485,36487
31161,16550,36519
31312,16473,36501
31396,16469,36448
31460,16441,36525
31484,16559,36546
31320,16516,36551
31073,16506,36581
30968,16493,36572
30952,16574,36654
30984,16521,36615
31032,16487,36677
31026,16447,36717
31004,16528,36740
31000,16484,36751
30988,16470,36710
31028,16473,36737
30976,16490,36711
31029,16543,36611
31028,16496,36711
31053,16499,36772
31064,16478,36678
31180,16452,36764
31184,16456,36742
31186,16446,36662
31280,16542,36661
31224,16487,36636
31160,16500,36711
31164,16495,36664
31238,16485,36596
31324,16580,36544
31504,16491,36374
31600,16460,36679
31732,16439,36564
31876,16561,36508
32020,16485,36359
32064,16479,36159
32016,16489,36541
32046,16482,36389
32142,16575,36377
32212,16521,36260
32468,16476,36207
32724,16443,36199
32876,16545,35900
32908,16545,36252
32928,16464,36124
32960,16474,36007
32784,16492,35956
32676,16483,35815
32784,16588,36054
32876,16571,35840
33012,16475,35862
33120,16455,35847
33256,16433,35746
33360,16567,35596
33356,16469,35581
33364,16458,35586
33304,16581,35468
33276,16519,35547
33284,16485,35423
33320,16477,35335
33432,16569,35409
33533,16517,35369
33512,16495,35236
33524,16465,35261
33552,16461,35125
33444,16481,35218
33368,16484,35025
33344,16479,34758
33317,16503,35126
33372,16484,34956
33440,16445,34943
33472,16540,34732
33480,16463,34637
33488,16453,34887
33561,16442,34721
33510,16519,34756
33420,16481,34587
33460,16483,34467
33488,16473,34493
33460,16517,34199
33472,16476,34493
33556,16457,34340
33624,16431,34225
33629,16516,34121
33590,16459,33919
33596,16475,34244
33496,16462,34084
33480,16514,34088
33489,16487,33920
33576,16465,33799
33606,16518,33788
33652,16453,33693
33725,16421,33596
33736,16521,33532
33728,16461,33604
33696,16481,33533
33564,16487,33413
33508,16481,33332
33532,16518,33401
33608,16487,33384
33660,16447,33250
33752,16436,33117
33832,16516,33281
33844,16559,33119
33776,16543,33071
33704,16540,32919
33652,16491,32951
33584,16471,32805
33532,16572,32843
33581,16479,32573
33664,16462,32669
33724,16436,32597
33786,16492,32497
33832,16449,32444
33772,16434,32453
33636,16556,32249
33504,16485,32382
33476,16466,32216
33496,16517,32241
33536,16476,32192
33588,16451,32238
33608,16556,32186
33704,16463,32188
33752,16455,32101
33752,16437,31953
33716,16457,31865
33540,16585,31791
33440,16574,31951
33444,16541,31846
33420,16481,31895
33440,16457,31751
33552,16434,31793
33646,16518,31650
33644,16460,31507
33640,16452,31425
33521,16464,31296
33415,16476,31533
33380,16509,31412
33412,16476,31456
33432,16465,31340
33549,16452,31121
33608,16481,31231
33604,16442,31220
33556,16447,31184
33488,16429,31021
33452,16465,31108
33376,16527,31143
33324,16485,31017
33308,16476,30914
33265,16599,30977
33352,16463,30945
33488,16447,30953
33516,16548,31023
33536,16485,30911
33540,16461,30969
33413,16482,30868
33309,16473,30869
33216,16595,30789
33176,16551,30689
33240,16559,30846
33312,16503,30763
33356,16453,30820
33313,16430,30548
33318,16518,30658
33288,16459,30525
33252,16460,30590
33096,16564,30596
33008,16493,30664
32953,16482,30564
33056,16465,30587
33140,16569,30567
33236,16463,30553
33260,16443,30551
33252,16548,30559
33237,16471,30460
33189,16453,30766
33121,16517,30453
33113,16498,30671
33148,16481,30655
33148,16512,30727
33225,16472,30676
33340,16444,30599
33372,16436,30629
33348,16567,30680
33337,16484,30698
33276,16481,30695
33200,16484,30654
33214,16585,30580
33236,16496,30531
33236,16494,30798
33332,16478,30629
33388,16450,30470
33389,16436,30768
33372,16557,30673
33310,16472,30566
33260,16488,30552
33148,16506,30663
33144,16503,30633
33196,16497,30584
33272,16482,30672
33312,16460,30559
33338,16453,30751
33332,16455,30616
33300,16556,30452
33312,16564,30714
33272,16573,30529
33142,16571,30629
33068,16589,30535
33044,16540,30703
33085,16519,30622
33172,16484,30540
33300,16441,30559
33356,16559,30484
33380,16538,30724
33345,16516,30600
33273,16521,30608
33144,16540,30500
33040,16506,30565
33073,16497,30631
33116,16500,30507
33148,16471,30525
33253,16577,30408
33236,16549,30599
33236,16564,30588
33236,16491,30623
33152,16503,30726
33000,16486,30625
32900,16615,30549
32832,16570,30512
32720,16513,30625
32656,16484,30509
32524,16461,30500
32302,16497,30508
31976,16481,30523
31444,16469,30518
30964,16569,30500
30492,16514,30498
30236,16516,30602
30248,16509,30538
30444,16574,30497
30956,16498,30458
31593,16485,30575
32276,16463,30450
33276,16580,30665
34732,16524,30623
36756,16532,30498
38924,16540,30521
41036,16641,30664
42960,16526,30596
43920,16485,30681
43404,16610,30605
42516,16523,30700
41636,16505,30396
40400,16481,30686
38604,16654,30612
37140,16543,30678
36118,16546,30621
35664,16516,30609
35832,16644,30626
35732,16618,30506
35256,16537,30596
34804,16486,30548
34300,16575,30653
33846,16504,30737
33536,16517,30685
33192,16523,30744
32720,16531,30695
32273,16553,30665
31910,16544,30700
31605,16517,30801
31396,16617,30727
31294,16513,30780
31184,16510,30559
31036,16493,30741
30905,16587,30510
30797,16558,30813
30705,16553,30695
30692,16541,30693
30708,16532,30620
30740,16527,30452
30832,16628,30717
30972,16527,30629
31000,16507,30501
30969,16511,30620
31016,16508,30571
31016,16523,30437
30964,16627,30449
30905,16541,30369
30900,16545,30564
30958,16533,30483
31068,16599,30540
31192,16543,30463
31228,16514,30367
31288,16511,30404
31289,16516,30333
31209,16625,30339
31084,16564,30280
31080,16556,30485
31106,16545,30411
31141,16600,30451
31200,16529,30395
31284,16511,30426
31332,16597,30388
31288,16549,30356
31258,16531,30324
31213,16558,30420
31104,16556,30470
31021,16573,30438
31040,16558,30533
31062,16539,30423
31148,16597,30377
31233,16526,30415
31236,16516,30359
31216,16528,30460
31244,16523,30513
31140,16599,30281
31100,16577,30416
31068,16564,30400
31148,16592,30495
31180,16567,30377
31198,16533,30432
31248,16561,30334
31260,16533,30617
31268,16642,30385
31292,16543,30524
31239,16545,30509
31201,16612,30520
31148,16582,30479
31148,16581,30645
31148,16558,30478
31232,16650,30796
31368,16570,30741
31396,16545,30716
31372,16536,30778
31340,16620,30819
31237,16587,30771
31092,16583,30672
31094,16588,30864
31064,16571,30622
31104,16589,30831
31160,16559,30666
31276,16642,30777
31364,16571,30803
31364,16548,30917
31364,16652,31031
31316,16597,30973
31220,16597,31012
31160,16691,30991
31160,16591,30997
31192,16581,30913
31292,16632,30924
31401,16556,30855
31485,16541,30919
31512,16571,31006
31548,16552,31058
31500,16595,31103
31436,16580,30855
31364,16610,31041
31460,16599,30958
31552,16665,31060
31648,16577,31109
31780,16666,30887
32004,16607,31037
32088,16566,31127
32088,16685,30852
32032,16605,31061
32000,16610,30851
32025,16591,31022
32016,16658,30924
32058,16605,30977
32189,16574,30983
32420,16571,31065
32558,16563,31124
32676,16613,30918
32706,16577,31030
32736,16660,31177
32724,16612,30943
32685,16690,31026
32796,16615,31017
32916,16716,31127
33017,16597,31236
33180,16636,31041
33300,16580,31151
33320,16702,31270
33242,16615,31174
33228,16596,31107
33272,16615,31309
33188,16727,31047
33182,16620,31185
33253,16604,31111
33404,16651,31257
33562,16589,31276
33504,16635,31076
33480,16572,31235
33464,16651,31259
33420,16608,31348
33388,16714,31417
33400,16621,31362
33374,16599,31429
33388,16698,31276
33360,16601,31479
33417,16589,31422
33436,16692,31447
33448,16607,31332
33560,16593,31417
33498,16723,31420
33320,16634,31501
33272,16741,31468
33316,16644,31421
33376,16630,31444
33450,16588,31502
33544,16704,31561
33600,16603,31568
33569,16591,31629
33582,16611,31622
33454,16722,31792
33294,16651,31589
33276,16628,31684
33320,16654,31725
33332,16625,31553
33401,16615,31805
33456,16711,31648
33520,16611,31700
33528,16720,31713
33540,16612,31815
33436,16725,31844
33312,16633,31964
33232,16661,31788
33280,16771,31862
33353,16633,31812
33432,16612,31879
33432,16609,31686
33461,16708,31924
33461,16615,31836
33440,16703,31812
33396,16653,31896
33249,16721,31841
33232,16655,31940
33242,16644,32030
33288,16679,31746
33358,16613,31927
33424,16658,32007
33444,16620,31946
33416,16681,31845
33408,16617,32060
33372,16650,31866
33284,16653,31997
33300,16664,31956
33276,16673,32101
33229,16760,31918
33264,16647,32008
33428,16663,32019
33480,16612,32026
33488,16632,32079
33436,16743,31831
33400,16657,32047
33373,16744,32153
33292,16670,31897
33228,16682,32152
33240,16646,32056
33286,16642,32207
33381,16753,32216
33464,16637,31984
33404,16746,32212
33346,16646,32373
33304,16772,32180
33205,16682,32316
33120,16736,32284
33116,16660,32478
33157,16688,32259
33292,16629,32415
33372,16647,32315
33412,16629,32500
33376,16676,32229
33324,16651,32421
33256,16751,32564
33172,16692,32420
33133,16810,32534
33104,16673,32676
33108,16673,32359
33158,16676,32589
33297,16632,32568
33313,16642,32630
33324,16746,32499
33313,16661,32647
33245,16737,32532
33169,16680,32749
33113,16779,32427
33072,16687,32615
33121,16666,32729
33176,16657,32463
33338,16631,32599
33404,16741,32716
33412,16679,32691
33388,16668,32625
33278,16672,32762
33142,16772,32791
33092,16689,32775
33080,16677,32895
33112,16765,32593
33172,16672,32749
33329,16639,32864
33441,16698,32825
33360,16654,32919
33328,16640,32743
33284,16691,32599
33146,16686,32863
33064,16757,32838
33116,16701,32773
33129,16669,32897
33180,16670,32764
33229,16645,32831
33240,16701,32903
33276,16659,32898
33252,16732,32837
33156,16702,32909
33032,16696,32939
33044,16719,32969
33104,16691,33056
33092,16767,32823
33172,16673,32901
33256,16655,32994
33316,16655,32766
33268,16761,33031
33252,16676,32985
33232,16809,32967
33172,16705,33076
33084,16805,32956
33071,16700,33060
33066,16682,32861
33124,16675,33064
33185,16646,33096
33192,16694,33137
33180,16661,33255
33220,16732,32927
33124,16703,33092
32986,16815,33162
32916,16716,33193
32892,16692,33249
32920,16772,33072
32982,16687,33196
33064,16744,33327
33128,16677,32974
33120,16801,33153
33068,16684,33257
32960,16690,33253
32864,16723,33287
32872,16699,33170
32860,16726,33273
32884,16686,33223
32940,16688,33367
33008,16660,33103
33032,16684,33225
32956,16661,33375
32889,16768,33309
32853,16708,33319
32684,16813,33255
32612,16708,33076
32616,16798,33272
32633,16711,33428
32720,16745,33116
32772,16671,33236
32760,16730,33375
32756,16681,33397
32660,16796,33498
32584,16717,33409
32476,16703,33343
32436,16725,33458
32470,16706,33192
32416,16709,33311
32492,16678,33194
32577,16775,33445
32684,16687,33358
32764,16781,33463
32752,16697,33524
32676,16700,33257
32668,16740,33378
32676,16732,33210
32740,16704,33583
32793,16820,33509
32920,16687,33604
33012,16665,33457
32957,16724,33596
32905,16681,33246
32936,16766,33471
32932,16720,33449
32952,16817,33509
32920,16721,33543
32892,16709,33507
32932,16770,33634
32996,16702,33511
33088,16666,33621
33096,16721,33521
33108,16682,33625
33049,16758,33529
33004,16722,33605
32876,16820,33527
32812,16734,33500
32821,16811,33328
32892,16714,33551
32921,16804,33481
32982,16688,33439
33000,16807,33533
32980,16695,33620
32944,16783,33692
32904,16714,33634
32805,16713,33572
32756,16740,33636
32732,16716,33599
32756,16791,33593
32860,16702,33639
32984,16781,33709
33000,16716,33665
32980,16679,33748
32964,16740,33856
32848,16702,33513
32757,16743,33671
32736,16708,33700
32729,16724,33823
32752,16709,33923
32820,16707,33820
32876,16673,33764
32988,16689,33757
32956,16709,33871
32942,16703,33988
32856,16814,33792
32680,16720,33899
32532,16766,33764
32420,16709,33989
32288,16726,33926
32100,16743,33839
31947,16685,33917
31656,16757,34029
31140,16691,33669
30612,16742,33881
30260,16731,33887
30052,16728,33945
30188,16750,34020
30424,16719,33921
30756,16730,33695
31388,16779,33972
32524,16707,33846
33716,16829,33893
35388,16703,33935
37673,16694,33884
40124,16833,33928
42420,16752,33971
44464,16705,33981
45656,16787,34048
45596,16736,34034
44740,16797,33924
43812,16695,34127
42404,16765,33788
40372,16714,33969
38736,16814,34077
37824,16748,34120
37144,16858,34160
36517,16755,34071
35896,16839,34183
35268,16734,34247
34708,16700,34110
34188,16709,34255
33660,16698,34285
33135,16791,34387
32516,16721,34425
31884,16732,34188
31296,16747,34500
30996,16801,34618
30864,16746,34468
30716,16807,34576
30600,16717,34694
30554,16688,34601
30554,16708,34751
30574,16705,34876
30536,16732,34823
30384,16726,34732
30193,16757,34948
30152,16728,34949
30153,16781,35044
30078,16729,34961
30133,16734,35109
30208,16696,35254
30248,16713,35144
30276,16785,35103
30384,16711,35063
30340,16803,35359
30250,16748,35510
30228,16822,35431
30236,16741,35591
30268,16789,35727
30400,16715,35524
30484,16799,35719
30464,16708,35868
30432,16700,36023
30448,16773,36230
30432,16737,35989
30360,16724,36153
30417,16803,36356
30456,16742,36472
30544,16830,36652
30720,16716,36614
30902,16791,36721
30996,16711,36899
31076,16711,36887
31128,16813,36980
31084,16737,36920
30932,16726,37079
30836,16765,37231
30733,16739,37252
30688,16722,37305
30766,16772,37195
30916,16699,37319
30980,16681,37438
31004,16759,37540
30880,16715,37707
30652,16718,37446
30437,16836,37737
30340,16757,37708
30413,16741,37812
30548,16726,37828
30796,16701,37885
31093,16746,37908
31236,16700,37979
31244,16693,38134
31148,16723,37780
30980,16714,38113
30932,16755,38316
30817,16727,38197
30748,16751,38316
30777,16714,38313
30937,16736,38348
31060,16684,38414
31137,16699,38392
31036,16689,38559
30968,16711,38164
30720,16718,38404
30453,16801,38553
30356,16734,38588
30332,16811,38745
30401,16725,38260
30530,16696,38503
30680,16695,38677
30776,16685,38677
30876,16701,38637
30968,16686,38633
30928,16725,38692
30832,16827,38615
30772,16738,38692
30700,16823,38647
30692,16725,38708
30649,16687,38630
30684,16729,38714
30768,16686,38549
30842,16717,38407
30742,16692,38445
30660,16721,38479
30702,16725,38497
30692,16777,38356
30768,16731,38316
30911,16798,38196
31020,16693,38248
31057,16706,38060
31084,16669,38093
31148,16689,38068
31161,16770,37989
31168,16729,38080
31164,16819,37767
31308,16733,37841
31452,16781,37881
31504,16718,37631
31616,16735,37636
31768,16670,37694
31932,16705,37444
31984,16669,37428
32040,16697,37461
32052,16814,37246
31928,16726,37236
31896,16828,37287
32076,16727,36788
32196,16702,36959
32340,16709,36932
32532,16687,36860
32740,16776,36910
32960,16693,36453
33073,16809,36569
33144,16720,36625
33169,16814,36556
33212,16722,36372
33324,16784,36534
33341,16704,36167
33208,16698,36314
33164,16671,36143
33216,16677,36245
33324,16663,36119
33364,16725,36116
33292,16714,35986
33236,16702,35995
33252,16733,35837
33304,16705,35886
33408,16748,35423
33556,16667,35567
33684,16685,35628
33736,16652,35487
33712,16701,35399
33641,16665,35286
33495,16700,35304
33445,16784,35204
33492,16701,35281
33470,16707,34997
33488,16689,35023
33596,16685,34993
33692,16663,34789
33688,16671,34799
33620,16659,34860
33600,16679,34597
33556,16804,34615
33504,16716,34468
33464,16799,34541
33513,16711,34426
33552,16718,34295
33628,16657,34341
33724,16676,34156
33717,16663,34012
33596,16671,34103
33550,16785,33893
33496,16698,34052
33396,16735,33817
33364,16689,33839
33360,16705,33679
33400,16815,33731
33493,16678,33375
33580,16741,33492
33644,16668,33463
33692,16780,33196
33660,16699,33260
33582,16669,33408
33556,16707,33193
33512,16688,33197
33552,16735,33180
33584,16688,32964
33684,16741,33003
33748,16662,33063
33821,16692,32673
33868,16641,32777
33836,16673,32804
33724,16679,32716
33632,16707,32517
33636,16760,32639
33664,16681,32280
33760,16701,32372
33877,16646,32485
33976,16663,32277
33980,16676,32292
33913,16657,32237
33832,16773,32084
33784,16690,32126
33744,16782,32046
33704,16692,31934
33740,16668,31991
33852,16687,31965
33928,16647,31773
33952,16652,31830
33952,16639,31799
33860,16653,31647
33821,16657,31716
33800,16679,31579
33694,16671,31538
33628,16775,31596
33648,16695,31666
33672,16669,31394
33676,16669,31509
33796,16623,31447
33824,16648,31476
33765,16764,31328
33784,16668,31416
33696,16762,31375
33636,16694,31276
33592,16678,31343
33596,16700,31401
33592,16671,31189
33680,16759,31285
33772,16645,31360
33796,16631,31058
33790,16712,31103
33718,16660,31171
33632,16661,31182
33536,16677,31057
33492,16776,31201
33492,16684,31140
33484,16775,31004
33521,16668,30985
33604,16643,31064
33616,16768,31094
33628,16649,31039
33612,16644,31097
33477,16676,30786
33404,16685,30996
33360,16686,30743
33366,16678,30933
33422,16752,30932
33484,16655,30860
33593,16717,30895
33629,16638,30932
33664,16733,30668
33670,16653,30727
33584,16652,30675
33472,16688,30791
33398,16653,30772
33408,16685,30621
33408,16659,30693
33472,16730,30592
33552,16629,30599
33480,16615,30668
33400,16704,30652
33316,16653,30697
33262,16658,30620
33172,16677,30504
33098,16665,30504
33080,16742,30593
33088,16661,30522
33164,16745,30441
33230,16634,30532
33320,16614,30604
33336,16661,30372
33332,16651,30444
33292,16757,30572
33208,16671,30487
33200,16651,30397
33253,16671,30551
33272,16647,30465
33272,16707,30388
33366,16629,30561
33384,16683,30343
33376,16639,30440
33416,16752,30521
33316,16678,30445
33188,16677,30508
33140,16646,30222
33094,16743,30332
33080,16653,30290
33168,16627,30365
33320,16725,30196
33396,16648,30390
33380,16633,30173
33333,16623,30345
33232,16711,30224
33156,16655,30367
33108,16679,30441
33092,16652,30140
33084,16740,30250
33191,16624,30189
33309,16603,30276
33366,16629,30402
33344,16615,30197
33313,16703,30181
33168,16660,30225
33060,16741,30261
33032,16663,30157
33060,16765,30154
33104,16669,30215
33172,16629,30292
33230,16712,30020
33280,16614,30048
33256,16697,30207
33252,16636,30295
33156,16751,30076
33064,16659,29989
33022,16706,30184
33012,16639,30056
33056,16663,30202
33112,16610,29965
33124,16661,30141
33144,16612,30215
33108,16691,30020
33060,16627,30133
32932,16709,30053
32832,16663,30160
32820,16669,30064
32824,16651,30100
32856,16747,30050
32948,16620,30102
32980,16592,29892
32957,16612,30051
32901,16597,30140
32856,16637,29881
32752,16630,30024
32672,16677,30108
32680,16638,29895
32740,16705,30072
32804,16618,29956
32956,16647,30164
33068,16585,30011
33120,16607,29858
33148,16601,30062
33188,16615,29974
33136,16629,30070
33000,16677,29933
32952,16628,30038
32909,16632,30021
32940,16730,30135
33102,16669,30015
33188,16599,29924
33236,16589,30002
33184,16639,29832
33122,16595,29999
33080,16631,30004
32992,16733,29881
32964,16628,30069
33016,16637,30087
33168,16613,29917
33254,16622,29770
33285,16577,29984
33268,16610,29941
33148,16687,29984
33072,16611,29882
32968,16674,29782
32868,16615,29951
32828,16638,29887
32812,16609,29999
32840,16624,29959
32917,16580,29750
33005,16625,29900
33064,16568,29959
33072,16607,29793
33064,16594,29811
32972,16619,29880
32864,16740,29991
32829,16622,29861
32840,16658,29703
32852,16604,29915
32896,16592,29909
33004,16677,29797
33016,16594,30005
32924,16665,29831
32869,16588,29780
32796,16627,29738
32684,16731,29774
32681,16617,29709
32716,16617,29711
32724,16596,29925
32793,16603,29918
32896,16688,29993
32840,16590,29925
32680,16679,29777
32544,16606,29932
32286,16683,29855
32016,16606,29911
31720,16644,29953
31376,16605,29785
30852,16612,29942
30412,16621,29941
30136,16583,29885
30024,16577,29959
30060,16583,29831
30241,16580,29953
30584,16631,29853
31072,16613,29892
31852,16654,29800
33036,16613,29959
34629,16691,29912
36884,16589,30015
39304,16641,29836
41656,16551,29959
43696,16625,29854
44668,16569,30049
44024,16651,29845
42953,16578,29957
41724,16703,29860
40156,16635,29865
38108,16724,29967
36684,16603,29945
35817,16621,29860
35492,16580,30050
35692,16675,29896
35648,16603,30007
35056,16720,29889
34529,16627,30100
33974,16676,29897
33508,16601,30020
33172,16675,29925
32862,16582,30119
32536,16662,29857
32156,16570,30029
31744,16572,30117
31464,16605,29840
31126,16596,30017
30840,16638,30112
30700,16603,29975
30560,16608,29895
30469,16676,29996
30512,16566,29934
30540,16590,29875
30564,16568,29944
30576,16628,29959
30574,16581,29777
30464,16673,29885
30444,16613,29943
30448,16703,29710
30504,16597,29799
30509,16582,29798
30652,16642,29793
30804,16570,29648
30832,16644,29840
30820,16568,29605
30789,16672,29720
30700,16603,29703
30628,16594,29557
30604,16653,29604
30656,16599,29713
30708,16661,29537
30800,16574,29592
30873,16649,29765
30932,16564,29620
30904,16644,29503
30868,16573,29584
30776,16588,29562
30720,16672,29677
30746,16592,29647
30776,16575,29598
30808,16647,29697
30882,16563,29736
30976,16547,29543
31000,16592,29671
30942,16559,29691
30925,16655,29473
30869,16585,29600
30792,16584,29620
30789,16612,29623
30752,16582,29649
30804,16636,29471
30818,16559,29452
30929,16619,29445
31008,16550,29548
30957,16644,29637
30928,16564,29534
30864,16574,29615
30832,16669,29543
30780,16593,29592
30784,16574,29372
30894,16575,29557
31004,16540,29586
30997,16593,29383
31020,16551,29492
31060,16644,29573
31012,16558,29588
30922,16570,29498
30868,16584,29539
30869,16568,29431
30904,16587,29615
31012,16565,29690
31112,16655,29669
31180,16607,29668
31232,16548,29703
31260,16545,29808
31266,16633,29525
31179,16580,29669
31085,16581,29582
31064,16564,29647
31056,16654,29660
31060,16570,29767
31104,16553,29844
31200,16617,29621
31188,16540,29804
31236,16531,29739
31265,16552,29876
31240,16557,29690
31144,16584,29829
31120,16561,29776
31180,16620,29889
31213,16562,29647
31272,16524,29732
31405,16570,29844
31508,16537,29799
31544,16623,29788
31600,16543,29863
31604,16556,29604
31548,16591,29727
31578,16571,29687
31605,16665,29804
31616,16564,29879
31756,16523,29669
31921,16567,29592
31968,16541,29729
32012,16524,29863
32068,16543,29652
32017,16551,29645
31998,16663,29632
32092,16574,29793
32168,16665,29682
32268,16575,29749
32428,16533,29839
32628,16505,29535
32725,16629,29657
32760,16541,29603
32824,16523,29740
32844,16601,29669
32840,16551,29685
32860,16581,29769
32884,16560,29701
32984,16541,29596
33202,16538,29799
33388,16501,29557
33472,16607,29691
33517,16525,29728
33495,16533,29517
33457,16538,29575
33460,16599,29615
33452,16555,29695
33476,16647,29773
33541,16602,29687
33652,16534,29696
33732,16598,29612
33764,16521,29684
33672,16506,29573
33620,16577,29551
33536,16565,29570
33448,16559,29471
33448,16561,29700
33492,16545,29504
33524,16531,29573
33620,16525,29732
33616,16511,29486
33632,16500,29620
33648,16568,29721
33649,16523,29682
33572,16525,29613
33420,16575,29791
33360,16553,29500
33344,16522,29607
33400,16628,29592
33512,16519,29736
33551,16633,29676
33556,16503,29695
33532,16579,29559
33526,16521,29680
33410,16527,29781
33325,16553,29609
33272,16527,29792
33256,16575,29800
33252,16535,29654
33333,16623,29740
33349,16518,29727
33376,16511,29870
33364,16489,29936
33313,16540,29745
33226,16537,29868
33124,16641,29933
33148,16541,29700
33189,16518,29845
33188,16547,29832
33240,16503,29751
33360,16591,29805
33369,16508,29694
33344,16496,29680
33304,16508,29781
33260,16524,29734
33208,16593,29572
33245,16524,29733
33276,16548,29766
33260,16510,29669
33317,16599,29758
33393,16496,29735
33396,16488,29601
33406,16487,29700
33400,16580,29780
33253,16534,29572
33208,16651,29732
33204,16543,29735
33220,16615,29774
33256,16516,29628
33300,16532,29749
33372,16485,29645
33428,16529,29852
33440,16484,29649
33380,16533,29789
33304,16514,29671
33268,16577,29808
33216,16527,29686
33220,16599,29827
33264,16521,29764
33324,16487,29780
33392,16526,29863
33396,16500,29852
33396,16612,29746
33388,16500,29677
33264,16503,29881
33156,16559,29924
33128,16523,29783
33184,16525,29909
33224,16590,29988
33328,16508,29908
33400,16484,29831
33380,16596,29995
33332,16493,29750
33280,16489,29940
33176,16527,30052
33098,16505,29855
33072,16553,29973
33068,16535,30013
33092,16500,29790
33159,16580,29920
33230,16487,30108
33260,16474,29890
33232,16518,30021
33188,16507,30087
33098,16615,29910
33032,16521,30047
32996,16507,30093
33016,16579,29935
33062,16501,29965
33156,16519,30049
33190,16465,30004
33204,16567,29973
33168,16493,30093
33191,16493,30017
33088,16511,30183
33008,16612,30020
32982,16524,30120
32988,16579,30032
33012,16501,30194
33150,16541,29954
33260,16471,30132
33296,16500,30278
33284,16471,29991
33280,16529,30185
33192,16494,30255
33128,16521,30103
33092,16509,30221
33124,16521,30215
33209,16621,30140
33296,16490,30273
33360,16457,30364
33368,16492,30167
33348,16465,30297
33344,16493,30365
33270,16493,30197
33176,16524,30300
33104,16501,30353
33100,16537,30158
33160,16484,30375
33276,16479,30354
33320,16456,30264
33364,16476,30399
33364,16454,30389
33364,16513,30300
33292,16490,30426
33144,16610,30516
33149,16503,30237
33188,16489,30336
33221,16536,30524
33260,16463,30343
33308,16484,30452
33360,16463,30516
33332,16537,30244
33240,16486,30372
33124,16614,30397
33046,16515,30484
33076,16499,30572
33133,16604,30314
33140,16519,30476
33172,16476,30369
33240,16541,30477
33272,16477,30546
33248,16459,30488
33218,16571,30509
33124,16523,30271
33037,16515,30541
32948,16604,30366
32972,16503,30497
33016,16588,30389
33088,16465,30591
33188,16502,30399
33216,16448,30505
33180,16492,30454
33113,16466,30616
33048,16512,30364
32984,16485,30529
32932,16500,30406
33008,16576,30553
33032,16471,30598
33068,16463,30496
33121,16475,30402
33076,16448,30528
33056,16478,30425
33068,16601,30620
32972,16493,30425
32864,16580,30343
32830,16508,30499
32788,16485,30567
32816,16482,30340
32901,16570,30428
33028,16465,30431
33080,16448,30550
33096,16464,30585
33065,16576,30444
32985,16489,30436
32862,16486,30423
32823,16496,30540
32792,16493,30543
32828,16581,30568
32897,16465,30596
32940,16519,30437
32976,16454,30559
33000,16555,30610
32936,16479,30392
32841,16575,30452
32820,16480,30529
32788,16546,30586
32777,16477,30565
32772,16475,30652
32784,16519,30511
32860,16444,30497
32920,16455,30610
32868,16437,30580
32854,16487,30495
32783,16476,30621
32692,16497,30648
32640,16469,30513
32648,16514,30608
32676,16465,30700
32832,16501,30463
32912,16451,30572
32924,16521,30688
32885,16455,30647
32844,16557,30560
32724,16487,30618
32644,16540,30454
32636,16482,30645
32632,16497,30769
32626,16454,30549
32705,16464,30705
32772,16427,30684
32748,16448,30677
32764,16441,30485
32704,16465,30668
32576,16570,30826
32388,16492,30556
32256,16473,30632
32324,16493,30650
32384,16473,30738
32470,16540,30835
32560,16448,30535
32588,16539,30671
32561,16452,30644
32558,16545,30748
32452,16487,30735
32428,16591,30763
32500,16482,30838
32588,16465,30604
32628,16524,30743
32712,16451,30676
32800,16529,30759
32850,16448,30854
32880,16444,30895
32884,16558,30671
32849,16505,30748
32717,16487,30829
32668,16463,30599
32740,16506,30674
32732,16463,30885
32800,16541,30800
32876,16433,30702
32916,16422,30847
32941,16437,30599
32924,16440,30697
32772,16544,30753
32672,16471,30831
32645,16583,30908
32644,16471,30632
32656,16434,30817
32712,16503,30877
32752,16438,30632
32808,16493,30852
32824,16426,30881
32800,16553,30687
32770,16469,30847
32700,16465,30892
32705,16533,30662
32632,16466,30870
32676,16561,30936
32772,16443,30774
32785,16474,30693
32824,16409,30904
32784,16453,30783
32716,16432,30975
32612,16462,30793
32584,16548,30697
32622,16463,30912
32636,16492,30854
32638,16434,30980
32684,16429,30873
32792,16415,30704
32885,16433,30941
32852,16497,30821
32784,16421,31033
32636,16452,30936
32480,16516,30743
32312,16459,30956
32176,16460,30934
32092,16489,30919
31937,16541,31005
31744,16427,30820
31362,16504,30971
30756,16425,30942
30216,16504,31063
29828,16454,30855
29701,16541,30961
29784,16456,30949
29976,16483,31029
30276,16441,30864
31080,16445,30956
32373,16541,30995
33740,16433,30957
35648,16452,30860
38108,16429,31002
40733,16519,30812
43172,16412,31001
45328,16473,30970
46460,16588,30930
46224,16429,31087
45164,16495,30869
44028,16447,30963
42436,16570,31031
40288,16432,31004
38704,16406,30909
37952,16498,31003
37425,16452,31028
36856,16469,30932
36196,16429,30935
35528,16453,31071
34872,16418,31008
34256,16415,30972
33644,16398,31098
33004,16421,31054
32412,16429,31197
31764,16463,30908
31196,16446,31020
30776,16532,30980
30551,16453,31060
30342,16429,31068
30245,16461,31088
30268,16421,31007
30256,16485,30956
30164,16417,31058
30133,16512,31111
30068,16447,30802
30024,16441,30905
30017,16495,30969
30104,16437,30749
30110,16492,30845
30208,16421,30831
30265,16377,30946
30280,16405,31035
30304,16403,30732
30328,16444,30828
30292,16443,30863
30260,16532,30893
30260,16450,30900
30292,16442,30892
30298,16422,30950
30400,16445,30868
30516,16409,30806
30528,16492,30759
30528,16405,30838
30536,16511,30940
30540,16441,30897
30404,16445,30906
30380,16519,30902
30457,16443,30980
30528,16513,30900
30616,16401,31015
30685,16383,30740
30696,16407,30887
30680,16397,30896
30684,16411,30763
30590,16436,30821
30517,16535,30948
30533,16444,30727
30556,16485,30884
30568,16420,30756
30636,16461,30809
30688,16384,30867
30665,16427,30753
30692,16391,30724
30700,16451,30832
30592,16421,30916
30500,16429,30829
30500,16492,30716
30520,16421,30828
30504,16420,30833
30640,16385,30844
30772,16393,30768
30756,16501,30655
30800,16395,30823
30748,16396,30904
30690,16455,30906
30676,16438,31015
30637,16514,30727
30632,16431,30920
30676,16511,30903
30732,16407,31007
30772,16377,30898
30816,16434,31013
30812,16388,31060
30776,16479,30978
30668,16431,31125
30624,16417,31141
30632,16426,31135
30680,16411,31100
30696,16419,31213
30748,16469,31228
30844,16384,31004
30852,16366,31324
30864,16421,31133
30864,16389,31281
30772,16428,31383
30668,16416,31103
30652,16421,31239
30664,16407,31184
30724,16420,31318
30840,16372,31288
30972,16391,31327
30960,16372,31261
30940,16418,31407
30916,16393,31215
30844,16508,31284
30800,16423,31230
30860,16414,31300
30932,16418,31445
30996,16378,31319
31140,16385,31297
31252,16433,31424
31304,16357,31213
31328,16391,31314
31352,16479,31180
31346,16392,31407
31324,16415,31109
31330,16500,31300
31392,16402,31345
31548,16410,31199
31704,16370,31300
31836,16367,31343
31940,16455,31219
32020,16365,31057
32113,16401,31249
32140,16399,31388
32168,16433,31056
32204,16395,31255
32316,16399,31336
32429,16498,31191
32604,16378,31297
32752,16381,31246
32894,16479,31401
33004,16367,31184
33096,16396,31315
33174,16385,31359
33145,16412,31252
33236,16500,31306
33318,16407,31221
33356,16484,31239
33492,16373,31341
33656,16391,31343
33704,16476,31292
33708,16373,31270
33697,16477,31401
33717,16393,31292
33693,16420,31430
33679,16391,31182
33632,16404,31429
33648,16423,31397
33756,16356,31551
33756,16377,31480
33812,16334,31516
33824,16425,31391
33808,16381,31525
33736,16470,31411
33672,16405,31518
33618,16459,31565
33620,16396,31631
33644,16501,31488
33692,16373,31608
33664,16453,31741
33592,16352,31583
33544,16431,31662
33460,16375,31751
33356,16467,31547
33372,16388,31665
33397,16386,31937
33416,16468,31760
33464,16364,31898
33568,16356,31964
33696,16406,32013
33620,16337,32049
33501,16367,31860
33397,16356,32124
33208,16391,32032
33085,16465,32244
33104,16377,32007
33088,16445,32183
33086,16360,32366
33162,16381,32152
33260,16347,32429
33270,16381,32508
33316,16356,32357
33440,16450,32548
33404,16381,32415
33352,16371,32617
33320,16391,32804
33304,16376,32665
33221,16377,32837
33188,16329,32748
33224,16357,32981
33316,16337,32758
33376,16371,33044
33416,16345,33237
33316,16388,32954
33188,16398,33274
33134,16389,33199
33132,16465,33484
33328,16367,33389
33548,16348,33311
33612,16407,33623
33672,16328,33671
33736,16344,33718
33672,16424,33905
33476,16372,33661
33276,16418,33957
33164,16363,34175
33126,16372,34073
33104,16456,34241
33240,16350,34357
33477,16414,34320
33544,16335,34480
33568,16423,34417
33632,16365,34620
33580,16457,34447
33512,16375,34796
33468,16391,34925
33456,16356,34895
33424,16365,35061
33400,16332,35065
33408,16336,35263
33462,16409,35220
33444,16333,35393
33373,16368,35511
33360,16356,35476
33328,16435,35660
33272,16372,35696
33316,16421,35872
33332,16362,35801
33476,16373,35943
33632,16317,35903
33665,16336,36121
33676,16447,36151
33628,16354,36204
33420,16460,36392
33196,16379,36288
33012,16440,36418
32833,16353,36463
32844,16355,36561
33056,16439,36615
33289,16333,36677
33372,16420,36667
33421,16332,36879
33348,16357,36844
33240,16355,36900
33240,16397,36804
33296,16342,37068
33344,16357,36973
33422,16474,37097
33482,16334,36983
33500,16404,37231
33508,16332,37202
33369,16417,37163
33205,16333,37341
33116,16373,37481
33121,16354,37332
33200,16364,37416
33280,16458,37432
33260,16339,37473
33308,16324,37644
33272,16388,37524
33236,16314,37300
33093,16333,37668
32917,16421,37625
32772,16347,37831
32737,16406,37407
32760,16340,37749
32848,16357,37672
32900,16474,37968
33008,16327,37870
33082,16404,37877
33060,16328,37764
33017,16455,37871
33016,16343,37948
32960,16348,37925
32854,16391,37988
32860,16351,37956
32940,16372,37959
32996,16323,38121
32925,16359,37814
33016,16300,38004
33152,16322,37868
33221,16303,38064
33184,16358,37653
32965,16332,37971
32888,16352,37947
32840,16452,38072
32816,16349,37996
32796,16361,37639
32853,16294,37932
32932,16321,38083
32928,16305,37877
32992,16315,37940
32964,16404,37895
32852,16337,37940
32784,16379,37836
32808,16324,37863
32780,16351,37832
32808,16463,37757
32952,16319,37953
33056,16350,37740
33088,16295,37807
33048,16372,37815
32936,16301,37783
32896,16343,37579
32864,16476,37725
32840,16349,37556
32842,16329,37652
32816,16336,37637
32844,16371,37588
32873,16308,37662
32832,16377,37590
32869,16322,37610
32856,16385,37451
32804,16326,37489
32813,16355,37420
32848,16327,37439
32824,16345,37455
32819,16398,37292
32992,16299,37053
32996,16287,37300
32980,16305,37284
32988,16329,37161
32992,16303,37249
32872,16338,37137
32736,16332,37127
32700,16343,37057
32704,16407,37165
32754,16309,37056
32852,16310,36725
32892,16276,36900
32948,16303,36876
32944,16396,36812
32864,16321,36764
32784,16356,36711
32760,16328,36717
32760,16342,36672
32796,16395,36377
32869,16313,36577
32974,16351,36397
33024,16279,36428
32972,16351,36413
33044,16284,36273
33001,16318,36388
32876,16433,35957
32800,16336,36172
32804,16335,36277
32832,16438,36039
32844,16324,36079
32932,16333,35889
33049,16273,35925
33149,16343,35927
33113,16284,35879
33029,16314,35745
32976,16436,35748
32880,16343,35699
32868,16402,35623
32852,16326,35590
32880,16422,35577
33004,16310,35288
33120,16315,35428
33144,16270,35445
33120,16293,35237
33089,16418,35284
32986,16331,35320
32908,16310,34919
32896,16332,35046
32964,16430,35159
33028,16319,34818
33088,16335,34959
33116,16297,34925
33050,16299,34896
32986,16403,34695
32908,16314,34738
32757,16379,34560
32720,16308,34647
32708,16365,34301
32814,16305,34491
32900,16305,34477
32986,16288,34388
33080,16297,34092
33160,16391,34259
33092,16282,34324
33052,16422,34080
33054,16323,34069
33040,16317,34050
33048,16367,33987
33060,16314,34001
33092,16288,33666
33228,16354,33660
33244,16287,33728
33248,16317,33451
33300,16292,33543
33260,16332,33624
33120,16309,33380
33009,16334,33415
33056,16303,33340
33052,16321,33196
33024,16411,33200
33104,16294,33113
33192,16342,33063
33204,16273,33113
33229,16286,32933
33176,16405,32826
33140,16326,32853
33058,16405,32764
33040,16317,32810
33008,16369,32588
33000,16311,32610
33108,16277,32585
33156,16298,32519
33096,16279,32348
33076,16324,32530
33056,16421,32389
32964,16303,32277
32900,16338,32055
32912,16305,32212
32920,16325,32127
32900,16399,32119
32992,16282,31888
33080,16345,32046
33100,16284,32116
33124,16317,31773
33100,16430,31937
32996,16316,31783
32900,16350,31932
32936,16307,31649
32944,16313,31775
32956,16309,31640
33028,16389,31716
33109,16271,31474
33104,16343,31631
33080,16267,31758
33053,16293,31527
32904,16425,31604
32704,16330,31473
32572,16365,31655
32472,16295,31455
32308,16294,31510
32129,16379,31412
31860,16278,31478
31424,16362,31342
30944,16288,31461
30550,16377,31367
30225,16322,31373
30100,16314,31366
30344,16333,31325
30760,16305,31439
31280,16341,31148
32052,16275,31304
33050,16284,31161
34316,16419,31314
36148,16294,31023
38401,16396,31223
40448,16313,31281
42480,16397,31080
43832,16303,31177
43560,16398,31022
42428,16325,31215
41360,16273,30980
39972,16300,31091
37860,16403,30935
36092,16297,31080
35092,16321,30920
34460,16316,30997
34672,16331,30983
35096,16419,31052
34920,16313,30936
34508,16313,30741
34208,16277,30895
33820,16277,30948
33492,16273,30897
33232,16312,30884
32941,16289,30767
32486,16378,30836
32117,16325,30936
31760,16353,30716
31486,16301,30830
31272,16342,30893
31181,16277,30625
31168,16321,30769
31088,16285,30831
31044,16357,30561
30999,16293,30678
30876,16391,30720
30766,16327,30439
30740,16409,30508
30764,16321,30460
30808,16391,30530
30856,16281,30596
30936,16275,30370
30972,16284,30452
30960,16273,30468
30973,16292,30309
30929,16400,30423
30908,16313,30511
30884,16304,30262
30900,16324,30343
30989,16309,30327
31060,16291,30364
31132,16275,30393
31170,16381,30211
31112,16284,30284
31084,16399,30402
30999,16310,30113
30940,16404,30262
30901,16320,30383
30940,16388,30271
30948,16301,30204
31092,16335,30268
31204,16261,30173
31212,16282,30271
31192,16369,30303
31144,16295,30108
31080,16420,30267
31020,16309,30148
31001,16344,30215
30988,16300,30263
30996,16304,30183
31093,16268,30245
31168,16263,30064
31207,16276,30215
31214,16263,30103
31160,16294,30248
31064,16391,29989
31048,16319,30144
31064,16344,30272
31097,16307,29981
31116,16373,30168
31196,16279,30151
31336,16292,29997
31312,16377,30202
31244,16270,30221
31238,16343,30107
31184,16300,30229
31172,16308,30172
31184,16385,30240
31190,16298,30279
31192,16335,30317
31302,16270,30118
31336,16320,30279
31376,16255,30400
31332,16268,30151
31320,16271,30240
31236,16327,30304
31165,16301,30391
31127,16307,30285
31092,16404,30470
31160,16300,30245
31220,16313,30445
31292,16252,30548
31304,16269,30286
31292,16347,30487
31216,16271,30607
31140,16313,30428
31072,16404,30547
31012,16310,30445
31001,16386,30452
31060,16289,30586
31184,16337,30572
31292,16273,30364
31332,16330,30583
31364,16265,30703
31360,16363,30381
31332,16294,30599
31324,16329,30700
31360,16293,30503
31404,16295,30606
31464,16388,30536
31576,16270,30470
31716,16309,30372
31808,16255,30574
31839,16271,30671
31884,16391,30365
31814,16296,30551
31802,16325,30662
31817,16421,30452
31866,16294,30557
31972,16338,30519
32160,16250,30423
32309,16263,30439
32432,16247,30393
32540,16263,30403
32592,16375,30417
32616,16306,30487
32580,16385,30450
32669,16297,30492
32729,16335,30580
32848,16266,30441
33064,16286,30340
33245,16251,30332
33308,16268,30455
33296,16359,30505
33352,16274,30445
33332,16322,30495
33308,16279,30316
33376,16319,30417
33396,16285,30478
33508,16286,30297
33680,16287,30420
33764,16250,30468
33760,16269,30289
33776,16345,30390
33774,16279,30454
33641,16325,30214
33509,16271,30425
33524,16297,30500
33620,16404,30328
33672,16263,30461
33728,16268,30460
33764,16350,30594
33738,16260,30346
33716,16299,30524
33644,16265,30607
33520,16327,30384
33440,16285,30536
33452,16297,30544
33444,16382,30445
33484,16268,30557
33556,16279,30628
33628,16243,30693
33693,16253,30631
33648,16297,30845
33568,16261,30566
33476,16297,30749
33416,16369,30801
33336,16284,30681
33344,16293,30835
33388,16367,30969
33500,16249,30697
33588,16262,30905
33580,16237,30837
33545,16257,30973
33492,16310,30861
33412,16393,31062
33296,16301,31001
33240,16363,30908
33244,16295,30877
33249,16349,30927
33352,16250,30992
33501,16269,31063
33600,16357,30951
33518,16245,31113
33433,16274,30848
33300,16381,31075
33276,16282,30999
33228,16313,30973
33176,16267,31081
33236,16277,31140
33360,16350,30975
33416,16250,31079
33376,16255,31057
33304,16355,31164
33268,16255,30972
33216,16293,31076
33216,16376,30941
33200,16273,31083
33256,16337,31073
33324,16261,31126
33406,16261,31076
33464,16223,31119
33400,16247,30925
33408,16380,30983
33444,16260,31161
33373,16305,30868
33301,16271,31051
33309,16284,31109
33292,16269,31143
33324,16277,31237
33388,16309,31050
33436,16223,31176
33384,16254,31268
33392,16241,31084
33336,16267,31223
33204,16370,31234
33160,16284,31167
33136,16301,31279
33156,16383,31298
33232,16265,31193
33264,16271,31303
33412,16223,31359
33396,16245,31384
33404,16356,31289
33344,16258,31401
33224,16293,31331
33082,16375,31529
33044,16271,31327
33104,16315,31449
33152,16255,31517
33252,16249,31365
33264,16322,31486
33324,16242,31396
33345,16253,31525
33384,16290,31300
33292,16270,31424
33208,16290,31393
33104,16356,31495
33030,16268,31512
33040,16277,31354
33092,16227,31420
33216,16242,31423
33304,16233,31433
33344,16270,31397
33344,16240,31520
33224,16283,31624
33132,16416,31305
33108,16282,31406
33088,16385,31495
33052,16265,31529
33108,16361,31409
33156,16247,31547
33152,16314,31293
33140,16244,31506
33168,16344,31540
33132,16281,31524
33009,16373,31404
33024,16281,31433
33042,16367,31539
33077,16257,31620
33185,16280,31592
33312,16223,31628
33240,16260,31512
33216,16235,31609
33145,16284,31762
32988,16261,31573
32852,16293,31684
32792,16261,31750
32912,16279,31639
32932,16356,31768
32992,16240,31901
33116,16299,31583
33132,16239,31772
33129,16312,31761
33068,16257,31895
32988,16344,31858
32932,16284,31729
32949,16343,31831
32924,16263,31952
32988,16263,31719
33008,16343,31908
33096,16230,31967
33150,16228,31982
33136,16234,32032
33109,16239,31762
32993,16283,31879
32820,16262,31892
32776,16324,31983
32844,16268,31940
32938,16263,32045
33008,16342,31911
33068,16242,32119
33005,16251,31928
32964,16223,32007
32888,16260,32082
32850,16373,32046
32780,16276,32108
32768,16343,31929
32832,16252,32048
32844,16261,32068
32828,16263,32016
32885,16221,31824
32950,16247,32022
32956,16213,31980
32944,16265,32059
32902,16259,32102
32801,16316,32092
32808,16269,32020
32840,16333,32009
32780,16249,32080
32884,16287,32039
32972,16232,32105
32989,16313,32133
32976,16223,32151
32960,16247,32092
32865,16375,32060
32868,16275,32182
32788,16321,32105
32781,16245,32077
32856,16249,32196
32957,16329,32270
33008,16212,32126
32996,16229,32013
32968,16223,32256
32952,16247,32189
32846,16341,32129
32804,16271,32222
32772,16356,32248
32736,16268,32373
32752,16340,32066
32844,16236,32364
32932,16249,32295
32924,16207,32348
32965,16237,32285
32996,16240,32196
32908,16269,32336
32848,16244,32468
32780,16320,32401
32776,16249,32391
32820,16242,32303
32892,16332,32431
32976,16228,32506
32996,16257,32208
32976,16206,32415
32932,16263,32456
32840,16245,32492
32792,16273,32557
32776,16291,32415
32744,16379,32517
32712,16241,32420
32821,16249,32620
32884,16209,32296
32920,16225,32564
33036,16292,32667
32984,16228,32373
32848,16303,32466
32784,16245,32628
32748,16275,32597
32700,16245,32741
32726,16277,32624
32860,16219,32766
32945,16322,32666
32950,16228,32764
32904,16212,32652
32828,16278,32629
32728,16255,32685
32668,16322,32676
32688,16248,32743
32677,16257,32739
32692,16225,32577
32840,16222,32719
32916,16339,32815
32876,16226,32542
32854,16277,32746
32837,16223,32840
32744,16255,32821
32677,16351,32948
32668,16239,32756
32644,16250,32852
32644,16221,32825
32688,16247,32884
32676,16204,32925
32700,16244,32711
32650,16210,32811
32613,16271,32941
32604,16247,32957
32532,16250,32932
32548,16241,33028
32532,16261,32729
32577,16324,32943
32636,16225,33031
32724,16322,32999
32807,16219,32892
32832,16263,33055
32884,16216,32954
32800,16256,33052
32780,16343,32982
32753,16261,33071
32756,16327,33072
32774,16237,33180
32884,16333,32903
33060,16213,33013
33061,16199,32824
33073,16239,33026
33060,16217,33031
32964,16255,33071
32884,16349,33237
32848,16261,32917
32828,16239,33006
32864,16235,33060
32960,16302,33140
33004,16217,33265
32989,16215,33216
33008,16298,33023
32976,16220,33204
32866,16247,33244
32788,16349,33135
32788,16247,33205
32768,16231,33284
32800,16244,33249
32868,16191,33252
32916,16245,33015
32900,16198,33174
32885,16270,33202
32865,16223,33308
32752,16261,33423
32684,16238,33240
32692,16260,33303
32728,16239,33345
32756,16245,33104
32826,16189,33341
32848,16203,33489
32864,16322,33304
32894,16211,33385
32848,16212,33511
32752,16252,33338
32688,16355,33367
32660,16252,33342
32616,16229,33447
32564,16241,33556
32685,16183,33207
32788,16220,33353
32792,16191,33384
32665,16254,33381
32504,16207,33540
32222,16247,33260
31900,16335,33440
31680,16251,33317
31364,16311,33425
30920,16217,33628
30508,16224,33343
30224,16195,33588
30084,16217,33471
30040,16305,33585
30088,16236,33612
30172,16309,33501
30560,16256,33600
31552,16322,33684
32764,16243,33636
34376,16331,33823
36652,16226,33633
39344,16326,33748
41950,16212,33616
44332,16310,33780
45992,16244,33792
46288,16394,33752
45432,16264,33944
44188,16341,33828
42892,16229,33637
40812,16266,33893
38888,16179,33973
37852,16230,33912
37232,16198,34023
36704,16223,33925
36180,16302,34220
35493,16231,34188
34797,16249,33927
34174,16359,34251
33636,16247,34396
33153,16319,34256
32684,16202,34388
32316,16237,34449
31824,16199,34385
31396,16215,34660
31048,16302,34653
30724,16252,34376
30416,16265,34724
30232,16236,34759
30170,16247,34851
30269,16285,34779
30476,16215,34887
30465,16293,34991
30364,16207,34951
30312,16289,34759
30240,16223,35097
30120,16255,35087
30028,16236,35265
30088,16245,35173
30124,16227,35324
30212,16229,35331
30284,16245,35404
30310,16187,35524
30208,16215,35277
30080,16198,35621
30012,16222,35764
29896,16333,35645
29860,16249,35761
30028,16230,35975
30281,16244,35700
30396,16202,36014
30420,16206,36286
30361,16197,36252
30381,16196,36103
30380,16246,36364
30297,16213,36572
30196,16284,36574
30152,16242,36549
30196,16260,36840
30218,16223,36647
30217,16223,36895
30316,16184,36807
30436,16196,36999
30528,16188,36743
30548,16199,36980
30529,16199,37221
30460,16250,36905
30508,16223,37245
30540,16230,37450
30568,16221,37115
30573,16220,37313
30688,16183,37447
30788,16195,37469
30832,16265,37364
30834,16206,37493
30821,16279,37549
30729,16220,37714
30668,16263,37277
30748,16225,37546
30836,16245,37777
30908,16201,37597
30972,16240,37684
30991,16185,37807
30985,16200,37648
30972,16300,37725
30956,16212,37589
30889,16324,37801
30872,16238,37735
30852,16217,37708
30864,16239,37895
30898,16200,37719
31008,16226,37767
31085,16180,37783
31112,16236,37685
31108,16185,37764
31026,16263,37772
30910,16232,37624
30896,16325,37668
30900,16234,37842
30956,16324,37376
31056,16217,37671
31096,16171,37694
31048,16196,37572
31032,16300,37284
31048,16195,37544
31024,16293,37596
30960,16220,37538
30912,16318,37220
30909,16219,37444
30920,16325,37442
30912,16199,37405
30952,16176,37228
31016,16177,37435
31144,16166,37180
31180,16205,37231
31102,16189,37287
31044,16236,37116
31061,16227,37103
31088,16267,36983
31122,16218,36911
31178,16195,36927
31300,16223,36983
31380,16171,36730
31432,16205,36791
31484,16169,36742
31480,16228,36607
31390,16220,36645
31364,16302,36430
31452,16227,36518
31556,16202,36445
31620,16243,36486
31784,16179,36364
31972,16244,36175
32057,16180,36329
32128,16302,35908
32184,16196,36073
32232,16206,36167
32366,16220,35740
32512,16203,35890
32612,16231,35959
32748,16196,35907
32918,16268,35945
33025,16166,35500
33138,16159,35628
33228,16215,35656
33260,16192,35685
33196,16292,35753
33208,16226,35618
33240,16201,35687
33312,16293,35541
33404,16196,35484
33540,16157,35449
33664,16207,35463
33708,16165,35412
33720,16192,35303
33709,16174,35330
33724,16219,35009
33728,16294,35200
33696,16193,35340
33720,16205,35112
33760,16268,35168
33828,16159,35102
33860,16202,35012
33823,16167,35005
33752,16297,34936
33671,16174,34981
33572,16311,35047
33513,16210,34624
33516,16329,34801
33452,16213,34884
33561,16295,34805
33644,16179,34769
33628,16215,34596
33601,16149,34640
33588,16187,34728
33549,16177,34484
33481,16203,34530
33412,16189,34592
33420,16197,34360
33420,16190,34401
33420,16184,34200
33460,16253,34248
33544,16157,34242
33508,16165,34212
33502,16271,34155
33399,16189,34095
33216,16305,34103
33212,16196,34055
33268,16183,33893
33284,16192,33957
33244,16167,33838
33312,16239,33725
33420,16163,33753
33428,16265,33806
33412,16179,33721
33384,16163,33773
33248,16207,33535
33184,16185,33577
33216,16230,33413
33268,16176,33597
33280,16174,33359
33324,16270,33425
33428,16160,33341
33504,16283,33191
33493,16167,33244
33460,16284,33247
33360,16203,33220
33256,16186,33316
33264,16189,32964
33304,16171,33020
33368,16188,33008
33462,16260,33055
33505,16159,32959
33508,16234,33088
33500,16157,32732
33408,16245,32806
33316,16188,32919
33316,16189,32893
33336,16195,32823
33276,16179,32743
33326,16176,32820
33433,16151,32868
33509,16194,32513
33534,16141,32733
33440,16218,32785
33311,16167,32450
33216,16252,32564
33224,16193,32696
33216,16316,32639
33256,16189,32718
33312,16151,32356
33413,16165,32489
33404,16135,32484
33424,16169,32556
33420,16132,32452
33376,16173,32599
33248,16178,32495
33256,16261,32357
33328,16188,32431
33364,16208,32454
33380,16164,32509
33460,16238,32348
33568,16145,32413
33509,16139,32445
33462,16211,32405
33364,16178,32487
33264,16293,32148
33216,16189,32228
33237,16165,32277
33252,16205,32348
33324,16153,32448
33376,16193,32123
33364,16134,32189
33328,16195,32285
33342,16140,32103
33332,16248,32191
33268,16190,32206
33149,16175,32282
33080,16215,32375
33080,16175,32263
33100,16145,32294
33180,16154,32234
33344,16121,32149
33432,16189,32218
33430,16139,32229
33332,16172,32165
33244,16158,32281
33148,16201,31950
33080,16179,32144
33076,16170,32231
33158,16180,32167
33253,16126,32165
33284,16171,32065
33309,16133,32135
33276,16194,31996
33240,16143,32151
33152,16184,32222
33096,16250,32132
33034,16157,31996
33046,16171,31863
33116,16245,32094
33236,16135,32004
33308,16162,32164
33320,16263,32110
33274,16139,31815
33188,16222,32018
33116,16160,32073
33052,16190,31951
33052,16177,32022
33088,16279,32134
33153,16162,31919
33224,16178,32005
33232,16114,31999
33208,16135,31972
33156,16142,31944
33108,16234,32087
32980,16160,31952
32932,16188,31751
32936,16154,32007
32920,16173,31973
32968,16174,31862
33100,16111,32085
33204,16125,32007
33160,16138,31884
33125,16156,31827
33084,16228,31759
33024,16144,31981
33016,16172,31860
33052,16193,32072
33064,16263,32036
33088,16132,31864
33124,16140,31966
33156,16165,31940
33124,16137,32013
33117,16119,31771
33100,16149,31959
33012,16254,31831
32948,16155,31980
32924,16159,31856
32908,16248,31693
32916,16128,31924
33008,16117,31801
33120,16194,31996
33120,16123,31852
33092,16116,31806
33060,16149,31732
32992,16191,31913
32949,16267,31805
32888,16150,31945
32888,16150,31780
32960,16226,31905
33014,16105,31904
33057,16119,31847
33056,16128,32000
33029,16135,32004
32996,16199,32005
32892,16149,31915
32804,16164,31687
32788,16199,31892
32832,16143,31860
32860,16140,31913
32932,16171,31935
32988,16100,31764
33076,16113,31887
33070,16211,31916
33004,16119,31830
32913,16159,31889
32868,16192,32031
32872,16145,31828
32892,16152,31692
32952,16130,31803
33048,16188,31932
33128,16220,31903
33124,16116,31916
33072,16109,32035
33020,16180,31960
32845,16281,31805
32748,16149,31692
32776,16239,31877
32877,16145,32022
32902,16162,31823
32984,16093,31922
33040,16119,31908
33021,16183,31806
32976,16097,32020
32900,16129,31877
32812,16284,31919
32752,16156,31909
32748,16231,31896
32736,16131,31687
32772,16127,31917
32825,16135,31892
32876,16183,31884
32900,16083,32030
32904,16111,32007
32902,16132,31821
32801,16251,31721
32704,16144,31846
32676,16148,32025
32761,16247,31836
32824,16112,31693
32908,16101,31919
32964,16201,31908
33012,16112,31993
33046,16136,31940
33072,16225,31748
32992,16135,31937
32972,16145,31892
32948,16196,31905
32957,16124,31983
33002,16128,31789
33101,16209,31953
33204,16089,31812
33240,16098,32057
33244,16217,31845
33192,16111,31806
33080,16146,31958
33020,16164,31975
33044,16239,31932
33064,16144,32070
33140,16197,31879
33248,16091,31873
33280,16098,31807
33276,16103,31973
33284,16228,31937
33236,16120,32073
33133,16126,31743
33080,16135,31981
33040,16132,31965
33044,16207,31847
33017,16100,32037
33045,16101,32023
33156,16146,31894
33204,16096,31993
33148,16167,31951
33076,16118,31908
33016,16162,31740
32940,16226,31745
32884,16113,31971
32894,16124,31988
32910,16109,31958
32996,16130,31896
33036,16220,31847
33064,16095,32055
33088,16117,31877
32996,16219,31746
32816,16122,31996
32764,16135,31968
32805,16205,31887
32814,16111,32086
32900,16106,31981
32980,16105,31800
32976,16078,31965
32864,16199,32111
32724,16091,31909
32577,16121,31996
32288,16109,31975
31964,16152,32091
31672,16111,31784
31236,16147,31900
30732,16094,32093
30304,16098,32046
30116,16087,31962
30080,16182,32054
30220,16092,32041
30360,16101,32028
30598,16134,32186
31220,16150,32148
32308,16116,31943
33624,16133,32084
35552,16176,32036
38044,16247,32038
40692,16081,32188
43184,16117,32018
45204,16215,31946
46064,16081,32135
45598,16196,32245
44465,16129,32036
43248,16186,32132
41612,16128,32257
39556,16185,32092
38132,16079,32175
37469,16171,32263
37176,16091,32080
36760,16163,32200
36128,16096,32108
35376,16143,32151
34612,16102,32223
33928,16127,32348
33373,16117,32098
32908,16111,32247
32468,16135,32134
32048,16073,32189
31532,16107,32287
31160,16197,32210
30872,16120,32321
30609,16202,32300
30396,16119,32325
30270,16129,32191
30220,16223,32277
30184,16108,32380
30240,16162,32157
30308,16077,32258
30273,16080,32157
30248,16113,32337
30224,16188,32236
30146,16126,32229
30097,16181,32247
30156,16116,32076
30220,16172,32101
30252,16101,32106
30337,16164,32212
30437,16067,32071
30476,16100,32087
30501,16076,32151
30548,16176,32148
30492,16124,32188
30388,16200,32284
30336,16115,32184
30336,16095,32167
30368,16090,32167
30480,16066,32241
30732,16071,32038
30788,16067,32160
30764,16077,32257
30716,16191,31951
30596,16101,32194
30544,16133,32287
30596,16097,32054
30532,16130,32154
30560,16085,32135
30756,16134,32201
30868,16070,32246
30852,16144,32099
30745,16067,32197
30657,16095,32068
30620,16174,32275
30624,16103,32063
30680,16139,32177
30580,16107,32263
30596,16130,32040
30692,16041,32205
30752,16071,32276
30800,16169,32120
30928,16075,32215
30964,16186,32337
30928,16100,32135
30816,16125,32258
30736,16093,32189
30700,16102,32372
30680,16140,32199
30760,16058,32341
30896,16079,32333
30968,16180,32405
30972,16073,32273
30980,16153,32442
30828,16096,32522
30740,16169,32245
30736,16089,32495
30828,16116,32618
30928,16071,32582
31000,16122,32661
31004,16068,32529
30956,16148,32700
30936,16058,32711
30984,16085,32791
30932,16182,32578
30908,16089,32846
30840,16095,32836
30824,16197,32841
30800,16083,33007
30876,16118,32731
30852,16045,32988
30872,16103,33023
30909,16055,32852
30841,16085,33116
30800,16199,33071
30732,16102,33079
30740,16131,33174
30748,16079,33170
30763,16077,33141
30893,16129,33159
30984,16036,32988
31081,16069,33271
31164,16062,33246
31204,16160,33158
31100,16083,33358
30988,16100,33248
31060,16181,33309
31116,16100,33213
31224,16116,33376
31440,16041,33253
31524,16057,33333
31516,16125,33312
31584,16037,33349
31658,16078,33145
31648,16108,33375
31684,16072,33481
31692,16100,33153
31708,16075,33394
31816,16060,33446
32068,16036,33156
32254,16154,33341
32368,16057,33311
32380,16159,33428
32436,16078,33378
32492,16191,33509
32552,16093,33198
32564,16077,33318
32800,16089,33463
32932,16141,33236
33056,16029,33481
33136,16045,33356
33172,16137,33580
33196,16049,33373
33316,16069,33527
33316,16156,33401
33304,16067,33645
33349,16087,33623
33448,16137,33428
33564,16047,33584
33724,16057,33469
33796,16044,33710
33808,16139,33543
33822,16040,33660
33796,16153,33786
33744,16088,33604
33644,16134,33724
33612,16055,33617
33569,16079,33764
33608,16043,33788
33792,16047,33685
33812,16015,33757
33821,16048,33852
33816,16101,33807
33776,16044,33989
33576,16085,33851
33472,16119,33700
33437,16054,33948
33472,16075,33824
33492,16169,34084
33532,16041,33897
33589,16132,34007
33654,16043,33922
33625,16125,34104
33512,16058,33921
33376,16162,34064
33336,16070,33944
33348,16074,34161
33328,16179,34183
33368,16060,34009
33441,16095,34164
33484,16015,34032
33512,16045,34306
33472,16133,34147
33364,16035,34029
33264,16081,33958
33200,16111,34263
33212,16048,34124
33164,16069,34236
33150,16052,34311
33300,16132,34013
33296,16027,34279
33268,16031,34273
33284,16140,34284
33254,16053,34281
33208,16068,34285
33196,16079,34279
33168,16167,34218
33174,16063,34334
33181,16069,34049
33280,16021,34277
33384,16029,34386
33428,16119,34268
33412,16020,34064
33300,16059,34301
33224,16180,34428
33180,16076,34093
33166,16134,34289
33188,16068,34436
33228,16149,34401
33328,16025,34527
33360,16021,34153
33436,16036,34405
33412,16048,34463
33296,16159,34495
33172,16068,34185
33176,16167,34380
33193,16065,34585
33292,16084,34377
33296,16020,34495
33372,16031,34505
33376,16092,34479
33428,16020,34540
33464,16105,34671
33472,16039,34292
33348,16081,34509
33236,16048,34701
33152,16051,34364
33204,16172,34536
33324,16044,34744
33440,16115,34505
33440,16017,34626
33496,16059,34781
33500,16007,34527
33403,16068,34652
33300,16038,34839
33317,16094,34451
33280,16035,34627
33233,16075,34743
33237,16020,34796
33353,16096,34797
33486,16010,34711
33500,16004,34831
33552,16022,34860
33573,16023,34676
33460,16049,34865
33408,16155,34981
33284,16052,34889
33184,16173,34956
33156,16039,34634
33320,15990,34836
33472,16010,35063
33472,16096,34879
33464,16008,34970
33384,16109,34836
33228,16050,35026
33184,16161,35010
33253,16046,34967
33240,16127,34936
33288,16036,35046
33344,16096,35165
33424,16006,34956
33391,16099,34964
33376,16021,34997
33240,16027,34957
33164,16048,35031
33104,16035,35061
33068,16131,35156
33148,16048,35144
33280,16091,35132
33356,16013,35085
33344,16113,35175
33312,16005,35261
33324,15998,35188
33217,16103,35231
33060,16037,34928
32975,16148,35223
33016,16046,35152
33039,16140,35262
33242,16016,35385
33304,15985,34983
33336,16027,35198
33320,16004,35279
33236,16095,35277
33180,16031,35158
33098,16068,35407
32997,16023,35212
32908,16059,35314
32961,16025,35264
33116,16057,35207
33249,15987,35308
33204,15998,35222
33188,15981,35313
33141,16031,35303
33064,16007,35225
32996,16032,35335
32985,16124,35150
32948,16027,35005
32916,16036,35264
32976,16108,35412
33145,16001,35233
33172,16074,35288
33160,16011,35344
33180,15989,35300
33124,16023,35401
32996,16028,35108
32864,16039,35221
32880,16131,35372
32820,16026,35042
32880,16001,35281
33017,16007,35143
33100,16052,35310
33060,15985,35236
33028,16004,35111
32936,16108,35335
32840,16029,34935
32776,16045,35113
32786,16144,35240
32852,16036,35207
32943,16055,35225
33072,15973,35148
33140,15991,34908
33108,15991,35124
33056,16075,35259
32996,16009,35046
32920,16074,35109
32817,16032,35144
32808,16070,35092
32876,16010,35110
32956,16020,35012
33060,15978,35057
33056,16053,35100
32989,15993,35079
32972,16029,35156
32958,15996,34777
32981,16036,34930
32992,16159,34969
32997,16017,35052
32964,16004,35094
32964,16007,35095
33056,15975,35150
32989,15997,35012
33052,15962,35042
33088,16047,35040
33032,16011,35079
32864,16112,35093
32844,16029,35116
32920,16112,35207
32924,16025,35156
32992,16093,35077
33036,15988,35180
33148,16068,35225
33108,15995,35333
33098,16083,35243
33076,16019,35328
32964,15999,34978
32860,16034,35191
32820,16003,35353
32896,16023,35300
32881,15973,35308
32940,15983,35227
33026,16087,35318
32988,15982,35416
32916,15985,35161
32865,16107,35252
32792,16025,35245
32728,16047,35350
32676,16005,35461
32682,16017,35053
32780,16106,35293
32860,15980,35322
32885,16084,35344
32860,15980,35452
32800,15962,35039
32712,16017,35192
32640,16005,35335
32656,16015,35047
32664,16093,35311
32708,16002,35439
32740,16063,35316
32824,15971,35352
32944,16031,35233
33025,15971,35292
33032,16015,35431
32970,15987,35201
32892,16013,35318
32856,16062,35244
32840,15989,35317
32834,16012,35007
32893,15982,35267
33080,15972,35413
33124,16036,35228
33120,15957,35316
33060,15975,35221
32992,15975,35174
32928,16047,35215
32904,16001,35284
32872,16006,35022
32896,16102,35302
33008,15969,35262
33108,15969,35329
33160,16079,35380
33157,15981,35233
33092,16000,35297
33010,15977,35289
32861,16011,35444
32764,16125,35247
32708,16001,35327
32744,16049,35200
32833,15979,35283
32888,16031,35319
32976,15946,35245
32956,15969,35316
32924,15965,35321
32868,15993,35246
32817,16082,35427
32861,15990,35239
32978,16005,35343
32944,15977,35344
32972,15980,35260
33104,15958,35348
33152,15961,35191
33021,16073,35348
32916,15973,35348
32792,15992,35427
32652,15995,35361
32583,16005,35460
32620,15987,35208
32689,16053,35319
32892,15969,35469
32976,15999,35079
32865,15945,35335
32652,16037,35408
32424,15975,35397
32145,16076,35528
31752,16007,35264
31224,15989,35429
30680,16010,35503
30240,15983,35469
30008,15988,35605
30112,15967,35260
30382,15947,35573
30610,16031,35250
30932,15974,35640
31588,15977,35308
32584,15997,35584
33660,16103,35648
35324,16014,35625
37568,16100,35705
40068,15987,35828
42568,16065,35682
44636,15977,35773
45413,16108,35877
44804,15983,35788
43668,16099,35882
42441,16015,35780
40820,16095,35903
38796,15996,35965
37336,16042,35866
36592,15960,36125
36316,15960,35989
35992,16071,36115
35372,15957,36117
34652,16017,36271
33852,15983,36119
33164,16031,36167
32656,15988,36303
32285,15997,36385
31848,15983,36295
31472,16025,36451
31192,15959,36541
30996,16037,36525
30720,15972,36566
30348,16063,36653
30056,15993,36679
29844,16075,36773
29753,16004,36497
29805,16020,36768
29848,15985,36999
29948,15976,36893
30096,16001,36647
30104,15947,37004
30132,15959,37039
30284,16047,37187
30372,15979,37093
30201,16001,36884
30084,15985,37182
30077,15997,37411
30188,15984,37212
30241,15972,37381
30300,16042,37476
30332,15957,37416
30290,16037,37497
30350,15948,37440
30392,15975,37680
30437,15973,37438
30417,15997,37620
30393,16078,37685
30373,15980,37756
30404,15967,37492
30521,15932,37632
30588,15999,37760
30628,15946,37833
30681,15983,37890
30636,15969,37804
30572,16014,37884
30648,15983,38025
30768,16031,37780
30912,15978,37942
31028,16057,37960
31076,15962,37860
31005,15931,37916
30760,15952,38048
30580,15936,37984
30520,15997,37954
30480,15991,37950
30438,16036,37975
30464,15982,37841
30537,16006,38071
30668,15946,37911
30869,15948,37989
30965,16000,37868
30936,15935,38028
30848,15945,37621
30760,16065,37820
30616,15988,37950
30532,15975,37943
30588,15980,37997
30653,15962,37580
30684,15967,37880
30692,15930,38017
30696,15971,37536
30796,15943,37748
30836,16031,37861
30816,15961,37845
30756,16006,37692
30804,15967,37828
30840,15981,37455
30856,16019,37655
30896,15941,37752
30988,15967,37707
31028,15934,37621
30976,15940,37764
30960,16038,37534
30884,15973,37578
30784,16071,37573
30788,15969,37572
30825,16005,37316
30860,15960,37431
30832,15954,37269
30968,16039,37401
31084,15929,36996
31086,16031,37272
31048,15944,37093
31041,16015,37296
30976,15973,37052
30928,16069,37063
30936,15971,37060
30953,15985,36959
31030,16055,36861
31144,15934,36588
31188,15934,36839
31204,16044,36685
31120,15941,36831
31100,16024,36591
31048,15963,36396
30996,16007,36548
31064,15954,36471
31169,15969,36445
31292,15932,36284
31392,15929,36317
31436,15913,36180
31464,15929,36212
31484,15926,36140
31552,15985,35940
31520,15950,36089
31520,15979,35797
31596,15955,35884
31714,15961,35705
31928,16053,35880
32128,15929,35652
32324,16023,35676
32477,15932,35481
32568,16005,35636
32516,15947,35305
32484,15973,35450
32609,16073,35261
32773,15967,35415
32908,15987,35205
32988,15919,35238
33140,15933,35061
33273,15970,35236
33376,15927,34857
33444,16007,34987
33444,15951,35020
33365,16055,34878
33396,15967,34869
33420,15938,34678
33509,15955,34836
33685,15924,34473
33876,15927,34679
33996,16023,34559
34032,15934,34695
33984,16003,34460
33942,15943,34507
33880,15996,34478
33772,15961,34512
33712,16031,34257
33733,15957,34375
33817,16012,34321
33912,15923,34217
33980,15990,34275
33964,15903,34119
33921,15921,34311
33866,15930,33959
33832,15970,34106
33800,15941,34141
33825,16004,34031
33840,15935,33880
33869,15997,33868
33952,15901,33942
33968,15911,33807
33892,16046,33948
33900,15925,33752
33832,15980,33788
33764,15936,33746
33744,15953,33600
33748,16054,33806
33732,15953,33573
33781,16009,33636
33829,15913,33539
33844,15967,33614
33804,15902,33413
33796,15930,33479
33712,15911,33316
33576,15964,33445
33604,15943,33233
33584,15957,33048
33557,15934,33193
33592,15933,33287
33676,16017,33048
33732,15908,32847
33776,15950,33036
33756,15910,33016
33632,15958,33022
33488,16065,32884
33436,15952,32617
33404,15985,32775
33448,15925,32895
33512,15935,32652
33585,16043,32703
33620,15916,32561
33573,16021,32720
33526,15921,32515
33436,16031,32573
33356,15939,32548
33328,15977,32410
33328,15930,32607
33332,15956,32421
33308,16029,32335
33432,15905,32409
33517,15944,32362
33536,16017,32261
33532,15917,32365
33476,15959,32319
33388,16047,32184
33312,15943,32023
33320,15939,32088
33292,16051,32177
