ECG,EDA,RR
33320,18262,34644
33268,18255,34660
33160,18243,34657
33128,18223,34661
33216,18191,34727
33356,18216,34885
33345,18190,34884
33300,18195,34792
33276,18188,34746
33220,18210,34684
33140,18223,34765
33216,18286,34718
33274,18263,34693
33300,18244,34647
33400,18204,34640
33464,18187,34717
33444,18186,34874
33416,18194,34879
33336,18207,34803
33208,18222,34768
33136,18224,34708
33160,18308,34724
33277,18276,34687
33396,18227,34764
33480,18201,34745
33548,18165,34687
33677,18263,34625
33752,18223,34620
33708,18191,34618
33608,18232,34631
33433,18222,34757
33288,18285,34753
33252,18230,34561
33248,18212,34601
33312,18180,34580
33388,18213,34614
33382,18173,34624
33408,18175,34620
33392,18268,34631
33340,18247,34616
33340,18255,34577
33328,18229,34567
33328,18223,34551
33332,18199,34452
33344,18242,34447
33340,18205,34453
33396,18182,34523
33464,18173,34492
33504,18171,34504
33453,18202,34436
33372,18213,34624
33340,18291,34652
33256,18235,34643
33248,18215,34597
33324,18183,34529
33316,18175,34431
33356,18165,34335
33444,18164,34269
33472,18164,34353
33424,18259,34427
33424,18242,34412
33320,18221,34423
33272,18217,34252
33356,18209,34240
33460,18180,34481
33436,18179,34258
33376,18177,34508
33344,18161,34499
33381,18163,34479
33320,18191,34473
33168,18275,34233
33105,18281,34473
33096,18261,34471
33092,18249,34455
33188,18202,34439
33208,18182,34305
33204,18168,34479
33152,18160,34516
33113,18175,34518
33028,18183,34509
32976,18296,34485
33036,18261,34463
33102,18236,34476
33172,18220,34476
33264,18183,34343
33288,18151,34339
33276,18165,34339
33256,18165,34173
33268,18155,34077
33232,18178,33977
33140,18200,34224
33088,18210,34197
33112,18207,34245
33160,18197,34258
33240,18164,34204
33280,18165,34180
33300,18144,34066
33260,18145,34007
33290,18150,33829
33196,18267,34070
33088,18277,34012
32972,18248,33991
32900,18208,33977
32864,18194,33965
32960,18148,33943
33052,18134,33883
33092,18139,33735
33076,18216,33799
33032,18244,33918
33076,18275,33835
33024,18244,33662
33005,18234,33516
33052,18225,33693
33108,18221,33639
33108,18183,33561
33098,18157,33613
33172,18156,33653
33116,18161,33493
32996,18165,33401
32840,18185,33285
32796,18209,33260
32801,18184,33303
32840,18177,33253
32856,18252,33257
32894,18189,33279
32941,18143,33239
33004,18143,33263
32960,18137,33263
32976,18144,33169
33020,18252,33101
32944,18264,33061
32932,18247,33020
32952,18226,32955
32932,18187,32913
32968,18166,32926
33036,18151,32853
33046,18135,32839
33036,18139,32836
33000,18230,32743
32929,18227,32721
32832,18224,32500
32716,18197,32443
32788,18183,32415
32748,18191,32329
32768,18151,32313
32848,18116,32329
32904,18126,32188
32830,18181,32151
32812,18204,32178
32748,18199,32164
32676,18196,32089
32652,18201,31956
32636,18191,31933
32657,18180,31892
32740,18138,31814
32844,18119,31761
32904,18223,31748
32960,18175,31773
32986,18153,31741
32920,18177,31701
32844,18209,31575
32808,18219,31596
32861,18249,31629
32960,18261,31554
33006,18135,31393
33132,18118,31289
33137,18119,31166
33160,18196,31093
33144,18191,31044
33138,18217,31196
33126,18235,31130
33100,18216,31001
33164,18212,30983
33121,18183,30937
33142,18145,30949
33196,18130,30924
33233,18137,30839
33248,18119,30681
33186,18126,30625
33180,18154,30621
33093,18230,30646
33108,18192,30648
33048,18175,30599
33072,18177,30538
33052,18135,30453
33024,18109,30365
33064,18185,30265
33096,18148,30266
33105,18140,30178
33000,18169,30244
32880,18165,30156
32868,18242,30099
32920,18212,30023
33016,18167,30010
33120,18145,29925
33149,18108,29799
33140,18124,29799
33124,18151,29761
33124,18142,29703
33116,18162,29633
33001,18174,29596
32920,18152,29551
32894,18243,29487
32876,18213,29447
32896,18155,29382
32985,18126,29269
33084,18118,29165
33086,18135,29119
32986,18137,29212
32912,18141,29184
32844,18160,29112
32769,18198,28937
32644,18176,28938
32552,18143,28903
32432,18168,28845
32308,18133,28787
32004,18121,28732
31780,18113,28587
31364,18117,28487
30944,18228,28438
30645,18215,28390
30609,18191,28296
30736,18173,28287
31028,18148,28276
31524,18199,28180
32180,18163,28133
33017,18132,28084
34016,18127,28015
35548,18117,27980
37508,18259,27930
39342,18199,27887
41244,18194,27853
42884,18151,27885
43352,18225,27861
42712,18171,27741
41932,18148,27714
40796,18115,27636
38988,18117,27570
36840,18126,27709
35324,18153,27682
34384,18221,27494
34092,18183,27599
34504,18183,27404
34536,18151,27377
34172,18214,27357
33916,18196,27332
33548,18175,27295
33253,18133,27281
33072,18145,27237
32848,18158,27213
32464,18159,27191
32064,18157,27174
31751,18198,27159
31528,18159,27117
31396,18133,27094
31296,18102,27076
31188,18119,27245
31132,18114,27140
31060,18116,27143
30920,18203,27034
30808,18173,26975
30772,18172,26958
30829,18148,26990
30848,18206,26939
30848,18149,26919
30953,18116,26846
30964,18117,26806
31004,18104,26830
31024,18164,26791
30956,18150,26604
30952,18151,26788
30944,18205,26748
30913,18164,26585
30900,18143,26685
31006,18178,26514
31105,18129,26503
31134,18109,26481
31160,18119,26465
31176,18114,26600
31133,18130,26473
31085,18199,26456
31032,18155,26405
31080,18136,26381
31137,18135,26375
31192,18183,26372
31220,18143,26369
31224,18108,26356
31200,18114,26349
31204,18104,26403
31196,18191,26436
31116,18182,26513
31104,18159,26480
31144,18143,26471
31148,18133,26516
31213,18103,26502
31257,18090,26434
31272,18168,26349
31348,18133,26419
31368,18115,26416
31304,18140,26424
31247,18145,26422
31265,18188,26441
31269,18143,26404
31253,18136,26415
31252,18101,26434
31352,18087,26421
31396,18161,26402
31368,18115,26316
31356,18113,26287
31288,18127,26364
31188,18199,26380
31134,18162,26383
31144,18152,26383
31116,18124,26388
31176,18141,26391
31260,18088,26260
31316,18087,26247
31324,18130,26256
31320,18111,26407
31200,18128,26404
31104,18212,26305
31102,18155,26306
31116,18140,26437
31119,18205,26307
31144,18123,26296
31264,18103,26292
31328,18085,26311
31356,18090,26327
31328,18155,26375
31152,18151,26498
31048,18163,26519
31040,18142,26511
31112,18132,26540
31136,18153,26469
31168,18103,26397
31253,18165,26404
31312,18115,26396
31312,18109,26409
31348,18095,26430
31268,18127,26439
31192,18181,26436
31185,18159,26448
31308,18125,26503
31380,18183,26553
31436,18107,26661
31496,18079,26665
31580,18162,26620
31600,18123,26537
31556,18114,26552
31528,18132,26532
31540,18139,26537
31584,18187,26503
31693,18143,26599
31752,18125,26584
31812,18092,26500
32052,18147,26509
32153,18092,26546
32210,18088,26615
32244,18121,26489
32260,18121,26458
32240,18205,26446
32292,18159,26442
32404,18207,26543
32449,18135,26621
32644,18093,26608
32788,18146,26478
32844,18098,26505
32956,18087,26583
33028,18150,26450
33020,18121,26647
32969,18173,26489
33064,18137,26604
33108,18173,26452
33156,18142,26456
33316,18167,26566
33400,18102,26636
33472,18085,26551
33516,18118,26510
33536,18114,26513
33492,18116,26602
33444,18149,26644
33492,18131,26655
33492,18175,26519
33560,18137,26511
33602,18097,26516
33640,18138,26549
33704,18100,26660
33692,18088,26754
33685,18093,26698
33628,18149,26746
33508,18137,26724
33436,18221,26734
33497,18146,26657
33512,18121,26733
33604,18143,26799
33708,18098,26799
33720,18175,26840
33689,18127,26856
33684,18117,26860
33687,18118,26740
33620,18169,26737
33556,18135,26744
33538,18195,26868
33581,18145,26974
33580,18110,27000
33636,18078,27023
33630,18138,27039
33596,18108,27067
33572,18094,27084
33503,18188,27011
33421,18148,26993
33328,18196,27102
33348,18156,27120
33330,18142,27136
33376,18089,27161
33498,18154,27180
33492,18102,27204
33460,18086,27049
33480,18161,27083
33344,18128,27108
33257,18149,27165
33232,18137,27119
33224,18131,27133
33212,18165,27144
33224,18113,27161
33252,18092,27170
33332,18085,27191
33412,18147,27186
33420,18109,27205
33276,18127,27217
33164,18205,27369
33164,18163,27396
33132,18139,27436
33121,18129,27344
33232,18120,27361
33352,18084,27389
33381,18153,27384
33372,18118,27244
33336,18100,27228
33262,18181,27223
33192,18157,27231
33156,18137,27227
33175,18205,27249
33231,18154,27329
33252,18125,27427
33333,18106,27468
33408,18092,27416
33376,18142,27361
33348,18130,27323
33282,18130,27437
33161,18211,27384
33100,18167,27487
33133,18148,27471
33185,18229,27361
33204,18132,27421
33304,18108,27378
33292,18111,27380
33300,18101,27411
33308,18175,27439
33220,18149,27516
33166,18149,27559
33100,18236,27569
33176,18183,27497
33284,18162,27469
33308,18116,27490
33388,18199,27556
33493,18153,27538
33448,18119,27611
33388,18117,27623
33306,18171,27631
33216,18181,27492
33184,18150,27493
33188,18232,27511
33185,18239,27516
33260,18210,27677
33301,18158,27652
33340,18121,27687
33360,18119,27689
33392,18118,27704
33340,18177,27696
33277,18183,27707
33216,18161,27589
33157,18189,27559
33176,18154,27701
33180,18222,27789
33240,18144,27788
33300,18133,27743
33296,18114,27810
33296,18127,27719
33216,18132,27613
33209,18224,27598
33068,18187,27599
33057,18164,27609
33092,18164,27792
33172,18133,27788
33284,18118,27781
33284,18197,27686
33216,18183,27867
33208,18149,27837
33184,18175,27860
33088,18179,27869
33108,18172,27837
33168,18246,27760
33148,18209,27725
33124,18148,27811
33112,18133,27815
33120,18196,27849
33148,18163,27831
33156,18156,27663
33108,18169,27692
33078,18249,27897
33020,18215,27903
33009,18195,27910
33108,18204,27892
33104,18170,27918
33137,18139,27836
33176,18140,27865
33188,18204,27753
33176,18190,27740
33180,18196,27825
33072,18205,27827
32984,18196,27772
32973,18253,27750
32916,18209,27783
33028,18173,27852
33088,18149,27876
33121,18226,27881
33096,18181,27871
33041,18181,27716
32940,18188,27748
32916,18212,27761
32964,18231,27872
32992,18207,27877
32968,18275,27810
32977,18236,27846
32988,18205,27874
32964,18185,27871
32900,18189,27945
32941,18173,27971
32880,18250,27797
32748,18239,27821
32708,18230,27830
32716,18219,27888
32672,18242,27929
32705,18213,27972
32825,18177,28084
32912,18250,27972
32856,18223,27887
32740,18220,27853
32836,18233,28047
32784,18249,28036
32768,18245,27968
32788,18234,28020
32812,18281,28133
32808,18229,28068
32784,18210,28050
32824,18190,27948
32790,18271,27996
32829,18227,28131
32716,18252,28186
32604,18327,28048
32632,18267,28112
32624,18244,28147
32580,18303,28180
32562,18249,28189
32677,18218,28190
32761,18219,28196
32805,18219,28193
32820,18321,28203
32784,18311,28199
32672,18302,28292
32665,18285,28329
32720,18360,28273
32744,18292,28348
32833,18266,28255
32944,18225,28350
33028,18295,28328
33068,18276,28422
33044,18257,28380
32948,18287,28413
32888,18287,28517
32880,18361,28484
32880,18310,28437
32916,18280,28523
32946,18322,28549
33080,18297,28544
33104,18267,28519
33124,18270,28660
33124,18271,28653
33024,18303,28519
32960,18317,28709
32956,18324,28637
32896,18316,28662
32953,18311,28836
33046,18298,28644
33028,18295,28656
33021,18280,28863
33004,18295,28868
32936,18279,28852
32950,18307,28946
32900,18395,29033
32884,18362,29009
32872,18342,29029
32856,18319,29052
32952,18367,29053
33056,18317,29028
33096,18300,29017
33093,18301,29036
33052,18300,29018
33004,18330,29238
32909,18381,29265
32821,18360,29284
32868,18351,29308
32936,18342,29319
33060,18373,29284
33124,18343,29381
33104,18332,29510
33084,18338,29508
33064,18325,29503
32996,18346,29425
32892,18430,29487
32840,18387,29620
32844,18367,29687
32736,18361,29676
32645,18382,29610
32608,18346,29646
32432,18343,29606
32173,18334,29677
31840,18341,29837
31328,18368,29746
30716,18463,29688
30232,18420,29759
30140,18403,29845
30136,18382,29919
30288,18412,30014
30452,18363,29895
30904,18364,29942
31844,18358,30020
32924,18466,30008
34212,18465,30125
36148,18462,30017
38692,18479,29900
41304,18484,30124
43808,18450,30144
46004,18410,30172
47100,18416,30200
46788,18379,30208
45788,18397,30235
44720,18495,30208
42844,18517,30267
40600,18495,30295
39168,18470,30330
38252,18471,30401
37385,18436,30285
36724,18412,30350
36081,18402,30384
35344,18482,30375
34656,18424,30463
33952,18433,30498
33268,18444,30551
32552,18559,30565
31944,18543,30508
31452,18500,30572
31016,18503,30565
30718,18447,30631
30572,18421,30664
30416,18427,30669
30317,18464,30693
30212,18445,30717
30112,18523,30733
30000,18507,30564
29936,18504,30737
29988,18476,30783
30080,18532,30796
30174,18503,30790
30248,18480,30796
30248,18463,30752
30247,18449,30746
30224,18454,30778
30189,18520,30789
30132,18517,30923
30112,18503,30927
30132,18495,30905
30192,18493,30885
30260,18508,30990
30416,18469,31023
30557,18471,31078
30636,18461,31089
30677,18541,31043
30604,18549,31061
30492,18545,31062
30432,18531,31098
30400,18533,31196
30335,18509,31233
30380,18523,31257
30465,18487,31333
30528,18485,31356
30596,18485,31178
30596,18548,31229
30544,18543,31275
30453,18553,31311
30476,18540,31559
30472,18535,31595
30444,18581,31615
30416,18533,31448
30492,18504,31576
30536,18498,31739
30548,18543,31777
30624,18521,31788
30617,18593,31599
30564,18591,31704
30544,18567,31786
30568,18552,32023
30564,18623,31878
30505,18545,31957
30656,18525,32007
30756,18517,32028
30724,18567,31833
30784,18540,32017
30753,18559,32172
30700,18621,32200
30713,18586,32100
30680,18574,32198
30672,18596,32053
30700,18544,32192
30716,18533,32238
30693,18561,32359
30692,18561,32477
30676,18548,32434
30606,18575,32566
30574,18625,32484
30548,18607,32428
30504,18596,32556
30544,18617,32603
30604,18568,32564
30684,18602,32798
30764,18561,32623
30800,18556,32775
30800,18589,32581
30772,18605,32748
30628,18660,32903
30596,18628,32942
30644,18613,33002
30608,18660,32916
30624,18597,32991
30726,18577,33069
30837,18571,33104
30860,18639,33137
30917,18597,33006
30948,18617,32993
30876,18707,32990
30884,18647,33049
30944,18629,33189
30972,18630,33209
31028,18651,33204
31062,18604,33237
31124,18603,33161
31048,18597,33158
31042,18648,33191
31008,18657,33316
31028,18679,33453
31074,18652,33252
31136,18701,33364
31213,18663,33327
31342,18643,33303
31492,18604,33329
31538,18629,33479
31589,18624,33561
31724,18624,33601
31696,18693,33759
31684,18687,33819
31712,18736,33693
31880,18685,33628
32020,18671,33665
32192,18704,33684
32321,18647,33759
32461,18631,33877
32524,18655,33917
32604,18654,33948
32688,18675,33988
32728,18743,34013
32884,18700,34048
33068,18688,34084
33188,18772,34124
33248,18687,34159
33268,18655,34166
33361,18645,34185
33420,18659,34113
33460,18692,34148
33380,18700,34175
33292,18732,34373
33296,18719,34461
33317,18705,34460
33348,18756,34428
33484,18708,34380
33578,18683,34407
33608,18663,34557
33685,18669,34543
33680,18729,34545
33625,18727,34721
33540,18724,34790
33492,18728,34785
33501,18735,34882
33516,18718,34791
33672,18721,34708
33772,18685,34842
33804,18744,34909
33804,18713,34672
33784,18785,34849
33696,18742,34912
33616,18741,35045
33572,18770,35191
33612,18751,35146
33608,18735,35017
33620,18733,35159
33710,18695,34911
33740,18725,35135
33712,18708,35184
33688,18780,35281
33632,18752,35285
33592,18757,35385
33612,18813,35445
33640,18770,35457
33584,18758,35494
33608,18794,35503
33732,18730,35396
33840,18730,35429
33868,18725,35489
33808,18806,35327
33722,18787,35349
33508,18797,35417
33384,18775,35369
33332,18818,35436
33380,18783,35509
33472,18741,35527
33490,18775,35565
33484,18747,35572
33538,18736,35603
33464,18788,35381
33336,18789,35360
33294,18793,35369
33276,18884,35671
33405,18817,35670
33500,18796,35701
33652,18799,35588
33798,18809,35710
33797,18768,35725
33676,18759,35783
33628,18820,35809
33560,18809,35831
33384,18873,35572
33320,18835,35783
33338,18805,35825
33392,18845,35863
33438,18806,35872
33596,18779,35841
33712,18767,35649
33729,18870,35953
33676,18818,35977
33524,18828,35993
33296,18837,35972
33200,18824,35708
33272,18870,35831
33344,18846,35999
33436,18804,36009
33445,18803,35904
33592,18799,36094
33676,18791,36087
33668,18800,36004
33524,18908,35940
33325,18898,35847
33232,18886,36029
33280,18852,36006
33328,18843,35974
33336,18817,35933
33448,18845,35900
33472,18815,36088
33468,18832,36137
33504,18818,36031
33557,18929,36031
33568,18882,36020
33572,18885,35958
33608,18857,35874
33540,18856,36036
33404,18829,36023
33364,18865,36015
33316,18837,36016
33344,18836,35824
33328,18829,35978
33304,18940,35953
33248,18931,35965
33220,18924,35941
33245,18892,35927
33293,18891,35927
33342,18852,35900
33345,18828,35847
33396,18916,35732
33400,18902,35835
33360,18873,35804
33244,18894,35865
33216,18916,35759
33240,18889,35680
33236,18963,35660
33216,18947,35461
33260,18883,35647
33216,18860,35412
33396,18847,35317
33406,18899,35296
33396,18899,35544
33396,18910,35450
33320,18930,35306
33324,18911,35290
33383,18907,35335
33372,18946,35345
33444,18892,35335
33500,18886,35285
33412,18881,35120
33343,18877,34989
33300,18875,34941
33152,18966,34799
33116,18947,34745
33072,18932,34950
33152,18922,34655
33276,18951,34853
33388,18909,34823
33464,18879,34756
33381,18910,34624
33420,18897,34685
33448,18892,34727
33373,18957,34516
33221,18962,34412
33153,18933,34417
33128,18985,34284
33116,18946,34376
33196,18921,34365
33290,18891,34276
33351,18943,34217
33360,18928,34108
33372,18925,33961
33280,18937,33815
33160,19006,33719
33156,18970,33668
33156,18961,33861
33140,18950,33809
33172,18923,33653
33304,18911,33778
33244,18911,33607
33204,18917,33455
33229,18977,33383
33163,18973,33367
33049,18972,33297
33044,19041,33233
33024,18989,33059
33036,18978,32989
33040,18934,33177
33161,18919,33007
33189,18924,33127
33148,18934,32971
33112,19005,32756
33056,19011,32654
32873,19031,32831
32884,19004,32740
32888,18988,32660
32896,18977,32601
32982,18995,32487
33096,18949,32476
33044,18964,32564
33028,18957,32409
32976,18959,32180
32916,18983,32116
32921,19043,32068
32944,19010,32036
33020,18996,31983
33053,19079,31965
33120,19040,32103
33200,18988,32020
33236,18973,31942
33276,18966,31836
33248,18973,31822
33127,19039,31725
33068,19026,31845
33080,19021,31814
33125,19012,31634
33156,19086,31477
33240,19049,31575
33296,19012,31521
33300,19001,31438
33200,18988,31495
33172,19007,31302
33112,19029,31177
33049,19029,31255
32972,19029,31189
33040,19077,31046
33045,19055,31195
33004,19035,30910
33032,19008,30990
33129,19002,30948
33184,19004,30788
33220,19007,30837
33141,19108,30766
33116,19061,30631
32957,19049,30575
32926,19105,30613
32910,19073,30469
32960,19032,30401
33095,19002,30409
33149,19002,30452
33141,19084,30215
33060,19073,30133
33024,19087,30029
32920,19085,30167
32850,19071,30047
32892,19055,29934
32981,19056,30013
33156,19087,29994
33262,19045,29772
33266,19026,29677
33176,19033,29594
33088,19116,29526
33153,19088,29479
33100,19092,29448
32980,19073,29560
32964,19070,29433
32860,19139,29356
32733,19093,29374
32652,19041,29289
32532,19037,29213
32288,19040,29327
31946,19104,29258
31505,19094,29116
31088,19108,29033
30732,19096,28982
30624,19148,29092
30724,19130,29068
30980,19079,29028
31464,19060,28999
32008,19055,28989
32748,19125,28834
33757,19113,28973
35076,19125,28769
36957,19132,28700
39048,19109,28672
41272,19252,28623
43248,19161,28598
44340,19119,28556
43932,19070,28700
43144,19156,28679
42128,19109,28666
40728,19121,28641
38584,19130,28492
36788,19258,28544
35644,19167,28448
35232,19151,28432
35320,19133,28519
35284,19193,28404
34896,19142,28437
34534,19103,28517
34020,19109,28461
33509,19110,28462
33144,19164,28477
32856,19175,28444
32481,19165,28438
32148,19143,28397
31792,19200,28344
31508,19136,28390
31357,19117,28204
31264,19104,28164
31156,19171,28140
31072,19161,28126
30916,19165,28093
30744,19173,28084
30728,19167,28052
30789,19228,28039
30821,19195,28004
30824,19140,28145
30864,19123,28136
30876,19191,28105
30872,19159,28105
30860,19156,28088
30820,19175,28032
30781,19190,28036
30728,19182,28006
30752,19172,27900
30816,19220,27895
30888,19173,27879
30968,19151,27887
31052,19133,27882
31012,19143,27869
31056,19195,27873
30999,19186,27877
30946,19201,27879
30912,19194,27879
30964,19229,27879
30946,19218,28036
31076,19169,28045
31170,19138,28047
31192,19205,28025
31200,19183,27964
31213,19180,27961
31192,19203,28105
31144,19207,27919
31152,19258,27931
31156,19230,28095
31140,19220,28091
31144,19179,28046
31197,19157,28179
31244,19220,28167
31236,19186,28204
31212,19175,28133
31168,19225,28053
31090,19236,28080
31132,19229,28125
31124,19238,28108
31124,19228,28092
31158,19195,28126
31188,19203,28242
31260,19201,28190
31212,19188,28102
31208,19193,28112
31160,19268,28124
31120,19253,28228
31128,19242,28361
31166,19237,28311
31172,19290,28386
31133,19237,28372
31272,19203,28325
31312,19201,28279
31261,19205,28324
31220,19208,28489
31148,19300,28501
31116,19290,28514
31112,19303,28478
31112,19276,28620
31124,19264,28620
31144,19235,28563
31164,19222,28512
31244,19215,28506
31256,19222,28705
31228,19227,28734
31144,19313,28767
31025,19324,28757
31032,19300,28710
31048,19278,28805
31108,19279,28919
31168,19255,28919
31252,19247,28774
31248,19233,28799
31241,19236,28819
31252,19290,28847
31224,19292,28839
31132,19311,28860
31131,19289,29052
31168,19284,29072
31248,19335,29108
31313,19283,29125
31408,19257,29119
31532,19258,29053
31564,19255,29076
31594,19295,29112
31608,19308,29191
31532,19306,29231
31472,19332,29239
31556,19319,29256
31629,19295,29281
31736,19308,29301
31924,19284,29310
32020,19261,29160
32020,19331,29152
32048,19289,29191
31944,19303,29352
31900,19370,29380
31984,19340,29319
32161,19312,29407
32318,19367,29455
32448,19322,29476
32640,19296,29413
32756,19285,29423
32932,19279,29455
33060,19284,29637
33061,19372,29652
32997,19352,29623
33000,19346,29733
33012,19321,29767
33028,19393,29789
33120,19348,29728
33264,19303,29729
33328,19293,29805
33360,19301,29936
33360,19349,29975
33336,19343,30018
33216,19349,29997
33238,19336,30049
33288,19358,30124
33352,19345,30101
33376,19391,30023
33473,19327,30050
33544,19309,30111
33512,19305,30298
33456,19311,30365
33449,19396,30359
33364,19389,30356
33266,19365,30309
33236,19350,30431
33264,19348,30502
33320,19367,30544
33388,19317,30375
33420,19311,30449
33396,19309,30538
33368,19370,30588
33284,19367,30606
33180,19383,30564
33164,19378,30607
33188,19359,30674
33206,19356,30752
33310,19357,30881
33301,19319,31029
33294,19317,30874
33252,19352,30981
33216,19341,31076
33164,19359,30900
33140,19407,31067
33084,19385,31272
33112,19447,31152
33148,19379,31252
33152,19353,31308
33245,19383,31217
33328,19343,31335
33256,19333,31468
33156,19403,31532
33072,19387,31465
32948,19399,31431
32904,19380,31524
32944,19415,31599
33068,19395,31440
33092,19349,31444
33104,19357,31604
33120,19343,31713
33124,19340,31799
33114,19399,31871
33057,19391,31852
33021,19392,31767
33026,19445,31807
33056,19416,31837
33028,19389,31909
33068,19397,31815
33092,19345,32039
33140,19401,32080
33100,19365,32053
33132,19366,31951
33093,19473,31972
32972,19434,31974
32946,19405,32111
32976,19449,31932
33016,19415,32046
33092,19432,32211
33116,19370,32132
33202,19418,32205
33156,19378,32263
33160,19364,32188
33076,19410,32372
32912,19414,32257
32904,19477,32242
32940,19422,32391
32980,19477,32190
33060,19395,32327
33136,19361,32502
33144,19423,32462
33160,19382,32407
33160,19378,32493
33096,19402,32501
33032,19456,32556
32992,19444,32615
32958,19415,32466
32944,19470,32542
32976,19407,32700
33104,19377,32797
33180,19424,32661
33216,19399,32709
33172,19385,32711
33056,19461,32769
32988,19440,32793
32985,19436,32804
33016,19498,32604
33002,19444,32756
33044,19403,32879
33108,19465,32952
33116,19398,32863
33200,19394,32786
33184,19392,32791
33096,19483,32804
33016,19463,32900
32900,19452,32839
32920,19439,32889
32992,19431,32924
33048,19462,32935
33096,19414,32768
33076,19388,32917
33116,19447,32932
33148,19415,32996
33116,19431,33095
33020,19446,33159
32932,19480,32998
32928,19463,33061
32928,19436,33083
32960,19493,33097
33060,19436,33093
33160,19417,33100
33092,19397,32895
33028,19407,32982
32956,19484,33047
32862,19465,33133
32896,19455,33169
32960,19474,33188
32912,19450,33169
32916,19399,33188
32984,19447,33223
33124,19417,33237
33120,19408,33253
33033,19413,33229
33044,19523,33241
32996,19479,33268
32968,19463,33295
32952,19514,33302
32972,19463,33204
33048,19422,33261
33100,19449,33303
33089,19427,33366
33108,19416,33334
33172,19416,33321
33116,19507,33485
33064,19477,33542
33089,19476,33524
33064,19457,33463
33032,19456,33360
33092,19484,33450
33181,19439,33521
33214,19421,33685
33184,19449,33506
33168,19428,33627
33120,19509,33653
33048,19484,33428
32976,19463,33597
33004,19493,33697
33092,19471,33823
33124,19431,33869
33188,19456,33852
33168,19426,33821
33136,19429,33840
33096,19425,33948
33116,19535,33935
32977,19504,33790
32878,19490,33815
32948,19484,33902
32960,19470,33926
32988,19433,33988
32980,19470,34002
33056,19445,33775
33088,19445,33943
33112,19430,33986
33068,19453,34172
33052,19533,34220
32952,19504,34241
32865,19491,34212
32856,19463,34086
32928,19469,34204
33028,19429,34215
33057,19479,33994
33012,19440,34040
32872,19428,34180
32812,19527,34194
32736,19481,34310
32736,19474,34391
32728,19534,34377
32808,19486,34463
32864,19445,34258
32872,19421,34344
32917,19504,34374
32926,19441,34439
32886,19436,34190
32774,19519,34260
32672,19500,34386
32596,19495,34341
32568,19473,34415
32524,19543,34407
32636,19501,34421
32606,19448,34453
32632,19446,34469
32725,19433,34484
32784,19431,34503
32752,19540,34549
32621,19516,34605
32605,19493,34577
32720,19495,34552
32800,19470,34669
32968,19504,34668
33116,19436,34663
33140,19428,34663
33136,19493,34737
33049,19463,34849
32887,19472,34764
32912,19484,34767
32892,19479,34816
32861,19528,34842
32932,19508,34917
32988,19467,34932
33101,19447,34902
33190,19429,34965
33216,19431,34982
33220,19470,34963
33120,19477,35001
32972,19487,35016
32940,19557,34924
33000,19534,34975
33060,19511,34930
33080,19458,34973
33092,19441,35097
33132,19425,35109
33200,19463,35110
33184,19453,35124
33092,19458,35105
32876,19565,34998
32752,19507,35060
32781,19495,35077
32836,19479,35132
32892,19449,35197
32944,19471,35204
32951,19436,35206
32920,19457,35143
32908,19436,35228
32880,19512,35204
32748,19489,35203
32696,19477,35212
32732,19499,35233
32788,19472,35236
32832,19498,35268
32869,19445,35240
32880,19431,35173
32874,19496,35284
32912,19453,35308
32904,19473,35252
32832,19484,35192
32804,19543,35476
32800,19515,35510
32756,19493,35527
32672,19447,35556
32648,19478,35568
32561,19446,35591
32346,19429,35591
32064,19487,35445
31680,19487,35548
31148,19491,35601
30702,19506,35716
30378,19485,35724
30365,19521,35657
30468,19469,35734
30712,19436,35493
31042,19468,35687
31469,19455,35785
32325,19445,35833
33296,19508,35872
34484,19503,35980
36265,19570,35762
38476,19543,35839
40672,19510,35803
42904,19609,35950
44552,19477,35690
45008,19437,35939
44460,19541,36103
43536,19492,35974
42420,19476,36052
40536,19573,35956
38692,19524,36114
37628,19500,36181
36986,19513,36015
36476,19477,36101
35904,19451,36145
35292,19490,36192
34685,19463,36221
34076,19482,36260
33535,19487,36269
33108,19526,36048
32684,19526,36171
32172,19499,36333
31720,19527,36460
31369,19489,36333
31108,19455,36325
30941,19427,36396
30864,19476,36417
30748,19475,36172
30620,19486,36364
30542,19534,36496
30436,19511,36575
30392,19497,36386
30424,19527,36428
30508,19471,36513
30620,19494,36223
30724,19461,36445
30752,19453,36596
30784,19500,36573
30832,19502,36426
30784,19564,36588
30728,19517,36317
30720,19501,36557
30725,19529,36730
30812,19482,36750
30968,19453,36673
31036,19503,36575
31032,19466,36668
30964,19463,36685
30896,19551,36668
30812,19520,36529
30944,19508,36672
30974,19529,36823
30988,19509,36802
30992,19521,36667
31028,19469,36765
31057,19454,36769
31032,19511,36796
31093,19472,36854
31162,19492,36871
31020,19537,36888
30920,19523,36905
31012,19505,36761
31044,19519,36845
31086,19476,37020
31132,19503,37084
31168,19473,36856
31176,19462,36927
31197,19503,37015
31096,19503,37042
31061,19515,36916
31021,19561,37020
31007,19517,37108
31028,19510,37181
31068,19532,37215
31128,19478,37044
31186,19465,37026
31184,19471,37104
31192,19508,37148
31192,19511,37172
31128,19518,37017
31052,19580,37103
31056,19556,37173
31094,19522,37276
31128,19500,37221
31236,19469,37217
31356,19538,37199
31360,19509,37137
31336,19495,37209
31224,19517,37231
31172,19527,37240
31169,19529,37263
31144,19542,37442
31172,19518,37375
31160,19540,37255
31296,19493,37351
31296,19487,37383
31300,19479,37440
31280,19522,37471
31252,19525,37284
31181,19532,37368
31140,19561,37457
31124,19548,37516
31120,19527,37600
31232,19535,37615
31305,19493,37620
31340,19488,37539
31397,19482,37615
31412,19534,37684
31388,19538,37699
31272,19535,37464
31246,19564,37620
31344,19544,37407
31416,19532,37543
31476,19516,37749
31605,19487,37485
31688,19534,37607
31776,19497,37613
31768,19503,37332
31844,19574,37613
31749,19559,37729
31664,19541,37540
31669,19571,37585
31702,19551,37516
31725,19515,37596
31828,19513,37628
31900,19489,37519
31972,19509,37719
32029,19572,37632
31992,19534,37626
31936,19541,37661
31996,19597,37390
32081,19556,37639
32196,19598,37767
32328,19527,37613
32420,19551,37676
32548,19510,37383
32668,19505,37604
32784,19524,37787
32868,19620,37677
32864,19568,37743
32841,19594,37573
32876,19557,37766
33016,19575,37903
33173,19529,37716
33288,19535,37807
33356,19508,37541
33376,19524,37821
33412,19519,38023
33452,19556,37884
33376,19622,37936
33404,19573,37639
33448,19587,37949
33484,19556,38115
33556,19585,38141
33620,19532,38151
33655,19517,38063
33680,19554,38030
33700,19525,38105
33652,19588,37973
33636,19582,38069
33552,19624,38228
33504,19575,38118
33504,19622,38181
33544,19545,37928
33552,19589,38169
33508,19559,38202
33472,19549,38320
33462,19529,38398
33472,19587,38281
33488,19604,38236
33560,19577,38349
33656,19631,38064
33740,19585,38327
33748,19549,38359
33748,19585,38420
33708,19543,38492
33664,19533,38604
33528,19557,38397
33358,19580,38472
33120,19589,38556
33008,19645,38600
32972,19605,38290
33056,19588,38328
33104,19557,38444
33236,19577,38622
33284,19556,38727
33268,19545,38839
33280,19601,38759
33189,19586,38724
33100,19613,38873
33032,19597,38916
33164,19591,38970
33256,19648,38974
33264,19579,38940
33406,19549,38791
33413,19543,38868
33396,19596,38945
33312,19575,38980
33325,19586,39013
33172,19654,38985
33080,19642,39045
33052,19614,39071
33084,19602,39089
33220,19575,39098
33320,19627,39056
33388,19597,39020
33344,19580,39039
33228,19565,39142
33220,19641,39079
33196,19637,39077
33057,19629,39092
33028,19612,39203
33078,19660,39219
33092,19596,39200
33156,19564,39253
33124,19628,39244
33112,19580,39288
33160,19572,39317
33120,19650,39325
33136,19630,39349
33164,19627,39349
33200,19623,39357
33217,19662,39341
33312,19620,39320
33397,19572,39279
33400,19646,39376
33432,19631,39487
33413,19611,39508
33324,19628,39391
33206,19633,39445
33176,19708,39460
33185,19662,39457
33153,19644,39483
33040,19610,39471
33062,19587,39487
33080,19582,39396
33044,19651,39356
33040,19631,39273
33028,19654,39323
32953,19667,39319
32932,19693,39196
32956,19653,39169
32964,19655,39165
32884,19615,39211
32906,19598,39308
33016,19594,39185
33094,19601,39119
33028,19600,38853
32964,19695,39197
32908,19696,39143
32968,19692,39041
32998,19687,39223
33081,19672,39153
33108,19649,39020
33060,19613,38720
33008,19601,39005
32996,19612,38989
33048,19667,38941
32944,19686,38844
32897,19697,38829
32884,19679,38957
32988,19686,38929
33048,19675,38753
33024,19662,38436
33002,19637,38700
32984,19621,38655
32940,19621,38629
32980,19679,38580
32952,19685,38508
32796,19685,38372
32852,19676,38407
32925,19746,38391
32996,19689,38380
33108,19645,38004
33220,19687,38284
33054,19659,38244
33041,19650,38199
33032,19644,37821
33076,19710,38077
32932,19692,38047
32884,19687,38049
33008,19765,38061
33036,19709,38012
33101,19662,37884
33108,19639,37868
33100,19636,37729
33096,19699,37599
33132,19657,37517
33072,19671,37446
32974,19781,37183
32948,19743,37416
32945,19708,37369
33032,19714,37306
33064,19671,37204
33136,19709,37093
33200,19663,37088
33288,19659,37034
33156,19704,36988
33064,19703,36897
33036,19708,36796
33004,19734,36892
32948,19715,36816
32953,19704,36743
33028,19703,36446
33048,19663,36480
33281,19690,36431
33420,19687,36076
33328,19664,36213
33353,19717,36349
33348,19718,36068
33330,19764,36053
33185,19735,36031
33060,19723,35956
32893,19691,35893
33016,19719,35820
33040,19679,35663
33308,19745,35793
33308,19692,35548
33304,19704,35569
33228,19749,35227
33068,19745,35332
32988,19724,35305
33172,19772,35213
33310,19723,35237
33336,19682,35256
33256,19730,35149
33205,19697,35071
33208,19703,34909
33056,19714,34935
32944,19796,34928
32920,19751,34719
32868,19739,34645
32972,19732,34586
33024,19764,34567
33084,19707,34375
33077,19769,34342
33180,19715,34279
33140,19703,34215
33097,19792,34168
32996,19759,34087
32965,19745,33754
32984,19807,33684
32996,19770,33593
32860,19735,33653
32812,19705,33579
32884,19748,33569
32852,19729,33570
32924,19713,33452
32944,19735,33287
32944,19813,33129
32812,19777,33053
32844,19761,33043
32900,19831,32962
32953,19757,32653
32964,19729,32617
32921,19717,32576
33072,19739,32644
33110,19719,32608
33084,19791,32407
32980,19786,32292
32996,19772,32221
33057,19833,32148
32996,19796,32055
33068,19749,31840
33296,19727,31652
33320,19785,31573
33241,19765,31573
33256,19741,31452
33260,19772,31314
33032,19778,31265
33184,19820,31239
33252,19803,31182
33256,19776,31044
33220,19804,30939
33280,19750,30850
33324,19751,30951
33264,19756,30889
33300,19751,30805
33208,19772,30666
33128,19833,30655
33104,19790,30391
32897,19860,30325
32868,19821,30252
32948,19770,30191
33052,19742,30305
32950,19790,30082
32936,19773,30191
32962,19772,30112
32968,19782,30064
32985,19853,29997
32924,19823,29933
32920,19799,29884
32903,19796,29815
33028,19820,29748
33144,19769,29711
33101,19750,29665
33088,19815,29604
33004,19782,29564
32892,19806,29508
32765,19808,29468
32792,19885,29421
32832,19862,29332
32848,19845,29252
32822,19793,29293
32864,19766,29262
32844,19810,29225
32876,19781,29188
32828,19790,29141
32608,19803,29067
32376,19820,28984
32189,19884,29100
31953,19866,28929
31685,19831,28844
31336,19796,28828
30976,19823,28789
30692,19795,28807
30540,19791,28740
30580,19788,28725
30742,19852,28705
30988,19855,28740
31356,19837,28780
32049,19899,28640
33064,19876,28621
34224,19849,28600
35968,19812,28569
38068,19805,28729
40096,19789,28709
42188,19853,28686
43680,19856,28678
43732,19851,28676
42956,20011,28635
42096,19918,28600
40928,19890,28631
38941,19821,28613
37225,19812,28567
35988,19839,28596
35340,19828,28606
35338,19817,28618
35360,19887,28598
34856,19885,28546
34316,19861,28583
33888,19900,28615
33456,19870,28655
33150,19831,28679
32864,19835,28676
32524,19815,28701
32128,19866,28708
31820,19834,28730
31440,19853,28740
31056,19895,28757
30840,19893,28770
30704,19875,28783
30592,19909,28804
30560,19871,28749
30618,19843,28871
30600,19836,28900
30584,19835,28807
30566,19828,28791
30576,19893,28773
30564,19892,28756
30468,19882,28799
30532,19877,28947
30676,19909,28965
30716,19863,28859
30828,19840,29012
30788,19828,29036
30732,19847,29063
30727,19876,28916
30728,19885,28967
30714,19910,29009
30632,19879,29122
30704,19907,29229
30732,19887,29258
30764,19911,29351
30872,19879,29209
30992,19865,29208
30980,19864,29220
31004,19848,29255
31034,19897,29329
30964,19903,29532
30920,19963,29609
30984,19911,29662
30977,19894,29679
30976,19909,29591
30999,19867,29646
31026,19901,29781
31068,19871,29820
31141,19858,29885
31104,19909,29930
31076,19915,29965
31032,19954,29884
30956,19916,29929
30974,19904,29973
31072,19911,30103
31188,19873,30174
31285,19862,30231
31229,19877,30332
31144,19871,30270
31128,19903,30429
31149,19970,30448
31073,19959,30421
31160,19926,30560
31208,19917,30487
31284,19910,30463
31364,19888,30617
31356,19873,30643
31408,19900,30618
31380,19883,30637
31344,19950,30765
31264,19942,30764
31230,19927,30861
31260,19987,30804
31278,19934,30852
31308,19905,30939
31420,19884,31118
31388,19913,31152
31369,19903,31158
31456,19894,31191
31440,19914,31167
31364,19940,31149
31316,19981,31157
31319,19953,31284
31240,20004,31312
31208,19935,31433
31268,19894,31487
31393,19922,31521
31418,19906,31524
31344,19954,31415
31308,19941,31560
31296,20009,31396
31281,19965,31493
31276,19951,31724
31310,19967,31588
31393,19937,31591
31480,19961,31717
31509,19916,31775
31516,19913,31785
31537,19939,31800
31592,19951,31849
31590,20023,31844
31487,19988,31677
31458,19964,31791
31508,20013,31820
31536,19975,31751
31622,19938,31871
31708,19919,31936
31797,19972,32049
31840,19943,32124
31892,19955,32157
31904,20013,32035
31868,20004,32004
31948,19975,32093
32096,20039,32132
32144,19985,32108
32320,19951,32180
32380,19933,32109
32407,19991,32244
32465,19959,32253
32472,19980,32310
32440,20057,32186
32556,20005,32296
32652,19996,32300
32764,20056,32356
32950,19980,32369
33032,19943,32404
33113,20001,32403
33129,19970,32323
33212,19951,32345
33206,20035,32320
33168,20011,32377
33204,20002,32453
33256,19999,32549
33396,20036,32615
33452,19993,32652
33512,19957,32663
33649,20017,32679
33600,19986,32662
33448,19965,32527
33431,19993,32546
33396,20055,32692
33376,20035,32765
33412,20017,32803
33408,20010,32815
33452,20036,32837
33476,19975,32836
33456,19967,32772
33413,20017,32812
33544,19992,32711
33528,20060,32831
33412,20034,32836
33364,20029,32655
33388,20101,32768
33448,20034,32881
33428,19997,32897
33489,20019,32900
33576,19977,32961
33544,20033,32979
33432,20006,32995
33376,20015,32785
33334,20087,32797
33324,20055,32904
33288,20039,32949
33272,20097,32863
33244,20045,33116
33280,20013,33149
33408,19996,33157
33468,20025,33180
33374,20004,33219
33292,20088,33228
33204,20065,33257
33181,20053,33271
33172,20116,33276
33252,20073,33244
33328,20029,33333
33381,20037,33367
33429,20012,33174
33444,20062,33300
33416,20029,33301
33288,20119,33535
33176,20084,33460
33104,20140,33344
33160,20083,33470
33124,20140,33485
33117,20061,33503
33228,20038,33525
33376,20021,33527
33336,20073,33534
33420,20044,33548
33364,20056,33351
33337,20100,33484
33396,20080,33637
33369,20133,33700
33234,20102,33572
33234,20099,33647
33368,20055,33433
33416,20107,33561
33452,20055,33668
33496,20040,33748
33488,20127,33820
33400,20104,33641
33349,20097,33737
33308,20100,33543
33280,20151,33775
33348,20080,33711
33376,20104,33812
33401,20066,33604
33300,20053,33709
33352,20091,33793
33260,20103,33924
33252,20105,33866
33308,20185,33868
33308,20134,33879
33284,20118,33927
33344,20078,33967
33372,20095,33781
33448,20064,33937
33452,20124,34118
33414,20082,33967
33272,20098,34012
33062,20169,34060
33104,20141,34105
33140,20117,33965
33172,20181,34023
33197,20108,34223
33228,20075,34276
33216,20111,34133
33216,20097,34085
33228,20087,34189
33149,20165,34254
33084,20145,34029
33036,20131,34170
33092,20161,34269
33188,20126,34384
33164,20155,34221
33210,20105,34322
33220,20145,34382
33260,20103,34295
33220,20092,34340
33244,20141,34532
33182,20137,34398
33132,20161,34327
33192,20142,34375
33200,20185,34566
33221,20123,34413
33300,20125,34557
33300,20103,34540
33300,20116,34642
33309,20108,34618
33256,20161,34439
33220,20169,34567
33076,20158,34629
32980,20173,34715
32980,20151,34823
33052,20181,34792
33160,20130,34654
33176,20174,34807
33190,20132,34565
33128,20118,34805
33093,20170,34967
33016,20166,34764
32984,20210,34906
33001,20183,34681
32992,20165,34741
33057,20185,34717
33064,20149,34757
33120,20126,35010
33092,20167,35097
33072,20152,35103
33064,20211,35047
32996,20185,35073
32834,20259,34857
32888,20199,35042
32988,20176,35159
33092,20191,35130
33068,20149,35172
33008,20132,35231
32900,20182,35231
32916,20164,35181
32924,20167,35331
32940,20226,35261
32908,20211,35285
32918,20193,35303
32925,20220,35384
32964,20172,35413
33132,20155,35425
33198,20199,35451
33182,20168,35471
33156,20170,35487
33152,20170,35492
33057,20265,35500
32988,20227,35528
33052,20196,35564
33044,20256,35589
33064,20183,35524
33044,20186,35558
33112,20174,35509
33044,20162,35583
33084,20186,35642
33000,20203,35644
32868,20217,35591
32848,20236,35679
32884,20208,35748
32933,20248,35476
32996,20189,35729
33036,20185,35900
33024,20171,35689
33068,20194,35804
33072,20175,35813
33048,20265,35640
32960,20244,35794
32900,20225,35943
32901,20270,35921
32812,20244,35837
32860,20196,35924
32988,20216,35652
33012,20197,35860
32964,20193,35743
33006,20261,35880
33024,20232,35923
32960,20239,35948
32888,20292,36007
32888,20252,36097
32892,20235,36125
32937,20261,36141
33028,20218,36149
33037,20249,35932
33024,20212,36029
33049,20204,35935
33016,20263,35944
32956,20251,35957
32900,20303,35965
32932,20256,36047
32852,20298,36109
32808,20245,36079
32920,20202,36103
33044,20224,35875
32992,20203,35999
32956,20238,36049
32864,20244,36129
32768,20316,36206
32812,20273,36291
32852,20263,36284
32876,20285,36265
32820,20249,36317
32840,20213,36294
32784,20268,36325
32712,20231,36333
32688,20226,36327
32656,20245,36299
32548,20305,36231
32486,20287,36263
32480,20273,36276
32480,20289,36311
32527,20269,36228
32664,20228,36185
32724,20261,36188
32828,20243,36090
32864,20237,36000
32852,20314,36084
32756,20296,36058
32784,20282,36023
32824,20281,36319
32852,20348,36218
32861,20308,36292
32977,20251,36388
33020,20234,36431
33040,20239,36449
33084,20285,36428
33017,20276,36445
32952,20288,36455
32900,20316,36446
32926,20294,36464
32964,20333,36292
32988,20282,36293
33018,20322,36351
33062,20255,36359
33104,20239,36343
33084,20294,36126
32992,20298,36293
32908,20297,36297
32848,20327,36422
32844,20300,36487
32816,20347,36451
32842,20281,36450
32836,20263,36463
32850,20251,36420
32849,20257,36300
32804,20280,36287
32816,20293,36286
32708,20372,36293
32637,20320,36221
32645,20317,36181
32680,20300,36289
32708,20302,36292
32766,20261,36349
32824,20313,36465
32789,20271,36480
32756,20265,36263
32736,20303,36380
32668,20315,36367
32600,20345,36359
32524,20327,36380
32528,20315,36372
32586,20338,36379
32731,20286,36373
32730,20265,36359
32736,20306,36359
32644,20287,36340
32484,20301,36297
32344,20380,36341
32272,20351,36356
32120,20337,36348
31964,20316,36341
31712,20311,36333
31433,20293,36342
31001,20277,36340
30688,20279,36289
30612,20322,36279
30656,20341,36343
30684,20348,36303
30753,20333,36418
31080,20387,36380
31745,20353,36385
32752,20311,36221
33804,20301,36092
35408,20282,36316
37440,20286,36280
39652,20371,36177
41752,20337,36210
43484,20341,36398
44244,20444,36383
44088,20364,36385
43356,20349,36264
42380,20396,36294
40912,20339,36217
39008,20316,36199
37712,20295,36166
36964,20303,36153
36308,20382,36257
35720,20378,36368
35020,20373,36384
34396,20349,36260
33941,20338,36340
33452,20345,36359
33061,20321,36359
32680,20307,36221
32284,20303,36013
31848,20304,36252
31396,20382,36112
30984,20389,36267
30784,20373,36297
30644,20380,36154
30596,20375,35936
30512,20340,36204
30545,20320,36133
30508,20312,36225
30469,20305,36261
30436,20308,36193
30413,20329,35872
30364,20391,36152
30324,20378,36111
30364,20359,36011
30440,20351,36069
30540,20366,36071
30604,20335,36097
30668,20311,36065
30637,20305,35975
30596,20349,36077
30625,20358,36103
30560,20359,36092
30524,20369,36084
30525,20383,35818
30612,20365,35847
30689,20343,35829
30780,20310,35911
30810,20348,35792
30873,20335,36054
30892,20317,35796
30880,20335,35789
30817,20406,36071
30856,20387,36076
30884,20370,36060
30812,20351,36041
30772,20331,36061
30817,20336,36095
30984,20319,36175
31000,20324,36140
31052,20317,36089
31008,20338,36069
30936,20405,35812
30904,20383,35796
30908,20375,35901
30956,20357,35805
30984,20388,36085
31020,20357,36053
31064,20332,36024
31088,20325,36071
31093,20329,36199
31068,20340,36160
30981,20392,36113
30948,20380,36068
30988,20357,36020
31040,20412,35996
31134,20356,35807
31172,20319,35900
31205,20309,36091
31188,20313,36034
31184,20359,35989
31180,20354,36004
31080,20364,36007
31048,20403,35980
31124,20373,36012
31132,20363,36071
31206,20373,36144
31220,20338,35972
31260,20324,36052
31280,20335,36029
31216,20319,35913
31188,20385,35911
31076,20383,36048
31034,20381,36087
31056,20370,36000
31048,20364,35943
31096,20340,35744
31236,20359,36029
31308,20325,36015
31320,20319,36020
31280,20337,35988
31196,20348,35927
31152,20394,35916
31108,20374,35913
31109,20412,35964
31096,20372,35988
31157,20337,35996
31232,20349,36030
31320,20313,36057
31340,20359,35988
31268,20338,36048
31256,20359,35881
31216,20365,35892
31239,20372,35813
31256,20397,35772
31270,20374,35780
31288,20343,35628
31392,20341,35650
31460,20327,35702
31484,20323,35657
31501,20368,35768
31508,20361,35495
31500,20377,35515
31540,20430,35470
31536,20388,35447
31606,20377,35425
31637,20334,35663
31744,20359,35423
31884,20327,35628
32048,20322,35617
32116,20321,35605
32232,20391,35562
32254,20376,35564
32280,20371,35551
32272,20367,35550
32368,20407,35477
32500,20351,35431
32688,20318,35452
32832,20311,35468
32948,20370,35447
32968,20337,35455
32965,20352,35510
33012,20424,35516
33008,20390,35449
33036,20384,35477
33108,20356,35447
33113,20364,35351
33254,20338,35428
33348,20319,35372
33400,20320,35280
33452,20345,35236
33416,20362,35169
33408,20365,35074
33416,20434,34997
33421,20404,35222
33473,20368,35181
33496,20351,35199
33537,20316,35220
33550,20332,35108
33556,20358,35030
33557,20337,35015
33524,20343,34866
33484,20426,35109
33412,20389,35112
33453,20376,35055
33488,20357,34964
33518,20335,35100
33572,20368,35149
33620,20324,35013
33628,20315,35005
33656,20311,34983
33596,20385,34997
33444,20373,35013
33434,20354,34988
33424,20412,34973
33396,20395,34980
33344,20340,34959
33392,20302,34950
33460,20359,34935
33486,20330,34892
33476,20316,34812
33412,20333,34813
33333,20407,34856
33263,20379,34868
33280,20367,34769
33232,20351,34847
33256,20356,34887
33244,20319,34839
33324,20299,34823
33312,20373,34746
33248,20345,34821
33216,20348,34761
33168,20351,34823
33128,20412,34708
33124,20372,34701
33185,20361,34660
33216,20323,34639
33276,20343,34709
33224,20319,34743
33280,20297,34729
33248,20349,34726
33172,20343,34664
33088,20367,34599
33136,20349,34564
33152,20369,34653
33144,20353,34647
33208,20382,34646
33232,20313,34631
33232,20300,34605
33232,20291,34495
33228,20349,34471
33244,20356,34525
33200,20359,34583
33164,20363,34552
33198,20346,34652
33184,20333,34624
33180,20371,34430
33260,20311,34484
33337,20297,34407
33401,20359,34439
33404,20329,34415
33296,20334,34400
33204,20337,34388
33156,20391,34388
33220,20356,34493
33188,20333,34468
33220,20359,34577
33304,20309,34364
33428,20299,34509
33472,20289,34535
33412,20359,34533
33364,20347,34519
33301,20348,34425
33216,20353,34446
33260,20327,34397
33236,20373,34349
33279,20316,34327
33392,20283,34397
33404,20343,34405
33372,20293,34428
33324,20286,34437
33296,20372,34417
33204,20347,34295
33212,20324,34389
33188,20395,34331
33256,20340,34377
33248,20311,34455
33216,20287,34376
33324,20272,34301
33364,20333,34332
33360,20314,34332
33308,20321,34392
33220,20319,34463
33216,20347,34534
33209,20337,34453
33208,20327,34535
33144,20295,34414
33293,20304,34461
33375,20285,34417
33436,20276,34460
33368,20269,34526
33296,20351,34501
33266,20346,34473
33256,20335,34479
33328,20315,34525
33376,20343,34503
33368,20303,34391
33324,20264,34413
33340,20276,34439
33260,20265,34202
33228,20308,34342
33276,20317,34239
33236,20321,34362
33148,20364,34504
33126,20319,34493
33084,20305,34439
33120,20303,34461
33180,20280,34477
33194,20269,34231
33268,20254,34292
33276,20317,34351
33188,20315,34377
33188,20315,34519
33228,20308,34571
33164,20367,34572
33260,20323,34412
33340,20287,34393
33373,20255,34396
33396,20307,34415
33300,20274,34413
33360,20257,34446
33368,20336,34461
33272,20313,34448
33248,20317,34446
33236,20292,34449
33248,20338,34425
33240,20276,34263
33316,20242,34340
33312,20308,34344
33312,20263,34419
33332,20244,34444
33325,20308,34525
33208,20305,34524
33136,20287,34540
33172,20312,34324
33224,20290,34372
33220,20311,34383
33289,20255,34408
33252,20236,34399
33256,20278,34423
33282,20244,34420
33252,20294,34276
33136,20280,34308
33138,20337,34208
33112,20295,34143
33124,20287,34396
33118,20260,34373
33189,20237,34344
33192,20252,34352
33188,20244,34333
33176,20293,34292
33127,20271,34351
33073,20273,34353
32992,20312,34356
32994,20287,34322
32961,20268,34227
33036,20295,34324
33156,20251,34124
33124,20295,34287
33124,20236,34411
33161,20224,34407
33132,20324,34379
32984,20317,34359
32880,20298,34279
32912,20281,34287
32929,20268,34181
32932,20263,34169
32968,20221,34149
33000,20264,34240
33044,20239,34337
33020,20223,34344
32944,20262,34332
32853,20274,34271
32800,20271,34304
32752,20303,34175
32756,20270,34134
32836,20231,34030
32937,20271,34229
32976,20252,34223
32992,20228,34180
32956,20224,34097
32948,20314,34180
32956,20299,34192
32980,20282,34140
32940,20279,34113
32984,20254,34205
33010,20231,34240
33039,20256,34331
33078,20216,34333
33052,20209,34141
33000,20261,34246
32906,20253,34285
32908,20273,34252
32916,20263,34159
32964,20248,34162
33008,20295,34021
33124,20239,34052
33196,20204,34039
33260,20189,34161
33464,20225,34055
33564,20204,34207
33541,20268,34242
33356,20261,34243
33220,20266,34228
33102,20247,34260
32928,20300,34275
32712,20259,34288
32640,20213,34354
32623,20188,34493
32569,20241,34401
32528,20228,34264
32508,20230,34517
32504,20238,34308
32528,20295,34585
32496,20273,34649
32481,20247,34679
32461,20228,34685
32532,20186,34695
32618,20237,34775
32668,20213,34840
32608,20203,34811
32564,20219,34917
32448,20229,34960
32376,20289,34972
32404,20255,35045
32460,20243,35201
32608,20217,35373
32652,20195,35444
32672,20179,35525
32688,20213,35583
32716,20189,35536
32672,20201,35564
32460,20269,35708
32257,20244,35796
32208,20241,35878
32117,20216,35957
31956,20245,36012
31812,20198,36037
31508,20191,36020
31124,20178,35967
30820,20177,36036
30708,20223,36148
30668,20237,36076
30748,20225,36097
31020,20260,36109
31332,20235,36092
32008,20189,36218
33016,20225,36365
33960,20191,36364
35308,20176,36419
36960,20173,36380
38792,20260,36401
40676,20231,36455
42264,20217,36379
42744,20324,36449
42472,20247,36485
41860,20231,36441
41048,20169,36372
39624,20175,36344
37740,20237,36444
36332,20192,36498
35460,20215,36502
35116,20223,36376
34784,20217,36447
34202,20254,36567
33601,20244,36426
33168,20186,36532
32913,20204,36596
32730,20165,36637
32580,20163,36609
32302,20165,36568
31972,20189,36543
31588,20237,36613
31190,20216,36525
30904,20207,36515
30732,20199,36568
30521,20220,36525
30453,20170,36535
30544,20159,36537
30548,20145,36452
30528,20180,36599
30560,20183,36776
30524,20237,36540
30496,20221,36666
30528,20201,36410
30604,20239,36628
30525,20181,36809
30448,20143,36593
30508,20167,36736
30545,20148,36765
30500,20142,36752
30456,20210,36764
30385,20192,36734
30420,20197,36742
30489,20173,36743
30588,20197,36484
30676,20164,36629
30816,20136,36720
30907,20145,36772
30924,20144,36730
30892,20135,36648
30812,20150,36532
30756,20209,36560
30764,20193,36536
30728,20171,36487
30740,20204,36421
30816,20151,36377
30908,20124,36358
30974,20149,36068
30996,20121,36137
31040,20162,36095
30976,20160,36047
30936,20163,36005
30925,20167,35897
30816,20201,35914
30769,20183,35784
30852,20157,35520
31000,20127,35727
31072,20111,35433
31110,20159,35375
31117,20126,35373
31124,20140,35493
30996,20215,35189
30922,20180,35392
30922,20177,35329
31045,20157,35228
31100,20131,35079
31104,20126,35111
31220,20109,35100
31244,20169,35056
31168,20119,34725
31140,20131,34695
31102,20186,34621
31012,20171,34559
31040,20153,34511
31157,20145,34439
31268,20177,34640
31388,20150,34589
31389,20108,34542
31389,20108,34470
31373,20102,34412
31312,20166,34356
31192,20158,34300
31284,20154,34228
31304,20198,34175
31205,20164,34029
31284,20135,33961
31424,20098,34063
31432,20114,33981
31492,20108,33943
31520,20111,33840
31476,20121,33818
31320,20197,33612
31256,20182,33452
31408,20157,33388
31356,20138,33309
31360,20109,33239
31396,20114,33249
31505,20094,33260
31576,20090,33206
31652,20126,33026
31636,20126,32978
31480,20151,32832
31498,20140,32837
31412,20129,32746
31576,20187,32605
31629,20132,32519
31653,20098,32577
31644,20085,32417
31824,20148,32328
31896,20107,32244
31788,20119,32173
31792,20127,32167
31760,20156,32138
31840,20138,32084
31888,20123,31984
31949,20149,31930
32100,20097,31897
32188,20140,31634
32316,20106,31745
32313,20092,31560
32380,20157,31574
32352,20136,31653
32492,20176,31452
32648,20140,31379
32690,20115,31363
32828,20122,31340
32868,20081,31308
32932,20069,31189
33012,20105,31103
33081,20095,31157
33068,20093,31130
33020,20167,31087
32992,20132,30855
33156,20156,30881
33364,20135,30937
33448,20090,30925
33624,20071,30656
33608,20137,30693
33552,20075,30676
33562,20123,30736
33573,20102,30705
33580,20105,30667
33516,20166,30619
33492,20125,30560
33464,20110,30477
33476,20119,30505
33584,20077,30467
33688,20129,30419
33720,20077,30325
33684,20065,30171
33612,20156,30158
33480,20133,30092
33436,20111,30033
33492,20151,30037
33564,20107,30047
33544,20074,30007
33549,20083,29948
33598,20068,29884
33648,20052,29852
33720,20111,29819
33652,20089,29764
33520,20101,29693
33392,20103,29836
33304,20143,29796
33340,20115,29693
33497,20088,29604
33520,20051,29622
33556,20045,29492
33484,20085,29599
33424,20069,29557
33404,20077,29481
33337,20140,29535
33288,20119,29403
33288,20089,29286
33260,20111,29432
33332,20073,29292
33426,20043,29436
33532,20093,29196
33524,20056,29165
33461,20049,29253
33353,20125,29277
33238,20109,29071
33164,20103,29177
33212,20091,29056
33292,20132,29180
33300,20085,28941
33380,20037,28893
33456,20079,28996
33469,20055,29029
33516,20038,28817
33528,20064,28935
33372,20125,28783
33324,20094,28913
33404,20095,28697
33452,20073,28815
33484,20109,28703
33504,20061,28763
33572,20052,28592
33628,20035,28727
33578,20094,28656
33528,20081,28708
33484,20077,28524
33408,20151,28653
33452,20145,28688
33460,20103,28472
33450,20073,28617
33528,20032,28487
33596,20036,28439
33500,20033,28557
33424,20032,28607
33373,20060,28389
33345,20133,28519
33368,20113,28562
33377,20100,28519
33436,20082,28505
33444,20062,28321
33524,20036,28423
33512,20027,28293
33508,20027,28399
33488,20031,28444
33404,20091,28257
33344,20085,28321
33280,20084,28355
33293,20068,28234
33320,20071,28285
33412,20087,28279
33440,20039,28348
33361,20039,28372
33460,20030,28157
33496,20025,28217
33420,20112,28199
33260,20096,28270
33232,20081,28234
33332,20060,28281
33349,20068,28087
33385,20109,28217
33452,20065,28256
33544,20029,28047
33520,20028,28183
33518,20021,28078
33364,20106,28201
33293,20084,28000
33256,20078,28151
33313,20063,28068
33336,20057,27958
33368,20037,28093
33376,20061,28100
33436,20049,28085
33528,20047,28112
33492,20036,27893
33409,20036,28049
33328,20061,28008
33344,20077,28020
33340,20057,27901
33268,20055,27831
33240,20087,27980
33320,20071,28017
33428,20061,27791
33504,20022,27788
33422,20015,27934
33360,20029,27872
33296,20058,27759
33317,20111,27906
33256,20070,27783
33224,20068,27895
33204,20028,27689
33220,20063,27757
33270,20036,27733
33312,20023,27764
33336,20027,27687
33257,20046,27727
33244,20053,27638
33196,20050,27783
33184,20115,27757
33204,20093,27607
33232,20044,27748
33252,20019,27761
33349,20020,27612
33404,20001,27655
33344,19999,27758
33264,20077,27536
33162,20068,27540
33096,20069,27686
33080,20043,27570
33071,20042,27612
33096,20073,27655
33072,20009,27629
33124,19991,27534
33164,20047,27582
33168,20018,27491
33124,20028,27588
33017,20039,27631
33020,20042,27472
33008,20042,27494
33024,20097,27604
33024,20024,27421
33150,19991,27428
33260,20042,27564
33344,20010,27445
33368,20007,27488
33324,20031,27405
33220,20036,27521
33090,20085,27481
33148,20060,27337
33156,20054,27365
33160,20003,27472
33288,19989,27415
33350,20037,27488
33324,20013,27431
33368,20011,27332
33376,20012,27468
33364,20041,27327
33300,20037,27420
33280,20024,27474
33304,20048,27363
33214,20023,27311
33308,19978,27364
33377,20050,27386
33404,20037,27271
33336,20029,27388
33308,20020,27436
33148,20042,27259
33084,20028,27404
33110,20083,27353
33128,20053,27232
33116,20023,27389
33217,19980,27273
33192,19975,27338
33188,20032,27261
33176,19997,27288
33140,20027,27396
32988,20026,27206
32924,20034,27359
32864,20028,27396
32789,20020,27204
32832,19999,27269
32932,20013,27319
33008,19991,27393
33116,19986,27183
33076,19980,27198
33053,20027,27253
32961,20028,27352
32928,20023,27246
32848,20060,27373
32914,20030,27168
32872,19999,27201
32917,19968,27344
32889,20017,27237
32766,19986,27178
32578,19983,27202
32276,20005,27271
31900,20016,27337
31560,20063,27171
31020,20037,27324
30596,20026,27308
30425,20037,27291
30356,19989,27261
30510,19978,27260
30653,19969,27164
30904,19970,27325
31344,20029,27231
32156,20036,27356
33196,20023,27191
34444,20014,27335
36333,20087,27247
38680,20008,27372
41188,19962,27210
43464,20050,27222
45088,19991,27336
45468,20010,27335
44984,19996,27239
44038,20134,27260
42900,20063,27354
41184,20041,27420
39376,20031,27213
38244,19985,27279
37656,20057,27412
37088,19996,27408
36432,19975,27476
35728,19975,27279
35040,20058,27320
34364,20036,27478
33712,20018,27397
33192,20012,27548
32740,20058,27388
32212,19997,27376
31866,19958,27432
31484,20000,27567
31140,19975,27516
30952,19977,27500
30780,19991,27629
30524,20009,27436
30384,20005,27490
30184,20049,27614
30152,20033,27553
30366,19996,27645
30556,19969,27466
30520,19948,27466
30488,19949,27527
30512,19993,27608
30532,19993,27578
30510,20013,27588
30460,20003,27493
30496,19974,27541
30553,20035,27654
30572,19975,27570
30720,19959,27726
30720,19945,27523
30704,19949,27698
30717,19998,27596
30716,19983,27648
30689,20001,27742
30692,19994,27578
30736,19987,27606
30712,20036,27757
30750,19997,27655
30832,19950,27817
31004,19953,27634
30992,19940,27813
31200,19941,27777
31060,20025,27875
30964,20044,27693
30948,20031,27864
30964,20015,27820
30908,20021,27805
30968,19993,27785
31042,19963,27911
31100,19945,27884
31104,19940,28005
31180,19941,27833
31198,19960,27889
31226,20017,28021
31204,19999,28005
31092,19994,28089
31070,19981,27903
30964,19956,28068
31016,19927,28132
31120,19960,27994
31149,19940,27955
31100,19940,28134
31100,19953,28062
31008,19968,28029
30908,20031,28161
30956,19993,28145
31000,19975,28237
31052,19945,28054
31100,19928,28227
31168,19918,28124
31136,19951,28224
31110,19932,28316
31104,19944,28320
31024,20000,28135
30932,19989,28162
30896,19971,28345
30880,19965,28249
30972,19938,28293
31092,19972,28247
31088,19948,28405
31092,19931,28500
31048,19929,28308
30960,19963,28498
30948,19965,28423
30924,19965,28581
30856,19994,28575
30868,19975,28445
30840,19935,28445
30897,19911,28613
30988,19955,28639
31016,19941,28563
31004,19929,28724
30950,19943,28557
30900,19958,28572
30896,20007,28727
30869,19983,28644
30848,19961,28692
30924,19933,28825
31016,19972,28754
31096,19947,28636
31189,19924,28823
31296,19922,28829
31320,19932,28812
31252,19969,28746
31224,19959,28749
31296,19975,28877
31325,19962,28836
31429,19923,28893
31532,19903,28891
31645,19900,28752
31704,19951,28913
31700,19949,28909
31816,19949,28871
31837,19968,28796
31872,19967,28793
31808,19944,28780
31840,19997,28832
32024,19935,28871
32213,19893,28981
32368,19949,28956
32493,19940,29017
32636,19911,28857
32704,19925,29013
32648,20017,28935
32709,19964,29055
32772,19941,29008
32917,20009,28916
33057,19937,29066
33194,19908,29063
33360,19879,29063
33368,19923,29160
33420,19900,28983
33324,19912,28964
33248,19996,29141
33258,19986,29053
33368,19959,29136
33437,19944,29031
33488,19903,29188
33614,19877,29143
33624,19925,29255
33668,19903,29046
33692,19907,29236
33670,19904,29230
33630,19924,29325
33636,19951,29345
33641,19938,29292
33584,19919,29157
33692,19973,29341
33782,19897,29270
33845,19875,29288
33809,19873,29460
33760,19943,29272
33740,19975,29441
33629,19973,29353
33500,19974,29543
33522,19924,29371
33528,19911,29396
33505,19940,29369
33549,19876,29559
33560,19866,29601
33516,19924,29609
33492,19878,29537
33384,19887,29663
33276,19929,29764
33260,19913,29620
33281,19956,29591
33300,19924,29762
33304,19894,29780
33312,19854,29712
33352,19905,29894
33400,19866,29927
33352,19855,29917
33268,19919,29815
33192,19907,29818
33128,19981,29840
33085,19915,30001
33076,19895,30020
33120,19917,29953
33181,19871,30126
33224,19848,30125
33221,19881,29950
33260,19870,29908
33276,19873,29959
33244,19938,30140
33196,19918,30153
33165,19890,30145
33216,19911,30075
33260,19860,30075
33312,19889,30138
33374,19863,30280
33380,19848,30109
33428,19851,30068
33436,19902,30257
33360,19890,30088
33229,19948,30311
33181,19898,30241
33156,19882,30316
33188,19900,30396
33300,19861,30343
33316,19832,30252
33380,19893,30207
33337,19859,30418
33328,19876,30417
33216,19885,30485
33148,19884,30340
33188,19930,30290
33172,19902,30503
33220,19863,30471
33316,19831,30594
33388,19902,30445
33373,19857,30372
33376,19833,30405
33312,19911,30613
33344,19893,30626
33308,19879,30537
33298,19913,30557
33332,19879,30758
33396,19846,30607
33504,19889,30516
33516,19841,30576
33470,19825,30765
33412,19878,30755
33416,19863,30695
33364,19877,30903
33308,19873,30804
33340,19901,30733
33376,19885,30752
33412,19839,30700
33424,19873,30921
33380,19831,30931
33414,19825,30860
33428,19876,30969
33416,19854,30958
33294,19915,30980
33236,19876,31120
33268,19863,31045
33292,19909,31002
33276,19855,31029
33336,19815,31012
33445,19831,31007
33452,19830,31237
33440,19814,31261
33432,19868,31264
33372,19867,31316
33328,19858,31225
33287,19900,31389
33204,19877,31485
33228,19848,31479
33240,19861,31461
33232,19829,31374
33264,19807,31369
33325,19852,31343
33296,19844,31457
33252,19923,31617
33188,19877,31629
33168,19861,31654
33117,19837,31772
33156,19856,31756
33224,19821,31657
33317,19796,31680
33308,19842,31644
33304,19823,31852
33357,19830,31859
33232,19844,31991
33140,19919,31833
33216,19863,31822
33248,19847,31799
33248,19815,31816
33336,19833,32053
33389,19802,32079
33336,19792,32117
33256,19831,32140
33133,19833,32128
33132,19837,32148
33160,19903,32148
33148,19856,32212
33100,19828,32149
33156,19847,32173
33192,19801,32258
33236,19854,32391
33268,19805,32357
33216,19789,32343
33172,19869,32441
33112,19869,32482
33056,19844,32437
33033,19853,32357
33036,19829,32263
33156,19855,32519
33220,19799,32529
33257,19779,32489
33184,19833,32565
33104,19807,32639
33157,19805,32640
33052,19869,32545
32968,19848,32542
32876,19821,32652
32932,19855,32700
33060,19821,32679
33068,19781,32661
33055,19820,32620
33052,19791,32764
33092,19777,32837
33084,19855,32789
32976,19837,32727
32896,19826,32823
32856,19881,32864
32796,19837,32853
32817,19792,32869
32896,19813,32906
32892,19790,32877
32816,19770,32841
32728,19817,32970
32828,19810,32991
32760,19813,32945
32772,19844,32921
32764,19821,32931
32732,19884,32950
32832,19803,33113
32924,19766,32948
32989,19820,32927
32896,19787,32885
32864,19769,32892
32992,19847,32927
33024,19825,32932
32996,19817,33168
33012,19887,33190
32997,19842,33189
33036,19801,33093
33116,19769,33205
33110,19813,33305
33104,19780,33351
33216,19764,33287
33164,19842,33166
33113,19823,33191
33100,19805,33283
33056,19817,33199
33072,19810,33221
33122,19780,33124
33172,19798,33348
33160,19763,33321
33192,19775,33303
33244,19756,33255
33212,19802,33335
33111,19798,33413
32936,19838,33415
32913,19812,33423
33025,19866,33452
33020,19788,33254
33109,19809,33259
33152,19759,33503
33052,19748,33500
33080,19767,33377
33048,19773,33459
32948,19816,33484
32916,19789,33565
32968,19805,33588
32928,19846,33700
32988,19770,33598
33104,19799,33650
33212,19759,33681
33204,19746,33655
33148,19794,33748
32944,19777,33729
32809,19847,33733
32756,19809,33767
32768,19793,33703
32864,19859,33700
32964,19781,33645
33044,19749,33603
33060,19804,33746
33060,19761,33756
33040,19759,33653
32933,19765,33853
32780,19815,33848
32640,19794,33824
32472,19838,33804
32352,19790,33795
32076,19800,33855
31768,19749,33860
31384,19732,33857
31008,19768,33708
30736,19750,33823
30720,19815,33815
30720,19802,33765
30824,19794,33728
31208,19845,33927
31905,19789,33832
32928,19757,33879
33988,19761,33813
35656,19733,33836
37624,19771,33819
39844,19746,33752
42060,19844,33628
43868,19797,33609
44528,19788,33855
44156,19818,33868
43380,19779,33815
42492,19895,33975
41124,19765,33842
39284,19744,33773
38012,19823,33652
37280,19743,33937
36636,19807,33925
36033,19793,33956
35340,19865,34001
34708,19799,34045
34176,19781,33980
33692,19810,33856
33308,19748,33966
32936,19790,33958
32492,19757,33746
31993,19793,33903
31532,19775,33901
31100,19786,33908
30869,19842,33927
30724,19799,33927
30580,19772,33924
30576,19787,34015
30572,19727,34079
30552,19764,33956
30556,19744,33975
30560,19775,34043
30600,19767,33868
30504,19820,34005
30520,19782,34103
30528,19775,34068
30450,19793,33917
30528,19753,34028
30652,19773,34055
30744,19740,34062
30752,19725,34069
30734,19729,34031
30660,19800,34016
30673,19788,34028
30692,19781,34068
30721,19821,34077
30780,19791,34068
30820,19753,34066
30896,19693,34068
30956,19743,33824
30996,19724,33941
31044,19721,33940
30956,19789,33991
30876,19796,33885
30876,19785,33941
30961,19765,34036
31072,19780,34133
31104,19757,34061
31160,19714,34071
31168,19765,34132
31208,19732,34149
31156,19736,34055
30944,19750,34104
30736,19817,33999
30656,19788,34041
30637,19768,34262
30636,19804,34082
30720,19761,34236
30821,19782,34346
30852,19727,34485
30860,19721,34512
30949,19749,34559
30960,19761,34586
30876,19771,34540
30796,19803,34447
30840,19767,34583
30820,19810,34567
30800,19753,34596
30780,19719,34718
30814,19756,34807
30812,19736,34877
30793,19734,34941
30804,19746,34996
30704,19807,35054
30612,19777,35125
30636,19767,35175
30652,19805,35204
30660,19751,35027
30684,19717,35214
30844,19757,35388
30812,19728,35572
30824,19719,35382
30762,19784,35559
30748,19766,35491
30708,19812,35654
30724,19782,35772
30726,19759,35831
30824,19781,35870
30977,19743,35812
31089,19714,35716
31016,19769,35782
30988,19744,35831
30992,19755,35847
30940,19762,35887
30952,19810,35884
31024,19800,35911
31065,19782,35916
31152,19756,35938
31325,19728,35918
31408,19751,35893
31412,19760,35892
31376,19735,35900
31317,19752,35892
31172,19768,35890
31096,19823,35884
31134,19796,35873
31158,19766,35615
31234,19799,35623
31248,19730,35708
31254,19716,35738
31292,19746,35868
31332,19725,35863
31365,19793,35657
31292,19777,35692
31316,19773,35660
31421,19839,35632
31569,19783,35650
31588,19748,35716
31668,19727,35684
31788,19765,35719
31892,19745,35776
31868,19727,35671
31908,19769,35778
31900,19775,35793
31952,19782,35816
32032,19798,35821
32148,19781,35556
32376,19751,35844
32552,19787,35847
32646,19748,35866
32604,19731,35865
32500,19728,35773
32509,19748,35925
32520,19829,35940
32496,19791,35889
32576,19781,36006
32694,19773,36032
32784,19806,36038
32992,19747,35968
33144,19733,36035
33228,19731,36004
33292,19799,35828
33212,19775,35812
33132,19803,35781
33144,19780,35812
33188,19829,35791
33232,19800,35647
33314,19779,35591
33440,19735,35862
33456,19792,35847
33416,19769,35715
33392,19749,35719
33377,19764,35695
33296,19781,35692
33312,19813,35824
33344,19795,35648
33324,19849,35661
33269,19781,35673
33373,19752,35655
33362,19735,35515
33344,19785,35561
33345,19757,35596
33404,19836,35489
33328,19801,35223
33268,19847,35392
33225,19800,35543
33228,19798,35501
33348,19758,35267
33452,19792,35348
33445,19748,35348
33484,19738,35047
33440,19797,35182
33424,19782,35333
33368,19788,35148
33284,19808,35079
33140,19794,35044
33031,19785,35052
33012,19801,35125
33072,19753,34815
33060,19780,35017
33028,19768,35070
33052,19740,35055
33026,19810,34919
33052,19807,34894
33039,19798,34927
33024,19853,34636
33056,19811,34783
33156,19830,34941
33188,19764,34748
33144,19748,34781
33046,19769,34627
33070,19821,34823
33048,19796,34625
32984,19797,34622
32952,19847,34622
33004,19815,34623
33036,19800,34327
33024,19799,34487
33108,19759,34612
33196,19755,34516
33288,19785,34331
33218,19768,34372
33184,19776,34357
33140,19863,34300
33124,19833,34293
33128,19810,34284
33181,19868,34003
33192,19797,34108
33232,19757,34175
33280,19808,34247
33364,19780,34007
33416,19761,34052
33372,19828,34039
33144,19830,34004
33092,19835,33942
33148,19820,33913
33244,19809,33933
33280,19828,33671
33358,19783,33713
33399,19767,33737
33324,19840,33839
33312,19786,33705
33296,19797,33724
33276,19876,33460
33336,19842,33721
33228,19823,33728
33188,19876,33478
33252,19815,33561
33310,19784,33519
33340,19831,33434
33304,19793,33564
33324,19781,33431
33272,19871,33330
33208,19836,33344
33140,19826,33287
33088,19866,33183
33136,19839,33244
33124,19862,33225
33201,19797,33155
33296,19832,32887
33244,19793,32935
33296,19783,33135
33296,19846,33115
33188,19844,32942
33128,19836,32885
33164,19859,32861
33032,19846,32829
33084,19895,32824
33300,19817,32807
33400,19804,32752
33373,19858,32485
33317,19815,32548
33262,19810,32711
33164,19899,32668
33202,19852,32668
33199,19843,32556
33276,19879,32409
33252,19824,32492
33212,19846,32453
33240,19807,32212
33252,19802,32191
33288,19799,32145
33248,19844,32247
33188,19843,32275
33065,19925,32237
33024,19859,32361
33025,19845,32262
33056,19855,32172
33172,19806,32087
33256,19855,32079
33272,19841,32144
33304,19831,32096
33273,19823,32079
33184,19884,32045
33124,19863,32085
33152,19853,32048
33152,19875,31905
33100,19833,31861
33100,19852,31892
33168,19820,31900
33257,19865,31680
33240,19822,31734
33148,19863,31810
33088,19860,31742
33084,19897,31751
33076,19865,31501
33004,19917,31541
33044,19863,31536
33124,19825,31679
33172,19852,31625
33232,19828,31471
33156,19881,31517
33249,19863,31285
33256,19870,31362
33199,19917,31519
33120,19883,31284
33144,19875,31354
33148,19877,31340
33166,19833,31160
33212,19870,31156
33192,19850,31145
33188,19903,31222
33140,19873,31188
33036,19877,31212
32986,19923,31085
33057,19899,31141
33100,19954,31117
33104,19883,30948
33188,19838,30997
33253,19853,30990
33192,19911,30772
33050,19854,30804
32980,19865,30781
32892,19925,30821
32888,19892,30877
32940,19937,30927
32984,19911,30828
32996,19926,30716
33032,19859,30773
33004,19891,30760
33012,19848,30533
33108,19894,30565
33142,19883,30502
33084,19919,30703
33064,19898,30712
33096,19926,30551
33144,19897,30503
33164,19914,30567
33312,19862,30575
33236,19906,30555
33208,19871,30528
33342,19907,30324
33408,19887,30359
33373,19969,30337
33236,19931,30311
33122,19913,30304
32997,19908,30286
33101,19951,30407
33118,19886,30397
33181,19868,30382
33224,19932,30351
33241,19887,30177
33228,19887,30158
33108,19956,30189
33064,19921,30304
33044,19914,30303
32968,19977,30306
33028,19932,30296
33120,19885,30290
33052,19869,30290
32972,19930,30308
33128,19892,30293
33088,19900,30255
32984,19989,30124
32980,19945,30084
32972,19924,30168
32936,19969,30172
32976,19925,29990
32982,19959,29953
33020,19887,30010
33028,19879,30188
33116,19907,30069
33128,19914,30036
33036,19999,30012
32985,19980,30052
32920,19941,30063
32916,19996,30076
32918,19925,29879
32908,19889,29921
33044,19940,30013
33112,19906,30044
33229,19887,30044
33050,19965,30047
32716,19948,29908
32512,19947,29879
32460,19936,29910
32320,19953,29963
32284,19913,29980
32132,19940,29946
31830,19905,29760
31312,19896,29767
30844,19937,29798
30664,19924,29876
30522,19990,29927
30649,19961,29941
30910,19949,29897
31300,19982,29825
31876,19928,29852
32800,19951,29675
33900,19917,29660
35404,19905,29815
37544,20000,29640
39592,19956,29609
41592,19962,29604
43340,20075,29593
43868,20002,29650
43301,19965,29753
42513,19945,29702
41664,20015,29572
40080,19954,29505
38176,19932,29488
36832,19927,29524
35816,20022,29545
35488,19989,29628
35460,19967,29542
35124,20035,29471
34616,19987,29513
34184,20030,29518
33696,19940,29353
33292,19916,29420
33072,19972,29516
32800,19937,29381
32440,20005,29421
32100,19988,29444
31680,20016,29270
31352,19981,29276
31156,20009,29465
31008,19960,29457
30936,19990,29388
30936,19932,29265
30879,19975,29247
30790,19942,29228
30704,20005,29373
30616,19973,29242
30672,20002,29349
30688,19967,29257
30654,19991,29301
30732,19959,29275
30768,19962,29319
30800,19932,29141
30908,19973,29172
30904,19940,29263
30854,19945,29343
30885,19991,29188
30856,19982,29308
30832,19991,29127
30852,19973,29141
30768,19988,29344
30928,19936,29236
31038,19967,29240
31108,19945,29273
31088,19991,29090
31112,19967,29144
30980,20029,29248
30908,19996,29134
30852,20042,29230
30885,19991,29050
30926,19958,29060
31044,19956,29269
31184,19935,29239
31168,19975,29109
31172,19958,29086
31188,19956,29197
31092,19993,29031
31052,20034,29138
31108,19996,29182
31084,19980,29220
31121,19993,29212
31164,19944,29063
31217,19975,29055
31232,19951,29093
31268,19999,29156
31276,19979,29157
31224,19995,29153
31196,20036,29037
31200,20014,29007
31174,20000,28985
31144,19983,28998
31148,19947,29008
31209,19959,29204
31272,19953,29171
31324,19998,29181
31234,19985,29212
31148,19989,29039
31129,20026,29132
31116,20009,29262
31152,20047,29213
31212,19991,29249
31284,19948,29295
31249,19965,29119
31284,19964,29160
31316,19950,29183
31276,19993,29188
31180,19997,29289
31124,20049,29385
31142,20021,29460
31204,20004,29431
31156,19979,29396
31280,19967,29292
31260,19996,29333
31256,19959,29380
31368,19955,29511
31365,19980,29530
31264,19991,29407
31208,20014,29487
31136,20054,29481
31088,20011,29597
31208,20014,29540
31328,19967,29626
31396,19945,29631
31416,19969,29676
31436,19950,29558
31460,19995,29634
31456,19997,29772
31400,20023,29687
31360,20003,29644
31336,20034,29604
31420,19985,29799
31578,19981,29671
31653,19946,29796
31712,19989,29820
31760,19959,29636
31768,20010,29692
31748,20004,29910
31708,20047,29804
31740,20013,29821
31784,20053,29904
31860,19984,29779
31938,20004,29996
32060,19967,30015
32108,19999,29985
32140,19970,29800
32168,20028,29959
32265,20019,30090
32368,20071,29936
32498,20019,30053
32601,19999,30102
32610,20010,29948
32704,19975,29940
32820,20027,30026
32868,19962,30085
32918,19964,30269
33078,19990,30127
33088,20070,30247
33097,20031,30119
33124,20004,30181
33166,20020,30263
33252,19989,30317
33400,20017,30393
33500,19967,30301
33449,19952,30300
33512,20007,30311
33464,19981,30353
33376,19999,30378
33336,20034,30473
33348,19998,30500
33340,20021,30412
33396,19983,30612
33432,19975,30561
33472,20002,30392
33500,19969,30477
33552,19954,30496
33508,19991,30712
33352,20071,30653
33293,20020,30612
33308,20004,30596
33252,20025,30704
33289,19997,30716
33388,19963,30741
33440,19963,30756
33488,19954,30769
33424,20004,30788
33373,19987,30828
33312,20055,30863
33308,20019,30876
33310,20074,30751
33232,20014,30794
33192,19987,30855
33316,19971,31049
33420,19948,31050
33464,19972,30910
33377,19955,31038
33313,19991,30882
33244,19991,30957
33192,20043,30984
33220,20005,30998
33216,20048,31225
33244,19989,31135
33284,20005,31190
33336,19965,31047
33344,19995,31102
33360,19949,31327
33368,19983,31201
33253,20060,31293
33213,20021,31080
33254,20044,31303
33284,19997,31239
33244,20001,31343
33272,19951,31366
33288,20001,31380
33354,19972,31391
33336,20031,31205
33288,19983,31303
33141,20004,31405
33188,20049,31472
33196,20001,31280
33164,20055,31387
33212,19997,31440
33308,19949,31551
33404,19975,31620
33368,19948,31664
33328,19994,31697
33276,19988,31677
33208,19995,31580
33160,20036,31655
33180,19999,31712
33220,20044,31516
33272,19996,31597
33380,19952,31671
33376,19989,31684
33309,19970,31772
33277,19945,31781
33260,19998,31941
33256,20007,31988
33181,20010,32007
33132,20070,32043
33094,20044,32037
33143,19996,32100
33136,19953,32041
33200,20004,32028
33216,19973,31997
33192,19964,32007
33252,19965,32038
33196,20029,32094
33128,19999,32199
33080,19997,32217
33085,20016,32261
33136,19994,32070
33210,19953,32148
33260,19962,32303
33256,19940,32452
33214,19983,32311
33172,19975,32374
33183,20040,32449
33148,20004,32263
33124,19991,32359
33037,20033,32389
33016,19993,32548
33032,19950,32652
33141,19955,32519
33177,19941,32485
33168,19975,32623
33156,19967,32626
33068,20039,32487
33012,20009,32568
32910,20001,32605
32920,19991,32733
32908,19993,32861
33053,19951,32676
33116,19991,32775
33121,19951,32841
33132,19945,32671
33064,20017,32655
33036,20005,32785
32993,19993,32855
32940,20023,33047
32904,20002,33073
32848,19969,33001
33020,19975,33042
33104,19943,32917
33140,19992,33037
33173,19957,32974
33084,19964,33084
32948,20005,33132
32924,19991,33156
32964,20043,33159
32996,19993,33158
32964,19972,32985
32909,19993,33049
32936,19941,33285
32940,19991,33359
32976,19948,33181
32964,19959,33191
32908,20004,33262
32904,20015,33341
32868,20061,33381
32900,19994,33399
32912,19964,33210
32936,19960,33351
32941,19935,33564
32960,19980,33559
32956,19961,33600
32992,19957,33601
32900,20014,33615
32816,20007,33588
32736,19980,33605
32702,20037,33656
32780,19975,33647
32866,19943,33707
32876,20004,33727
32925,19951,33579
32944,19945,33576
32921,19951,33739
32800,20009,33780
32748,19991,33727
32698,20044,33668
32656,19997,33684
32732,19961,33764
32752,19965,33809
32790,19932,33852
32872,19981,33873
32992,19959,33908
32944,19953,33916
32737,19998,33831
32668,19961,33933
32688,19990,34060
32817,19973,34040
32872,19999,34104
32868,19949,34102
32792,19926,33937
32689,19929,33948
32596,19981,33831
32600,19961,33846
32584,19983,34103
32573,20033,33876
32549,19997,34037
32568,20043,34117
32644,19972,34134
32700,19930,34222
32752,19951,34261
32772,19943,34327
32698,19979,34123
32605,19967,34126
32464,19970,34230
32408,20021,34154
32448,19990,34233
32500,19972,34193
32464,20007,34213
32535,19951,34231
32616,19935,34247
32540,19927,34338
32512,19953,34383
32397,19956,34420
32384,19967,34436
32356,20004,34460
32425,19989,34461
32428,19961,34465
32542,19996,34461
32652,19933,34492
32780,19919,34486
32720,19969,34505
32676,19941,34532
32736,19936,34639
32706,20006,34681
32800,19989,34689
32812,20046,34528
32768,19989,34624
32806,20004,34452
32870,19941,34554
32900,19912,34396
32934,19996,34662
32956,19938,34677
33040,19942,34641
32932,20029,34590
32856,19998,34809
32884,19968,34761
32997,20021,34770
32992,19954,34719
32936,19911,34814
32956,19922,34663
32996,19910,34705
33028,19941,34781
33000,19934,34805
32888,19985,34821
32748,19959,34685
32748,19975,34765
32820,19949,34781
32792,19997,34716
32848,19937,34776
32821,19972,34700
32932,19927,34823
32928,19989,34895
32896,19939,35012
32853,19950,35039
32824,19983,35065
32832,19953,35089
32832,19999,35052
32896,19945,34927
32892,19963,34934
32972,19917,34989
32918,19975,34917
32858,19917,35058
32720,19948,34823
32668,19942,34977
32712,19993,34996
32792,19955,35140
32817,20000,35221
32832,19947,35185
32869,19976,35113
32916,19911,35072
32852,19901,35141
32700,19915,35175
32500,19919,34921
32344,19994,34967
32112,19963,35116
31892,20006,35240
31616,19962,35335
31203,19969,35113
30820,19911,35254
30680,19943,35242
30736,19907,35157
30840,19900,35207
30976,19930,35372
31168,19947,35327
31584,20000,35255
32536,19970,35311
33528,19997,35073
34804,19940,35276
36700,20008,35349
38868,19919,35392
41028,19902,35453
43052,20046,35484
44108,19953,35444
44116,19933,35451
43432,19997,35280
42588,19989,35334
41396,20056,35311
39508,19951,35385
37981,19906,35427
37140,19969,35463
36604,19929,35452
36252,19904,35329
35622,19939,35389
34892,19940,35589
34268,19958,35421
33730,20000,35521
33212,19946,35335
32838,19972,35548
32508,19904,35655
32100,19950,35637
31704,19919,35437
31310,19941,35560
31112,19928,35591
30936,19992,35350
30800,19972,35333
30660,19941,35468
30484,19989,35555
30484,19934,35701
30538,19896,35546
30604,19904,35511
30532,19891,35604
30620,19919,35349
30612,19914,35520
30520,19959,35736
30535,19946,35566
30608,19975,35606
30581,19947,35622
30664,19974,35553
30728,19904,35727
30772,19887,35772
30816,19916,35636
30828,19898,35544
30852,19940,35679
30724,19937,35388
30708,19972,35679
30666,19929,35756
30728,19944,35660
30809,19912,35691
30892,19899,35416
30968,19884,35746
31044,19903,35825
31052,19879,35716
31044,19913,35468
31012,19935,35493
30936,19999,35680
30976,19948,35749
30997,19940,35740
31016,19904,35887
31148,19906,35909
31152,19879,35749
31100,19916,35783
31160,19887,35828
31204,19954,35596
31112,19935,35764
31108,19987,35908
31108,19947,35927
31052,19975,35817
31036,19909,35886
31128,19932,35679
31280,19884,35924
31304,19926,35805
31268,19878,35917
31234,19925,35625
31126,19920,35847
31132,19960,36031
31176,19933,35975
31154,19961,35857
31176,19911,35942
31216,19938,35684
31300,19886,35900
31316,19940,35948
31312,19895,35901
31302,19899,35957
31221,19938,35676
31188,19975,35828
31220,19935,35881
31072,19916,35981
31088,19938,36058
31160,19901,36009
31196,19871,35935
31240,19906,35865
31196,19887,36007
31316,19949,35736
31304,19926,35935
31272,19920,36055
31229,19962,36000
31192,19931,35951
31176,19907,36001
31296,19925,36092
31333,19884,36154
31344,19874,35924
31306,19888,36028
31304,19889,36068
31246,19928,35982
31236,19968,36151
31236,19927,36145
31168,19913,36076
31248,19922,35993
31304,19877,36061
31376,19879,35968
31356,19865,36148
31416,19906,35901
31404,19891,36037
31402,19946,35871
31364,19931,35964
31356,19962,36103
31368,19923,35877
31344,19951,35950
31504,19889,35941
31620,19866,35976
31636,19914,35964
31668,19878,35940
31664,19948,35791
31638,19929,35887
31669,19981,35980
31752,19939,35804
31820,19912,35844
31873,19912,35887
32000,19872,35749
32132,19881,35964
32216,19869,35813
32320,19884,35873
32478,19932,35700
32512,19912,35912
32479,19954,35880
32522,19909,35763
32576,19952,35824
32732,19908,35821
32852,19909,35743
32960,19855,35856
33016,19887,35748
33100,19865,35790
33156,19924,35787
33120,19933,35803
33072,19915,35804
33100,19945,35522
33160,19913,35736
33212,19936,35860
33396,19875,35893
33524,19911,35660
33568,19863,35769
33588,19899,35774
33556,19893,35767
33513,19956,35503
33424,19919,35669
33424,19965,35789
33400,19919,35876
33448,19918,35692
33496,19865,35737
33496,19877,35767
33564,19861,35463
33640,19893,35705
33664,19879,35841
33552,19929,35847
33420,19915,35733
33372,19955,35713
33352,19911,35751
33365,19942,35737
33440,19870,35487
33476,19903,35503
33500,19865,35639
33456,19902,35732
33413,19874,35705
33284,19924,35689
33216,19915,35735
33208,19929,35742
33272,19905,35732
33336,19896,35654
33384,19863,35663
33440,19873,35749
33452,19936,35853
33424,19880,35858
33432,19872,35711
33368,19974,35736
33304,19931,35653
33236,19983,35777
33180,19925,35767
33156,19894,35517
33204,19872,35500
33240,19896,35590
33216,19864,35743
33256,19902,35775
33252,19884,35650
33256,19906,35642
33198,19930,35681
33132,19904,35769
33180,19951,35728
33200,19899,35773
33270,19925,35786
33284,19868,35713
33340,19926,35743
33344,19874,35745
33230,19876,35732
33132,19963,35733
33093,19921,35874
33116,19907,35948
33196,19959,35719
33236,19903,35801
33352,19868,35732
33412,19902,35748
33456,19868,35835
33424,19863,35852
33381,19953,35780
33316,19919,35764
33153,19913,35796
33181,19962,35784
33248,19928,35791
33268,19951,35937
33324,19893,35660
33274,19866,35974
33236,19905,35965
33196,19876,35719
33244,19940,35783
33228,19930,35767
33176,19924,35800
33156,19958,35973
33132,19924,36031
33158,19894,36167
33248,19885,36281
33292,19860,36157
33272,19900,36077
33200,19876,36093
33166,19892,36119
33088,19901,36190
33124,19941,36298
33096,19924,36054
33080,19905,36277
33156,19909,36428
33304,19884,36407
33364,19863,36455
33276,19888,36369
33196,19926,36341
33132,19900,36378
33088,19905,36424
33109,19972,36473
33040,19928,36365
33016,19912,36483
32952,19910,36613
32937,19875,36407
33088,19881,36520
33196,19876,36533
33288,19921,36577
33268,19889,36580
33184,19909,36350
33096,19932,36527
33040,19908,36615
33064,19951,36620
33085,19916,36725
33124,19943,36629
33152,19881,36639
33151,19863,36671
33144,19939,36678
33136,19897,36671
33069,19911,36514
33040,19963,36680
33116,19917,36609
33158,19912,36614
33156,19914,36623
33170,19876,36665
33270,19936,36687
33280,19887,36684
33228,19892,36679
33200,19887,36468
33184,19951,36591
33232,19937,36596
33277,19918,36682
33172,19969,36777
33068,19924,36647
33094,19895,36501
33088,19874,36577
32992,19881,36609
32941,19881,36609
32824,19887,36596
32680,19921,36319
32676,19924,36485
32780,19956,36529
32776,19916,36527
32820,19942,36405
32937,19891,36484
33040,19942,36501
33036,19902,36325
32936,19887,36391
32908,19956,36478
32864,19935,36501
32844,19926,36520
32928,19996,36509
32832,19954,36429
32880,19913,36278
32909,19887,36230
32996,19921,36307
32972,19905,36317
32956,19879,36029
32908,19948,36076
32856,19937,36012
32748,19932,36133
32784,19989,36141
32804,19945,36193
32916,19927,36252
32902,19893,36159
33021,19876,36112
33036,19882,36048
32972,19951,35961
32876,19928,35917
32829,19943,36020
32764,19937,36058
32813,19975,35888
32836,19943,35801
32884,19919,35812
32924,19967,35844
32948,19951,35802
32868,19910,35777
32836,19898,35748
32842,19903,35683
32848,19989,35680
32837,19959,35652
32791,20011,35398
32788,19963,35497
32884,19926,35466
32900,19940,35556
32896,19908,35522
32932,19898,35510
32879,19924,35508
32948,19919,35383
32832,20020,35314
32738,19961,35227
32724,19941,35237
32768,19991,35215
32856,19938,34935
32925,19975,35029
32996,19931,34911
33048,19918,34784
33022,19909,34860
32997,19978,34880
32888,19982,34842
32728,19952,34892
32684,20029,34884
32668,19990,34897
32704,19953,34853
32716,19918,34804
32816,19908,34769
32960,19935,34724
33008,19927,34565
33096,19921,34405
32992,20008,34380
32711,19982,34388
32436,19983,34372
32568,19972,34454
32678,19961,34431
32884,19920,34257
33060,19911,34004
33124,19914,34195
33104,19920,34157
33044,19989,34192
32985,19981,34213
32926,19991,34114
32908,19965,34054
32948,20025,33987
33029,19975,33891
33028,19941,33860
32916,19917,33844
33004,19965,33813
33036,19942,33815
33108,19959,33685
33180,19970,33638
33160,20027,33679
33228,19992,33625
33316,19972,33588
33166,20015,33511
33160,19951,33426
33140,19937,33250
33256,20001,33220
33264,19951,33182
33044,19967,33160
33044,19975,33334
33133,20046,33308
33236,20005,33270
33268,19995,33212
33188,19966,32969
33092,19972,33000
33196,19948,33031
33168,20007,32980
33192,19959,32956
33148,19953,33019
33060,20023,33063
32960,20002,33025
33070,19991,32991
33216,20038,32964
33172,19993,32935
33164,19946,32823
33300,19985,32702
33241,19965,32545
33100,19951,32591
33036,19983,32543
32980,19989,32493
32868,20044,32437
32988,20014,32391
32996,20053,32335
32956,20021,32173
33128,19975,32338
33004,19961,32263
32980,19952,32114
32879,20038,32135
32720,19993,32118
32532,20023,32069
32157,20012,31919
31760,20037,31967
31352,20017,31842
31008,19992,31789
31017,20008,31636
31160,19982,31456
31256,19982,31374
31525,19968,31290
31993,20045,31150
32530,20026,31148
33292,20028,31061
34280,20081,31002
35772,20036,30908
37628,20005,30930
39480,20040,30972
41388,19989,30899
42764,19975,30821
42708,20119,30668
41936,20090,30541
41248,20072,30378
40124,20054,30498
38128,20046,30433
36308,20039,30367
35148,20055,30312
34516,20017,30252
34484,19988,30168
34821,20078,30035
34632,20047,30008
34204,20023,29929
33896,20059,29996
33356,20041,29918
33068,20047,29896
32908,20064,29785
32600,20045,29702
32421,20004,29628
32306,20041,29601
32072,20036,29574
31872,20028,29653
31685,20011,29501
31496,20087,29461
31364,20073,29495
31165,20059,29460
31156,20049,29356
31132,20083,29264
31208,20014,29261
31297,19996,29136
31269,20017,29176
31180,20013,29105
31136,20072,29075
31137,20071,29032
31213,20068,28997
31262,20053,28964
31253,20074,28925
31388,20054,28736
31378,20011,28687
31412,20034,28664
31348,20027,28639
31380,20010,28604
31420,20026,28575
31336,20070,28537
31292,20063,28621
31324,20108,28689
31396,20069,28658
31444,20043,28569
31465,20060,28466
31562,20016,28431
31588,20009,28415
31560,20069,28480
31492,20041,28486
31406,20061,28337
31348,20099,28307
31337,20105,28284
31388,20076,28256
31461,20046,28236
31476,20071,28204
31540,20031,28240
31596,20015,28177
31612,20079,28198
31564,20063,28133
31540,20078,28119
31392,20071,28104
31448,20127,28240
31488,20085,28228
31493,20060,28214
31580,20026,28200
31720,20015,28175
31712,20056,28167
31604,20052,28123
31572,20052,28207
31572,20077,28032
31504,20088,28012
31520,20087,28156
31540,20079,28145
31536,20056,28155
31520,20063,28173
31554,20038,28185
31610,20028,28197
31596,20075,28198
31648,20069,28044
31588,20084,28051
31540,20079,28104
31472,20102,28287
31492,20079,28229
31438,20118,28190
31488,20065,28249
31584,20036,28295
31600,20028,28317
31592,20050,28198
31508,20053,28262
31524,20105,28353
31517,20103,28380
31376,20087,28301
31405,20142,28465
31424,20114,28432
31496,20073,28379
31564,20047,28533
31528,20039,28553
31428,20097,28488
31440,20068,28472
31484,20087,28488
31456,20133,28468
31460,20100,28461
31524,20103,28454
31576,20073,28468
31660,20108,28564
31720,20096,28608
31748,20069,28572
31712,20057,28599
31744,20069,28612
31668,20137,28461
31656,20117,28469
31632,20109,28453
31692,20095,28432
31808,20108,28526
31808,20077,28498
31936,20047,28422
31916,20103,28444
31892,20079,28452
31952,20069,28509
31956,20093,28509
31965,20140,28508
31927,20115,28349
31968,20093,28349
32196,20108,28326
32388,20068,28325
32512,20111,28429
32576,20066,28529
32572,20058,28438
32636,20143,28486
32686,20116,28357
32724,20103,28463
32800,20154,28475
32848,20117,28303
32946,20093,28317
33072,20060,28301
33076,20084,28378
33224,20075,28327
33312,20057,28329
33332,20069,28316
33312,20147,28345
33272,20128,28324
33292,20117,28352
33312,20108,28305
33348,20095,28303
33468,20060,28317
33580,20054,28308
33661,20087,28319
33636,20071,28321
33564,20092,28316
33462,20100,28319
33476,20109,28328
33428,20167,28335
33396,20114,28388
33464,20093,28494
33508,20063,28441
33576,20090,28452
33601,20068,28415
33600,20069,28503
33512,20149,28593
33373,20133,28569
33300,20127,28445
33276,20112,28568
33217,20105,28628
33304,20137,28628
33380,20085,28501
33424,20056,28534
33440,20114,28623
33464,20079,28652
33360,20076,28503
33337,20096,28516
33312,20157,28533
33302,20124,28557
33296,20107,28572
33236,20146,28743
33276,20074,28817
33316,20059,28704
33364,20105,28769
33376,20077,28815
33332,20069,28829
33244,20145,28697
33197,20124,28743
33216,20123,28716
33204,20104,28720
33180,20092,28741
33216,20122,28732
33324,20081,28740
33430,20063,28763
33336,20081,28933
33200,20072,28948
33113,20152,28946
33020,20130,28807
33129,20125,28978
33207,20100,28986
33184,20148,28941
33188,20081,28854
33260,20062,28868
33324,20057,28863
33312,20061,28911
33373,20126,28935
33280,20109,28924
33192,20115,28970
33136,20105,28978
33188,20098,28980
33232,20141,29004
33313,20076,29090
33400,20052,29268
33388,20086,29124
33316,20072,29240
33300,20076,29270
33220,20093,29295
33136,20141,29327
33156,20112,29357
33136,20094,29386
33196,20153,29421
33248,20076,29436
33332,20056,29461
33324,20046,29501
33306,20111,29358
33232,20088,29372
33186,20102,29589
33124,20119,29618
33100,20114,29549
33116,20105,29623
33092,20085,29733
33176,20057,29715
33216,20101,29703
33272,20060,29785
33304,20057,29764
33152,20071,29736
33145,20133,29775
33092,20121,29760
33080,20114,29983
33076,20095,29845
33144,20137,29892
33216,20073,29893
33230,20057,30116
33204,20067,30145
33128,20046,30180
33132,20092,30225
33072,20099,30078
33036,20093,30158
32996,20130,30166
32985,20110,30369
32980,20095,30382
33048,20069,30343
33080,20046,30472
33112,20093,30527
33128,20059,30572
33176,20067,30599
33140,20087,30484
33040,20111,30518
33028,20106,30525
33081,20088,30630
33084,20133,30663
33088,20086,30647
33120,20050,30693
33104,20041,30719
33108,20048,30767
33140,20129,30996
33040,20135,31051
33008,20111,31074
32960,20098,31118
33020,20082,31149
33033,20113,31199
33132,20055,31233
33156,20036,31265
33164,20043,31258
33188,20080,31263
33104,20063,31361
33108,20079,31415
33112,20088,31439
33068,20148,31509
33104,20109,31548
33012,20089,31589
33056,20055,31623
33156,20035,31621
33216,20034,31583
33116,20101,31660
32989,20076,31773
32796,20089,31811
32703,20087,31847
32720,20148,31873
32770,20129,31700
32824,20119,31956
32916,20073,31975
32916,20051,31915
32908,20053,32007
32876,20031,32001
32866,20115,32070
32756,20117,32137
32717,20115,32098
32716,20093,32206
32728,20089,32233
32721,20065,32302
32812,20094,32288
32892,20044,32339
32912,20039,32383
32892,20033,32421
32928,20125,32416
32892,20144,32423
32832,20125,32416
32886,20123,32653
32884,20102,32623
32869,20081,32722
32886,20045,32757
32948,20029,32770
33016,20023,32614
33005,20035,32759
32886,20045,32772
32932,20070,32732
32840,20117,32788
32788,20084,32862
32814,20092,32991
32929,20064,32935
33038,20035,32906
33028,20099,32915
33076,20080,32817
33092,20076,33084
33112,20062,33084
33092,20083,33085
32965,20084,33156
32976,20079,33241
32936,20071,33309
32839,20100,33253
32756,20046,33376
32852,20045,33384
32992,20033,33324
33004,20034,33308
33000,20056,33189
32900,20077,33381
32756,20079,33428
32732,20076,33439
32796,20068,33426
32824,20047,33465
32876,20031,33412
32968,20020,33627
32884,20087,33628
32872,20069,33591
32924,20048,33671
32860,20065,33721
32888,20073,33744
32892,20122,33758
32904,20101,33761
32848,20074,33617
32908,20043,33492
32925,20025,33528
32938,20018,33673
32924,20083,33695
32925,20065,33712
32812,20073,33669
32784,20071,33654
32796,20065,33871
32732,20123,33903
32644,20077,33932
32725,20043,33908
32760,20021,33891
32748,20013,34055
32773,20019,33992
32820,20070,33956
32636,20076,33944
32616,20069,33997
32608,20114,34182
32620,20080,34180
32629,20069,34169
32692,20039,34012
32744,20021,33992
32792,20080,33921
32800,20054,33949
32800,20047,33942
32812,20068,34215
32840,20066,34041
32764,20060,33996
32808,20114,34077
32868,20078,34023
32962,20046,34151
33038,20030,34285
33013,20017,34308
32952,20008,34331
32960,20027,34353
32992,20114,34326
32972,20112,34311
33038,20113,34439
33004,20101,34469
33048,20089,34453
33028,20039,34463
33068,20021,34452
33140,20036,34361
33220,20030,34234
33184,20032,34504
33120,20075,34380
33044,20069,34535
32948,20070,34439
32876,20071,34298
32960,20061,34573
32956,20035,34588
32960,20007,34601
32940,20005,34583
32936,20089,34506
33012,20084,34687
32860,20107,34660
32792,20098,34618
32852,20077,34586
32828,20069,34437
32877,20041,34477
32860,20011,34465
32968,20045,34617
33048,20021,34534
32996,20023,34744
32988,20036,34775
33004,20047,34780
32954,20119,34797
32896,20101,34686
32888,20080,34917
32936,20081,34689
32917,20069,34791
32952,20053,34823
33065,20031,34951
33048,20024,34823
32837,20030,34771
32652,20063,34876
32488,20055,34899
32384,20047,34857
32272,20121,34815
32014,20074,35005
31708,20031,35016
31360,20008,35005
31028,20000,35003
30820,20004,34859
30808,20060,34768
30820,20062,34725
30902,20060,34972
31133,20061,35009
31776,20055,34973
32764,20037,34893
33700,20011,35119
35184,19996,35104
37096,20063,35108
39328,20034,35140
41568,20051,35113
43616,20036,35140
44712,20197,35080
44700,20162,34983
44076,20196,34839
43156,20167,35089
42008,20159,35007
40100,20129,35143
38444,20089,35047
37472,20076,34876
36744,20046,35096
36136,20061,35128
35568,20059,35124
34813,20053,35096
34240,20049,35148
33780,20032,35181
33317,20057,35139
32980,20039,35105
32628,20021,34997
32157,20013,34951
31724,20037,35204
31248,20047,35217
30934,20047,34950
30694,20092,34964
30624,20091,35221
30592,20071,35208
30572,20023,35172
30661,20006,35108
30656,20004,35319
30596,20000,35329
30628,20016,35231
30584,20029,35172
30532,20044,35163
30512,20077,35183
30528,20044,35183
30564,20038,35175
30676,20005,35171
30728,19989,35185
30778,20039,35009
30756,20037,35273
30738,20050,35252
30813,20051,35244
30752,20057,35245
30708,20050,35180
30776,20039,35207
30880,20022,35301
30944,19997,35408
30984,19987,35269
30956,19989,35218
31008,20037,35329
31044,20048,35335
31000,20084,35374
30871,20068,35381
30871,20049,35389
30904,20036,35352
30992,20033,35481
31096,19995,35510
31160,20029,35468
31140,19999,35460
31152,19997,35396
31109,20058,35461
31072,20043,35500
31028,20044,35580
31040,20036,35538
31004,20024,35440
31016,20051,35431
31108,20011,35504
31164,19993,35590
31204,19995,35551
31260,19982,35447
31240,20001,35449
31108,20065,35418
31052,20064,35246
31065,20055,35503
31041,20044,35535
31133,20025,35447
31240,20003,35531
31264,19991,35537
31268,19991,35259
31220,19988,35532
31208,19999,35440
31128,20076,35430
31101,20065,35556
31072,20052,35610
31074,20042,35540
31096,20014,35477
31160,19986,35384
31233,20012,35474
31148,19989,35303
31128,19988,35591
31156,19989,35597
31069,20071,35591
30976,20061,35604
31029,20037,35612
31009,20020,35613
31008,20045,35615
31144,19992,35396
31212,19967,35383
31220,19975,35606
31197,20027,35625
31220,20021,35567
31200,20049,35735
31220,20061,35551
31244,20053,35634
31260,20039,35575
31280,20023,35620
31304,19986,35708
31332,20029,35700
31332,19993,35703
31304,19987,35581
31248,19999,35518
31196,20017,35551
31141,20041,35705
31141,20022,35650
31172,20017,35460
31216,20034,35578
31320,19996,35540
31468,19981,35540
31524,19968,35524
31516,20032,35477
31493,20020,35447
31461,20026,35433
31460,20033,35663
31484,20036,35529
31579,20018,35369
31729,20004,35535
31824,19972,35530
31870,20039,35549
31964,19956,35441
32032,20036,35559
32160,20036,35644
32124,20029,35629
32068,20033,35502
32092,20031,35468
32150,20017,35437
32244,19999,35324
32448,20039,35441
32648,20028,35591
32776,19989,35573
32864,19989,35604
32908,19980,35591
32884,20068,35732
32929,20041,35792
32992,20031,35791
33112,20023,35792
33124,20000,35728
33292,19968,35679
33344,20028,35717
33312,20020,35703
33246,19987,35708
33258,19988,35770
33300,20006,35805
33232,20036,35844
33268,20019,35980
33272,20064,36033
33284,20024,35945
33400,19989,35756
33400,19974,35997
33308,20033,35871
33340,20008,35788
33328,19999,36074
33280,20011,36052
33281,20028,36012
33210,20031,36205
33144,20007,36237
33168,20061,36148
33280,20023,36223
33408,20014,36093
33397,19983,36114
33344,19981,36103
33248,19996,36116
33196,20007,35950
32964,20015,36202
32945,20007,36212
32932,20084,36084
32928,20049,36136
33056,19993,36232
33133,19964,36225
33125,19957,36273
33121,19965,36325
33132,20035,36359
33036,20047,36292
32996,20023,36311
32964,20012,36240
32944,20005,36244
32925,20043,36308
32940,19986,36357
33088,19965,36353
33145,19956,36265
33169,19960,36191
33156,20026,36205
33076,20050,35977
33028,20071,36246
33008,20087,36124
33072,20079,36338
33164,20045,36206
33216,19991,36134
33204,19963,36100
33236,19957,36103
33260,20006,36005
33316,19997,35881
33308,20014,36119
33220,20026,36071
33152,20005,35953
33056,19999,36167
33096,20047,36065
33196,19990,36017
33244,19974,36045
33280,19954,36077
33244,20007,36044
33254,19989,36021
33208,20009,35767
33148,20076,35706
33120,20033,35684
33140,20019,35769
33209,19989,35677
33369,20016,35639
33344,19982,35784
33300,19975,35526
33300,19956,35581
33272,20001,35612
33210,20019,35569
33184,20012,35528
33220,20039,35329
33236,20020,35380
33312,19991,35321
33448,19969,35158
33500,20005,35335
33440,19995,35335
33336,19973,35276
33260,19996,35220
33236,20002,35103
33284,20007,35252
33292,20071,35241
33224,20031,35188
33264,20005,35119
33452,19965,35055
33492,20021,35020
33424,19981,35049
33372,19963,34980
33300,20052,34892
33272,20020,34903
33238,20029,34887
33210,20010,34912
33112,20052,34872
33120,20005,34842
33232,19970,34776
33320,19959,34719
33392,20017,34646
33388,19991,34501
33357,19984,34487
33248,20004,34416
33092,20072,34375
33212,20031,34190
33216,20007,34245
33252,20058,34211
33277,19993,34223
33213,19973,34246
33220,19958,34148
33180,19983,34288
33184,19983,34277
33063,20007,34233
33034,20057,34113
33100,20031,34018
33114,20016,33967
33100,19999,33983
33272,20005,34029
33316,19977,33980
33260,19967,33959
33228,20039,33924
32992,20021,33829
33101,20022,33647
33076,20029,33610
33149,20015,33575
33192,20011,33403
33208,20055,33368
33304,20005,33570
33328,19991,33536
33268,19975,33468
33304,20028,33455
33270,20029,33308
33220,20030,33356
33024,20023,33240
32864,20074,33208
32872,20036,33232
32860,20003,33183
33048,20029,33175
33184,19989,33084
33270,19969,33165
33193,20024,33141
33124,19994,33109
33016,20056,32864
32924,20052,32903
32849,20025,32888
32920,20079,32887
32980,20016,32863
33060,19983,32887
33132,20025,33025
33036,19996,32940
33036,19987,32775
32849,19992,32804
32884,20063,32823
32896,20039,32565
33057,20028,32731
33013,20022,32713
32917,20034,32561
32904,19983,32529
32980,20037,32505
32944,19999,32489
32928,20001,32508
32912,19993,32542
32940,20098,32422
32903,20046,32482
32884,20030,32431
32733,20029,32284
32740,20090,32132
32809,20051,32084
32948,20006,31988
32732,19995,31973
32692,19990,31919
32752,20029,31916
32724,20046,31852
32800,20036,31817
32764,20039,31712
32606,20071,31776
32652,20036,31807
32812,19998,31605
32904,20054,31512
32856,20011,31546
32770,19997,31488
32758,20076,31461
32716,20071,31414
32784,20059,31393
32912,20044,31323
32984,20028,31191
32944,20083,31206
32896,20042,31264
33010,20008,31180
32968,20017,31031
33029,20017,30920
32986,20031,30993
32804,20031,30786
32625,20077,30700
32584,20060,30717
32576,20046,30787
32688,20030,30621
32774,20006,30753
32788,19995,30582
32788,20001,30429
32792,20033,30357
32748,20035,30302
32772,20035,30301
32684,20101,30185
32712,20078,30089
32821,20066,30206
32704,20053,30147
32696,20010,30083
32696,20002,30021
32704,20060,29919
32748,20049,29805
32704,20048,29861
32706,20069,29775
32648,20070,29654
32638,20063,29516
32704,20055,29413
32720,20086,29397
32753,20026,29333
32848,19999,29283
32852,20062,29227
32836,20021,29167
32916,20021,29172
32864,20126,29124
32797,20093,29004
32748,20073,28956
32684,20063,28907
32590,20119,28852
32568,20068,28807
32702,20028,28876
32800,20011,28916
32848,20064,28871
32836,20044,28836
32876,20065,28745
32968,20065,28735
32906,20093,28600
32756,20066,28522
32609,20051,28489
32568,20046,28461
32524,20021,28490
32505,20077,28463
32464,20038,28423
32550,20040,28379
32676,20058,28295
32553,20124,28245
32628,20079,28157
32676,20068,28224
32685,20113,28197
32644,20042,28159
32608,20018,28135
32477,20017,28091
32596,20067,27935
32705,20060,28031
32560,20071,27997
32556,20072,27879
32529,20067,27933
32500,20065,27924
32456,20089,27893
32536,20040,27862
32740,20021,27700
32720,20083,27650
32656,20070,27644
32616,20061,27606
32484,20065,27582
32196,20076,27567
31920,20123,27534
31663,20092,27542
31500,20067,27652
31078,20036,27558
30760,20076,27497
30375,20047,27461
30256,20045,27534
30270,20050,27548
30496,20095,27464
30640,20092,27486
31172,20090,27556
32016,20081,27503
32924,20109,27380
34080,20062,27375
35900,20036,27421
38052,20097,27412
40164,20056,27399
42264,20055,27381
43744,20182,27360
43932,20115,27341
43436,20088,27318
42548,20182,27303
41484,20152,27271
39624,20085,27247
37816,20044,27186
36536,20108,27119
35932,20061,27116
35736,20061,27165
35372,20143,27159
34784,20121,27152
34228,20096,27148
33790,20165,27151
33324,20100,27140
32960,20057,26986
32728,20059,27124
32317,20050,27154
31884,20050,27140
31376,20099,27131
31110,20105,27125
30880,20114,27098
30668,20100,27071
30448,20149,27077
30436,20111,27012
30460,20068,26978
30549,20055,27015
30506,20049,27008
30545,20049,26840
30616,20061,26816
30592,20090,26797
30490,20135,26801
30470,20108,26965
30384,20140,26867
30356,20100,26900
30473,20069,26852
30572,20100,26939
30600,20064,26811
30668,20070,26807
30668,20064,26805
30652,20098,26923
30608,20154,26933
30678,20135,26929
30693,20124,26941
30680,20103,26958
30718,20077,26949
30824,20057,26959
30928,20055,26978
30936,20102,26983
30944,20081,26872
30896,20092,26853
30960,20146,26845
31056,20117,26951
31024,20103,27069
30964,20137,26984
31020,20091,27092
31040,20060,27127
31092,20057,27025
31152,20079,27023
31208,20073,27007
31172,20139,27157
31074,20124,27216
31124,20105,27268
31249,20165,27277
31313,20119,27287
31364,20081,27229
31412,20054,27247
31452,20092,27325
31436,20074,27357
31446,20081,27375
31420,20149,27399
31320,20132,27271
31292,20126,27281
31300,20103,27329
31349,20140,27365
31468,20083,27393
31528,20057,27425
31612,20115,27450
31560,20077,27545
31520,20091,27600
31428,20103,27615
31356,20111,27634
31342,20161,27684
31390,20117,27736
31384,20097,27779
31460,20108,27827
31556,20069,27879
31598,20062,27993
31620,20123,28087
31624,20086,28211
31632,20103,28313
31628,20137,28321
31598,20125,28285
31580,20117,28356
31604,20097,28479
31572,20089,28556
31613,20057,28516
31588,20102,28513
31596,20084,28568
31588,20096,28627
31544,20103,28678
31412,20159,28837
31408,20137,28967
31416,20129,29031
31436,20102,29015
31464,20101,29021
31588,20071,29157
31632,20119,29197
31744,20087,29233
31764,20085,29120
31708,20073,29151
31588,20138,29218
31628,20124,29320
31652,20169,29472
31630,20119,29480
31738,20125,29357
31864,20072,29575
31932,20071,29645
31960,20103,29516
32068,20090,29634
32026,20157,29689
31988,20133,29556
32052,20121,29600
32078,20135,29820
32172,20106,29719
32336,20081,29780
32456,20111,29829
32568,20084,29889
32605,20075,29917
32661,20151,29957
32636,20125,29813
32652,20131,29854
32688,20123,29892
32792,20137,30053
32913,20103,30073
33025,20135,30082
33196,20084,30146
33312,20068,30190
33374,20071,30034
33464,20132,30101
33472,20116,30253
33396,20115,30349
33365,20167,30384
33404,20135,30340
33412,20179,30409
33496,20095,30425
33657,20067,30297
33732,20117,30373
33716,20085,30504
33758,20085,30644
33708,20130,30561
33700,20123,30479
33702,20159,30540
33769,20117,30715
33832,20169,30664
33792,20093,30790
33932,20068,30613
34024,20103,30777
33956,20068,30946
33902,20120,30926
33800,20100,30778
33812,20169,30884
33868,20128,30996
33808,20109,31175
33816,20143,31204
33828,20095,31092
33765,20061,31150
33830,20089,31248
33949,20079,31255
33956,20141,31105
33892,20132,31139
33724,20129,31260
33636,20122,31383
33616,20137,31495
33668,20106,31392
33684,20079,31524
33764,20099,31568
33764,20073,31477
33733,20126,31639
33644,20095,31765
33518,20107,31636
33412,20165,31684
33422,20129,31797
33498,20109,31637
33516,20148,31820
33612,20094,31844
33644,20132,31928
33744,20084,31972
33688,20082,31807
33640,20156,31968
33664,20127,32138
33636,20117,32057
33676,20164,32085
33602,20127,32013
33564,20102,32184
33588,20121,32088
33692,20079,32202
33732,20065,32237
33740,20119,32101
33704,20095,32180
33633,20103,32349
33605,20177,32440
33660,20148,32482
33612,20127,32434
33684,20103,32350
33680,20137,32484
33728,20068,32449
33744,20064,32629
33776,20103,32480
33816,20100,32532
33768,20103,32627
33704,20116,32663
33752,20146,32476
33781,20130,32605
33756,20103,32668
33800,20135,32676
33912,20090,32757
33973,20076,32937
33972,20069,32924
33892,20150,32936
33799,20158,32884
33680,20134,32850
33628,20108,32775
33621,20137,32972
33656,20121,33050
33732,20085,33084
33806,20060,33182
33856,20123,33252
33804,20099,33147
33796,20093,33169
33764,20120,33137
33588,20114,33190
33600,20115,33287
33664,20109,33231
33684,20148,33271
33732,20103,33277
33788,20083,33456
33816,20081,33431
33760,20068,33421
33714,20076,33391
33612,20104,33444
33544,20167,33476
33512,20149,33485
33508,20131,33508
33561,20126,33557
33612,20089,33660
33636,20052,33700
33708,20057,33732
33722,20108,33772
33705,20101,33811
33604,20106,33839
33556,20124,33869
33572,20116,33895
33525,20102,33921
33601,20095,33956
33618,20071,33901
33605,20062,33887
33600,20060,34081
33604,20058,34110
33556,20068,34076
33437,20172,34069
33332,20148,34043
33281,20135,34038
33320,20122,34032
33344,20117,33981
33437,20105,34239
33516,20055,34281
33512,20054,34299
33492,20057,34273
33564,20071,34231
33428,20164,34343
33276,20158,34493
33288,20127,34532
33288,20118,34533
33256,20106,34380
33312,20085,34255
33364,20063,34540
33408,20063,34521
33364,20061,34487
33365,20064,34487
33302,20092,34553
33268,20175,34751
33306,20129,34621
33244,20108,34576
33230,20090,34601
33252,20060,34823
33252,20053,34833
33308,20118,34801
33236,20076,34701
33241,20079,34822
33149,20088,34856
32996,20097,34876
33028,20102,34911
33096,20161,34943
33108,20132,34969
33116,20071,34983
33089,20067,35007
33117,20049,35035
33200,20046,34943
33304,20103,34948
33240,20129,35040
33124,20133,35125
33024,20109,35019
32996,20111,35110
33098,20080,35135
33230,20050,35159
33272,20041,35223
33188,20085,35218
33204,20076,35260
33109,20075,35292
33065,20098,35309
33044,20095,35325
32956,20087,35345
32964,20146,35361
32952,20098,35109
33020,20051,35160
33084,20037,35280
33124,20037,35175
33044,20098,35263
33052,20073,35362
32904,20095,35391
32920,20101,35476
32884,20087,35412
32893,20157,35525
32900,20111,35628
32984,20084,35605
33008,20057,35540
33014,20046,35667
32992,20038,35606
33016,20089,35694
32940,20089,35607
32876,20086,35493
32768,20145,35510
32768,20121,35639
32820,20084,35647
32870,20048,35563
32896,20034,35792
32980,20090,35820
32960,20060,35759
33032,20049,35599
32909,20133,35719
32784,20101,35756
32792,20084,35516
32791,20134,35633
32844,20092,35620
32880,20060,35670
32876,20031,35620
32921,20090,35588
33020,20076,35559
33061,20068,35596
32944,20095,35572
32828,20090,35588
32762,20079,35598
32716,20139,35604
32760,20103,35684
32825,20058,35728
32896,20035,35823
32808,20028,35744
32828,20033,35847
32736,20081,35998
32552,20080,36052
32478,20084,35884
32504,20141,35910
32448,20124,35916
32484,20080,35981
32592,20039,35957
32676,20027,35981
32633,20061,35716
32570,20047,35782
32608,20045,35918
32556,20116,36016
32510,20096,36006
32570,20076,35949
32645,20095,35943
32660,20063,35944
32760,20039,35832
32836,20050,35834
32788,20043,35767
32744,20045,35902
32738,20040,35878
32813,20135,35785
32814,20103,35833
32848,20079,35973
32744,20122,36004
32790,20076,36036
32820,20047,35999
32788,20021,36013
32740,20063,36015
32780,20042,36101
32820,20036,36171
32784,20101,36191
32797,20099,36162
32833,20093,36103
32750,20069,36119
32768,20110,36100
32820,20049,36132
32708,20033,36132
32688,20022,36100
32697,20036,36244
32724,20039,36140
32696,20117,35996
32660,20095,36014
32636,20076,36036
32560,20139,36150
32592,20068,36081
32570,20031,36021
32673,20068,36010
32749,20036,36115
32680,20034,36156
32670,20031,36258
32608,20061,36252
32528,20111,36240
32453,20081,36268
32504,20071,36246
32532,20048,36260
32632,20065,36261
32704,20015,36177
32708,20072,36132
32768,20043,36097
32737,20046,36136
32612,20057,36103
32439,20106,36016
32386,20082,36040
32372,20076,36167
32292,20055,36263
32180,20029,36116
31888,20073,36061
31640,20039,35949
31252,20036,36140
30848,20037,36166
30572,20109,36162
30380,20097,36153
30464,20082,36128
30668,20077,36060
30816,20055,36044
31141,20071,36181
32050,20038,36186
33032,20041,36231
34052,20024,36225
35628,20063,36036
37536,20070,36065
39624,20159,36103
41636,20085,36125
43260,20068,36149
43764,20083,36039
43496,20044,35980
42776,20028,36023
41684,20069,36049
39940,20057,36052
38146,20043,36124
36830,20108,36110
36064,20103,36169
35608,20072,36145
35256,20129,36217
34712,20077,36199
34198,20095,36021
33785,20035,36100
33356,20025,36159
32908,20060,36161
32540,20056,36150
32132,20065,36140
31633,20103,35871
31264,20071,35980
30993,20108,35948
30817,20071,36060
30760,20036,36044
30720,20060,36036
30616,20034,35920
30573,20028,35865
30440,20083,36105
30396,20081,36103
30253,20078,36069
30305,20123,36069
30396,20079,35816
30396,20052,35836
30520,20031,36063
30540,20057,36073
30568,20030,36077
30632,20018,36063
30648,20069,36071
30536,20074,36062
30530,20071,36061
30560,20105,36031
30580,20081,35877
30648,20044,35820
30738,20049,35801
30748,20020,35889
30720,20058,35996
30800,20034,36103
30913,20034,36151
30836,20061,35948
30764,20122,35873
30732,20075,35951
30705,20054,35965
30664,20063,36103
30780,20027,36151
30924,20037,36090
31026,20024,36143
31008,20018,36159
30961,20048,36148
30860,20071,36094
30860,20067,35962
30900,20111,35956
30852,20083,35847
30932,20055,35772
31052,20062,35956
31124,20024,35950
31176,20015,36036
31165,20068,36016
31076,20051,35972
31036,20071,35972
30948,20071,35977
30948,20066,35943
30952,20091,35931
30960,20052,35980
31056,20068,36078
31124,20023,36045
31096,20016,36000
31136,20052,35876
31140,20039,35849
31172,20051,35894
31111,20081,35855
31117,20063,35872
31088,20102,35876
31152,20055,35844
31296,20026,35835
31296,20043,35908
31276,20026,35988
31312,20024,36037
31300,20025,35983
31245,20090,35847
31185,20076,35904
31144,20058,35927
31169,20076,35941
31184,20046,35941
31224,20071,35911
31317,20043,35864
31388,20028,35831
31324,20010,35821
31329,20055,35783
31304,20069,35782
31216,20061,35829
31181,20081,35832
31208,20063,35847
31216,20048,35812
31252,20042,35828
31308,20010,35843
31328,20060,35839
31316,20023,35847
31256,20024,35820
31189,20074,35545
31144,20059,35719
31156,20108,35724
31204,20074,35729
31266,20053,35670
31316,20012,35661
31444,20041,35490
31556,20014,35461
31572,20021,35719
31584,20022,35717
31608,20081,35693
31592,20077,35650
31600,20059,35399
31640,20093,35463
31648,20062,35541
31732,20029,35353
31741,20004,35615
31749,20071,35604
31676,20028,35319
31612,20031,35425
31652,20046,35440
31750,20087,35468
31840,20070,35535
31969,20055,35572
32048,20108,35461
32252,20044,35520
32432,20027,35503
32512,20007,35580
32548,20055,35472
32564,20040,35452
32628,20052,35176
32644,20083,35345
32648,20079,35372
32772,20058,35401
32864,20123,35464
32976,20030,35531
33128,20004,35398
33212,20021,35392
33224,20006,35416
33236,20061,35137
33221,20058,35135
33168,20059,35268
33060,20083,35297
33048,20071,35288
33143,20042,35298
33281,20084,35288
33396,20032,35349
33460,20017,35476
33524,20004,35492
33494,20045,35292
33473,20047,35391
33416,20084,35173
33420,20055,35328
33376,20089,35477
33288,20063,35268
33354,20094,35347
33412,20029,35375
33372,20005,35364
33336,20066,35333
33324,20035,35140
33272,20051,35332
33240,20105,35214
33260,20071,35392
33256,20052,35406
33212,20060,35237
33224,20025,35200
33373,20001,35210
33268,20049,35207
33153,20025,35254
33132,20012,35301
33160,20093,35215
33132,20077,35239
33088,20054,35299
33029,20103,35360
33068,20054,35356
33100,20028,35357
33232,20001,35344
33364,20033,35356
33412,20027,35344
33424,20017,35343
33300,20098,35301
33244,20066,35191
33232,20058,35244
33316,20049,35394
33340,20091,35357
33328,20030,35344
33348,20004,35325
33308,20058,35389
33336,20016,35332
33360,20015,35245
33312,20041,35360
33312,20107,35343
33280,20082,35311
33240,20068,35364
33332,20037,35212
33512,20052,35191
33605,20025,35305
33652,20022,35280
33573,20006,35142
33613,20061,35116
33556,20055,35188
33456,20053,35236
33312,20092,34985
33240,20063,35136
33228,20038,35244
33269,20053,35300
33380,20013,35324
33352,20019,35238
33325,20030,35148
33305,20037,34964
33327,20042,35221
33280,20060,35092
33300,20109,35204
33320,20078,35297
33365,20059,35346
33484,20025,35274
33568,19999,35300
33640,20005,35333
33580,20047,35335
33617,20035,35308
33652,20049,35246
33592,20057,35320
33596,20052,35241
33584,20050,35220
33433,20076,35304
33304,20029,35303
33244,20004,35176
33208,20023,35188
33232,20031,35160
33317,20019,35151
33296,20042,35111
33288,20112,35109
33352,20079,35093
33444,20068,35098
33500,20039,35119
33620,20012,35055
33736,20042,35079
33692,20022,35037
33548,20020,35012
33448,20015,34967
33340,20068,34980
33276,20060,34991
33202,20108,34715
33168,20068,34740
33088,20038,34817
33024,20017,34717
32996,20037,34626
33108,20015,34604
33172,20013,34638
33149,20087,34701
33092,20063,34706
33000,20061,34662
33068,20055,34623
33169,20079,34624
33189,20048,34688
33192,20066,34779
33252,20015,34704
33274,20005,34623
33232,20049,34469
33160,20039,34527
33088,20054,34461
32976,20126,34404
32964,20071,34435
32924,20049,34413
32936,20124,34340
33012,20037,34311
33088,20005,34344
33188,20004,34276
33248,20061,34212
33252,20033,34134
33192,20050,34172
33109,20120,34232
33093,20081,34215
33124,20076,34176
33088,20047,34044
33172,20073,33989
33220,20021,33985
33210,20005,33920
33236,20068,33860
33184,20039,33771
33133,20049,33751
32992,20111,33689
32968,20079,33709
32974,20054,33711
33068,20076,33628
33184,20031,33396
33272,20069,33407
33236,20026,33376
33232,20015,33381
33182,20060,33311
33132,20055,33151
33008,20135,33222
33028,20085,33262
32992,20059,33140
32936,20096,32949
32997,20037,32901
33124,20021,32882
33172,20006,32903
33088,20073,32897
33025,20045,32794
33092,20053,32633
33016,20129,32573
32985,20084,32587
32980,20061,32546
32997,20080,32532
32928,20041,32439
32996,20031,32349
33064,20026,32335
33125,20023,32198
33140,20061,32124
33149,20064,32108
33112,20074,32103
33060,20122,32085
32908,20077,32028
33000,20057,31958
33108,20090,31908
33072,20058,31855
33116,20039,31788
33116,20021,31527
33128,20101,31463
33066,20076,31495
32976,20079,31437
32992,20075,31420
33004,20142,31375
33040,20087,31361
33154,20047,31302
33172,20016,31285
33048,20055,31279
33018,20036,31197
33072,20033,31112
32956,20113,31028
32916,20110,31022
32876,20103,30879
32909,20090,30786
32908,20061,30692
32912,20093,30624
32888,20047,30572
32884,20046,30508
32896,20051,30603
32840,20052,30509
32806,20079,30568
32692,20084,30521
32692,20149,30413
32804,20100,30310
32844,20075,30334
32820,20039,30317
32900,20025,30264
33032,20064,30176
33140,20052,30175
33124,20041,30087
33032,20069,29951
32981,20080,29828
32976,20075,29935
33016,20146,29940
33050,20065,29804
33112,20041,29697
33116,20086,29831
33112,20052,29807
33184,20044,29764
33224,20039,29637
33160,20137,29597
33104,20103,29652
33157,20078,29635
33108,20077,29551
33098,20068,29513
33134,20041,29602
33144,20086,29402
33156,20064,29337
33172,20062,29284
33121,20067,29244
33032,20084,29213
32968,20084,29185
32904,20089,29334
32940,20163,29181
33008,20103,29149
33117,20067,29156
33060,20037,29144
33052,20102,29117
33157,20079,29182
33158,20068,29158
33056,20076,29049
32996,20143,28919
32957,20103,29028
32884,20087,29005
32780,20139,28980
32866,20093,28877
32993,20055,28737
33060,20047,28704
32986,20053,28644
32984,20134,28626
32928,20102,28734
32908,20096,28752
32880,20089,28711
32930,20090,28654
32988,20134,28592
32992,20085,28588
32994,20069,28393
33068,20058,28340
32964,20065,28317
32822,20061,28285
32608,20159,28240
32390,20130,28216
32136,20115,28325
31888,20095,28144
31552,20143,28133
31156,20084,28098
30892,20067,28068
30809,20055,28021
30816,20105,28125
30909,20109,27976
31184,20116,27939
31656,20124,27901
32280,20101,27976
33084,20161,27846
34237,20117,27829
35852,20084,27957
37940,20061,27815
39852,20183,27748
41645,20141,27760
43032,20107,27724
42924,20112,27741
41940,20127,27673
41104,20163,27615
40008,20132,27621
38080,20117,27730
36256,20134,27702
34972,20091,27573
34218,20148,27503
34308,20089,27492
34664,20095,27460
34472,20107,27463
33988,20182,27436
33556,20143,27414
33295,20122,27392
33160,20172,27366
33118,20102,27358
32940,20092,27345
32636,20086,27357
32325,20070,27321
31928,20130,27446
31694,20122,27420
31480,20127,27405
31345,20120,27372
31253,20153,27333
31180,20121,27301
31224,20089,27269
31289,20103,27277
31228,20080,27095
31204,20079,27051
31180,20112,27056
30996,20133,27037
31020,20124,27109
31048,20164,27072
31072,20138,27012
31092,20126,26934
31176,20084,26911
31280,20109,26908
31300,20085,26888
31236,20079,26983
31292,20115,26973
31239,20117,26965
31172,20164,26925
31156,20133,26772
31260,20119,26704
31256,20156,26690
31264,20105,26697
31374,20095,26828
31376,20076,26823
31396,20130,26796
31329,20114,26718
31272,20128,26804
31240,20140,26677
31164,20138,26631
31185,20132,26753
31276,20165,26742
31316,20113,26706
31357,20105,26759
31352,20102,26541
31344,20095,26569
31408,20105,26693
31424,20119,26683
31336,20183,26660
31333,20145,26659
31376,20124,26628
31416,20116,26631
31408,20113,26501
31426,20093,26448
31402,20076,26465
31400,20077,26474
31328,20141,26421
31248,20143,26405
31244,20132,26430
31309,20171,26576
31340,20146,26549
31336,20114,26508
31316,20134,26440
31424,20089,26532
31436,20140,26417
31452,20113,26380
31468,20103,26357
31408,20174,26473
31328,20167,26557
31276,20142,26540
31284,20135,26430
31301,20180,26476
31424,20128,26551
31456,20093,26551
31484,20098,26476
31480,20087,26551
31436,20139,26566
31296,20137,26440
31212,20135,26469
31184,20167,26484
31201,20149,26564
31256,20135,26578
31348,20097,26574
31432,20117,26549
31376,20096,26476
31368,20089,26485
31376,20161,26486
31272,20133,26595
31232,20141,26455
31301,20177,26444
31308,20146,26439
31365,20185,26610
31374,20112,26503
31429,20086,26577
31416,20118,26599
31434,20107,26583
31448,20101,26583
31398,20172,26572
31344,20155,26569
31428,20141,26565
31464,20132,26553
31488,20160,26550
31672,20109,26396
31712,20084,26387
31728,20130,26356
31800,20101,26438
31806,20095,26536
31780,20172,26486
31786,20167,26417
31868,20149,26451
31908,20132,26467
31968,20169,26469
32088,20108,26471
32272,20087,26468
32321,20084,26439
32363,20135,26417
32466,20110,26443
32544,20125,26432
32624,20137,26426
32689,20133,26422
32740,20171,26413
32854,20137,26368
32980,20108,26313
33108,20080,26317
33232,20135,26305
33244,20108,26319
33172,20113,26368
33120,20191,26374
33196,20148,26387
33288,20139,26372
33300,20125,26361
33357,20177,26361
33416,20114,26372
