ECG,EDA,RR
32576,7380,33167
32877,7385,33191
33004,7362,33271
32904,7329,33257
32708,7349,33151
32620,7321,33404
32578,7317,33421
32592,7308,33476
32908,7355,33527
33028,7402,33517
33048,7429,33500
32892,7425,33469
32868,7389,33472
32844,7340,33500
32840,7299,33543
32860,7259,33342
33014,7267,33692
33212,7301,33597
33264,7345,33818
33356,7385,33921
33452,7407,33912
33345,7412,33736
33200,7390,33584
32792,7349,33519
32461,7301,33849
32268,7271,33865
32288,7278,33788
32416,7301,33848
32620,7333,34007
32844,7398,33831
32992,7425,33657
33032,7417,33836
32981,7414,33769
32988,7381,33836
32920,7322,33860
32816,7313,33564
32696,7335,33746
32606,7379,33719
32676,7436,33632
32828,7494,33686
32932,7499,33736
32964,7538,33604
32997,7391,33271
33120,7364,33473
33153,7335,33640
33068,7322,33437
32988,7360,33125
32957,7362,33063
33008,7408,33331
33044,7490,33244
33093,7508,33121
33000,7501,33213
32941,7470,33220
32872,7433,33029
32820,7377,32788
32904,7377,33017
32808,7446,33100
32806,7389,33050
32788,7439,32816
32712,7402,32861
32669,7433,32769
32681,7439,32744
32624,7424,32874
32545,7392,32805
32580,7331,32650
32677,7308,32568
32729,7332,32606
32796,7360,32579
32917,7384,32532
33032,7439,32640
33072,7517,32503
33012,7526,32425
32856,7420,32487
32648,7389,32428
32460,7368,32420
32280,7332,32407
32301,7333,32423
32380,7353,32364
32412,7390,32479
32487,7451,32409
32528,7484,32309
32560,7494,32413
32510,7511,32301
32488,7392,32519
32412,7350,32348
32376,7309,32407
32396,7317,32437
32416,7340,32412
32448,7392,32381
32614,7463,32517
32956,7474,32245
33120,7470,32251
32960,7456,32452
32640,7446,32342
32404,7444,32500
32396,7325,32373
32564,7326,32469
32740,7361,32431
32804,7410,32459
32716,7447,32565
32529,7501,32460
32436,7497,32332
32304,7471,32164
32092,7409,32400
31968,7364,32369
31861,7332,32309
31888,7325,32289
32008,7351,32436
32124,7390,32395
32156,7434,32253
32272,7577,32193
32540,7575,31994
32870,7549,32213
33135,7501,32208
33236,7447,32174
32956,7345,32047
32600,7449,32175
32452,7551,32189
32201,7397,31977
32056,7447,31769
31952,7483,31998
31940,7481,31972
31968,7589,31941
32000,7507,31931
32013,7466,31875
32072,7418,31792
32240,7431,31946
32468,7436,31965
32629,7460,31927
32640,7481,31793
32660,7511,31764
32552,7527,31817
32325,7508,31828
32204,7498,31676
32066,7458,31623
32100,7415,31544
32264,7415,31628
32526,7427,31601
32776,7460,31623
32804,7513,31588
32748,7566,31471
32828,7593,31688
32777,7587,31685
32596,7448,31545
32348,7398,31461
32132,7364,31524
31964,7385,31461
31694,7415,31676
31324,7445,31460
31092,7491,31517
30944,7535,31463
30813,7538,31457
30842,7537,31641
30944,7523,31532
31028,7495,31396
31097,7490,31271
31264,7453,31197
31612,7485,31191
31920,7504,31180
32148,7485,31460
32238,7519,31365
32160,7520,31444
31892,7504,31449
31742,7466,31565
32092,7419,31401
33140,7381,31316
34616,7380,31258
36022,7398,31079
36964,7441,31350
37281,7510,31265
37032,7562,31389
36641,7593,31103
36100,7611,31279
35576,7467,31417
35060,7424,31180
34504,7395,30977
33973,7385,31236
33652,7412,31189
33404,7447,31201
33220,7500,31228
33152,7535,31149
33064,7550,31077
32888,7521,30924
32848,7511,31172
32760,7453,31081
32764,7435,31087
32856,7419,31237
32920,7450,31119
32901,7483,31087
32777,7544,30869
32784,7564,30921
32788,7566,31110
32696,7607,31079
32668,7577,31229
32528,7523,31127
32377,7481,30989
32357,7473,31036
32420,7455,31039
32468,7491,31042
32520,7537,31004
32616,7611,31044
32632,7553,31072
32580,7532,30836
32576,7501,30967
32604,7469,30845
32761,7453,30967
32936,7460,30716
33044,7503,30900
33096,7533,30756
33060,7592,30943
32932,7554,30734
32804,7558,30565
32868,7543,30771
32852,7526,30614
32760,7485,30778
32620,7445,30446
32596,7449,30651
32732,7460,30613
33040,7504,30579
33133,7532,30489
32944,7559,30444
32777,7660,30370
32730,7620,30539
32709,7645,30432
32634,7470,30257
32704,7582,30373
32821,7508,30358
32744,7547,30199
32676,7613,30407
32613,7624,30389
32656,7650,30231
32720,7701,30117
32772,7547,29949
32801,7671,30189
32720,7571,30144
32620,7516,30020
32548,7506,30182
32481,7533,30188
32608,7523,30168
32725,7553,30159
32748,7589,30061
32820,7606,29802
32772,7575,30050
32652,7539,30025
32656,7525,29904
32704,7454,30055
32668,7433,29969
32620,7461,29869
32629,7576,29855
32713,7606,29711
32897,7620,29669
32904,7604,29669
32796,7585,29879
32622,7561,29869
32364,7500,29837
32192,7450,29765
32152,7445,29777
32184,7455,29921
32296,7498,29661
32352,7539,29746
32350,7577,29656
32344,7594,29703
32333,7689,29796
32444,7627,29664
32770,7608,29503
32924,7550,29331
32792,7630,29553
32488,7466,29413
32145,7505,29591
31848,7547,29583
31812,7596,29498
31900,7690,29330
32216,7609,29401
32532,7547,29460
32640,7508,29407
32520,7586,29229
32188,7541,29038
32064,7557,29237
31992,7587,29185
31852,7582,29179
31901,7625,29120
31933,7630,29173
31840,7633,29153
31681,7587,29014
31512,7542,28860
31356,7495,29019
31332,7490,28961
31392,7507,28873
31524,7553,29088
31596,7592,28844
31736,7619,28897
31800,7630,28871
31876,7608,28728
31912,7562,28756
32028,7615,28807
32198,7549,28822
32220,7507,28862
32184,7512,28774
32000,7545,28624
31805,7588,28480
31702,7650,28656
31637,7641,28655
31684,7625,28540
31876,7579,28572
32048,7529,28604
32096,7497,28727
31964,7569,28694
31744,7538,28685
31604,7553,28667
31624,7593,28616
31768,7634,28401
31972,7643,28396
32136,7633,28477
32052,7609,28476
32017,7565,28407
32044,7497,28391
32133,7664,28301
32198,7597,28417
32252,7636,28548
32484,7624,28520
32794,7692,28325
32940,7702,28162
33108,7697,28375
33048,7648,28356
32900,7570,28338
32696,7527,28339
32672,7517,28300
32865,7519,28242
32984,7545,28196
33080,7591,28443
33072,7792,28396
32966,7739,28236
32820,7675,28167
32760,7617,28159
32729,7560,28255
32740,7515,28200
32777,7599,28321
32912,7595,28210
33124,7582,28244
33365,7610,28280
33684,7669,28269
33772,7668,28132
33708,7662,28277
33457,7622,28212
33142,7566,28238
32860,7626,28317
32872,7581,28249
33101,7577,28313
33252,7583,28228
33252,7607,28247
33252,7642,28303
33204,7773,28301
33140,7705,28309
33156,7642,28165
33116,7590,28012
33132,7559,28145
33112,7523,28140
33156,7535,28156
33164,7562,28154
33188,7611,28141
33296,7719,28110
33441,7686,28034
33572,7681,28212
33760,7641,28217
33972,7581,28240
34060,7621,28291
34056,7579,28203
33788,7560,28121
33648,7589,28160
33438,7612,28129
33332,7770,28087
33212,7710,28104
33080,7667,28199
32916,7626,28284
32800,7673,28279
32704,7601,28207
32748,7556,28096
32880,7574,28112
33032,7588,28036
33172,7620,28157
33224,7664,28191
33292,7673,28135
33305,7658,28141
33310,7641,28268
33336,7718,28292
33376,7638,28157
33440,7597,28061
33568,7571,28060
33772,7618,28304
33976,7621,28305
33940,7796,28115
33760,7771,28353
33728,7727,28271
33596,7668,28546
33576,7627,28445
33532,7561,28354
33470,7664,28388
33472,7635,28268
33572,7671,28527
33452,7669,28527
33328,7693,28529
33365,7702,28570
33342,7679,28535
33228,7651,28519
33206,7698,28688
33113,7617,28766
33024,7578,28789
33056,7583,28668
33340,7599,28701
33516,7641,28701
33624,7769,28689
33708,7749,28620
33704,7745,28821
33492,7688,28847
33264,7649,28783
33104,7581,28836
33168,7558,28964
33312,7573,28999
33324,7755,29039
33336,7726,29030
33572,7744,28978
33756,7731,28996
33760,7711,29028
33860,7675,28868
33817,7635,28868
33692,7671,28871
33660,7645,28876
33576,7621,28783
33460,7633,28796
33449,7673,28972
33338,7705,28767
33272,7812,28804
33249,7747,28975
33180,7697,28992
33180,7671,28896
33129,7596,28974
33096,7570,29084
33180,7593,29054
33260,7705,29116
33272,7679,29149
33313,7720,29100
33373,7728,29092
33356,7721,29110
33292,7765,29032
33226,7735,29037
33174,7663,28909
33148,7637,28838
33188,7630,28770
33252,7659,28768
33268,7669,28998
33456,7717,29023
33788,7734,28968
34140,7880,28884
34188,7777,29078
33933,7727,29149
33559,7632,29151
33124,7618,29172
32760,7605,29167
32580,7632,29179
32612,7749,29092
32696,7764,29062
32808,7764,29149
32928,7767,29076
33145,7700,29133
33444,7668,28992
33329,7734,28863
33164,7686,29125
33052,7659,29120
32948,7669,29156
32748,7674,29149
32548,7757,29065
32492,7756,29169
32416,7740,29113
32408,7712,29109
32356,7758,29138
32450,7688,29055
32520,7653,29259
32608,7632,29269
32744,7674,29255
32852,7688,29191
32928,7733,29314
33028,7749,29464
33080,7821,29429
33032,7775,29262
32880,7707,29197
32740,7647,29276
32708,7606,29297
32788,7771,29234
32864,7719,29247
33100,7722,29399
33384,7770,29420
33550,7767,29437
33460,7748,29437
33204,7785,29461
32954,7714,29447
32712,7634,29461
32620,7731,29446
32640,7664,29471
32748,7683,29457
32884,7692,29255
32992,7808,29301
33076,7808,29513
33080,7772,29500
33132,7739,29277
33124,7790,29432
33100,7695,29441
32916,7640,29311
32880,7638,29406
32904,7659,29430
32948,7815,29348
32996,7834,29319
33006,7821,29413
32892,7795,29481
32812,7737,29558
32772,7786,29558
32748,7709,29542
32760,7647,29570
32796,7638,29648
32928,7668,29567
33029,7818,29588
33088,7839,29485
33084,7829,29722
33172,7836,29599
33276,7810,29805
33188,7731,29780
33108,7673,29728
32941,7639,29927
32672,7729,29878
32456,7736,29943
32476,7749,29969
32492,7779,29976
32604,7786,29935
32764,7787,29849
32928,7750,29988
32988,7840,29964
33180,7759,29824
33373,7717,29679
33412,7692,29951
33260,7725,29949
32985,7739,29981
32734,7801,29861
32624,7816,29940
32464,7794,30020
32468,7860,30100
32568,7890,30053
32680,7796,29942
32801,7743,30068
33186,7718,30096
33504,7719,30105
33504,7740,30140
33288,7789,30134
33140,7902,30124
33032,7878,30087
32720,7811,30221
32396,7778,30343
32389,7703,30358
32528,7675,30297
32709,7797,30178
32836,7779,30164
32960,7770,30288
33088,7813,30343
33012,7838,30244
32824,7831,30407
32692,7793,30505
32700,7862,30417
32624,7817,30220
32706,7760,30471
32720,7777,30356
32824,7801,30647
32972,7837,30573
33113,7868,30501
33324,7863,30418
33504,7844,30416
33716,7813,30424
33440,7843,30400
32980,7772,30696
32769,7725,30692
32772,7719,30751
32828,7735,30783
32761,7880,30809
32564,7907,30821
32385,7921,30845
32228,7881,31036
31976,7840,30948
31868,7809,30820
31686,7754,31010
31439,7746,31017
31252,7740,30948
31196,7751,31151
31196,7818,31081
31224,7839,30951
31200,7937,31239
31232,7927,31288
31400,7878,31364
31388,7830,31397
31736,7815,31391
32036,7753,31428
32045,7767,31598
32092,7775,31555
31958,7804,31581
31720,7933,31733
31752,7948,31833
32036,7926,31871
32889,7877,31852
34268,7827,32052
35796,7796,32216
36972,7727,32278
37520,7750,32149
37464,7764,32076
37028,7812,32349
36456,7857,32311
35904,7885,32409
35412,7881,32647
34840,7970,32756
34228,7921,32695
33626,7876,32687
33128,7846,32669
32860,7846,32816
32824,7862,32903
33148,7879,32964
33520,7931,32949
33769,7920,32997
33760,7916,33040
33512,7910,33175
33137,7876,33299
32736,7812,33287
32380,7771,33202
32093,7771,33220
32080,7931,33063
32172,7976,33421
32288,7972,33414
32312,8005,33410
32333,7999,33559
32321,7948,33563
32332,7873,33633
32256,7840,33767
32198,7785,33719
32260,7788,33725
32389,7898,33658
32456,7928,33521
32550,8028,33781
32670,7934,33831
32716,7926,33978
32670,8010,33908
32560,7959,33846
32536,7887,33828
32572,7847,33917
32660,7845,33910
32656,7868,33828
32784,7880,33843
33048,7942,34009
33216,7967,34029
33188,7953,33925
33088,7919,33752
32936,7883,33719
32621,7900,33793
32270,7825,33917
32072,7838,33884
32004,7860,33911
31888,7901,33798
31924,7954,33895
32000,7982,33934
32132,7968,33932
32248,7935,33892
32232,7895,33597
32229,7846,33872
32224,7820,33869
32312,7817,33844
32389,7842,33823
32512,7887,33780
32540,7994,33775
32565,7992,33444
32480,7963,33626
32436,8084,33602
32460,7992,33554
32480,7933,33311
32464,7873,33261
32432,7861,33231
32268,7862,33477
32188,7895,33436
32196,7946,33292
32216,7977,33317
32224,7981,33462
32200,7959,33375
32196,8032,33245
32252,7951,33239
32337,7882,33193
32384,7878,33161
32420,7887,33092
32415,7909,33045
32432,7959,32853
32600,8153,32769
32613,8073,32704
32444,8007,32692
32244,7957,32590
32092,7905,32573
31984,7859,32653
31848,8008,32631
31704,7963,32501
31572,7958,32472
31504,7999,32398
31560,8006,32271
31662,8009,32320
31788,8055,32172
31908,7964,32049
32013,7908,31965
31973,7958,31936
31840,7913,31911
31836,7925,31838
31957,7972,31729
32008,7988,31681
31968,8025,31596
31888,8127,31692
31919,8075,31580
31836,8006,31453
31800,7960,31440
31864,7888,31430
31980,7998,31399
32200,7993,31286
32420,7991,31244
32445,8031,31230
32264,8041,31145
32048,8043,31130
31776,8021,31128
31556,8151,31203
31496,8037,31164
31740,7953,31135
32036,7936,30967
32148,7956,30923
32088,8004,30877
32016,8025,30840
32100,8060,30727
32220,8203,30644
32256,8096,30682
32048,8049,30567
31604,7985,30537
31372,7954,30448
31432,7933,30377
31564,7962,30345
31788,7988,30172
32148,8126,30261
32617,8135,30231
32928,8148,30162
32928,8108,30143
32752,8042,30109
32631,7999,30196
32292,7947,30167
32132,7948,30024
32000,8110,29956
31848,8082,29869
31834,8132,29837
31888,8125,29816
31956,8129,29778
31889,8084,29749
31996,8056,29703
32217,8012,29795
32308,7975,29724
32288,7975,29720
32328,8007,29676
32392,8054,29644
32552,8097,29703
32680,8149,29687
33116,8195,29644
33892,8137,29664
34372,8089,29686
34208,8035,29686
33760,7999,29719
33200,7975,29736
32609,8006,29753
32092,8127,29756
31936,8155,29692
31996,8193,29698
31964,8169,29840
32060,8127,29895
32186,8106,29975
32298,8053,30036
32504,7999,30032
32624,7996,30095
32885,8114,30149
33132,8130,30087
33184,8154,30084
33224,8203,30069
33376,8170,30110
33380,8146,30188
33196,8098,30284
33185,8189,30329
33468,8079,30468
33572,8052,30594
33464,8054,30663
33381,8107,30599
33268,8154,30621
33270,8185,30598
33796,8183,30573
34320,8158,30904
34796,8117,30730
35240,8076,30805
34940,8047,31148
34240,8041,31239
33225,8053,31331
32456,8099,31406
32256,8144,31477
32260,8332,31580
32368,8243,31655
32306,8196,31724
32100,8164,31566
31965,8093,31707
31804,8145,31874
31905,8093,31973
32156,8091,32031
32429,8110,32207
32637,8280,32399
32796,8269,32455
33034,8243,32445
33200,8224,32581
33304,8191,32530
33340,8120,32509
33346,8146,32538
33508,8164,32391
33913,8163,32433
34556,8206,32764
35460,8255,32767
36184,8273,32988
35728,8258,32868
34201,8232,32876
32344,8178,32910
31196,8140,32768
30860,8182,32741
31134,8134,33063
31486,8140,33113
31936,8163,33042
32496,8223,33212
32864,8242,33341
33060,8251,33390
32896,8234,33210
32692,8215,33303
32512,8170,33279
32568,8121,33484
32632,8111,33439
32720,8132,33196
32884,8169,33449
32940,8268,33551
32962,8265,33485
33148,8348,33263
33228,8301,33607
33460,8276,33614
33404,8254,33703
33320,8186,33626
33052,8145,33457
32944,8169,33759
33272,8219,33724
33844,8248,33845
34508,8295,33841
34692,8292,33704
34716,8279,33885
34541,8237,33882
34300,8299,33884
34212,8276,33937
33716,8285,34071
32992,8261,34036
32696,8270,34015
32520,8303,33927
32468,8327,33922
32536,8355,34037
32816,8331,33988
33316,8286,34152
33540,8243,34084
33250,8200,34016
32873,8191,33821
32881,8216,33836
33156,8234,33860
33472,8400,33861
33544,8398,33925
33224,8356,34050
32838,8353,34265
32616,8319,34291
32680,8282,34273
32612,8208,34295
32614,8205,34353
32869,8304,34543
33292,8294,34649
33460,8325,34588
33624,8380,34585
33904,8392,34332
34100,8367,34694
34429,8336,34643
34972,8304,34949
35912,8236,34991
36372,8227,34976
35492,8246,34921
33917,8287,34938
33084,8437,34905
32544,8466,35109
32352,8473,35148
31992,8440,35097
31557,8374,35245
31396,8343,35362
31484,8287,35374
31884,8280,35246
32172,8315,35436
32480,8325,35412
32544,8363,35647
32688,8415,35499
32808,8431,35591
32728,8475,35593
32668,8433,35804
32588,8364,35682
32620,8330,35793
32692,8309,35750
32804,8345,35830
32912,8368,35929
33016,8421,36145
33100,8465,35943
33212,8493,36126
33272,8464,36055
33217,8441,36244
33144,8397,36385
33152,8363,36424
33272,8356,36359
33484,8373,36071
33604,8391,36487
33340,8452,36420
33216,8492,36677
33110,8509,36635
33148,8506,36352
33252,8477,36639
33188,8433,36757
33104,8383,36871
33168,8382,36743
33548,8407,36797
33716,8420,36839
33352,8461,36521
32796,8553,36556
32277,8534,36947
31856,8531,36988
31868,8495,36936
32000,8449,37142
32172,8391,37200
32640,8481,37241
32994,8484,37209
32864,8490,37158
32873,8517,37223
33124,8570,37149
33569,8573,37152
33685,8538,37042
33356,8512,37287
32805,8564,37350
32324,8485,37362
31984,8441,37399
31568,8466,37375
31328,8482,37397
31426,8524,37467
31640,8569,37639
31956,8589,37721
32312,8581,37623
32256,8645,37596
32248,8588,37753
32373,8532,37828
32256,8484,37837
32120,8498,37819
32332,8505,37958
32552,8554,38188
32520,8705,38255
32193,8679,38221
32088,8666,38151
31765,8613,37984
31752,8559,38313
32000,8527,38375
32448,8484,38431
32480,8591,38479
32472,8561,38237
32474,8613,38218
32372,8668,38636
32220,8664,38677
32392,8653,38689
32484,8698,38676
32492,8619,38723
32380,8569,38821
32336,8558,38967
32072,8548,39123
31720,8587,39095
31414,8704,39156
31336,8737,39087
31464,8729,39125
31960,8724,39031
32384,8662,38991
32752,8625,39076
33036,8644,39149
33060,8596,39056
32821,8609,39509
32380,8645,39671
31908,8693,39696
31560,8746,39303
31508,8758,39807
31772,8753,39836
32060,8708,40092
32309,8669,40117
32671,8613,40096
32840,8618,40199
32886,8631,40199
33332,8672,40495
33872,8711,40045
33908,8763,40527
33717,8783,40551
33453,8773,40829
32856,8741,40981
32288,8709,40900
31924,8660,40936
31544,8740,40772
31437,8743,41180
31840,8766,41265
32224,8807,41302
32352,8866,41589
32400,8862,41668
32660,8823,41671
32868,8807,41556
32884,8773,41785
32996,8719,41956
33676,8695,42023
34192,8701,42087
34164,8726,42342
34000,8771,42484
33612,8826,42420
32896,8967,42143
32340,8991,42588
32164,8807,42711
32060,8772,42881
31872,8726,43015
32220,8855,43033
32508,8798,43096
33320,8805,43271
34300,8845,43399
34860,8881,43365
34516,8892,43568
33561,8898,43709
32640,8839,43801
32314,8802,43887
32141,8809,43964
32076,8760,44039
32156,8761,44017
32342,8787,44068
32420,8920,43907
32521,8945,43948
32608,8932,44303
32744,8916,44380
32928,8878,44484
33152,8829,44565
32901,8785,44489
32206,8842,44624
31400,8841,44569
31312,8852,44740
31633,8883,44667
31848,8936,44841
32257,8981,44764
32041,8945,44900
31476,8905,44949
31076,8880,44872
30870,8809,44837
30816,8797,45137
31084,8806,45045
31705,8836,45191
31992,8879,45144
31868,9069,44993
32000,9035,45353
32904,8985,45430
33864,8960,45310
35084,8940,45479
36308,8919,45308
37072,8895,45488
37584,8878,45620
38988,8872,45671
39992,8920,45719
39864,8965,45700
38300,8968,45698
36412,8966,45764
34572,9062,45869
33412,9056,45844
32912,8993,45812
32534,8839,45727
32448,8849,46065
32926,9037,46125
33434,8985,46151
33408,9032,46137
33365,9018,46126
33344,9023,46182
33312,8979,46244
33588,8944,46372
33852,8879,46413
33464,8971,46463
32532,8924,46500
31908,8945,46544
31968,8985,46584
32280,9036,46599
32900,9037,46577
33488,9030,46552
33580,9000,46383
33444,9044,46589
33516,8987,46734
33672,8973,46855
33524,8966,46801
33504,9017,46796
33704,9030,46924
33836,9054,46884
33532,9087,46962
33336,9050,46941
33322,9111,46945
33544,9060,46993
33716,8965,47056
34136,8959,47104
34684,8963,47079
34636,9052,47111
34464,9052,47140
34205,9101,47169
33816,9125,47178
33332,9093,47180
33096,9063,47207
32680,9026,47236
32373,9061,47239
32700,9036,47132
33872,9040,46949
34784,9057,46961
34716,9063,47325
34196,9117,47449
33980,9142,47436
33912,9129,47404
34064,9080,47495
34016,9094,47444
33796,9030,47297
33764,8982,47397
33852,9120,47533
33988,9078,47554
33948,9078,47521
33560,9146,47456
33025,9143,47512
32637,9215,47573
32640,9132,47559
33516,9092,47560
34528,9023,47545
35624,9089,47504
36656,9057,47445
36581,9076,47357
35645,9081,47405
34681,9204,47361
33572,9183,47469
32657,9165,47508
31952,9285,47513
31320,9124,47468
31124,9063,47380
31294,9019,47360
32028,9039,47337
32540,9126,47297
32676,9136,47328
32548,9169,47291
32268,9188,47260
32136,9183,47225
31938,9218,47215
31832,9156,47228
32248,9097,47269
32885,9055,47245
33209,9062,47236
33977,9079,47126
34588,9187,47145
34824,9208,47096
34384,9222,47106
33344,9224,47140
32000,9201,47141
30676,9138,47117
30173,9089,47100
30216,9063,47056
30316,9075,47017
30852,9188,46981
31173,9211,46964
31248,9240,46836
31484,9253,46980
31664,9248,47036
31900,9191,47041
31952,9154,47049
31692,9111,46961
31820,9077,47036
31984,9244,47017
31788,9212,46949
31925,9223,46892
33204,9271,46679
34104,9296,46976
34504,9301,46977
33797,9267,46943
32677,9235,46991
30776,9185,46836
29504,9163,46980
28964,9144,46869
29212,9188,46970
29712,9220,46807
30266,9259,46501
30261,9279,46929
29932,9285,46868
29908,9275,46757
30024,9229,46409
30352,9179,46809
30710,9156,46775
30840,9152,46719
30848,9180,46652
31476,9219,46668
32484,9269,46720
33312,9308,46617
33872,9316,46575
33676,9284,46595
32692,9287,46396
31584,9303,46544
31073,9155,46528
31068,9231,46479
31517,9187,46335
32276,9221,46388
32720,9281,46309
32776,9313,45992
32384,9335,46277
32344,9298,46173
32121,9262,46172
31664,9213,46077
31397,9182,45925
31325,9189,45823
31396,9233,45607
31560,9266,45948
31754,9332,45822
31964,9380,45732
32488,9391,45605
33200,9350,45544
33734,9329,45365
34015,9293,45485
34780,9255,45409
35624,9366,45376
35792,9216,45183
35240,9260,45177
34014,9428,45110
32584,9483,45018
31356,9412,44872
30700,9377,44522
30484,9345,44804
30508,9334,44628
30724,9317,44636
31188,9209,44407
31633,9239,44469
32000,9291,44295
32468,9348,44277
33076,9390,44184
33516,9376,44105
33661,9356,43909
33484,9333,43981
33100,9335,43671
32560,9312,43791
32357,9231,43565
32540,9256,43616
32768,9324,43108
33028,9375,43435
33392,9397,43209
33848,9433,43234
34036,9358,42759
33812,9324,43015
33284,9285,42908
32718,9267,42801
32302,9279,42692
32224,9340,42526
32492,9409,42517
32776,9377,42409
32956,9423,42029
33012,9440,42153
33104,9412,41981
33137,9409,42095
32885,9400,41863
32584,9278,41692
32340,9279,41140
32288,9330,41461
32352,9364,41519
32577,9449,40863
32757,9435,41084
32916,9437,41254
32948,9446,40871
32944,9390,40880
32952,9364,40783
32892,9341,40669
32869,9389,40508
32892,9415,40361
32960,9455,40277
33044,9510,40326
33036,9466,40259
33040,9464,40062
33168,9441,39856
33741,9401,39479
34508,9353,39685
34560,9331,39476
34156,9362,39589
33854,9391,39266
33340,9466,39174
33237,9563,39023
32784,9484,38821
32285,9512,38792
31880,9481,38407
31844,9453,38506
31912,9439,38263
31840,9351,38244
31832,9357,37708
31848,9408,37934
31888,9445,37679
32026,9536,37753
32166,9580,37583
32377,9577,37229
32448,9626,36893
32588,9532,37119
32716,9413,36933
32773,9381,36975
32676,9385,36801
32560,9413,36549
32549,9517,36413
32545,9569,36053
32512,9607,36291
32456,9622,36148
32364,9623,35953
32301,9488,36082
32193,9444,36005
32169,9407,35709
32152,9409,35494
32096,9438,35558
32080,9490,35391
32064,9542,35489
32169,9604,35264
32224,9588,34816
32196,9573,35044
32168,9545,34805
32092,9504,34913
32054,9454,34784
31996,9472,34617
32012,9505,34372
32037,9531,34206
32036,9594,34071
31992,9620,33996
31908,9622,33848
31704,9647,33732
31592,9554,33452
31308,9507,33360
31085,9501,33076
31080,9491,33166
31085,9548,32829
31072,9632,32399
31140,9738,32532
31304,9743,32356
31400,9637,32207
31476,9617,32085
31520,9609,31689
31500,9548,31693
31520,9521,31493
31548,9535,31469
31624,9591,31159
31680,9667,30818
31772,9622,30884
31948,9665,30870
32088,9681,30529
32172,9660,30278
32314,9623,30356
32436,9585,30212
32484,9546,30010
32652,9561,30044
32848,9578,29911
33232,9613,29674
33816,9684,29444
34204,9724,29583
34505,9727,29485
34844,9719,29309
35020,9708,29447
34900,9677,29236
34408,9660,29061
33932,9691,28909
33540,9595,29041
33277,9646,28874
32992,9701,28993
32801,9740,28798
32824,9765,28767
32878,9716,28756
32924,9688,28833
33088,9645,28836
33228,9612,28791
33340,9601,28837
33460,9652,28951
33508,9694,29054
33568,9743,28980
33564,9789,28943
33526,9783,28935
33460,9764,29180
33421,9732,29241
33428,9685,29244
33460,9649,29516
33460,9661,29676
33484,9691,29775
33476,9706,29897
33412,9757,29925
33388,9798,29953
33388,9810,30058
33400,9866,30098
33404,9834,30481
33440,9787,30617
33476,9715,30773
33463,9708,30841
33472,9720,30983
33480,9763,31205
33454,9873,31434
33376,9922,31585
33272,9927,31657
33109,9913,32089
32964,9861,32236
32889,9801,32335
32872,9743,32530
32784,9740,32596
32681,9771,32814
32660,9786,33068
32630,9839,33132
32613,9881,33183
32576,9890,33441
32480,9869,33612
32424,9840,33724
32409,9796,33950
32392,9762,34210
32424,9762,34259
32420,9792,34308
32388,9828,34464
32388,9884,34689
32340,9927,34813
32278,10067,34917
32209,9914,35053
32144,9882,35372
32132,9838,35323
32116,9799,35538
32100,9812,35599
32116,9857,35775
32172,9882,36079
32180,9935,36133
32140,9982,36142
32132,10002,36212
32142,9971,36256
32152,9948,36456
32188,9901,36572
32188,9871,36636
32236,9851,36702
32254,9873,36692
32260,9912,37028
32376,9960,36900
32376,10009,36987
32388,10007,37038
32304,9991,37045
32028,9961,37012
31952,10028,37141
31740,9977,37284
31632,9957,37247
31480,10008,37194
31140,10015,37127
30520,10062,37153
30368,10113,36951
30244,10131,37250
30132,10096,37301
30661,10046,37335
31486,9995,37360
32260,9932,37380
32788,9938,37439
32844,9959,37671
32908,10005,37866
33216,10051,37947
33377,10087,37917
33476,10103,37709
33765,10100,38233
33905,10071,38333
33996,10017,38436
34040,9967,38744
33940,9949,38948
33729,9973,39219
33564,10096,39396
33368,10144,39477
33132,10147,39669
32912,10147,39647
32724,10124,40325
32656,10081,40607
32622,10035,40789
32614,9995,41388
32708,9988,41606
32780,10018,41749
32768,10127,42103
32728,10185,42247
32600,10204,42468
32189,10182,42853
31764,10176,43497
31472,10139,43892
31384,10099,44032
31348,10063,44396
31556,10032,44729
32208,10052,45044
32996,10087,45319
33481,10228,45564
33476,10252,45852
33120,10243,46105
32980,10196,46380
33212,10180,46608
33295,10127,46697
32721,10084,46940
32192,10074,47020
31848,10089,47367
31937,10129,47972
32124,10178,48228
32344,10227,48460
32360,10243,48606
32236,10314,48844
31858,10283,49063
31280,10213,49363
30760,10246,49513
30348,10110,49788
30062,10188,50023
30248,10185,50239
30400,10228,50436
30794,10272,50564
31296,10327,50860
31548,10285,51079
31528,10260,51172
31425,10198,51424
31252,10248,51230
30628,10172,51741
30260,10195,51913
30424,10212,51807
31408,10255,52052
33096,10396,52140
35152,10365,52214
36918,10341,52860
37664,10298,53012
37428,10244,53237
36620,10204,53420
35684,10211,53460
34820,10225,53599
34060,10277,53749
33488,10309,53980
32956,10373,54072
32880,10377,54135
33192,10340,54311
33616,10395,54428
33504,10293,54529
33336,10260,54620
33004,10233,54653
32382,10255,54684
31692,10366,54407
31108,10371,54781
30836,10409,54914
30944,10434,55022
31456,10413,55100
32393,10392,55081
33360,10342,55093
33824,10287,55220
33400,10278,55242
32852,10309,55261
32553,10338,55143
32356,10396,55380
32238,10443,55391
32032,10467,55479
31868,10447,55463
31604,10420,55476
31348,10380,55559
31328,10342,55502
31584,10335,55559
31896,10361,55620
32012,10404,55414
31936,10470,55633
31152,10519,55684
30341,10544,55592
29964,10531,55576
29976,10517,55543
30204,10500,55620
30912,10471,55652
32370,10476,55558
34044,10485,55454
34192,10529,55532
33728,10566,55503
33248,10629,55420
32908,10620,55336
32608,10577,55300
32248,10546,55340
31837,10517,55325
31673,10460,55249
31560,10444,55169
31524,10469,55046
31477,10511,55096
31480,10584,54943
31584,10637,55007
31600,10659,54869
31596,10663,54791
31496,10639,54784
31426,10601,54655
31392,10531,54628
31384,10519,54628
31495,10543,54540
31608,10592,54439
31692,10636,54344
31780,10678,54183
31716,10709,54143
31408,10691,54165
31224,10661,54013
31224,10628,53964
31336,10599,53943
31576,10580,53820
32124,10591,53632
32848,10625,53349
33096,10676,53447
32992,10729,53420
32824,10752,53328
32636,10736,53156
32488,10802,53047
32420,10743,52896
32380,10682,52879
32408,10675,52700
32468,10682,52117
32496,10705,52436
32542,10757,52263
32516,10800,52169
32472,10839,52036
32413,10828,51807
32452,10782,51610
32392,10746,51335
32298,10689,51263
32268,10673,51026
32272,10778,50895
32333,10738,50759
32376,10778,50567
32385,10904,50398
32380,10896,50149
32360,10860,49997
32276,10813,49724
32176,10776,49592
32124,10732,49399
32084,10777,49173
32032,10770,48935
31997,10797,48645
32356,10849,48445
32540,10897,47908
32584,10948,48044
32552,10961,47789
32449,10935,47576
32384,10895,47193
32368,10844,47127
32332,10817,46921
32268,10833,46633
32276,10878,46424
32314,10939,46212
32316,11033,45831
32237,10946,45783
32144,10936,45477
32024,10905,45221
31928,10870,45104
31840,10825,44828
31765,10821,44574
31760,10889,44250
31748,10886,43884
31768,10936,44073
31770,10988,43852
31741,10996,43597
31772,10988,43305
31780,10963,43024
31741,10926,42828
31668,10980,42663
31644,10943,42571
31660,11023,42182
31670,10919,41936
31640,10972,41776
31604,11030,41437
31521,11092,41414
31509,11111,41216
31436,11153,40652
31356,11052,40612
31444,10982,40380
31732,10953,40033
32024,10960,40044
32444,10990,39716
32753,11047,39447
32868,11078,39175
32992,11100,38884
32985,11175,38425
32796,11125,38525
32628,11060,38268
32501,11017,37991
32436,10999,37949
32452,11003,37675
32436,11036,37321
32404,11082,37164
32364,11133,36828
32316,11157,36848
32212,11157,36441
32140,11128,36311
32116,11090,35975
32096,11046,36001
32160,11029,35676
32144,11138,35392
32137,11155,34975
32212,11180,35060
32264,11226,34834
32312,11258,34522
32321,11233,34413
32284,11211,34357
32296,11165,34108
32276,11116,33799
32285,11104,33435
32314,11135,33172
32382,11142,32860
32458,11184,32885
32516,11242,32676
32513,11336,32428
32476,11317,32196
32433,11267,31952
32416,11227,31721
32440,11178,31485
32412,11145,31195
32394,11169,30945
32356,11186,30706
32316,11237,30420
32264,11349,30185
32236,11337,29945
32196,11336,29631
32168,11331,29604
32096,11287,29284
31992,11223,28884
31965,11200,28587
31972,11225,28327
32016,11241,28101
32028,11358,27921
32069,11397,27692
32096,11420,27415
32092,11401,27365
32085,11360,27119
32093,11319,26884
32108,11268,26743
32148,11232,26469
32164,11247,26384
32220,11286,26188
32292,11399,26004
32342,11453,25664
32360,11467,25471
32348,11448,25289
32372,11404,25164
32352,11363,25140
32332,11315,24911
32368,11306,24929
32544,11311,24759
32706,11333,24562
32741,11372,24400
32790,11555,24372
32812,11463,24077
32812,11461,23940
32773,11429,23808
32799,11405,23708
32868,11350,23589
32933,11473,23544
33016,11478,23431
33100,11394,23298
33140,11435,23193
33167,11495,23104
33160,11513,23021
33145,11513,23078
33116,11489,22994
33104,11460,22913
33184,11413,22800
33320,11493,22708
33448,11466,22660
33520,11461,22590
33608,11504,22519
33688,11564,22438
33700,11602,22372
33748,11622,22220
33812,11629,22303
33808,11600,22242
33900,11575,22149
33968,11535,22084
34068,11549,21999
34208,11580,21916
34358,11618,21797
34508,11679,21685
34556,11691,21639
34564,11671,21604
34584,11629,21568
34548,11607,21498
34520,11549,21448
34532,11529,21392
34624,11532,21354
34704,11576,21327
34784,11621,21289
34808,11663,21251
34828,11692,21308
34772,11685,21259
34708,11665,21122
34716,11628,21004
34724,11588,20945
34720,11652,20948
34716,11657,21023
34680,11658,20999
34589,11694,20934
34496,11753,20891
34456,11770,20825
34532,11781,20636
34688,11743,20591
34720,11718,20658
34553,11663,20589
34404,11616,20401
34280,11626,20362
34208,11664,20311
34272,11702,20296
34311,11895,20272
34384,11839,20216
34536,11816,20055
34660,11797,19958
34724,11732,19963
34704,11687,20036
34692,11759,19983
34616,11728,19887
34596,11730,19725
34616,11788,19716
34632,11844,19684
34591,11866,19515
34520,11865,19443
34412,11838,19380
34308,11787,19361
34264,11735,19243
34212,11722,19234
34172,11727,19153
34112,11761,19100
34128,11808,19002
34202,11941,18928
34232,11958,18841
34208,11948,18749
34136,11909,18593
34032,11869,18500
33978,11822,18487
34029,11783,18383
34100,11812,18252
34157,11826,18169
34220,11861,18081
34268,11913,17974
34222,12073,17879
34108,12024,17721
34024,11983,17596
34008,11950,17549
34001,11881,17380
34016,11838,17214
34056,11864,17147
34100,11893,17031
34156,11921,16932
34176,11971,16785
34224,11999,16675
34268,12005,16629
34264,11977,16503
34232,11943,16364
34176,11974,16245
34152,11928,16109
34144,11922,15992
34196,11936,15854
34173,11997,15716
34116,12031,15577
34072,12060,15439
34013,12063,15282
33935,12033,15145
33884,12001,14982
33829,11957,14909
33848,11931,14749
33957,11938,14491
34016,11983,14389
33974,12018,14277
33956,12077,14118
34048,12115,13988
34126,12114,13814
34152,12171,13687
34132,12127,13555
34112,12073,13394
34120,12034,13201
34106,12038,13031
34064,12103,12861
34144,12178,12708
34192,12235,12567
34212,12177,12403
34248,12175,12229
34268,12228,12085
34180,12181,11921
34080,12093,11772
34060,12065,11630
34100,12076,11469
34128,12114,11323
34112,12196,11177
34152,12260,11045
34233,12228,10902
34272,12233,10758
34260,12234,10611
34280,12196,10478
34232,12174,10357
34228,12163,10224
34180,12186,10073
34228,12151,10007
34240,12197,9892
34236,12259,9781
34160,12292,9680
34132,12296,9580
34060,12273,9484
34036,12315,9398
33981,12253,9302
33932,12227,9220
33920,12239,9103
33924,12320,9026
33876,12255,8935
33820,12312,8840
33800,12353,8817
33692,12360,8804
33560,12360,8707
33469,12322,8609
33390,12279,8576
33260,12284,8465
33148,12300,8408
33044,12369,8383
32933,12318,8350
32804,12374,8321
32585,12477,8262
32280,12489,8210
32084,12489,8154
31864,12487,8097
31584,12381,8042
31436,12381,7980
31316,12354,7922
31196,12373,7862
31120,12387,7797
31076,12447,7680
31012,12482,7678
30992,12484,7632
30885,12471,7540
30784,12447,7447
30520,12409,7375
30294,12396,7370
30480,12428,7281
31301,12385,7236
32673,12423,7292
34384,12482,7274
36048,12541,7202
37160,12546,7151
37476,12549,7134
37188,12518,7068
36628,12474,7176
36012,12460,7212
35365,12403,7181
34872,12433,7148
34276,12478,7153
33752,12527,7166
33320,12689,7218
32988,12655,7270
32764,12666,7309
32552,12521,7375
32396,12478,7416
32412,12517,7571
32400,12495,7601
32420,12533,7688
32409,12566,7787
32400,12618,7866
32368,12670,7977
32325,12680,8106
32312,12661,8173
32236,12649,8261
32176,12569,8469
32096,12569,8598
32112,12572,8739
32076,12641,8880
32076,12575,8976
32100,12637,9107
32056,12684,9269
32032,12695,9436
31976,12667,9572
31954,12630,9699
31948,12590,9865
31932,12559,10052
31964,12571,10198
32016,12626,10325
32056,12668,10462
32064,12715,10605
32076,12772,10765
32028,12798,10881
32016,12707,11038
32004,12689,11181
31934,12632,11302
31864,12599,11433
31824,12614,11562
31744,12654,11691
31748,12694,11817
31768,12753,11949
31760,12789,12073
31744,12798,12197
31704,12782,12300
31672,12749,12421
31714,12733,12555
31712,12701,12678
31732,12640,12796
31756,12676,12901
31812,12711,13024
31852,12774,13163
31888,12833,13264
31841,12833,13346
31808,12805,13452
31751,12776,13540
31716,12732,13659
31692,12679,13753
31724,12679,13855
31736,12777,13952
31788,12807,14057
31796,12830,14161
31862,12865,14268
31844,12852,14407
31792,12831,14509
31753,12853,14639
31728,12775,14726
31662,12740,14862
31628,12720,14928
31648,12747,15075
31708,12791,15160
31676,12839,15252
31680,12884,15356
31680,12893,15441
31704,12871,15546
31728,12937,15609
31713,12902,15718
31732,12756,15829
31732,12758,15908
31744,12856,15957
31712,12872,16029
31661,12901,16126
31660,12945,16268
31616,12952,16293
31537,12943,16420
31508,12908,16510
31540,12849,16442
31557,12812,16522
31572,12821,16615
31612,12838,16749
31596,12872,16833
31568,12933,16965
31544,12977,17041
31472,12980,17100
31396,12958,17152
31324,12924,17236
31272,12885,17376
31332,12903,17436
31406,12890,17503
31422,12930,17410
31485,12997,17575
31532,13063,17719
31573,13021,17774
31558,13026,17826
31444,13065,17964
31472,13019,18057
31484,12992,17983
31544,12949,18122
31580,12938,18189
31616,12952,18268
31668,12995,18380
31700,13077,18538
31716,13119,18610
31716,13127,18622
31596,13124,18816
31534,13087,18719
31585,13044,18832
31656,13052,19028
31708,12946,19033
31736,12976,19202
31792,13022,19148
31820,13103,19311
31860,13131,19317
31912,13156,19487
31968,13151,19338
31920,13136,19461
31828,13150,19621
31820,13000,19636
31892,13004,19620
31956,13046,19621
31973,13094,19819
32033,13164,19828
32064,13209,19820
32084,13202,19863
32140,13182,19931
32113,13149,20048
32156,13099,20066
32216,13073,19972
32268,13071,19913
32320,13087,20009
32452,13135,20148
32561,13201,20108
32600,13263,20229
32660,13301,20031
32636,13212,20236
32581,13206,20256
32544,13182,20189
32637,13165,20112
32824,13219,20202
32940,13126,20327
33064,13175,20259
33084,13244,20317
33156,13290,20332
33172,13311,20215
33172,13302,20289
33136,13287,20432
33136,13269,20373
33175,13247,20487
33200,13158,20488
33280,13183,20332
33396,13225,20359
33524,13276,20421
33552,13332,20453
33530,13343,20525
33548,13327,20487
33484,13303,20476
33464,13266,20560
33472,13234,20562
33484,13237,20445
33520,13292,20600
33556,13404,20631
33516,13338,20454
33492,13394,20619
33504,13437,20580
33448,13453,20532
33445,13422,20471
33480,13309,20587
33480,13270,20650
33484,13265,20582
33488,13293,20671
33480,13337,20676
33388,13395,20660
33320,13511,20660
33400,13449,20692
33452,13439,20708
33441,13403,20558
33360,13366,20596
33180,13324,20591
33135,13323,20633
33188,13439,20624
33296,13461,20652
33336,13509,20676
33329,13551,20706
33348,13582,20786
33277,13564,20796
33168,13461,20850
33080,13417,20866
33056,13447,20894
33096,13420,20895
33124,13436,20932
33164,13453,20951
33160,13500,20975
33004,13546,21024
33032,13562,21180
33220,13569,21218
33184,13538,21236
33108,13492,21279
33124,13447,21309
33100,13455,21324
33104,13466,21357
33184,13516,21348
33240,13588,21391
33240,13581,21416
33237,13593,21351
33188,13577,21429
33108,13550,21547
33048,13507,21533
33116,13468,21501
33152,13467,21663
33229,13520,21473
33364,13510,21681
33356,13576,21628
33300,13632,21797
33312,13645,21821
33248,13630,21857
33136,13591,21868
33100,13562,21824
33116,13523,21837
33016,13520,21902
33125,13528,21926
33364,13579,22004
32972,13631,22036
33024,13666,22100
33188,13694,22241
33160,13711,22155
33028,13620,22388
33140,13589,22388
32741,13540,22422
32772,13529,22600
32936,13556,22685
33156,13606,22783
33469,13644,22604
33600,13714,22698
32932,13706,22808
33000,13701,23008
33060,13662,23084
33072,13630,23071
33112,13575,23197
33041,13563,23345
33076,13592,23356
33232,13657,23355
33280,13700,23479
33412,13765,23587
33317,13767,23770
33152,13772,23885
33080,13765,23964
33014,13719,24002
32996,13682,24264
33040,13711,24164
33048,13718,24292
33028,13722,24524
32984,13741,24573
33016,13790,24808
32860,13810,24740
32868,13821,24924
32780,13789,25104
32904,13756,25145
32944,13701,25388
32940,13704,25273
33004,13741,25351
33164,13796,25615
33117,13788,25635
33140,13848,25886
33028,13871,25730
32612,13864,25955
32712,13837,25983
32724,13817,26180
32704,13804,26073
32676,13721,26087
32676,13751,26319
32792,13790,26392
32862,13836,26458
32856,13923,26460
32877,13927,26678
32884,13932,26503
32878,13925,26545
32828,13909,26783
32832,13778,26813
32816,13768,26814
32804,13793,27017
32792,13840,26965
32850,13892,26963
32879,13961,27165
32928,13985,27311
32936,13991,27285
32868,13966,27225
32849,13933,27245
32805,13881,27320
32781,13870,27524
32752,13933,27485
32813,13871,27646
32877,13924,27738
32868,13975,27825
32896,13999,27829
32974,13982,27948
32924,13951,27950
32877,13908,27911
32820,13863,27884
32808,13875,27861
32814,13915,28069
32828,13965,28031
32852,14007,28085
32890,14085,28267
32916,14041,28295
32884,14099,28374
32848,14028,28226
32804,13995,28244
32772,13954,28304
32788,13935,28394
32812,13967,28466
32833,14005,28441
32784,14061,28561
32736,14127,28645
32744,14143,28663
32777,14125,28696
32824,14109,28624
32801,14095,28524
32840,14087,28512
32844,13961,28504
32820,13985,28688
32840,14098,28729
32848,14071,28737
32904,14130,28753
32968,14254,28760
33034,14205,28796
33041,14147,28817
33024,14115,28639
33008,14080,28741
33028,14079,28733
33064,14105,28764
33104,14156,28799
33064,14141,28788
33040,14211,28887
32977,14231,28900
32985,14223,28855
33012,14180,28901
33084,14139,28902
33088,14092,28915
33076,14185,28947
33036,14196,28957
33081,14200,28967
33143,14236,28936
33084,14282,28955
33093,14284,28911
33116,14279,28935
33100,14246,28908
33068,14215,28903
33076,14164,28933
33028,14151,28896
33056,14162,28958
33065,14205,28980
33040,14249,29007
33032,14313,28996
33028,14320,29023
33013,14309,29012
33004,14362,29023
32924,14315,28807
32872,14264,28828
32900,14245,28807
32908,14247,28813
32964,14285,28817
32991,14313,28835
33008,14376,28863
33020,14386,28901
33020,14377,28999
32956,14410,28839
32928,14338,28900
32862,14286,28909
32876,14257,28898
32864,14276,28869
32784,14319,28847
32756,14451,28644
32676,14485,28727
32492,14493,28778
32288,14468,28765
32065,14439,28728
31800,14404,28613
31572,14345,28647
31349,14347,28707
31220,14365,28654
31204,14400,28442
31156,14449,28380
31094,14532,28478
31156,14554,28445
31354,14558,28351
31444,14535,28245
31372,14490,28228
31304,14443,28188
31264,14418,28087
30956,14433,28047
30876,14475,28124
31228,14527,28121
32004,14573,27965
33276,14581,27869
35116,14575,27681
36644,14544,27588
37472,14601,27516
37709,14542,27456
37412,14494,27391
36852,14495,27316
36240,14529,27244
35632,14590,27184
35068,14654,27267
34508,14659,27193
33972,14649,27140
33568,14631,27047
33312,14595,26972
33149,14537,26912
33032,14540,26844
33009,14556,26682
33024,14601,26612
32992,14653,26705
32912,14698,26657
32864,14730,26358
32796,14737,26271
32778,14711,26199
32772,14692,26170
32813,14655,26217
32781,14641,26130
32762,14649,26022
32768,14693,25908
32800,14754,25870
32808,14853,25895
32772,14821,25758
32676,14783,25572
32708,14767,25570
32713,14725,25492
32788,14668,25407
32772,14639,25327
32676,14663,25236
32664,14701,25063
32733,14751,24975
32712,14799,24856
32752,14829,24789
32720,14821,24668
32684,14788,24598
32628,14756,24548
32576,14762,24498
32584,14719,24284
32648,14725,24153
32688,14765,24061
32728,14807,23973
32736,14863,23908
32776,14887,23939
32720,14897,23846
32698,14847,23748
32632,14814,23666
32588,14759,23565
32596,14837,23449
32632,14845,23337
32636,14854,23246
32588,14898,23182
32640,14970,23132
32604,14929,22857
32616,14921,22760
32580,14985,22674
32585,14918,22598
32534,14868,22569
32505,14831,22456
32540,14853,22471
32540,14877,22295
32568,14914,22204
32608,14966,22143
32420,14997,22138
32324,14993,21932
32356,14973,21774
32344,14944,21717
32452,14895,21645
32424,14877,21562
32400,14879,21509
32424,14924,21512
32448,14968,21420
32400,15038,21277
32460,15073,21220
32461,15064,21122
32388,15036,21053
32316,14997,20965
32276,14948,20897
32289,14930,20909
32284,14945,20839
32325,14970,20733
32292,15012,20633
32304,15094,20560
32268,15113,20359
32220,15122,20284
32196,15093,20263
32181,15063,20254
32145,14998,20238
32097,14975,20115
32068,14996,20116
32104,15037,19988
32096,15076,19903
32172,15143,19785
32148,15164,19649
32161,15167,19615
32156,15132,19558
32072,15090,19532
32072,15036,19525
32094,15018,19398
32116,15087,19340
32148,15103,19328
32124,15145,19242
32104,15189,19161
32088,15202,19168
32036,15201,19037
31932,15185,18937
31912,15149,18822
31888,15096,18809
31864,15055,18799
31876,15070,18812
31940,15111,18744
31964,15159,18725
31984,15217,18701
31965,15243,18592
31909,15243,18556
31869,15218,18490
31864,15190,18512
31840,15137,18466
31887,15119,18415
31912,15126,18324
31973,15146,18217
32028,15192,18119
32064,15249,18083
32064,15274,18052
32096,15357,17989
32044,15276,18082
32009,15234,18052
32012,15179,17904
32044,15155,17837
32092,15167,17761
32176,15202,17713
32160,15249,17679
32192,15308,17646
32292,15332,17657
32356,15335,17664
32350,15302,17611
32405,15266,17557
32462,15237,17500
32495,15187,17453
32576,15191,17410
32690,15287,17380
32696,15326,17325
32736,15380,17287
32728,15420,17285
32797,15410,17240
32836,15348,17197
32873,15329,17146
32933,15259,17093
33004,15235,17068
33076,15236,17039
33120,15271,17023
33180,15329,16887
33236,15382,16887
33296,15416,16904
33376,15421,16873
33452,15384,16850
33464,15347,16817
33422,15302,16760
33380,15269,16737
33396,15289,16768
33464,15322,16745
33540,15378,16724
33612,15443,16709
33640,15462,16682
33672,15456,16620
33686,15426,16595
33676,15479,16588
33656,15407,16572
33644,15397,16592
33712,15381,16558
33672,15389,16532
33636,15428,16548
33588,15466,16611
33580,15508,16584
33573,15534,16598
33640,15508,16558
33596,15449,16549
33537,15412,16548
33508,15435,16556
33536,15436,16546
33540,15439,16536
33576,15488,16491
33596,15537,16475
33576,15559,16466
33558,15560,16518
33594,15567,16573
33472,15514,16579
33428,15468,16549
33445,15430,16553
33492,15440,16572
33564,15505,16560
33612,15535,16556
33628,15579,16569
33576,15619,16588
33508,15683,16593
33496,15625,16561
33517,15575,16553
33488,15516,16616
33488,15535,16668
33436,15500,16646
33472,15531,16671
33504,15574,16644
33536,15669,16628
33520,15682,16622
33488,15674,16735
33474,15649,16760
33436,15634,16731
33412,15570,16773
33424,15603,16788
33396,15578,16795
33436,15591,16773
33428,15628,16756
33412,15684,16804
33440,15743,16902
33432,15751,16889
33404,15712,16908
33372,15677,16930
33372,15724,16964
33352,15638,17000
33400,15628,17013
33394,15662,17041
33444,15696,17020
33472,15747,17009
33484,15868,17049
33445,15825,17178
33428,15788,17204
33372,15759,17233
33368,15697,17245
33349,15664,17242
33352,15709,17293
33396,15728,17279
33428,15764,17277
33409,15824,17286
33373,15856,17333
33380,15857,17351
33322,15837,17468
33268,15846,17533
33246,15793,17567
33221,15743,17567
33197,15750,17572
33204,15758,17616
33284,15803,17660
33370,15916,17679
33388,15939,17708
33320,15933,17709
33288,15929,17777
33252,15865,17818
33200,15817,17839
33224,15772,17837
33248,15814,17796
33268,15837,17828
33268,15884,17880
33293,15924,17990
33264,15956,18045
33164,16001,18054
33152,15959,18087
33172,15918,18150
33142,15853,18186
33066,15899,18168
33060,15855,18159
33092,15894,18208
33100,15949,18314
33113,15998,18351
33124,16037,18389
33060,16039,18439
32980,15995,18429
32925,15964,18516
32869,15914,18494
32841,15937,18483
32845,15919,18510
32932,15933,18596
33000,15977,18724
33024,16035,18724
33066,16062,18820
33056,16070,18818
33044,16047,18871
32936,16084,18903
32836,16032,18946
32796,15995,19029
32800,15983,19026
32864,15996,19076
32872,16023,19159
32868,16149,19135
32904,16149,19095
32948,16140,19177
32852,16124,19270
32764,16085,19272
32761,16047,19252
32744,16012,19295
32804,16023,19353
32840,16044,19392
32876,16087,19418
32905,16153,19485
32933,16190,19538
32912,16195,19520
32856,16161,19507
32764,16125,19525
32776,16165,19545
32856,16127,19609
32884,16111,19620
32892,16117,19654
32944,16140,19785
32920,16182,19804
32920,16281,19766
32856,16258,19828
32876,16227,19818
32848,16181,19850
32724,16197,19809
32728,16136,19780
32788,16117,19780
32784,16148,19754
32780,16168,19767
32852,16303,19799
32942,16305,19860
32980,16303,19849
33008,16280,19800
32860,16237,19911
32736,16175,19985
32748,16142,19940
32756,16170,19954
32804,16196,19952
32840,16232,19996
32852,16266,19996
32844,16364,19908
32784,16339,19877
32864,16295,20052
32816,16319,19988
32824,16237,20046
32881,16196,19994
32888,16186,19927
32858,16284,20080
32800,16292,20063
32860,16340,20124
32808,16359,20005
32788,16412,20092
32846,16376,20196
32833,16325,20134
32852,16284,20151
32936,16234,20200
32912,16294,20233
32784,16294,20093
32752,16335,20231
32805,16395,20260
32884,16420,20245
32888,16498,20290
32800,16455,20329
32737,16418,20309
32720,16369,20313
32729,16327,20252
32820,16310,20364
32837,16330,20463
32840,16423,20380
32868,16462,20436
32865,16490,20419
32848,16481,20383
32788,16499,20374
32770,16455,20556
32762,16389,20516
32788,16405,20573
32852,16380,20612
32916,16406,20521
32884,16425,20487
32868,16479,20511
32924,16577,20525
32940,16571,20555
32944,16532,20679
32920,16507,20660
32866,16457,20708
32824,16402,20821
32904,16399,20820
32964,16428,20825
33056,16527,20886
33089,16573,20917
33070,16603,20856
33116,16600,20880
33093,16575,20957
33036,16529,20839
33006,16521,21010
32972,16463,20997
32980,16462,20976
32978,16478,21005
33036,16519,21058
33060,16632,21107
33081,16655,21068
33080,16665,21154
33068,16649,21181
33020,16608,21207
32964,16548,21129
32958,16513,21105
32976,16495,21122
33016,16518,21148
32984,16608,21230
32984,16647,21349
32948,16682,21388
32958,16695,21388
32924,16663,21404
32884,16629,21429
32860,16589,21448
32856,16544,21479
32864,16543,21507
32876,16631,21535
32890,16652,21546
32900,16682,21493
32908,16739,21471
32884,16739,21506
32744,16711,21554
32592,16683,21529
32392,16689,21509
32129,16651,21518
31885,16660,21627
31684,16657,21588
31513,16709,21632
31316,16738,21614
31168,16797,21603
31112,16789,21705
31080,16772,21697
30984,16739,21833
30953,16740,21764
31160,16671,21833
31432,16656,21745
31580,16678,21742
31524,16763,21895
31464,16783,21808
31369,16843,21806
31105,16860,21812
31072,16828,21874
31280,16789,21806
32108,16783,21733
33568,16727,21783
35356,16717,21876
36712,16719,21812
37383,16762,21852
37340,16860,21851
36846,16875,21732
36276,16877,21647
35660,16859,21669
35060,16889,21751
34520,16841,21580
33948,16793,21609
33452,16784,21630
33088,16813,21613
32929,16850,21609
32844,16876,21565
32808,16909,21508
32728,16928,21503
32690,16911,21517
32668,16879,21545
32636,16836,21527
32596,16797,21493
32544,16777,21476
32564,16804,21349
32640,16830,21268
32636,16957,21223
32620,16988,21199
32624,16991,21197
32544,16964,21172
32496,16917,21181
32460,16875,21196
32488,16813,21296
32452,16804,21276
32368,16829,21190
32392,16897,21182
32420,16925,21140
32508,16977,21170
32548,16982,21184
32537,17017,21119
32500,16973,21098
32448,16924,21056
32412,16866,21029
32388,16866,21070
32357,16875,21064
32412,16910,21026
32488,16951,21033
32504,16990,21169
32508,17009,21111
32480,17039,21076
32412,17007,21084
32365,16980,21089
32341,16925,21090
32336,16893,21102
32372,16903,21136
32382,16943,21145
32404,16985,21153
32428,17033,21173
32400,17049,21172
32353,17031,21163
32324,16997,21145
32333,16956,21125
32328,16906,21106
32252,16894,21100
32316,16963,21103
32392,16999,21171
32364,17033,21154
32336,17082,21148
32309,17098,20989
32344,17071,20957
32324,17053,20954
32268,16999,20937
32240,16942,20984
32236,16964,21015
32228,16975,21068
32284,16998,20964
32296,17114,20895
32332,17132,20919
32340,17119,20989
32364,17138,20889
32296,17086,20915
32232,17039,20959
32168,17037,20928
32100,17006,20847
32036,17013,20794
32076,17068,20790
32108,17098,20792
32156,17155,20793
32168,17163,20686
32175,17191,20613
32108,17148,20550
32072,17092,20661
32100,17039,20640
32100,17020,20640
32056,17093,20535
32028,17109,20536
32032,17137,20526
32077,17193,20487
32064,17222,20463
32036,17189,20354
32000,17159,20254
32008,17156,20359
31984,17085,20340
31976,17073,20263
31940,17102,20202
31960,17116,20198
31972,17159,20178
31985,17266,20157
31964,17285,20132
31908,17260,20096
31832,17221,20037
31805,17167,19910
31776,17100,19857
31764,17143,19991
31760,17138,19900
31732,17166,19909
31728,17202,19871
31752,17308,19798
31816,17316,19812
31852,17281,19738
31824,17240,19698
31804,17208,19673
31752,17159,19685
31728,17124,19586
31748,17142,19516
31796,17222,19500
31756,17240,19589
31772,17298,19487
31820,17303,19455
31808,17344,19449
31793,17297,19431
31792,17229,19286
31791,17182,19252
31800,17156,19244
31854,17172,19169
31904,17262,19239
31944,17287,19276
31960,17325,19244
32012,17339,19177
31992,17319,19131
31976,17286,19103
32016,17293,19103
32036,17223,19076
32078,17202,19055
32112,17221,19026
32164,17257,18940
32236,17286,18848
32266,17337,18878
32357,17409,18959
32456,17383,18894
32458,17331,18850
32504,17293,18833
32540,17239,18823
32608,17216,18820
32684,17290,18736
32728,17316,18657
32756,17339,18749
32886,17376,18741
32929,17444,18634
32940,17422,18594
32952,17366,18598
32948,17336,18669
32996,17277,18660
33060,17255,18611
33140,17323,18617
33225,17332,18537
33268,17372,18496
33324,17439,18463
33424,17463,18455
33516,17436,18521
33496,17401,18542
33424,17359,18524
33372,17314,18510
33416,17292,18459
33432,17375,18472
33486,17399,18457
33564,17420,18381
33580,17458,18386
33472,17527,18338
33516,17503,18277
33521,17465,18250
33532,17422,18240
33548,17377,18264
33468,17358,18245
33452,17372,18188
33477,17416,18187
33472,17463,18196
33492,17503,18164
33545,17525,18161
33552,17518,18173
33453,17490,18151
33409,17516,18135
33396,17436,18117
33414,17404,18104
33412,17412,18081
33456,17448,18063
33436,17494,18037
33460,17550,17999
33484,17572,17978
33438,17561,17956
33376,17586,17938
33372,17532,17924
33296,17462,17878
33244,17434,17807
33320,17437,17796
33422,17533,17797
33444,17564,17823
33381,17601,17835
33384,17623,17827
33352,17605,17795
33348,17569,17765
33312,17581,17759
33288,17509,17729
33244,17476,17731
33208,17523,17728
33272,17532,17695
33278,17572,17649
33288,17683,17630
33357,17658,17694
33344,17649,17698
33296,17623,17692
33292,17591,17664
33224,17591,17653
33177,17526,17677
33160,17601,17642
33198,17620,17606
33256,17624,17673
33312,17690,17681
33356,17715,17675
33376,17713,17676
33293,17693,17712
33256,17714,17710
33236,17601,17627
33152,17607,17724
33185,17615,17725
33248,17657,17729
33309,17693,17734
33324,17748,17751
33288,17821,17745
33248,17790,17760
33248,17751,17773
33132,17715,17804
33100,17662,17805
33104,17641,17833
33145,17716,17844
33172,17727,17865
33181,17766,17868
33168,17817,17862
33136,17845,17887
33152,17833,17893
33188,17857,17916
33164,17806,17933
33176,17743,17935
33189,17732,17949
33196,17725,17972
33196,17817,17979
33156,17852,17964
33164,17897,17964
33196,17916,17946
33165,17899,17981
33176,17917,18067
33129,17862,18062
33117,17806,18087
33112,17791,18052
33112,17794,18036
33088,17847,18023
33112,17884,18030
33149,17928,18062
33124,17963,18060
33072,17964,18073
33072,18005,18092
33104,17903,18126
33104,17907,18173
33082,17830,18165
33140,17917,18215
33168,17887,18164
33164,17971,18182
33133,18028,18131
33108,18045,18185
33133,18043,18223
33044,18013,18237
33025,17983,18241
33012,17939,18232
32980,17927,18277
33036,17936,18293
33080,17964,18267
33136,18015,18256
33136,18067,18219
33110,18109,18276
33072,18124,18310
33088,18057,18340
33088,18026,18278
33036,17983,18260
32989,17962,18329
32975,17965,18374
33000,18013,18365
33061,18055,18395
33092,18121,18438
33084,18146,18407
33048,18149,18362
33033,18128,18420
33016,18107,18468
32980,18079,18488
32936,18053,18519
32948,18087,18454
33000,18138,18478
33068,18106,18495
33097,18166,18563
33108,18200,18566
33100,18206,18583
33120,18215,18604
33088,18161,18625
32996,18116,18594
32944,18083,18557
32932,18081,18567
32972,18118,18575
32992,18163,18640
32984,18225,18715
33004,18262,18715
33040,18276,18720
33000,18239,18691
32936,18207,18723
32948,18153,18719
32974,18138,18708
32992,18156,18719
32961,18195,18730
33028,18242,18735
33100,18299,18709
33092,18318,18765
32988,18326,18732
32948,18299,18740
32916,18270,18705
32856,18223,18655
32836,18185,18687
32825,18212,18748
32872,18226,18708
32894,18275,18695
32928,18331,18693
33021,18358,18700
32968,18412,18709
32896,18367,18696
32864,18333,18698
32760,18277,18686
32772,18239,18694
32744,18254,18690
32724,18274,18659
32860,18316,18612
32952,18414,18601
32944,18444,18605
32976,18437,18601
32941,18415,18628
32864,18371,18626
32736,18327,18666
32724,18318,18706
32709,18337,18716
32724,18356,18724
32792,18393,18697
32764,18436,18658
32796,18469,18707
32760,18470,18695
32780,18455,18706
32758,18421,18700
32778,18375,18716
32808,18340,18756
32777,18337,18853
32748,18359,18849
32770,18402,18879
32852,18468,18883
32832,18509,18896
32736,18500,18904
32560,18460,18935
32485,18421,18949
32576,18375,18925
32592,18388,18943
32676,18394,18984
32646,18376,18905
32636,18419,18941
32592,18477,18970
32640,18516,18983
32636,18557,19001
32732,18487,19060
32808,18449,19076
32848,18445,19092
32720,18407,19101
32664,18405,19114
32657,18417,19141
32712,18463,19167
32776,18513,19174
32860,18549,19199
32836,18543,19249
32752,18519,19272
32768,18472,19303
32789,18422,19335
32836,18393,19372
32848,18461,19396
32836,18447,19367
32892,18474,19380
32934,18519,19488
33024,18611,19574
33096,18601,19620
33048,18574,19654
32965,18531,19708
32983,18469,19729
32948,18428,19748
32940,18439,19812
32932,18451,19861
33036,18491,19908
33097,18542,19953
33028,18631,19936
32940,18623,19920
33024,18582,20001
33024,18531,20142
32948,18471,20171
32945,18483,20151
32872,18453,20294
32916,18479,20284
33004,18568,20364
33026,18596,20312
33096,18626,20351
33068,18633,20407
33004,18613,20497
32940,18564,20543
32760,18510,20651
33020,18538,20695
33080,18511,20701
32955,18525,20772
32996,18554,20735
33048,18603,20741
33062,18681,20948
32964,18661,20938
32953,18637,21016
32888,18598,21060
32812,18554,21126
32804,18516,21062
32616,18507,21076
32544,18541,21165
32406,18583,21181
32252,18631,21351
32110,18679,21374
31528,18678,21476
31333,18657,21446
31148,18620,21499
31092,18566,21519
31156,18534,21554
31172,18575,21679
31145,18601,21748
31220,18629,21826
31388,18686,21910
31697,18722,21973
31816,18713,21989
31704,18685,22028
31604,18689,22125
31476,18637,22232
31260,18601,22314
31300,18589,22379
31796,18603,22353
32848,18637,22349
34376,18689,22438
35972,18785,22526
37092,18778,22642
37392,18736,22817
37056,18704,22831
36484,18641,22924
35880,18595,22924
35292,18593,22911
34800,18669,23117
34304,18695,23175
33764,18737,23232
33312,18775,23222
32996,18769,23213
32764,18789,23445
32636,18727,23440
32544,18686,23503
32480,18626,23632
32508,18679,23556
32476,18683,23564
32529,18705,23780
32550,18753,23835
32536,18789,23893
32517,18835,23889
32480,18796,23906
32408,18754,23940
32380,18703,24045
32364,18669,24100
32361,18660,24212
32364,18693,24356
32440,18727,24417
32472,18777,24384
32482,18814,24431
32512,18852,24533
32464,18810,24625
32416,18778,24681
32368,18734,24727
32316,18678,24779
32334,18676,24840
32364,18741,24891
32477,18782,24945
32488,18824,24983
32456,18853,25039
32433,18866,25087
32476,18830,25134
32504,18787,25185
32536,18743,25230
32484,18741,25191
32468,18719,25206
32562,18738,25252
32624,18770,25281
32688,18821,25434
32708,18863,25473
32629,18875,25500
32504,18846,25463
32536,18823,25604
32604,18786,25583
32632,18734,25545
32532,18719,25524
32553,18751,25548
32604,18787,25605
32660,18844,25725
32696,18897,25716
32692,18898,25654
32640,18876,25716
32565,18838,25797
32516,18796,25792
32480,18754,25708
32482,18753,25617
32564,18781,25625
32624,18823,25637
32680,18875,25676
32604,18978,25767
32576,18958,25742
32576,18932,25749
32440,18895,25725
32352,18828,25717
32468,18798,25607
32546,18786,25663
32580,18823,25586
32532,18869,25553
32484,18913,25524
32508,18957,25553
32500,18953,25524
32457,18930,25525
32368,18890,25430
32420,18851,25548
32392,18802,25494
32384,18863,25479
32381,18861,25444
32408,18868,25229
32508,18920,25223
32512,19005,25200
32388,19010,25159
32268,18980,25125
32276,18934,25124
32305,18892,25125
32224,18844,25105
32206,18839,25095
32216,18861,25151
32184,18901,25052
32197,18948,25084
32221,18994,25040
32248,18997,25013
32260,19009,24988
32264,18955,24863
32184,18904,24845
32072,18856,24745
32056,18891,24855
32008,18911,24769
32080,18910,24693
32080,18958,24677
32088,19011,24674
32028,19020,24713
31889,19036,24674
31908,18988,24644
31870,18934,24611
31848,18883,24537
31836,18877,24515
31878,18887,24530
31924,18956,24529
31908,18997,24503
31848,19045,24424
31828,19053,24386
31796,19031,24405
31792,18980,24395
31768,18931,24427
31780,18933,24416
31785,18911,24374
31800,18916,24268
31820,18949,24255
31872,18996,24308
31870,19077,24300
31892,19081,24268
31936,19047,24257
31896,19009,24231
31884,18976,24214
31916,18916,24214
31916,18906,24118
31928,18951,23999
32000,18979,24022
31984,19032,23972
32096,19074,23940
32132,19079,23965
32134,19059,23972
32212,19062,23952
32253,19013,24047
32308,18951,24040
32348,18946,24007
32436,18972,23970
32504,18990,23977
32544,19042,23975
32640,19092,23952
32640,19121,23967
32669,19092,23973
32656,19053,23972
32668,19004,23901
32704,18990,23785
32756,18960,23796
32804,18981,23844
32837,19004,23933
32936,19093,23988
32992,19126,23997
33060,19137,23932
33116,19108,23943
33068,19063,23912
33052,19023,23909
33028,19033,23965
33017,18998,23980
33044,19012,23990
33140,19035,24000
33140,19076,23901
33168,19172,23861
33175,19151,23909
33128,19137,23949
33136,19079,23994
33136,19103,24057
33125,19029,24035
33084,18999,23932
33084,19002,24077
33064,19039,24094
33024,19125,24088
33093,19168,23997
33120,19164,24078
33176,19129,24109
33061,19092,23993
32972,19053,23988
32980,19007,23987
32976,19028,24004
32956,19026,24058
32936,19071,24228
32976,19095,24244
33032,19148,24180
33032,19198,24294
32980,19156,24232
32968,19119,24310
32940,19067,24345
32880,19055,24387
32852,19044,24350
32876,19062,24413
32932,19097,24501
32977,19134,24525
32956,19176,24575
32956,19195,24556
32948,19160,24586
32900,19121,24583
32824,19106,24656
32780,19041,24759
32772,19019,24746
32805,19061,24692
32840,19089,24708
32828,19126,24862
32788,19183,24902
32788,19247,24923
32836,19198,25030
32824,19158,25021
32736,19116,24984
32700,19055,25119
32760,19082,25273
32820,19079,25309
32876,19119,25288
32911,19164,25348
32873,19204,25431
32812,19215,25476
32869,19205,25535
32880,19198,25507
32788,19147,25508
32780,19081,25588
32780,19059,25677
32836,19085,25708
32924,19161,25761
32904,19205,25801
32912,19251,25746
32900,19245,25881
32880,19230,25845
32844,19183,25830
32780,19180,25844
32848,19107,25938
32820,19090,25888
32824,19097,25946
32865,19132,25986
32884,19170,26020
32880,19288,26066
32924,19273,26067
32916,19252,26170
32850,19195,26309
32808,19192,26220
32809,19122,26308
32856,19086,26356
32888,19134,26386
32916,19149,26288
33016,19186,26269
32984,19289,26375
33024,19293,26429
33044,19253,26473
33108,19225,26449
33133,19172,26575
33092,19117,26589
33125,19129,26592
33076,19137,26625
33056,19154,26565
33064,19237,26556
33061,19274,26645
33096,19325,26505
33076,19287,26526
33084,19249,26520
33064,19187,26601
32993,19133,26671
32996,19162,26580
33084,19164,26587
33152,19186,26596
33188,19223,26598
33240,19268,26615
33180,19300,26628
33093,19305,26667
33128,19259,26738
33088,19207,26849
32980,19196,26872
32992,19157,26870
33076,19170,26896
33056,19188,26788
33040,19271,26831
33052,19312,26799
32976,19327,26828
33040,19311,26944
33004,19279,26951
32924,19235,26833
32928,19172,26781
32976,19215,26845
32940,19204,26802
32960,19229,26864
32980,19255,27012
33016,19300,27012
33096,19365,26900
33164,19331,27001
33148,19278,27016
33124,19292,26950
33016,19199,26925
33000,19181,26929
32984,19180,26972
33141,19252,26957
33132,19279,26966
33180,19323,26944
33200,19334,26962
33152,19321,26945
33076,19289,26920
33052,19303,26933
33068,19230,26976
33124,19196,27007
33144,19199,27011
33212,19225,26999
33248,19267,27005
33332,19358,26880
33353,19354,26852
33376,19335,26943
33296,19343,26946
33181,19270,26788
33308,19204,26865
33253,19180,26937
33240,19241,26860
33301,19250,26987
33324,19293,26991
33312,19331,26988
33192,19390,26951
33160,19364,26879
33216,19311,26957
33172,19271,26965
33064,19255,26966
33036,19239,26930
33076,19249,26898
33104,19278,26959
33185,19300,26991
33185,19357,26996
33160,19370,26989
33116,19359,26861
33064,19314,26861
33004,19333,26861
32960,19255,26959
33036,19223,27036
32998,19235,27028
33044,19249,27096
33096,19330,27005
33036,19360,27077
33012,19374,26970
32996,19390,26944
33060,19343,26953
33032,19299,27176
33044,19243,27063
32996,19250,27100
32965,19241,27165
32976,19263,27044
33049,19371,27045
33049,19376,27180
32904,19393,27265
32904,19383,27143
32980,19389,27236
32968,19332,27265
32892,19274,27135
32785,19233,27133
32848,19283,27343
32902,19303,27372
32996,19335,27277
33032,19376,27345
33018,19428,27255
32974,19411,27238
32919,19354,27249
32876,19359,27260
32832,19293,27276
32804,19264,27324
32852,19258,27351
32832,19287,27321
32828,19369,27424
32832,19407,27501
32781,19412,27506
32860,19456,27579
32924,19376,27469
32905,19340,27469
32836,19280,27502
32770,19296,27573
32724,19282,27617
32788,19303,27511
32784,19338,27500
32837,19445,27524
32888,19445,27677
32844,19420,27747
32864,19437,27612
32837,19358,27700
32812,19306,27728
32844,19258,27757
32841,19268,27770
32885,19305,27761
32950,19372,27804
32972,19415,27683
33020,19436,27828
33080,19439,27701
33132,19401,27719
33084,19351,27732
33008,19353,27772
32968,19292,27869
32902,19293,27958
32896,19308,27983
32992,19388,27972
33136,19424,27944
33110,19462,27879
33024,19429,27831
33112,19457,27852
33160,19386,27855
33140,19320,28069
33008,19279,28101
32928,19323,28008
32956,19329,28004
33064,19365,28087
33100,19455,28111
33124,19459,28129
33044,19444,28152
33044,19439,28009
32980,19379,28029
32848,19329,28196
32925,19285,28220
32984,19334,28238
33077,19335,28256
33154,19412,28172
33180,19432,28136
33097,19454,28249
33032,19463,28301
33028,19423,28373
32877,19411,28429
32854,19329,28300
32900,19327,28412
32980,19306,28285
33064,19376,28436
33084,19400,28469
33137,19463,28510
33124,19474,28551
32940,19507,28583
32908,19445,28462
32749,19403,28527
32660,19387,28564
32548,19339,28452
32300,19333,28463
32100,19377,28677
31880,19408,28555
31696,19477,28628
31504,19494,28503
31268,19509,28622
31246,19467,28637
31332,19463,28757
31360,19390,28764
31384,19364,28687
31532,19350,28801
31920,19399,28721
32093,19431,28728
32158,19520,28783
32272,19533,28789
32406,19526,28644
32244,19540,28718
32116,19452,28887
32180,19395,28760
32765,19394,28823
33978,19384,28857
35420,19400,28871
36700,19459,28740
37328,19500,28951
37128,19519,28855
36801,19567,28837
36316,19519,28888
35772,19469,29017
35184,19415,29041
34580,19369,29046
33928,19417,29068
33500,19433,29065
33244,19469,29055
33049,19503,29104
32912,19595,29105
32816,19563,28967
32829,19533,28959
32709,19478,28993
32543,19419,29007
32488,19390,29021
32496,19389,29209
32556,19466,29207
32637,19498,29196
32648,19549,29335
32692,19569,29304
32640,19557,29266
32644,19526,29245
32532,19530,29309
32440,19457,29469
32392,19410,29505
32432,19401,29413
32428,19466,29428
32440,19505,29453
32476,19550,29478
32416,19569,29588
32328,19597,29628
32304,19552,29664
32364,19506,29697
32320,19454,29725
32316,19411,29747
32420,19468,29703
32432,19487,29880
32464,19505,29933
32468,19562,29892
32433,19596,29827
32372,19574,29860
32396,19583,29894
32364,19535,30065
32308,19470,30108
32252,19437,30135
32244,19441,30125
32256,19456,30201
32324,19534,30228
32361,19567,30318
32350,19593,30396
32357,19601,30372
32328,19557,30272
32263,19553,30323
32304,19493,30356
32232,19442,30329
32256,19431,30364
32276,19463,30375
32244,19535,30607
32272,19570,30629
32340,19600,30660
32356,19599,30574
32352,19561,30762
32265,19521,30757
32236,19511,30820
32248,19447,30851
32148,19449,30820
32168,19474,30676
32240,19514,30819
32256,19557,30817
32320,19594,30951
32284,19591,30873
32228,19565,30846
32144,19559,30784
32121,19495,30792
32064,19459,30798
32117,19442,30948
32156,19463,30964
32120,19506,30980
32072,19551,30983
32064,19583,30973
32084,19620,30992
32056,19589,31004
32184,19538,31111
32032,19480,31046
32020,19447,31052
32008,19433,30932
31948,19455,30931
31957,19548,30912
32037,19582,30891
32112,19610,30956
32116,19601,30949
32068,19569,30912
31920,19531,31093
31856,19485,31065
31896,19429,31045
31854,19434,31007
31829,19504,31161
31900,19515,31143
31992,19562,31125
31972,19589,31189
31988,19593,31066
31908,19607,31046
31712,19555,31044
31712,19490,31161
31772,19439,31079
31816,19436,31165
31876,19463,31141
31852,19533,31100
31904,19580,31041
31852,19604,31034
31792,19608,31001
31756,19574,31015
31780,19528,31105
31789,19484,31076
31792,19478,31055
31862,19458,31093
31956,19479,31150
32001,19538,31135
32004,19571,31195
31985,19607,31221
31960,19599,31250
31918,19575,31249
31912,19561,31237
31865,19502,31246
31886,19461,31252
31956,19450,31273
31924,19468,31269
31908,19541,31151
31956,19567,31364
32048,19605,31222
32056,19597,31172
32042,19583,31189
32057,19556,31271
32100,19492,31115
32024,19445,31161
32072,19463,31334
32160,19478,31221
32280,19557,31239
32340,19585,31089
32356,19615,31048
32272,19612,31092
32218,19587,31164
32192,19580,31228
32194,19508,31292
32284,19454,31117
32288,19457,31111
32392,19528,31099
32580,19545,31105
32700,19582,31165
32777,19611,31181
32764,19647,31045
32740,19595,31083
32784,19562,31116
32789,19501,31253
32812,19500,31060
32884,19475,31143
32916,19491,31145
32972,19517,30948
33088,19592,31036
33152,19630,31033
33132,19625,31185
33136,19613,31127
33086,19571,31056
33088,19511,31028
33104,19502,31077
33112,19460,31093
33188,19522,30938
33316,19537,30893
33304,19577,30945
33256,19623,30927
33301,19652,31012
33365,19614,31094
33320,19569,31061
33293,19526,30983
33212,19506,30937
33212,19483,30996
33324,19501,30996
33408,19541,30959
33377,19631,30901
33336,19662,30763
33357,19663,30695
33392,19632,30703
33472,19593,30842
33304,19544,30825
33264,19496,30801
33252,19485,30708
33304,19514,30743
33424,19556,30612
33452,19655,30596
33440,19673,30519
33474,19660,30500
33472,19639,30662
33392,19598,30632
33280,19550,30548
33180,19551,30629
33216,19508,30590
33212,19531,30599
33233,19551,30641
33228,19637,30502
33264,19664,30565
33268,19663,30565
33241,19630,30569
33224,19587,30552
33197,19580,30392
33192,19511,30433
33228,19488,30590
33200,19541,30541
33204,19567,30497
33184,19605,30572
33180,19680,30572
33164,19671,30436
33152,19652,30547
33185,19597,30660
33180,19586,30569
33105,19519,30500
33044,19511,30546
33052,19522,30564
33240,19567,30552
33224,19637,30589
33332,19675,30580
33262,19666,30594
33260,19639,30607
33200,19643,30599
33124,19578,30434
33125,19515,30422
33092,19500,30604
33080,19573,30604
33036,19586,30420
32961,19611,30538
33060,19663,30669
33028,19671,30670
33116,19677,30664
33180,19612,30616
33156,19566,30628
33130,19513,30524
33152,19556,30551
33168,19546,30521
33241,19575,30543
33240,19609,30508
33242,19709,30507
33228,19697,30553
33248,19660,30658
33217,19615,30620
33108,19615,30581
33032,19525,30479
33056,19498,30581
33057,19557,30574
33072,19581,30578
33120,19606,30548
33216,19687,30395
33280,19683,30438
33216,19652,30445
33164,19639,30448
33100,19575,30436
33132,19527,30480
33101,19521,30599
33132,19525,30627
33260,19620,30624
33226,19637,30605
33167,19673,30619
33073,19678,30628
33116,19653,30581
33120,19655,30586
33164,19603,30527
33185,19543,30416
33208,19529,30357
33240,19545,30377
33181,19575,30415
33196,19650,30447
33208,19684,30412
33240,19683,30420
33248,19668,30385
33148,19659,30375
33084,19607,30359
33020,19557,30420
33016,19517,30417
33048,19546,30461
33100,19615,30567
33180,19642,30610
33220,19679,30632
33236,19692,30637
33224,19706,30571
33192,19664,30500
33133,19619,30433
33137,19564,30396
33117,19541,30400
33112,19574,30576
33092,19599,30597
33116,19635,30588
33112,19684,30599
33156,19692,30567
33120,19709,30569
33088,19668,30516
33038,19607,30523
32988,19559,30533
32968,19527,30533
32964,19591,30569
32956,19619,30593
33040,19645,30624
33078,19692,30614
33068,19711,30628
33076,19697,30607
32964,19657,30564
32912,19622,30684
32872,19552,30733
32836,19530,30677
32871,19593,30733
32909,19611,30703
32964,19639,30647
32984,19683,30624
32928,19692,30551
32916,19676,30517
32888,19680,30543
32869,19631,30684
32829,19570,30671
32860,19543,30633
32888,19560,30592
32912,19591,30616
32892,19630,30637
32940,19678,30668
32968,19743,30653
32949,19702,30658
32932,19654,30652
32844,19599,30456
32800,19541,30495
32756,19583,30496
32789,19582,30471
32848,19615,30428
32924,19657,30393
32920,19684,30392
32916,19703,30543
32864,19680,30357
32857,19647,30503
32810,19599,30469
32712,19549,30357
32684,19525,30455
32728,19576,30423
32808,19599,30455
32856,19641,30406
32856,19681,30249
32848,19713,30309
32836,19680,30100
32821,19636,30120
32776,19629,30181
32736,19548,30265
32680,19526,30124
32640,19535,30077
32704,19574,30085
32773,19656,30013
32788,19700,29988
32784,19701,29965
32796,19686,29943
32748,19629,29988
32745,19590,29975
32740,19577,29907
32764,19549,29868
32808,19552,29926
32784,19621,29756
32772,19636,29764
32800,19678,29815
32760,19689,29917
32716,19666,29863
32616,19663,29745
32621,19617,29764
32648,19551,29701
32660,19528,29692
32668,19530,29761
32676,19616,29767
32697,19636,29588
32732,19681,29574
32742,19696,29583
32736,19668,29582
32692,19628,29624
32637,19586,29575
32576,19529,29549
32569,19517,29540
32580,19561,29516
32612,19573,29674
32600,19604,29736
32584,19697,29581
32656,19696,29671
32689,19673,29533
32716,19631,29524
32712,19583,29516
32676,19575,29532
32672,19533,29533
32676,19540,29702
32684,19575,29757
32702,19605,29748
32780,19652,29703
32752,19687,29721
32752,19683,29673
32732,19636,29737
32760,19605,29755
32808,19534,29791
32804,19565,29830
32789,19553,29864
32793,19573,29737
32800,19605,29761
32844,19657,29824
32903,19711,29841
32908,19686,29863
32868,19650,29887
32856,19591,29956
32828,19539,29989
32846,19503,30045
32820,19577,30087
32836,19585,30141
32872,19613,30172
32968,19671,30228
33004,19675,30329
32989,19695,30490
32916,19637,30507
32900,19591,30577
32888,19526,30632
32820,19506,30720
32860,19548,30692
32880,19562,30727
32857,19599,30782
32865,19689,30884
32896,19701,30908
32917,19672,30977
32932,19639,30855
32920,19587,30910
32964,19528,30962
33012,19544,31039
32980,19543,31140
32960,19570,31313
32916,19607,31392
32904,19650,31525
32896,19679,31410
32916,19694,31465
32928,19636,31599
32908,19583,31675
32812,19533,31730
32684,19548,31784
32612,19545,31836
32488,19567,31899
32324,19605,31751
32096,19652,31908
31797,19705,31959
31528,19691,32064
31280,19641,32224
31100,19594,32301
31076,19542,32437
31145,19516,32428
31236,19516,32567
31414,19549,32537
31712,19591,32588
32097,19674,32665
32348,19691,32751
32328,19665,32941
32322,19623,33031
32304,19584,33095
32092,19557,33177
32022,19521,33145
32324,19523,33167
33212,19550,33269
34448,19587,33319
35808,19640,33344
36788,19695,33471
37200,19665,33589
36960,19615,33684
36484,19623,33828
35964,19539,33959
35356,19500,34103
34856,19509,34141
34392,19579,34284
33929,19605,34396
33564,19648,34473
33284,19679,34557
33100,19653,34567
32981,19615,34617
32884,19616,34746
32762,19541,34911
32668,19510,35079
32640,19504,35185
32708,19534,35276
32781,19615,35326
32820,19636,35534
32836,19651,35751
32801,19645,35785
32772,19639,35812
32695,19583,35863
32704,19519,35926
32712,19484,35996
32725,19535,36136
32720,19540,36390
32700,19588,36414
32688,19621,36588
32696,19647,36833
32692,19671,36887
32613,19628,37180
32472,19588,37319
32404,19535,37367
32325,19492,37547
32334,19480,37736
32356,19551,37895
32388,19575,38022
32400,19612,38183
32456,19636,38313
32492,19625,38458
32460,19626,38588
32412,19559,38671
32364,19501,38860
32360,19468,39005
32360,19498,38828
32328,19514,39134
32340,19541,39323
32324,19627,39520
32373,19633,39616
32360,19621,39700
32282,19583,39765
32184,19570,40004
32192,19494,40220
32165,19459,40365
32244,19493,40497
32280,19503,40772
32304,19537,40989
32404,19582,41054
32452,19612,41031
32448,19633,41153
32400,19588,41324
32416,19533,41466
32377,19480,41607
32388,19470,41765
32369,19469,41881
32372,19484,41957
32384,19564,42148
32326,19597,42255
32264,19615,42436
32200,19596,42581
32116,19583,42852
32092,19525,42968
32128,19509,43126
32104,19463,43287
32152,19460,43352
32197,19493,43495
32148,19524,43550
32116,19580,43783
32116,19613,43932
32056,19591,44091
32008,19557,44151
31960,19533,44313
31933,19470,44488
31884,19479,44644
31916,19453,44777
31930,19477,44902
31940,19508,44959
31913,19595,45068
31880,19619,45173
31881,19601,45391
31908,19557,45533
31884,19511,45628
31796,19477,45799
31712,19441,45917
31685,19429,46037
31708,19494,46111
31693,19525,46308
31732,19570,46401
31776,19589,46564
31788,19600,46761
31800,19560,46887
31804,19508,47053
31772,19475,47182
31712,19431,47287
31673,19426,47428
31680,19454,47620
31688,19527,47733
31649,19573,47801
31608,19591,48028
31572,19581,48175
31552,19542,48329
31508,19537,48477
31460,19463,48605
31464,19435,48713
31556,19417,48885
31628,19461,49056
31652,19485,49159
31696,19565,48973
31690,19585,49350
31696,19566,49509
31608,19573,49668
31528,19509,49799
31524,19454,50005
31564,19413,50149
31609,19439,50261
31736,19456,50391
31748,19490,50527
31750,19534,50612
31758,19599,50711
31780,19572,50832
31776,19543,50991
31744,19535,51228
31716,19463,51276
31705,19408,51397
31700,19407,51588
31748,19468,51749
31784,19494,51879
31908,19537,51996
31980,19600,52116
31984,19567,52227
32029,19527,52044
32060,19489,52067
32112,19462,52565
32158,19408,52698
32160,19397,52468
32188,19457,52871
32214,19477,53089
32272,19551,53237
32324,19565,53272
32405,19589,53488
32453,19535,53613
32420,19501,53728
32442,19430,53844
32508,19418,53927
32584,19411,53996
32676,19425,54089
32764,19492,54240
32832,19532,54375
32894,19548,54495
32844,19585,54660
32770,19530,54813
32720,19479,54949
32714,19454,55108
32772,19396,55209
32844,19407,55336
32884,19421,55453
32924,19457,55588
32944,19537,55644
32992,19557,55732
33016,19540,55943
33064,19513,56057
33097,19520,56145
33124,19450,56246
33136,19408,56381
33120,19396,56568
33056,19411,56580
33052,19491,56705
33064,19513,56889
33056,19529,56935
33076,19580,57086
33045,19540,57219
33004,19478,57316
33001,19425,57455
32968,19371,57558
32956,19410,57656
32996,19418,57751
33048,19455,57885
33116,19492,57948
33176,19531,58052
33172,19562,58084
33144,19523,58271
33128,19479,58375
33048,19415,58464
32992,19368,58419
32986,19399,58596
32965,19401,58749
32924,19453,58836
32934,19489,58947
33032,19586,58997
33040,19552,59076
33022,19503,59096
33052,19469,58783
33076,19412,59252
33056,19362,59391
33056,19396,59399
33108,19405,59085
33100,19430,59304
33124,19476,59433
33148,19536,59633
33172,19529,59837
33161,19486,59887
33072,19476,59980
33008,19413,60068
32944,19365,60207
32884,19352,60319
32932,19414,60365
33068,19436,60380
33136,19476,60379
33197,19512,60196
33212,19515,60525
33188,19530,60700
33100,19447,60725
33060,19416,60831
33015,19364,60908
32984,19354,60932
33084,19375,61045
33088,19420,61096
33012,19507,61132
33032,19536,61100
33032,19519,61183
33000,19485,61306
32921,19444,61309
32928,19395,61313
32936,19406,61351
32965,19383,61387
33112,19394,61493
33248,19436,61572
33300,19471,61687
33324,19507,61775
33304,19543,61804
33284,19495,61758
33228,19453,61807
33152,19446,61882
33084,19361,61997
33056,19365,62004
33112,19378,62029
33096,19455,62084
33156,19497,62125
33137,19521,62182
33159,19510,62233
33201,19532,62276
33216,19465,62274
33196,19413,62332
33249,19373,62452
33276,19359,62512
33238,19377,62532
33252,19421,62509
33288,19499,62567
33344,19517,62663
33320,19516,62712
33224,19529,62712
33108,19482,62727
33096,19418,62760
33065,19360,62877
33009,19387,62903
32953,19394,62895
32957,19433,62919
33013,19483,62885
33044,19517,62701
32960,19557,62919
32932,19521,63033
33008,19454,62983
33052,19400,62768
33004,19398,63180
32996,19379,63177
33068,19394,63188
33088,19420,63205
33140,19511,63214
33244,19531,63261
33225,19540,63332
33148,19498,63420
33092,19469,63437
32977,19421,63476
32884,19367,63469
32880,19395,63431
32984,19404,63519
33056,19432,63589
33012,19470,63605
32980,19564,63575
32964,19557,63576
32972,19509,63573
32920,19460,63628
32804,19449,63638
32660,19379,63651
32676,19359,63751
32752,19424,63772
32865,19442,63799
32980,19490,63796
33036,19517,63860
32966,19525,63823
32858,19533,63811
32836,19471,63812
32864,19409,63852
32901,19368,63436
32892,19398,63937
32864,19396,63991
32832,19428,63991
32992,19512,63975
33066,19543,63909
32988,19525,63981
32960,19558,64039
32940,19479,64082
32868,19423,64156
32816,19366,64175
32812,19372,64116
32804,19394,64135
32856,19429,64172
32852,19495,64196
32860,19522,64184
32880,19561,64215
32904,19527,64228
32876,19466,64231
32898,19421,64263
32809,19412,64276
32714,19373,64366
32716,19388,64359
32848,19458,64373
32976,19484,64332
33056,19583,64340
33088,19565,64391
33049,19527,64391
33024,19471,64389
32885,19461,64415
32837,19396,64439
32812,19380,64485
32876,19404,64420
32976,19444,64461
32980,19484,64503
33049,19525,64519
33128,19564,64508
33148,19525,64511
33092,19478,64519
32968,19433,64536
32884,19421,64604
32857,19388,64572
32912,19412,64628
32932,19435,64621
33020,19519,64647
33096,19543,64660
33152,19543,64669
33240,19561,64685
33208,19495,64688
33129,19437,64660
33053,19425,64664
32964,19397,64669
32872,19403,64687
32864,19431,64693
32868,19519,64721
32812,19561,64716
32748,19556,64749
32704,19529,64736
32661,19487,64748
32740,19474,64765
32788,19401,64756
32848,19393,64800
32852,19404,64792
32780,19443,64775
32884,19524,64772
32972,19573,64608
32988,19571,64853
32928,19549,64837
32860,19497,64836
32684,19453,64869
32476,19399,64884
32248,19418,64892
32044,19432,64836
31848,19454,64832
31520,19493,64832
31112,19581,64853
30784,19580,64855
30496,19548,64647
30296,19504,64934
30204,19470,64937
30044,19407,64940
29984,19394,64943
30066,19414,64976
30396,19480,64973
30732,19527,64948
30980,19574,64916
31148,19575,64949
31020,19548,64968
30868,19533,64998
31261,19482,64996
32456,19408,64980
34300,19397,64960
35920,19463,64966
36824,19480,65009
37128,19497,65031
36998,19604,65055
36520,19607,64993
35996,19567,64868
35520,19517,65063
35072,19485,65060
34616,19425,65031
34217,19401,65087
33876,19477,65103
33512,19489,65056
33280,19525,65044
33124,19581,65031
33012,19577,65052
32856,19596,65031
32668,19536,65072
32588,19500,65065
32573,19425,65086
32526,19413,65076
32412,19470,65069
32376,19495,65180
32318,19527,65120
32296,19567,65159
32305,19620,65031
32385,19588,64912
32508,19536,65085
32621,19484,65004
32576,19485,65158
32559,19461,65183
32513,19480,65151
32416,19517,65173
32340,19539,65183
32280,19606,65144
32260,19597,65133
32196,19575,65124
32104,19539,65191
32066,19535,65220
32088,19461,65209
32100,19431,65152
32214,19447,65140
32220,19534,65479
32196,19571,65236
32184,19616,65230
32233,19617,65204
32244,19593,65212
32336,19557,65232
32332,19505,65236
32300,19456,65225
32344,19471,65221
32352,19471,65197
32384,19502,65220
32420,19539,65207
32416,19633,65212
32400,19624,65221
32320,19604,65220
32302,19557,65223
32233,19512,65223
32208,19463,65279
32224,19487,65287
32268,19482,65287
32241,19521,65287
32284,19555,65287
32220,19602,65247
32180,19623,65300
32212,19636,65301
32180,19576,65261
32180,19529,65255
32112,19470,65317
32008,19460,65311
31916,19476,65319
31897,19515,65351
31949,19597,65346
31940,19631,65358
31888,19639,65344
31916,19611,65357
31992,19609,65344
32040,19549,65348
32012,19487,65351
32028,19463,65351
32136,19520,65351
32193,19545,65344
32277,19582,65359
32198,19618,65359
32072,19671,65359
32044,19622,65317
32101,19583,65412
32080,19544,65284
32084,19520,65278
32032,19498,65270
31960,19517,65268
31900,19537,65212
31904,19575,65191
31936,19623,65159
31944,19694,65108
31872,19648,65063
31756,19602,65092
31765,19561,65063
31764,19494,65031
31764,19515,64999
31836,19523,64927
31924,19548,64869
31985,19579,64832
31927,19636,64805
31816,19657,64684
31672,19629,64543
31548,19596,64612
31602,19572,64260
31648,19514,64516
31665,19490,64421
31720,19496,64357
31744,19537,64341
31877,19559,64172
31928,19653,64020
31940,19655,64052
31836,19639,63620
31720,19604,63948
31688,19591,63855
31693,19517,63706
31632,19493,63641
31700,19543,63553
31780,19569,63485
31876,19595,63405
32016,19637,63320
32148,19677,63223
32160,19663,63125
32128,19611,63013
32028,19596,62848
31892,19517,62676
31832,19494,62573
31896,19528,62471
31966,19551,62428
31988,19585,62282
31981,19642,62140
32016,19693,62012
32076,19666,61894
32096,19625,61850
32120,19583,61701
32145,19519,61591
32288,19551,61532
32472,19537,61397
32568,19555,61289
32544,19645,61144
32456,19659,60997
32396,19672,60888
32396,19654,60768
32528,19657,60573
32617,19589,60421
32696,19548,60244
32736,19504,60068
32808,19581,59981
32848,19577,59897
32880,19608,59743
32940,19652,59564
32909,19724,59500
32852,19681,59383
32789,19634,59308
32796,19607,59184
32804,19545,58948
32805,19511,58812
32912,19558,58733
32992,19578,58623
33096,19606,58412
33200,19668,58401
33216,19685,58220
33148,19663,57968
33128,19671,57840
33044,19621,57776
32981,19550,57681
33012,19524,57543
33074,19541,57449
33148,19571,57224
33260,19607,56862
33316,19657,56967
33364,19724,56916
33388,19703,56748
33332,19661,56684
33264,19609,56431
33208,19547,56242
33220,19538,56180
33217,19537,56142
33236,19566,55983
33284,19646,55837
33285,19682,55701
33328,19695,55580
33272,19675,55421
33192,19669,55269
33152,19618,55116
33088,19549,55047
33085,19522,54935
33164,19531,54780
33350,19596,54637
33438,19622,54398
33420,19672,54327
33325,19686,54165
33296,19676,54004
33266,19678,53869
33217,19630,53815
33244,19564,53653
33244,19541,53440
33228,19540,53371
33252,19585,53275
33288,19625,53125
33260,19669,52965
33200,19693,52766
33120,19719,52640
33167,19668,52591
33128,19615,52389
33140,19569,52271
33108,19527,52157
33120,19573,52085
33084,19580,51948
33104,19612,51768
33048,19703,51311
32952,19709,51453
32842,19681,51372
32800,19690,51228
32844,19616,51159
32881,19557,51101
32993,19528,50964
33098,19543,50833
33108,19598,50740
33094,19629,50588
33064,19680,50477
33120,19686,50322
33068,19685,50092
32968,19676,50031
32964,19616,49949
32940,19579,49829
32864,19532,49738
32808,19577,49669
32856,19593,49559
32980,19627,49442
33092,19666,49380
33124,19714,49277
33152,19699,49159
33110,19659,49064
33032,19620,48903
32960,19565,48718
32956,19533,48676
33045,19537,48613
33072,19611,48597
33086,19625,48508
33036,19687,48412
32960,19689,48330
32990,19687,48231
32949,19689,48116
32960,19647,47960
32965,19590,47847
32920,19540,47724
32916,19543,47425
33000,19588,47705
33112,19609,47373
33148,19700,47421
33116,19712,47221
33036,19692,47397
32988,19662,47328
32974,19606,47246
32960,19604,47180
32952,19536,46903
32956,19551,46701
33004,19569,46959
33072,19654,46565
33032,19684,46625
32988,19709,46620
32983,19686,46673
32952,19676,46623
32938,19619,46538
32976,19553,46495
32972,19573,46455
32960,19573,46316
32961,19589,46308
32992,19628,46268
33030,19662,46183
33009,19684,46151
32936,19679,46102
32876,19680,46036
32837,19625,45911
32852,19573,45751
32836,19527,45700
32904,19575,45831
32908,19579,45789
32941,19607,45468
32996,19659,45391
33008,19725,45689
33036,19698,45636
32997,19660,45589
33004,19615,45517
33000,19595,45479
33034,19536,45423
33016,19540,45368
33024,19583,45205
33042,19615,45227
33048,19660,45041
33032,19693,44782
33040,19724,45045
32973,19684,44991
32964,19647,44833
32972,19578,44764
32992,19540,44708
33001,19534,44602
33031,19566,44604
33004,19636,44576
33020,19671,44508
33076,19709,44321
33006,19702,44281
32928,19659,44220
32896,19617,44149
32868,19600,44045
32916,19550,43925
33000,19552,43628
33056,19581,43872
33116,19609,43793
33172,19664,43672
33230,19734,43457
33232,19707,43388
33172,19671,43372
33132,19621,43396
33116,19567,43169
33183,19564,43015
33216,19564,42887
33216,19581,42715
33272,19623,42733
33264,19667,42908
33304,19695,42820
33264,19746,42743
33189,19692,42652
33072,19637,42540
32992,19585,42348
33012,19549,42517
33056,19556,42405
33124,19588,42277
33172,19630,42023
33180,19674,41809
33164,19717,41652
33132,19698,41554
33104,19665,41834
33120,19625,41765
33092,19573,41735
33068,19541,41573
33080,19547,41660
33096,19609,41649
33090,19627,41479
33116,19675,41410
33116,19715,41314
33120,19697,41129
33196,19701,41158
33172,19652,41113
33096,19596,41046
33060,19553,40981
33096,19553,40905
33060,19571,40833
33012,19653,40756
32984,19692,40711
32976,19705,40628
32928,19702,40583
32788,19664,40493
32612,19655,40431
32468,19612,40335
32264,19573,40253
32108,19579,40327
31878,19605,40199
31720,19631,40110
31556,19678,39931
31336,19708,39821
31136,19703,39540
30877,19678,39722
30613,19636,39559
30448,19583,39649
30433,19542,39537
30576,19547,39292
30660,19576,39019
30684,19620,39151
30620,19687,38987
30432,19719,39132
30484,19715,38836
31112,19684,38557
32494,19622,38459
34228,19600,38436
35896,19549,38534
37036,19557,38407
37544,19570,38372
37460,19611,38437
37036,19692,38268
36521,19735,37824
36032,19718,38055
35564,19676,37909
35046,19650,37917
34468,19585,37829
33988,19559,37731
33669,19548,37704
33396,19583,37636
33216,19617,37284
33068,19660,37421
32980,19757,37308
32918,19757,37338
32860,19716,36974
32876,19668,37151
32892,19593,37033
32800,19567,37082
32736,19548,37056
32664,19572,36913
32609,19673,36780
32652,19700,36549
32689,19719,36760
32680,19711,36676
32664,19685,36596
32676,19630,36582
32640,19588,36586
32621,19581,36664
32636,19559,36596
32714,19591,36548
32736,19617,36512
32720,19663,36468
32709,19752,36388
32686,19708,36276
32640,19709,36137
32672,19666,36164
32652,19607,36077
32693,19553,35996
32686,19548,36000
32628,19585,35715
32616,19658,35895
32628,19691,35744
32632,19727,35844
32672,19711,35825
32714,19683,35598
32708,19639,35631
32732,19621,35524
32740,19565,35465
32700,19567,35572
32690,19579,35360
32744,19619,35239
32804,19669,35156
32816,19740,35221
32780,19722,35152
32669,19692,35004
32582,19645,35161
32526,19633,35103
32464,19567,34967
32424,19569,34799
32392,19575,34823
32428,19684,34748
32444,19703,34701
32477,19732,34778
32460,19729,34522
32480,19694,34449
32440,19648,34420
32448,19624,34357
32456,19569,34207
32445,19556,34353
32464,19616,34304
32480,19638,34210
32480,19693,34244
32480,19715,34183
32436,19719,33999
32368,19726,34048
32288,19664,33965
32220,19602,34037
32268,19559,33769
32392,19559,33760
32428,19621,33813
32420,19653,33584
32352,19689,33722
32336,19735,33621
32336,19735,33623
32309,19696,33412
32196,19655,33556
32156,19654,33461
32148,19599,33484
32216,19584,33576
32264,19609,33537
32332,19628,33465
32365,19717,33481
32400,19748,33449
32348,19740,33399
32218,19708,33375
32168,19667,33351
32128,19639,33319
32153,19576,33287
32168,19567,33261
32156,19595,33220
32092,19670,33212
32016,19713,33089
31948,19740,32954
31960,19749,32840
31960,19728,33012
32012,19665,32985
32096,19659,32967
32108,19605,32913
32032,19591,32872
32036,19600,32851
31984,19639,32791
31940,19727,32756
32016,19764,32919
32060,19751,32870
32009,19719,32876
32016,19671,32812
32044,19629,32655
32064,19626,32600
32072,19621,32557
32097,19639,32452
32152,19665,32435
32158,19715,32407
32072,19749,32390
32008,19778,32544
31965,19733,32541
31980,19682,32577
31992,19677,32527
32024,19606,32509
31972,19597,32477
31980,19615,32485
32017,19707,32343
32024,19744,32263
32068,19778,32191
32140,19769,32206
32164,19734,32239
32184,19745,32297
32236,19656,32412
32300,19609,32381
32456,19596,32339
32588,19656,32253
32729,19681,32125
32824,19728,32076
32900,19766,32004
32956,19762,32039
32944,19741,32052
32896,19738,31966
32848,19669,31991
32852,19622,32016
32896,19611,31905
32932,19625,31893
32976,19663,31882
33061,19755,31863
33184,19792,31847
33229,19780,31929
33264,19743,31909
33273,19707,31900
33188,19674,32029
33133,19613,31995
33093,19645,31924
33200,19639,31873
33320,19670,31844
33396,19724,31897
33440,19789,31836
33396,19793,31814
33368,19749,31829
33376,19749,31799
33372,19682,31873
33412,19623,31871
33424,19650,31862
33540,19664,31841
33668,19693,31845
33712,19733,31845
33704,19773,31834
33736,19808,31804
33655,19765,31612
33592,19734,31692
33524,19673,31785
33528,19662,31777
33532,19640,31777
33572,19645,31709
33540,19684,31733
33488,19769,31728
33468,19791,31711
33420,19796,31701
33413,19771,31685
33312,19760,31652
33264,19691,31614
33248,19639,31600
33284,19675,31616
33332,19670,31592
33364,19716,31740
33392,19747,31649
33464,19813,31588
33512,19815,31647
33480,19785,31660
33492,19776,31581
33476,19712,31591
33436,19670,31623
33424,19647,31669
33450,19701,31671
33460,19727,31646
33440,19764,31570
33408,19814,31572
33408,19871,31615
33444,19809,31647
33413,19779,31637
33369,19716,31623
33313,19665,31561
33324,19684,31541
33312,19692,31440
33336,19716,31583
33328,19795,31625
33328,19821,31500
33264,19827,31504
33218,19832,31482
33216,19783,31438
33206,19728,31434
33208,19678,31438
33244,19682,31485
33240,19684,31503
33332,19762,31518
33388,19794,31306
33396,19863,31476
33372,19845,31572
33264,19813,31517
33216,19812,31532
33176,19743,31399
33208,19685,31407
33232,19707,31397
33240,19711,31479
33223,19741,31489
33204,19792,31477
33236,19836,31301
33300,19879,31389
33260,19833,31461
33204,19782,31519
33120,19758,31598
33140,19689,31618
33165,19677,31636
33172,19719,31565
33220,19748,31548
33208,19783,31533
33243,19836,31525
33268,19885,31689
33224,19854,31636
33172,19807,31609
33090,19769,31440
33030,19703,31452
33036,19692,31652
33100,19709,31676
33156,19743,31692
33137,19817,31657
33124,19842,31663
33108,19854,31711
33061,19827,31841
32993,19837,31839
33008,19774,31772
33096,19710,31686
33180,19682,31692
33204,19707,31703
33200,19779,31647
33212,19803,31852
33164,19865,31852
33090,19852,31891
33034,19861,31889
33036,19810,31886
33024,19756,31916
32948,19704,31916
32938,19687,31909
32968,19737,31918
33028,19771,31943
33112,19788,31957
33156,19885,31969
33192,19882,31980
33160,19853,31973
33068,19804,31973
32944,19796,31983
32864,19735,31977
32856,19693,31988
32920,19758,31977
32949,19770,31989
32980,19821,31981
33032,19852,31975
33032,19903,31985
33016,19860,31990
33000,19822,32007
32972,19774,32000
32992,19717,32007
32952,19745,32000
32984,19744,32008
33032,19767,32000
33024,19819,32026
32980,19854,32003
32944,19870,31940
32892,19853,32084
32852,19852,32093
32896,19803,32024
32929,19738,31929
32844,19719,31847
32820,19723,32044
32800,19763,32049
32820,19845,32052
32928,19895,32012
32993,19899,31964
32976,19879,32153
33020,19829,31945
33045,19780,31868
33056,19768,31885
33052,19741,32037
33044,19749,31972
33032,19780,32076
33060,19812,32066
33196,19871,31941
33236,19914,31862
33208,19888,32071
33228,19844,32081
33204,19798,32054
33196,19737,32050
33209,19719,32020
33183,19775,32044
33120,19798,32134
33108,19831,32085
33117,19883,32001
33040,19884,32025
33028,19873,31936
32976,19872,31932
32940,19817,31847
32972,19767,32030
33084,19743,32042
33192,19755,32108
33264,19782,31925
33274,19825,31876
33288,19897,32045
33214,19900,32047
33132,19872,32060
33076,19895,32058
33036,19835,32030
32972,19773,32056
32925,19736,32012
32884,19757,32092
32852,19799,31975
32825,19841,31887
32904,19884,31901
32932,19955,31903
32992,19921,31929
33000,19877,32135
32928,19830,32040
32876,19775,32134
32822,19773,32211
32720,19780,32079
32576,19801,32057
32380,19843,32083
32172,19887,31991
31956,19913,32194
31700,19894,32195
31524,19856,32146
31292,19821,32295
31140,19807,32255
31040,19774,32181
30916,19774,32201
30776,19814,32112
30740,19852,32175
30848,19898,32271
30877,19945,32329
30752,19925,32134
30676,19885,32093
30492,19845,32236
30244,19782,32237
30460,19756,32228
31128,19792,32023
32444,19819,32088
34252,19855,32071
35916,19898,32109
37024,19966,32124
37484,19945,32119
37324,19895,32100
36837,19850,32209
36304,19783,32196
35776,19763,32137
35261,19777,32194
34804,19851,32173
34276,19881,32204
33824,19937,32132
33456,19964,32037
33164,19912,32230
32926,19937,32161
32900,19844,32288
32884,19787,32172
32857,19812,32086
32840,19813,32156
32925,19829,32142
32994,19874,32100
32996,19922,32118
32933,19943,32087
32852,19941,32262
32845,19913,32241
32797,19855,32235
32728,19801,32219
32692,19780,32185
32720,19824,32096
32800,19840,32004
32816,19889,32031
32828,19944,31988
32804,19957,31845
32688,19952,32004
32592,19917,31991
32545,19866,31956
32530,19808,31876
32560,19823,31844
32652,19838,31925
32676,19877,31951
32688,19920,31776
32628,19935,31878
32580,19958,31842
32512,19983,31758
32552,19949,31927
32592,19904,31739
32556,19846,31716
32516,19806,31723
32548,19824,31657
32657,19845,31695
32676,19880,31662
32660,19944,31844
32664,19997,31837
32750,19973,31812
32732,19933,31780
32684,19876,31785
32637,19860,31828
32620,19836,31911
32644,19825,31939
32632,19858,31933
32600,19898,31896
32621,19960,31738
32608,19971,31617
32612,19961,31798
32616,19934,31844
32560,19893,31652
32552,19847,31581
32608,19820,31741
32609,19823,31682
32592,19857,31600
32572,19890,31580
32596,19976,31613
32600,19995,31541
32564,19971,31504
32472,19933,31548
32416,19882,31620
32349,19829,31628
32308,19836,31616
32252,19826,31612
32300,19860,31552
32384,19897,31575
32388,19987,31532
32332,20005,31492
32252,19991,31439
32212,19947,31447
32172,19896,31423
32104,19839,31448
32092,19846,31569
32080,19846,31581
32136,19873,31586
32188,19917,31672
32168,19957,31893
32172,19980,31946
32188,20004,31915
32172,19959,32022
32092,19911,32101
32044,19838,32167
31992,19815,32276
31988,19824,32364
32020,19863,32271
32024,19936,32348
31928,19973,32409
31876,19988,32381
31860,19987,32455
31848,19939,32695
31824,19892,32740
31752,19847,32793
31824,19848,32796
31904,19855,32936
31904,19887,33084
31868,19926,32929
31860,19972,32892
31854,19998,32943
31776,19967,33039
31740,19967,33069
31668,19912,33135
31620,19859,33413
31636,19819,33487
31725,19828,33516
31764,19857,33609
31800,19904,33581
31816,19987,33511
31844,20003,33795
31820,19989,33871
31872,19942,33926
31844,19935,33963
31804,19860,33986
31801,19831,34150
31836,19840,34230
31884,19858,34284
31996,19904,34382
32064,19996,34412
32125,20013,34429
32136,19993,34471
32092,19953,34417
32072,19907,34332
32080,19847,34610
32140,19826,34617
32232,19870,34629
32308,19903,34839
32376,19933,34743
32404,19975,34626
32420,19996,34607
32512,19992,34812
32536,19949,34855
32541,19945,34857
32568,19889,34820
32548,19851,34790
32556,19855,34812
32640,19873,34916
32672,19948,35023
32764,19991,34975
32816,20006,34948
32852,19999,34951
32956,19953,34887
32998,19913,34868
33050,19868,34805
33041,19873,34806
33072,19868,34647
33080,19893,34637
33128,19932,34860
33184,19983,34853
33256,20016,34811
33288,20004,34740
33300,19967,34732
33312,19983,34751
33293,19911,34852
33312,19877,34840
33404,19884,34668
33462,19906,34548
33447,19935,34684
33452,19989,34676
33480,20019,34599
33496,20009,34719
33488,19975,34592
33420,19956,34452
33328,19913,34337
33296,19889,34476
33320,19897,34425
33388,19914,34375
33424,19951,34260
33436,19998,34337
33464,20023,34326
33424,20023,34242
33389,19989,34177
33368,19987,34017
33304,19919,33988
33301,19877,33983
33321,19868,33924
33336,19934,33879
33392,19981,33780
33448,20013,33716
33456,20051,33640
33484,20025,33609
33448,19997,33576
33372,19965,33429
33288,19942,33567
33262,19903,33509
33173,19897,33437
33172,19912,33391
33168,19959,33330
33076,20041,33081
33036,20049,33022
33084,20044,33008
33104,20007,33108
33096,20007,33076
33092,19937,33020
33132,19906,32965
33152,19890,32916
33182,19925,32845
33274,19993,32788
33309,20039,32673
33308,20059,32753
33236,20062,32716
33112,20032,32484
33076,19975,32455
33040,19958,32363
33040,19927,32216
33044,19917,32375
33040,19953,32305
33124,19975,32249
33200,20021,32196
33200,20089,32141
33220,20085,32036
33164,20041,32007
33084,20001,31959
33048,19934,31890
33040,19905,31817
33084,19903,31692
33140,19973,31623
33193,19998,31613
33201,20043,31521
33184,20064,31513
33161,20100,31485
33160,20047,31420
33108,19993,31175
33053,19920,31119
33042,19934,31245
33072,19919,31195
33069,19958,31121
33116,19985,31010
33180,20034,30921
33196,20094,30879
33176,20073,30839
33132,20038,30780
33044,19993,30781
33076,19983,30769
33064,19943,30652
33076,19944,30493
33132,19967,30429
33152,20001,30336
33196,20042,30330
33220,20071,30277
33192,20068,30196
33124,20073,30127
33084,20020,30082
33080,19957,30176
33040,19925,30114
33048,19911,30053
33100,19941,29989
33173,20031,29927
33262,20061,29868
33338,20086,29803
33328,20077,29739
33320,20049,29574
33240,20004,29584
33172,19945,29604
33144,19909,29439
33160,19910,29250
33176,19943,29182
33208,20029,29111
33248,20033,29092
33272,20103,29111
33284,20095,29036
33253,20060,28937
33184,20013,28853
33173,19960,28705
33150,19919,28756
33121,19911,28665
33116,19975,28525
33132,20003,28399
33204,20050,28356
33240,20069,28252
33244,20100,28171
33220,20057,28204
33184,20019,28028
33164,19957,28060
33156,19911,27986
33124,19911,27863
33102,19976,27664
33108,20007,27585
33152,20040,27476
33160,20083,27414
33204,20075,27359
33172,20053,27224
33140,20010,27151
33100,19953,27077
33060,19915,27125
33040,19912,27041
33033,19941,26919
33080,20021,26783
33160,20063,26693
33218,20092,26597
33184,20084,26583
33148,20047,26476
33108,20004,26365
33053,19959,26279
33050,19912,26237
33085,19914,26148
33124,19983,26037
33144,20020,25897
33204,20038,25764
33196,20069,25631
33180,20115,25490
33149,20099,25372
33148,20009,25393
33172,19951,25220
33180,19917,25191
33248,19917,24948
33316,19943,24847
33340,19985,24852
33360,20037,24700
33373,20103,24578
33360,20095,24530
33314,20065,24376
33287,20025,24289
33236,19975,24071
33260,19940,24036
33344,19930,24004
33356,19967,23877
33368,20001,23732
33424,20047,23613
33462,20089,23524
33464,20087,23369
33469,20063,23143
33412,20014,23098
33344,19980,23060
33312,19939,22930
33326,19938,22825
33324,19972,22548
33280,20021,22574
33304,20091,22430
33368,20121,22289
33392,20129,22183
33388,20069,21921
33308,20022,21881
33261,19975,21806
33224,19933,21651
33244,19932,21568
33224,19959,21333
33288,20002,21154
33304,20055,21106
33272,20093,21015
33278,20103,20866
33255,20070,20723
33228,20031,20596
33220,19988,20493
33164,19942,20279
33098,19940,20133
33133,19961,19981
33157,20015,19943
33212,20060,19792
33140,20096,19691
33076,20097,19557
32956,20068,19337
32864,20032,19226
32744,20015,19105
32532,19968,19001
32348,19959,18866
32136,19975,18724
31917,20015,18580
31725,20059,18465
31496,20095,18328
31324,20106,18164
31236,20079,18036
31117,20071,17917
30944,20005,17777
30896,19958,17646
31005,19967,17518
31176,19991,17374
31188,20025,17240
31120,20074,17097
31048,20119,16964
30768,20124,16834
30772,20091,16694
31224,20053,16579
32312,20010,16447
33925,19973,16307
35760,19949,16165
37160,19973,16034
37948,20007,15909
37904,20116,15773
37428,20139,15652
36860,20124,15494
36240,20102,15356
35552,20054,15271
34977,20001,15168
34396,19952,15046
33872,20007,14925
33550,20023,14780
33328,20053,14645
33176,20095,14512
33068,20132,14428
32992,20132,14270
32892,20107,14167
32796,20065,14132
32760,20014,13960
32772,19975,13846
32780,19958,13766
32780,19987,13634
32784,20060,13512
32748,20094,13390
32720,20130,13297
32644,20126,13242
32636,20107,13217
32680,20061,13063
32686,20015,12965
32676,20002,12917
32672,19981,12829
32676,19997,12729
32650,20038,12639
32630,20071,12532
32656,20125,12388
32638,20139,12344
32592,20110,12267
32574,20071,12176
32548,20037,12082
32540,19994,11983
32538,19983,11837
32536,20018,11688
32600,20050,11570
32632,20093,11593
32644,20139,11422
32629,20146,11375
32588,20129,11184
32560,20103,11244
32553,20060,11076
32524,20009,10927
32538,19990,10844
32590,20009,10793
32614,20042,10725
32644,20080,10593
32646,20178,10447
32628,20164,10343
32560,20131,10346
32534,20087,10322
32481,20044,10215
32460,19991,10048
32477,19985,9893
32436,19999,9865
32440,20036,9751
32530,20088,9593
32544,20109,9543
32540,20171,9510
32496,20133,9457
32440,20087,9284
32372,20050,9155
32321,19991,9037
32344,19983,8934
32413,20051,8944
32448,20092,8758
32440,20139,8781
32448,20179,8736
32417,20147,8486
32388,20119,8457
32332,20084,8376
32336,20037,8392
32316,20034,8333
32272,20009,8223
32292,20022,8077
32356,20063,7993
32348,20113,7880
32308,20151,7854
32281,20166,7874
32256,20128,7805
32156,20089,7689
32156,20044,7501
32128,20002,7521
32068,19984,7364
32080,20012,7357
32152,20068,7319
32148,20114,7124
32130,20151,7150
32128,20171,6982
32100,20148,7013
32008,20109,6980
31929,20066,6730
31928,20015,6783
31944,20005,6644
32017,20030,6685
32056,20064,6425
32092,20117,6392
32033,20157,6458
32020,20172,6282
32021,20164,6176
31944,20127,6229
31905,20088,6068
31772,20011,6032
31732,19997,5902
31848,20011,5960
31916,20089,5760
31920,20134,5770
31924,20148,5742
31878,20159,5591
31844,20146,5550
31800,20100,5415
31765,20065,5343
31788,20019,5355
31776,20000,5231
31828,20019,5151
31807,20055,5160
31861,20101,5133
31935,20145,4874
32013,20157,4977
32052,20140,4827
32016,20103,4843
31972,20060,4699
31981,20009,4644
31968,20004,4683
32008,20031,4509
32096,20071,4541
32128,20117,4419
32216,20167,4484
32236,20170,4296
32212,20158,4164
32177,20125,4263
32092,20067,4149
32140,20026,4211
32192,20021,3990
32304,20037,3899
32424,20067,3899
32484,20102,3952
32592,20159,3843
32696,20163,3859
32692,20164,3852
32668,20117,3821
32676,20065,3707
32721,20008,3517
32796,19999,3593
32884,20048,3507
32956,20073,3473
32997,20109,3465
33020,20158,3479
33057,20164,3487
33086,20143,3422
33088,20149,3217
33112,20094,3197
33128,20031,3302
33137,20012,3194
33196,20032,3213
33244,20069,3237
33276,20119,3032
33345,20157,3160
33388,20177,3055
33454,20152,3036
33441,20127,3110
33416,20079,3035
33392,20028,2896
33422,19999,2883
33400,20020,2872
33452,20109,2979
33508,20134,2881
33476,20178,2886
33472,20180,2932
33376,20151,2955
33308,20106,2949
33272,20069,2933
33260,20019,2856
33360,20004,2692
33460,20028,2712
33465,20066,2693
33444,20133,2667
33464,20173,2649
33444,20182,2648
33437,20164,2794
33336,20143,2787
33258,20092,2839
33216,20042,2676
33244,20020,2665
33328,20043,2750
33358,20087,2760
33400,20129,2848
33404,20197,2626
33456,20206,2800
33385,20189,2732
33341,20129,2803
33320,20092,2829
33276,20029,2866
33232,20021,2691
33252,20041,2869
33345,20071,2850
33376,20126,2939
33344,20164,2790
33320,20175,2919
33260,20158,2977
33236,20150,2939
33232,20103,2985
33169,20036,3048
33192,20026,3151
33272,20044,3044
33336,20073,3026
33300,20119,3021
33362,20194,3065
33406,20227,3156
33332,20191,3208
33284,20153,3353
33253,20116,3162
33268,20061,3367
33248,20046,3303
33256,20050,3392
33280,20073,3483
33284,20127,3401
33350,20184,3341
33417,20196,3427
33416,20169,3581
33408,20133,3455
33336,20103,3458
33256,20045,3580
33260,20017,3572
33262,20043,3705
33280,20072,3660
33304,20122,3664
33368,20169,3688
33328,20186,3782
33308,20172,3872
33328,20140,3697
33308,20103,3806
33260,20055,3850
33200,20048,3927
33252,20080,3869
33296,20078,3926
33348,20120,4019
33332,20211,4118
33376,20219,4148
33332,20207,4126
33264,20156,4182
33185,20118,4073
33164,20060,4078
33174,20034,4208
33144,20065,4280
33188,20087,4216
33228,20122,4298
33248,20180,4420
33228,20204,4255
33212,20186,4353
33208,20140,4455
33156,20098,4413
33084,20047,4565
33100,20025,4591
33152,20046,4458
33192,20077,4555
33192,20123,4650
33200,20175,4615
33165,20191,4732
33188,20179,4749
33116,20172,4665
33056,20135,4788
33080,20093,4760
33080,20063,4896
33093,20043,4883
33104,20078,4788
33157,20175,4973
33164,20178,4941
33208,20194,5085
33200,20179,4998
33152,20142,5059
33096,20108,5048
33004,20057,5175
32972,20050,5216
33008,20055,5088
33068,20103,5187
33096,20151,5320
33088,20204,5373
33106,20213,5247
33132,20197,5315
33065,20165,5349
32996,20120,5404
32980,20069,5477
33037,20040,5560
33064,20065,5632
33068,20103,5621
33064,20148,5498
33068,20196,5623
33040,20213,5629
33040,20197,5690
33016,20160,5810
32952,20124,5871
32968,20073,5761
33020,20045,5736
33028,20055,5865
33048,20098,5867
33056,20133,5938
33064,20195,6076
33068,20200,5947
33044,20188,6005
32964,20149,6123
32917,20108,6058
32869,20060,6213
32860,20055,6092
32904,20062,6162
32916,20099,6313
32924,20136,6213
32956,20197,6353
33040,20215,6358
33004,20201,6460
32956,20169,6399
32920,20145,6482
32896,20097,6446
32876,20071,6420
32912,20084,6502
32952,20090,6676
32972,20131,6530
32956,20184,6614
32941,20208,6757
32940,20199,6760
32950,20164,6719
32928,20116,6757
32900,20074,6956
32852,20051,6803
32856,20061,6966
32916,20100,6953
32980,20141,7110
33004,20198,6969
33044,20217,7122
33024,20204,7085
32961,20167,7248
32902,20136,7146
32908,20085,7301
32844,20069,7247
32852,20076,7368
32909,20116,7469
32904,20150,7383
32896,20212,7491
32884,20236,7438
32952,20229,7525
32948,20187,7609
32868,20135,7676
32772,20076,7568
32740,20055,7687
32792,20061,7629
32840,20096,7805
32866,20133,7734
32828,20197,7713
32814,20205,7811
32772,20229,7754
32717,20169,7782
32661,20132,7900
32576,20071,7859
32560,20047,7934
32548,20060,8045
32588,20100,8106
32628,20131,8051
32584,20180,7986
32624,20246,8043
32560,20233,8110
32564,20190,8104
32576,20134,8228
32588,20071,8303
32540,20052,8293
32560,20061,8190
32572,20088,8242
32704,20139,8429
32737,20191,8364
32764,20215,8341
32752,20211,8510
32697,20174,8436
32692,20132,8475
32668,20068,8455
32668,20041,8478
32752,20061,8661
32804,20094,8551
32765,20135,8577
32820,20183,8766
32920,20220,8705
32896,20213,8679
32836,20175,8839
32836,20133,8892
32830,20080,8821
32796,20079,8851
32856,20089,9037
32829,20140,8911
32832,20171,9036
32840,20210,8996
32823,20225,9177
32772,20229,9148
32721,20194,9193
32720,20141,9213
32688,20093,9361
32664,20077,9372
32686,20093,9433
32712,20119,9474
32735,20170,9585
32764,20221,9507
32804,20250,9659
32808,20238,9608
32764,20209,9796
32704,20167,9861
32736,20119,9774
32728,20087,9916
32769,20103,9956
32820,20147,10060
32838,20183,10002
32812,20236,10034
32775,20255,10152
32752,20240,10290
32684,20211,10195
32700,20165,10257
32676,20114,10406
32596,20102,10402
32524,20101,10446
32448,20131,10425
32308,20172,10576
32192,20224,10660
32016,20257,10586
31764,20231,10636
31444,20193,10773
31184,20153,10698
30968,20100,10775
30964,20080,10875
30998,20085,10876
30990,20124,10911
31013,20164,10952
31104,20219,11048
31280,20245,10983
31304,20231,10981
31092,20213,11176
31004,20167,11092
30911,20127,11087
30757,20092,11277
30922,20105,11173
31408,20133,11273
32480,20183,11202
33964,20231,11383
35648,20231,11351
36948,20213,11288
37512,20183,11398
37408,20147,11357
36906,20093,11358
36288,20069,11518
35724,20076,11483
35142,20113,11497
34592,20156,11478
34060,20209,11607
33535,20237,11511
33172,20231,11595
32916,20197,11542
32696,20158,11690
32540,20109,11642
32517,20086,11611
32572,20087,11767
32608,20134,11703
32596,20173,11743
32588,20216,11710
32568,20251,11806
32556,20237,11919
32520,20193,11954
32484,20150,11976
32468,20146,11969
32456,20097,11997
32424,20097,12073
32444,20112,12051
32464,20149,12067
32520,20245,12143
32527,20261,12113
32444,20239,12217
32416,20194,12314
32352,20161,12286
32317,20117,12284
32312,20077,12353
32308,20084,12314
32392,20145,12364
32436,20175,12442
32460,20231,12533
32462,20256,12556
32408,20248,12485
32384,20220,12555
32276,20181,12567
32186,20117,12530
32168,20085,12694
32216,20089,12703
32256,20132,12647
32296,20160,12718
32316,20217,12685
32328,20253,12822
32338,20237,12834
32309,20197,12801
32252,20195,12835
32290,20142,12800
32254,20097,12819
32240,20093,12866
32264,20116,12966
32328,20151,12996
32316,20241,13017
32352,20268,13053
32324,20263,13010
32286,20216,12996
32308,20174,13047
32344,20124,13028
32288,20100,13129
32273,20110,13077
32269,20141,13097
32276,20176,13053
32310,20231,13192
32333,20271,13122
32316,20257,13151
32200,20215,13156
32156,20185,13236
32088,20137,13185
32020,20123,13161
31996,20111,13290
32052,20138,13277
32204,20176,13241
32324,20220,13249
32356,20254,13283
32262,20243,13349
32180,20204,13284
32104,20168,13337
32136,20123,13290
32126,20076,13385
32142,20073,13431
32149,20108,13370
32149,20150,13401
32144,20206,13399
32084,20246,13436
32076,20236,13415
31960,20199,13471
31856,20161,13421
31844,20101,13540
31832,20068,13503
31806,20076,13489
31845,20103,13488
31912,20150,13541
31928,20198,13599
31964,20224,13534
31916,20221,13560
31841,20199,13561
31760,20158,13617
31728,20110,13654
31749,20087,13620
31716,20073,13584
31672,20103,13673
31708,20176,13726
31756,20186,13677
31752,20265,13681
31692,20245,13704
31664,20196,13675
31644,20153,13764
31612,20100,13785
31604,20063,13778
31577,20061,13735
31582,20116,13742
31637,20143,13733
31704,20193,13764
31748,20214,13764
31708,20209,13744
31680,20220,13735
31708,20163,13791
31648,20101,13839
31580,20057,13781
31548,20067,13765
31561,20095,13727
31672,20135,13837
31760,20191,13766
31796,20220,13788
31852,20219,13728
31892,20183,13830
31844,20149,13778
31800,20100,13765
31768,20079,13727
31774,20077,13797
31812,20103,13836
31916,20135,13833
32068,20183,13760
32140,20211,13798
32186,20207,13762
32188,20170,13841
32212,20132,13846
32252,20080,13801
32304,20049,13806
32372,20036,13795
32444,20098,13824
32544,20129,13792
32624,20167,13835
32676,20197,13887
32772,20182,13833
32792,20202,13820
32804,20148,13825
32909,20081,13852
32944,20050,13846
32928,20036,13833
32980,20062,13818
33036,20106,13797
33100,20154,13797
33160,20185,13841
33176,20184,13884
33229,20193,13898
33220,20143,13879
33172,20060,13778
33224,20062,13808
33311,20060,13792
33372,20071,13802
33404,20103,13746
33436,20163,13852
33476,20195,13841
33446,20188,13815
33428,20148,13755
33468,20115,13773
33460,20062,13768
33408,20024,13746
33420,20055,13732
33436,20061,13724
33512,20098,13667
33572,20137,13670
33584,20212,13674
33532,20181,13657
33516,20139,13660
33460,20140,13688
33428,20071,13693
33368,20020,13714
33389,20023,13679
33372,20080,13669
33388,20101,13724
33396,20146,13764
33476,20186,13716
33522,20167,13718
33421,20185,13718
33360,20127,13709
33368,20073,13693
33328,20025,13801
33284,20024,13833
33285,20038,13844
33376,20121,13859
33424,20165,13872
33405,20186,13885
33388,20181,13872
33330,20157,13872
33096,20112,13941
33088,20059,13920
33239,20007,13958
33200,20047,14024
33236,20065,14121
33272,20084,14157
33222,20127,14132
33232,20165,14180
33192,20164,14199
33118,20140,14299
33104,20093,14345
33128,20045,14350
33113,20040,14394
33065,20040,14444
33068,20065,14455
33072,20090,14513
33076,20128,14620
33088,20173,14676
33167,20159,14692
33078,20132,14719
33056,20085,14784
33028,20092,14823
32925,20012,14884
32916,20017,14917
32984,20028,14947
33052,20066,15028
33056,20157,15087
33032,20185,15154
32980,20176,15218
33000,20135,15259
33016,20086,15316
32965,20037,15343
32928,20034,15378
32936,20028,15447
32928,20046,15488
32992,20081,15582
33008,20127,15632
33060,20149,15667
33088,20158,15729
33112,20134,15761
33031,20092,15855
33036,20047,15902
33053,19999,15935
32977,19995,15985
32992,20031,16049
33000,20064,16092
32996,20102,16143
33044,20146,16233
33052,20143,16253
33032,20114,16306
32998,20115,16364
32952,20047,16421
32932,19997,16468
32996,19996,16529
33009,20017,16569
32992,20050,16633
33044,20102,16682
33048,20175,16742
33048,20164,16792
33102,20127,16830
33073,20096,16878
33008,20053,16930
32948,20000,16980
32964,20005,17029
33032,20023,17064
33097,20061,17109
33144,20101,17159
33152,20137,17212
33144,20143,17254
33104,20110,17291
33049,20119,17324
33016,20050,17374
32976,20007,17417
32960,20009,17458
32956,20036,17488
32978,20070,17542
33036,20113,17583
33076,20149,17605
33036,20154,17641
32996,20127,17697
32980,20079,17737
33008,20037,17782
32984,19994,17817
32936,20022,17852
32948,20039,17892
33042,20077,17916
33064,20124,17940
33064,20168,17978
33034,20166,18013
32992,20130,18063
32948,20096,18099
32877,20029,18138
32840,19991,18157
32921,19983,18196
32996,20034,18228
32985,20070,18265
32956,20112,18297
32964,20149,18334
32976,20149,18373
32976,20125,18373
32940,20083,18388
32904,20029,18410
32920,19983,18448
32973,20011,18477
33017,20034,18509
33009,20071,18542
33000,20122,18585
32992,20161,18612
32996,20164,18638
33040,20135,18629
33017,20095,18636
33044,20055,18710
33024,20012,18730
32996,20007,18756
33040,20022,18725
32980,20071,18752
32944,20113,18785
32968,20151,18823
33020,20148,18834
33012,20122,18847
32992,20092,18865
32956,20042,18905
32900,19991,18862
32872,19985,18856
32942,20007,18918
32960,20047,18925
32977,20102,18944
33000,20154,18950
33004,20118,18945
32980,20099,18969
32952,20063,18999
32916,20020,18971
32856,19988,18999
32833,19978,19037
32823,19996,18974
32877,20036,19041
32952,20104,19059
32940,20113,19014
32892,20121,19065
32884,20103,19085
32868,20059,19052
32824,20015,19052
32792,19969,19108
32812,19961,19121
32832,19981,19113
32832,20041,19108
32824,20098,19093
32821,20142,19160
32820,20111,19154
32822,20090,19192
32872,20048,19153
32872,19996,19175
32812,19950,19220
32832,19945,19166
32840,19990,19236
32880,20020,19235
32912,20067,19258
32952,20124,19222
32932,20132,19270
32900,20116,19277
32880,20076,19269
32828,19998,19250
32764,19949,19300
32800,19936,19287
32840,19969,19300
32876,20012,19241
32858,20077,19305
32860,20093,19299
32884,20103,19312
32876,20084,19240
32848,20045,19285
32768,20007,19311
32753,19983,19332
32781,19975,19233
32788,19953,19284
32824,20003,19292
32848,20047,19325
32792,20103,19244
32793,20113,19295
32772,20101,19313
32729,20078,19256
32685,19985,19287
32652,19934,19291
32648,19927,19259
32654,19941,19292
32720,19989,19272
32716,20031,19265
32657,20079,19204
32636,20085,19265
32616,20067,19254
32652,20033,19263
32661,19997,19200
32678,19960,19244
32728,19920,19174
32796,19947,19240
32868,19989,19196
32876,20041,19221
32905,20084,19217
32893,20094,19172
32872,20073,19180
32884,20049,19198
32844,20025,19138
32808,19929,19201
32746,19918,19199
32791,19937,19189
32880,19976,19119
32985,20020,19164
33101,20068,19156
33148,20079,19103
33056,20076,19149
32933,20031,19156
32916,19989,19102
32916,19935,19140
32916,19924,19118
32946,19934,19111
33036,20012,19113
33072,20045,19124
33092,20072,19068
33070,20093,19045
33020,20060,19081
32952,20019,19073
32904,19975,19092
32888,19919,19072
32924,19914,18992
32925,19940,19049
32953,19975,19028
32994,20019,19012
33013,20044,19028
33028,20116,18959
33020,20052,18997
32960,20017,18989
32868,19973,18940
32840,19921,18935
32828,19911,18947
32812,19943,18948
32804,19972,18900
32869,20000,18926
32949,20050,18912
32942,20074,18916
32808,20050,18865
32588,20016,18882
32408,19975,18887
32184,19930,18833
31972,19927,18873
31712,19951,18868
31552,19985,18806
31436,20029,18839
31252,20086,18852
31177,20085,18781
31136,20056,18817
31128,20015,18815
31166,19970,18798
31335,19967,18819
31544,19943,18809
31616,19956,18821
31525,19986,18754
31512,20028,18758
31412,20077,18785
31316,20081,18785
31416,20060,18777
31853,20015,18734
32901,19972,18753
34368,19915,18762
35940,19908,18756
37141,19979,18724
37636,19971,18764
37508,20064,18764
37076,20118,18708
36452,20140,18739
35792,20111,18725
35168,20055,18728
34572,19970,18704
33952,19916,18723
33476,19905,18687
33201,19922,18693
33164,19959,18710
33092,20004,18741
32992,20054,18680
32929,20111,18695
32840,20090,18719
32864,20050,18743
32768,19991,18740
32760,19917,18703
32736,19907,18761
32696,19924,18763
32718,19956,18783
32770,20001,18761
32798,20051,18807
32724,20092,18806
32708,20058,18845
32660,20016,18815
32616,19964,18834
32668,19924,18894
32698,19897,18921
32736,19913,18958
32796,19991,18903
32828,20021,18932
32848,20053,18989
32800,20068,19005
32764,20044,19026
32684,20020,19049
32622,19975,19077
32544,19932,19042
32580,19904,19073
32613,19927,19134
32644,19971,19180
32700,20003,19159
32720,20054,19140
32704,20071,19201
32700,20039,19246
32664,20006,19289
32608,19965,19276
32596,19903,19280
32552,19922,19276
32548,19937,19364
32584,19964,19390
32664,20003,19397
32708,20037,19452
32744,20047,19385
32736,20036,19439
32689,20040,19484
32615,19946,19495
32548,19929,19542
32576,19919,19456
32584,19938,19553
32576,19967,19572
32660,20009,19533
32716,20061,19529
32668,20063,19599
32565,20041,19599
32560,20000,19634
32472,19961,19580
32413,19902,19553
32413,19887,19617
32440,19941,19647
32500,19974,19652
32536,20015,19685
32540,20051,19613
32561,20057,19623
32548,20044,19687
32452,19999,19693
32300,19961,19620
32260,19907,19635
32204,19892,19699
32244,19905,19677
32272,19949,19714
32256,19988,19615
32224,20041,19658
32220,20058,19688
32196,20037,19688
32224,19993,19649
32220,19946,19633
32176,19895,19695
32157,19892,19717
32116,19904,19600
32056,19945,19679
32104,19999,19692
32125,20046,19604
32048,20065,19674
31964,20049,19679
31961,20019,19588
31973,19973,19656
31988,19922,19669
32016,19901,19591
31996,19921,19620
31976,19957,19624
32041,19999,19653
32085,20050,19555
32073,20060,19629
31924,20039,19609
31862,19995,19641
31756,19954,19538
31760,19887,19559
31800,19864,19613
31800,19885,19590
31796,19923,19618
31836,19965,19515
31806,20014,19581
31788,20079,19575
31776,20063,19556
31780,20006,19505
31760,19956,19577
31748,19910,19582
31760,19893,19500
31764,19897,19579
31756,19927,19565
31728,19973,19604
31754,20014,19559
31804,20023,19524
31869,20009,19597
31836,19972,19589
31748,19971,19586
31700,19898,19536
31736,19869,19582
31780,19893,19631
31912,19913,19644
32020,19962,19585
32101,20007,19622
32124,20017,19685
32145,20005,19683
32092,19966,19711
32100,19957,19737
32092,19894,19666
32112,19870,19723
32148,19875,19760
32200,19910,19812
32284,19965,19721
32357,20012,19799
32448,20016,19852
32476,20003,19863
32520,19962,19916
32592,19918,19838
32613,19866,19901
32601,19849,19962
32624,19858,20025
32768,19925,19969
32824,19959,19972
32888,20002,20085
32956,20017,20112
32996,19991,20124
32964,19949,20162
32988,19912,20102
32968,19857,20236
32972,19839,20242
32997,19856,20229
33032,19925,20227
33088,19948,20344
