ECG,EDA,RR
32992,14069,27607
32916,14043,27496
32869,14016,27829
32840,13937,27793
32880,13980,27712
32944,14023,27941
33004,14078,27901
33004,14156,28087
32976,14105,28033
32959,14087,28294
32896,14063,28231
32888,14010,28365
32820,14000,28347
32832,14008,28412
32940,13957,28705
32992,13994,28644
33008,14045,28679
33080,14157,28831
33088,14167,28789
33044,14139,29047
32948,14086,29070
32900,14055,28935
32848,13943,29138
32816,13951,29360
32840,13986,29302
32904,14018,29473
32878,14060,29444
32912,14127,29684
32928,14159,29618
32896,14179,29807
32828,14039,29873
32784,13996,29877
32736,13960,30183
32744,13943,30060
32804,13984,30231
32848,14052,30324
32900,14034,30382
32960,14112,30597
32932,14136,30624
32929,14079,30631
32909,14059,30782
32854,14019,30876
32852,14010,30765
32860,13930,30975
32868,13947,31246
32944,13998,31373
32984,14088,31436
33032,14084,31558
32996,14122,31495
32916,14115,31609
32900,14036,31733
32865,14011,31810
32784,13985,31681
32712,13925,31783
32724,13975,31863
32800,14096,32028
32837,14028,32226
32904,14101,32324
32928,14207,32378
32897,14086,32487
32804,14058,32583
32804,13989,32664
32812,13951,32758
32840,13962,32919
32852,13947,32942
32864,14017,32967
32834,14031,33135
32892,14084,33452
32941,14104,33306
32916,14130,33439
32844,14030,33568
32782,14017,33710
32728,13951,33541
32712,14010,33639
32760,13951,33908
32806,14001,34004
32846,14108,34220
32928,14069,34229
32928,14085,34381
32937,14071,34340
32928,14052,34521
32860,14035,34817
32796,13924,34743
32764,13915,34879
32756,13956,34902
32832,13990,35103
32892,14096,35309
32880,14071,35239
32864,14091,35359
32836,14079,35409
32760,14068,35665
32684,13978,35711
32664,13932,35679
32660,13932,35877
32700,13955,35689
32760,14042,36004
32848,14012,36251
32840,14063,36172
32860,14081,36380
32828,14073,36407
32820,14049,36689
32802,14005,36588
32740,13943,36780
32717,13936,36646
32720,13985,36932
32745,13962,37197
32800,14037,37100
32820,14079,37261
32808,14150,37367
32784,14061,37127
32784,14057,37319
32764,14039,37648
32720,13925,37879
32745,13926,37988
32772,14004,37932
32848,13969,38001
32860,14034,38124
32896,14062,38231
32900,14082,38298
32812,14082,38269
32712,14075,38577
32598,13970,38631
32488,13920,38695
32520,13905,38733
32540,13939,39037
32589,13999,38879
32640,14059,39068
32708,14123,39290
32728,14065,39210
32688,14055,39371
32650,14050,39468
32636,13965,39214
32660,13941,39403
32704,13954,39711
32766,13914,39877
32822,13959,39965
32868,14020,39927
32956,14113,40141
32988,14082,40228
32992,14089,39915
32880,14009,40377
32813,13966,40687
32772,13935,40502
32764,13905,40706
32805,13968,40710
32862,13948,40916
32912,13994,41113
32950,14053,41048
32980,14125,41192
33008,14042,41268
32928,14020,41325
32805,13989,41538
32764,13948,41453
32823,13959,41671
32828,13910,41317
32877,13970,41620
32932,14012,41908
32996,14094,42193
33001,14170,42015
32932,14034,42175
32856,14017,42149
32796,13972,42471
32716,13929,42375
32730,13946,42607
32728,13905,42702
32740,13966,42535
32797,14051,42800
32878,14044,42968
32864,14075,43072
32804,14124,43176
32812,14021,43101
32804,13989,43361
32780,13964,43101
32756,13889,43317
32748,13927,43567
32796,13995,43677
32788,13982,43751
32789,14059,43717
32736,14084,43932
32644,14150,44020
32468,13999,43886
32268,13985,44108
32072,13921,44183
31828,13930,44317
31536,13960,44068
31280,13938,44428
31168,13997,44550
31060,14065,44581
31106,14127,44629
31192,14037,44604
31192,13997,44807
31288,13950,44935
31528,13915,44825
31900,13905,45031
32189,13957,45041
32309,13937,45164
32396,13985,45181
32512,14060,45305
32296,14102,45315
32213,14037,45470
32376,13997,45208
33028,13969,45476
34188,13946,45657
35532,13874,45605
36616,13893,45799
37208,13935,45775
37128,14018,45735
36688,14021,45925
36172,14054,45997
35604,14052,46073
35048,13993,46117
34512,13980,45829
33948,13955,46196
33450,13872,46300
33124,13917,46268
32881,13981,46397
32720,13970,46503
32660,14041,46551
32568,14076,46253
32464,14108,46596
32388,13988,46694
32376,13960,46727
32452,13947,46773
32440,13871,46741
32420,13901,46919
32492,13986,46966
32524,13966,47053
32544,14045,47092
32500,14127,46896
32436,14025,47214
32360,13998,47206
32318,13969,47367
32344,13885,47415
32372,13893,47127
32376,13943,47448
32448,13916,47596
32544,13981,47615
32602,14061,47644
32616,14032,47759
32560,14052,47514
32520,14055,47672
32456,13969,47799
32428,13942,47879
32448,13862,48033
32460,13909,48056
32440,13976,48070
32440,13956,48156
32480,14027,47824
32492,14055,48287
32493,14055,48263
32452,14046,48388
32376,13941,47989
32309,13912,48349
32309,13895,48516
32325,13972,48508
32332,13940,48556
32400,14002,48623
32488,14007,48696
32528,14046,48546
32460,14063,48703
32404,13983,48749
32360,13945,48856
32268,13906,48903
32252,13917,48946
32276,13877,48751
32324,13922,49028
32329,13973,49021
32424,14081,49132
32508,14037,48775
32516,14049,49188
32460,14035,49236
32420,13940,49205
32344,13892,49276
32352,13889,49300
32360,13884,49351
32320,13957,49351
32340,13954,49489
32348,14013,49156
32356,14046,49516
32321,14036,49588
32248,14044,49556
32200,14029,49671
32150,13881,49415
32180,13865,49613
32188,13885,49695
32276,13962,49772
32349,13945,49836
32376,14015,49777
32336,14069,49821
32312,14007,49890
32224,13974,49913
32116,13955,49870
32056,13909,49980
32020,13954,49873
32069,13861,50017
32140,13923,50055
32188,13964,50041
32244,14050,49688
32228,14018,49932
32216,14021,50127
32160,14023,50126
32133,13927,49671
32104,13879,50132
32044,13861,50200
32048,13910,50140
32050,13892,50183
32080,13956,49839
32084,14013,50101
32044,14062,50300
32044,14000,50207
32072,13982,50327
32032,13988,50183
31952,13879,50311
31832,13860,50311
31828,13919,50325
31916,13895,50380
31940,13932,50439
31930,13990,50428
31900,14026,50471
31908,14052,50137
31900,13964,50506
31860,13951,50548
31776,13915,50528
31732,13847,50127
31802,13873,50556
31852,13949,50624
31956,13938,50648
32022,14024,50649
32000,14015,50646
32016,14011,50629
32024,13999,50727
32004,13923,50732
32004,13891,50599
31937,13871,50663
31920,13900,50805
31996,13884,50812
32085,13957,50822
32132,13983,50836
32128,14007,50764
32089,14017,50809
32060,14055,50900
32020,13930,50911
31980,13892,50928
32004,13935,50744
32042,13861,50863
32101,13935,50869
32168,13924,50919
32208,14007,50915
32264,14002,50917
32304,14005,51001
32412,13988,51015
32456,13977,50951
32414,13860,51038
32332,13852,51036
32356,13861,50567
32464,13954,50670
32596,13920,51003
32692,13981,51022
32754,14037,51071
32780,14045,51044
32772,13960,51079
32768,13914,50887
32736,13881,51012
32752,13898,51084
32772,13834,51012
32888,13885,51088
33036,13961,51079
33124,13967,51028
33133,13994,50983
33152,14012,51049
33128,13969,51071
33076,13932,51070
33076,13890,51025
33096,13887,50831
33132,13922,51097
33244,13871,50980
33302,13909,51089
33288,13988,51023
33368,14052,50719
33336,13984,51053
33296,13971,51041
33244,13939,51095
33184,13896,51069
33212,13825,50652
33214,13834,51063
33313,13866,50996
33372,13922,51092
33416,14005,50999
33436,13988,50996
33444,13978,51116
33396,13957,51005
33324,13922,51095
33280,13863,50973
33252,13863,51073
33216,13932,51116
33276,13855,51036
33357,13926,51015
33408,14007,50992
33368,13978,51047
33356,13981,51111
33319,13957,51052
33240,13950,51007
33196,13908,51108
33173,13889,51039
33156,13823,51116
33164,13857,51016
33229,13920,50612
33244,14020,50904
33236,13977,50972
33188,13991,50999
33132,13971,51021
33076,13958,51079
33036,13853,51076
33072,13832,51063
33112,13917,51052
33132,13852,51025
33176,13927,51024
33192,13949,50999
33244,14000,50940
33173,14017,50925
33100,13937,50991
33044,13892,50780
33013,13852,50964
33028,13842,50913
33024,13841,50900
33054,13903,50932
33076,13892,50695
33125,13968,50780
33160,13991,50925
33108,14014,50880
33088,13933,50851
33064,13911,50812
33017,13864,50823
32964,13846,50844
33048,13929,50756
33148,13844,50789
33192,13910,50689
33197,13967,50676
33188,14027,50728
33184,13965,50647
33132,13933,50671
33076,13988,50685
33036,13839,50567
33076,13805,50636
33116,13817,50516
33172,13861,50596
33204,13948,50484
33212,13935,50477
33221,13977,50487
33197,13978,50380
33156,13953,50452
33108,13908,50431
33060,13862,50292
33016,13826,50284
32984,13860,50305
33037,13913,50324
33054,13881,50252
33108,13933,49980
33188,13978,50144
33181,14022,50183
33121,13925,50081
33048,13894,50102
32988,13846,50062
33005,13857,49956
33057,13797,49753
33116,13855,49798
33112,13903,49836
33180,13993,49865
33248,13951,49847
33244,13968,49799
33192,13972,49711
33052,13965,49652
32956,13829,49572
32996,13803,49565
33036,13827,49464
33088,13855,49543
33110,13901,49464
33132,13980,49426
33104,14026,49254
33093,14039,49364
33056,13925,49244
33032,13877,49239
33004,13830,49082
32948,13819,48901
32937,13820,49063
32961,13913,49047
33008,13868,49031
33076,13923,48993
33108,13965,48937
33104,13980,48885
33088,14005,48846
33056,13881,48772
33048,13837,48644
32989,13827,48679
33056,13871,48633
33036,13822,48576
33060,13865,48135
33156,13940,48343
33156,13980,48391
33136,13946,48345
33092,13921,48245
32988,13893,48262
32909,13873,48166
32884,13785,48053
32844,13815,48087
32900,13874,47953
32896,13862,47884
32960,13909,47844
32989,13957,47800
32960,13991,47736
32892,13907,47677
32876,13883,47623
32864,13885,47552
32852,13780,47565
32876,13806,47536
32900,13812,47487
32936,13876,47381
32936,13909,47339
32886,13951,47292
32892,13945,47089
32916,13937,47150
32900,13933,47087
32896,13811,46993
32852,13778,46991
32804,13791,46511
32876,13845,46720
32928,13909,46773
32976,13895,46717
32954,13929,46628
32920,13963,46536
32894,13965,46524
32868,13865,46458
32844,13807,46247
32800,13775,46324
32760,13788,46255
32756,13822,46130
32828,13900,46140
32884,13899,45668
32960,13947,45864
32984,13952,45909
32912,13941,45790
32836,13928,45776
32828,13807,45365
32840,13775,45524
32870,13777,45534
32896,13830,45463
32952,13871,45445
32988,13972,45016
32996,13945,45249
32932,13959,44993
32940,13952,45126
32900,13857,45063
32816,13831,44999
32777,13823,44935
32856,13769,44789
32984,13793,44837
32966,13849,44477
33036,13910,44624
33048,13981,44617
33017,13920,44569
32958,13900,44399
32888,13871,44356
32784,13840,44391
32712,13844,44001
32729,13763,44053
32804,13810,44082
32904,13915,44020
32932,13909,43996
32980,13940,43960
32985,13986,43911
32932,13887,43724
32916,13855,43837
32902,13819,43780
32864,13783,43388
32824,13819,43502
32836,13861,43572
32921,13912,43399
32948,13886,43444
32925,13925,43015
32892,13919,43229
32896,13906,43196
32848,13869,43220
32797,13874,43175
32777,13761,43104
32780,13775,42841
32760,13801,42948
32808,13861,42861
32836,13945,42453
32864,13916,42719
32884,13917,42743
32876,13908,42591
32823,13861,42485
32800,13813,42446
32788,13810,42364
32796,13753,42312
32856,13793,42247
32884,13897,42209
32944,13901,42137
32912,13959,42081
32906,13914,41574
32860,13897,41732
32828,13860,41852
32790,13855,41924
32765,13754,41875
32760,13760,41773
32788,13827,41677
32768,13884,41524
32892,13869,41479
32992,13915,41421
33088,13921,41325
33108,13935,41304
33078,13939,40849
33080,13792,41030
33064,13779,41191
33028,13759,41103
33048,13813,40938
33150,13812,40931
33257,13863,40469
33272,13922,40756
33205,13925,40702
33124,13903,40795
33056,13909,40780
32972,13784,40749
32924,13761,40655
32948,13784,40524
32900,13855,40316
32992,13805,40232
33045,13871,40229
33068,13938,40131
33089,13969,40124
33012,13991,40124
33016,13836,40055
33064,13804,40014
33065,13774,39941
33012,13805,39880
33012,13768,39821
33096,13806,39773
33132,13876,39695
33108,13943,39304
33100,13988,39225
33024,13883,39551
32980,13838,39463
32916,13806,39089
32905,13796,39324
32908,13732,39097
32840,13775,38911
32704,13837,38865
32564,13915,38788
32381,13893,39106
32092,13924,39059
31820,13907,39007
31500,13927,38945
31260,13782,38852
31080,13759,38704
31048,13791,38687
31164,13854,38652
31284,13800,38543
31408,13876,38677
31668,13891,38645
31996,13890,38513
32313,13878,38319
32360,13852,38279
32504,13826,38284
32524,13738,38276
32340,13730,38209
32268,13789,38166
32624,13895,38098
33564,13844,38046
34960,13912,37980
36413,13964,37943
37312,13852,37716
37616,13836,37521
37292,13783,37749
36733,13789,37825
36212,13724,37750
35672,13758,37637
35184,13801,37454
34749,13877,37336
34280,13938,37383
33856,13885,37337
33508,13875,37253
33197,13861,37164
32972,13764,37125
32820,13748,37058
32756,13764,37013
32664,13814,36620
32704,13791,36743
32724,13860,36881
32680,13902,36903
32600,13941,36604
32568,13858,36559
32556,13828,36497
32468,13767,36381
32396,13748,36404
32448,13758,36380
32500,13740,36301
32504,13811,36252
32516,13872,36212
32564,13881,36140
32540,13880,35781
32517,13883,35760
32480,13909,35673
32464,13776,35719
32380,13760,35569
32368,13712,35728
32353,13750,35709
32480,13791,35809
32534,13865,35503
32550,13934,35540
32548,13885,35424
32544,13878,35335
32481,13812,35334
32396,13762,35292
32352,13731,35263
32380,13767,35188
32449,13736,35132
32448,13787,35036
32488,13878,34735
32580,13860,34748
32540,13882,34844
32485,13867,34908
32398,13845,34741
32372,13822,34567
32332,13712,34589
32324,13720,34460
32374,13795,34389
32413,13775,34316
32404,13823,34335
32492,13925,34276
32453,13866,34244
32404,13857,34196
32348,13851,34117
32388,13752,34068
32348,13733,34020
32336,13759,33959
32352,13723,33900
32364,13787,33846
32441,13854,33759
32520,13857,33697
32488,13891,33437
32440,13866,33517
32388,13836,33639
32324,13815,33601
32320,13708,33317
32312,13726,33266
32320,13752,33261
32324,13769,33239
32384,13811,32944
32350,13868,32879
32348,13899,32929
32292,13901,32929
32248,13800,33020
32210,13751,32919
32172,13708,32732
32140,13708,32688
32172,13733,32564
32224,13787,32631
32292,13849,32540
32336,13919,32414
32348,13859,32373
32284,13852,32229
32229,13875,32157
32176,13758,32076
32137,13726,32071
32136,13696,32172
32105,13730,32112
32144,13797,32020
32172,13892,31983
32172,13846,31929
32112,13872,31839
32076,13831,31708
32000,13805,31588
31928,13819,31516
31928,13703,31431
31906,13711,31455
31904,13776,31367
31948,13753,31327
32032,13800,31366
32064,13868,31215
32064,13880,31007
32029,13897,30988
31972,13792,30946
31960,13754,30908
31958,13751,30847
32014,13684,30791
32008,13724,30717
32016,13801,30678
32068,13796,30623
32088,13863,30540
32052,13905,30487
31992,13830,30438
31940,13814,30356
31964,13743,30332
31932,13719,30389
31960,13709,30286
31999,13768,30119
32040,13745,30041
32050,13800,30000
32096,13859,29978
32177,13868,29831
32217,13893,29781
32136,13788,29801
32124,13762,29735
32108,13779,29761
32141,13686,29725
32176,13729,29508
32252,13797,29527
32329,13791,29501
32328,13855,29450
32308,13871,29399
32296,13885,29357
32272,13782,29289
32278,13756,29202
32304,13757,29156
32380,13686,29088
32421,13723,29015
32472,13795,29023
32514,13793,28980
32572,13841,28932
32621,13860,28847
32596,13868,28824
32605,13877,28790
32652,13737,28736
32685,13707,28691
32724,13729,28603
32787,13704,28393
32916,13743,28337
32932,13813,28288
33060,13925,28246
33021,13844,28269
32996,13844,28236
33016,13828,28351
33001,13731,28214
32976,13692,28119
33012,13703,28138
33084,13698,28100
33140,13761,28081
33212,13845,28085
33292,13838,27943
33320,13855,27919
33308,13869,27928
33224,13774,27669
33125,13736,27737
33112,13701,27702
33120,13695,27513
33122,13716,27565
33144,13776,27655
33185,13830,27429
33304,13827,27439
33348,13845,27429
33272,13866,27384
33220,13770,27332
33200,13748,27129
33121,13711,27061
33167,13773,27078
33133,13684,27100
33156,13747,27141
33200,13832,27058
33260,13831,27066
33284,13829,26916
33232,13820,26849
33184,13817,26881
33124,13725,26862
33125,13676,26638
33156,13679,26620
33136,13740,26615
33198,13720,26549
33244,13787,26518
33265,13844,26487
33260,13922,26451
33201,13812,26424
33176,13797,26462
33096,13775,26421
33044,13671,26511
33072,13690,26458
33032,13742,26341
33120,13721,26282
33160,13767,26269
33153,13818,26071
33212,13849,26064
33173,13823,26069
33168,13823,26044
33085,13724,26137
32992,13693,26164
33004,13673,26098
33000,13713,25996
33000,13775,26022
33084,13875,25953
33204,13810,25860
33196,13833,25823
33148,13853,25862
33096,13767,25783
33000,13730,25760
32968,13671,25917
32988,13671,25725
33084,13752,25736
33120,13715,25845
33188,13767,25637
33212,13820,25708
33180,13868,25696
33112,13905,25519
33094,13762,25492
33080,13722,25479
32988,13701,25516
32968,13710,25591
32960,13669,25628
33028,13732,25562
33112,13802,25585
33196,13905,25557
33196,13814,25373
33140,13803,25433
33120,13769,25429
33068,13768,25404
33028,13660,25232
33000,13678,25214
33040,13702,25190
33080,13764,25288
33108,13755,25381
33152,13810,25279
33141,13831,25223
33112,13856,25231
33036,13866,25104
33032,13716,25114
33026,13684,25095
32994,13707,25160
32992,13663,25159
33020,13725,25184
33080,13797,25146
33113,13796,25133
33144,13825,25101
33121,13813,25081
33078,13829,25053
33028,13727,24887
33044,13709,24804
33029,13642,24773
33038,13688,24759
33048,13743,24725
33076,13743,24709
33132,13811,24710
33105,13831,24785
33093,13846,24855
33064,13746,24701
33064,13719,24654
33012,13709,24732
33037,13637,24711
32993,13655,24557
32988,13701,24542
33013,13757,24607
33047,13855,24704
33044,13802,24580
33048,13788,24519
33000,13769,24570
32903,13765,24548
32848,13651,24407
32856,13651,24368
32892,13672,24338
32980,13727,24455
33004,13815,24510
32972,13790,24333
32920,13799,24426
32904,13798,24266
32940,13769,24224
32893,13770,24209
32864,13649,24202
32878,13647,24270
32840,13699,24356
32916,13789,24212
32968,13756,24212
32968,13828,24172
33036,13796,24151
33012,13790,24148
32936,13796,24202
32920,13698,24220
32948,13648,24140
32985,13664,24180
33004,13648,24057
33029,13705,24020
33016,13775,24005
33040,13780,24000
33065,13807,23962
32948,13850,24078
32860,13751,24173
32880,13745,24145
32862,13641,24142
32832,13631,24054
32876,13664,23974
32932,13715,23944
32928,13775,24019
32968,13775,23998
33060,13817,23877
33056,13816,23824
32977,13732,23804
32876,13711,23780
32865,13698,23820
32924,13629,23796
32945,13673,23860
32968,13677,23789
32908,13739,23733
32940,13836,23671
33040,13789,23681
33012,13812,23652
32952,13731,23661
32924,13700,23785
32860,13636,23598
32838,13637,23641
32845,13633,23716
32848,13681,23697
32900,13712,23675
32948,13783,23677
32992,13863,23663
32972,13764,23529
32893,13736,23491
32832,13728,23444
32792,13631,23559
32772,13634,23573
32784,13676,23628
32848,13665,23593
32892,13731,23450
32921,13878,23508
32961,13781,23422
32921,13825,23554
32868,13740,23537
32864,13751,23521
32864,13658,23433
32801,13688,23394
32796,13638,23493
32838,13700,23472
32909,13702,23462
32960,13797,23343
32932,13786,23217
32856,13801,23356
32840,13724,23425
32804,13694,23262
32784,13667,23239
32822,13665,23326
32896,13618,23314
32879,13678,23170
32860,13735,23152
32872,13817,23113
32928,13859,23299
32894,13756,23186
32868,13717,23238
32804,13696,23238
32720,13650,23108
32697,13655,23040
32760,13615,23065
32832,13669,23013
32828,13754,22994
32812,13748,22981
32828,13792,22983
32796,13811,22960
32721,13717,23005
32784,13694,23076
32752,13676,22993
32728,13596,23110
32776,13610,22992
32848,13667,23006
32828,13695,23023
32852,13766,22998
32892,13809,22908
32744,13749,22835
32688,13739,22809
32700,13715,22800
32724,13686,22780
32760,13593,22767
32780,13636,22890
32836,13708,22924
32816,13691,22878
32788,13747,22844
32836,13789,22868
32808,13801,22851
32784,13710,22719
32732,13669,22652
32625,13641,22789
32608,13641,22726
32561,13672,22765
32628,13641,22772
32676,13700,22769
32816,13775,22755
32864,13761,22607
32796,13759,22576
32644,13740,22545
32612,13715,22740
32536,13695,22690
32480,13587,22686
32452,13611,22547
32576,13654,22525
32620,13683,22514
32684,13766,22498
32733,13791,22492
32680,13741,22469
32574,13703,22440
32576,13689,22428
32548,13667,22604
32524,13596,22486
32576,13617,22567
32645,13709,22608
32752,13682,22599
32797,13757,22590
32817,13745,22589
32816,13753,22567
32768,13768,22539
32744,13666,22530
32740,13659,22436
32680,13577,22452
32664,13619,22497
32720,13683,22508
32772,13669,22456
32876,13752,22416
32906,13797,22361
32944,13729,22364
32844,13705,22340
32786,13723,22349
32772,13601,22362
32748,13602,22369
32726,13628,22383
32778,13701,22279
32724,13665,22216
32852,13739,22173
32872,13773,22333
32764,13729,22372
32744,13707,22316
32704,13681,22234
32684,13595,22181
32676,13575,22258
32644,13601,22272
32688,13649,22124
32752,13730,22074
32788,13727,22086
32748,13783,22080
32801,13723,22236
32746,13714,22235
32720,13717,22236
32636,13594,22231
32557,13583,22225
32584,13641,22213
32636,13622,22182
32684,13670,22058
32714,13765,22140
32698,13737,22135
32732,13745,22021
32724,13727,21996
32592,13647,22099
32452,13636,22097
32320,13564,22080
32150,13591,22073
32006,13687,21972
31820,13675,22056
31598,13759,22037
31356,13740,22032
31152,13771,22008
30984,13703,21909
30936,13669,21965
30952,13591,21886
31056,13575,21908
31216,13574,21964
31470,13622,21916
31904,13696,21920
32316,13705,21920
32481,13755,21905
32460,13763,21803
32560,13680,21780
32448,13658,21724
32388,13626,21693
32548,13560,21664
33113,13600,21775
34104,13669,21773
35344,13668,21684
36550,13798,21798
37288,13735,21790
37320,13768,21767
36933,13671,21754
36336,13665,21741
35716,13584,21724
35044,13582,21686
34550,13567,21673
34064,13650,21596
33598,13651,21468
33204,13749,21414
32960,13726,21418
32708,13725,21380
32613,13717,21535
32544,13724,21479
32437,13608,21476
32400,13597,21375
32380,13568,21346
32452,13619,21412
32444,13639,21454
32428,13724,21339
32440,13728,21201
32444,13733,21187
32392,13773,21168
32360,13639,21165
32296,13612,21208
32320,13556,21266
32264,13580,21186
32236,13600,21132
32300,13664,21149
32292,13700,21208
32432,13763,21289
32328,13713,21271
32221,13713,21262
32140,13631,21237
32100,13608,21250
32104,13557,21256
32120,13613,21243
32204,13596,21220
32288,13665,21212
32360,13700,21218
32364,13729,21169
32336,13757,21178
32176,13670,21188
32176,13638,21214
32156,13630,21211
32165,13551,21197
32134,13582,21116
32185,13647,21095
32236,13629,21037
32296,13724,21071
32324,13723,21120
32328,13750,21196
32287,13670,21188
32186,13663,21197
32189,13565,21185
32194,13553,21175
32162,13611,21098
32148,13587,21065
32212,13647,21051
32318,13767,21017
32372,13702,21137
32304,13730,21152
32232,13668,21132
32196,13682,21122
32212,13572,21114
32216,13565,21140
32213,13545,21108
32260,13607,20988
32300,13685,20977
32292,13683,21045
32320,13734,21031
32317,13697,20943
32232,13675,20930
32224,13724,20922
32128,13583,20906
32126,13583,20908
32172,13547,20884
32196,13605,20864
32252,13680,20863
32264,13685,20864
32288,13743,20925
32296,13693,20903
32253,13658,20926
32132,13636,20909
32132,13561,20878
32096,13547,20860
32124,13575,20786
32084,13652,20714
32092,13617,20757
32152,13697,20750
32192,13767,20713
32096,13695,20705
32064,13678,20690
32028,13703,20664
31966,13558,20580
31968,13551,20477
31964,13593,20440
32012,13576,20391
32008,13628,20381
31980,13763,20440
31980,13717,20422
31924,13743,20302
31860,13662,20290
31824,13638,20263
31817,13562,20265
31792,13532,20223
31804,13558,20204
31781,13631,20238
31792,13616,20385
31832,13684,20308
31810,13737,20244
31844,13686,20233
31717,13666,20197
31696,13634,20223
31780,13621,20227
31716,13525,20139
31760,13559,20084
31808,13596,20025
31821,13687,19962
31836,13665,20151
31856,13692,20039
31884,13700,20002
31832,13748,20021
31840,13628,19940
31872,13582,19967
31868,13582,19978
31770,13610,19942
31780,13577,19867
31861,13631,19821
31973,13724,19764
32032,13694,19765
32013,13714,19750
32012,13649,19748
31988,13624,19773
31914,13607,19748
31940,13521,19605
31976,13548,19552
32072,13657,19512
32100,13604,19556
32160,13676,19646
32225,13717,19636
32304,13701,19525
32252,13701,19557
32257,13604,19514
32292,13567,19508
32300,13536,19489
32372,13575,19345
32484,13557,19287
32584,13619,19240
32588,13669,19229
32633,13725,19383
32656,13706,19366
32713,13644,19258
32692,13639,19244
32694,13544,19302
32704,13527,19300
32776,13601,19258
32799,13573,19095
32864,13649,19020
32896,13647,19088
32992,13697,19176
33038,13701,19124
33047,13759,19026
33001,13597,19020
32988,13563,18996
33012,13509,19004
33029,13544,18989
33088,13610,18979
33176,13595,18936
33229,13694,18921
33268,13673,18893
33236,13694,18775
33186,13630,18774
33148,13617,18705
33100,13578,18657
33064,13508,18630
33134,13529,18744
33200,13619,18693
33252,13596,18663
33313,13670,18705
33348,13672,18596
33304,13692,18557
33208,13704,18586
33112,13616,18578
33029,13572,18559
33006,13504,18536
33072,13531,18516
33110,13543,18498
33244,13609,18477
33268,13687,18340
33221,13668,18269
33220,13691,18428
33220,13700,18365
33104,13589,18384
33096,13565,18279
33112,13559,18177
33132,13506,18357
33124,13549,18267
33116,13615,18281
33132,13632,18280
33129,13676,18262
33040,13722,18172
33048,13629,18108
33028,13623,18109
33032,13534,18054
33032,13521,18157
33017,13558,18180
33000,13537,18135
33040,13607,18121
33024,13634,18104
33064,13676,18111
33058,13696,18071
33040,13620,18013
33021,13604,17987
32996,13528,17929
32992,13511,17919
32994,13606,17900
32964,13539,17901
32917,13634,17916
32976,13627,17927
33052,13679,17927
33044,13650,17927
33036,13636,17863
33028,13610,17871
32980,13599,17991
32900,13503,18020
32876,13528,18000
32968,13529,17968
33045,13597,17916
33084,13677,17927
33048,13667,17970
33016,13666,17901
33044,13668,17926
32972,13577,17914
32984,13540,17936
33000,13575,17932
33020,13499,17940
33056,13541,17925
33072,13626,17841
33120,13620,17797
33180,13671,17805
33144,13699,17790
33104,13630,17866
32976,13636,17903
32980,13527,17857
32950,13495,17840
32997,13517,18004
33048,13560,17997
33056,13633,17935
33121,13619,17956
33214,13660,17959
33188,13713,17967
33068,13619,18007
32944,13584,18063
32908,13585,18055
32918,13478,18077
32980,13506,18052
33072,13546,18059
33116,13565,18088
33108,13626,17953
33184,13671,17927
33244,13739,17951
33188,13624,17948
33133,13610,18020
33112,13516,18023
33133,13517,17980
33040,13482,17954
33045,13532,17975
33084,13621,18087
33136,13629,17985
33200,13703,17988
33180,13648,17986
33110,13660,18001
33093,13568,18007
33068,13532,18019
33052,13483,18054
32998,13505,18188
33092,13570,18197
33140,13558,18254
33164,13649,18252
33172,13638,18206
33112,13649,18253
33068,13636,18247
33040,13687,18251
33000,13513,18333
32941,13496,18341
32901,13527,18226
32984,13508,18230
33016,13575,18389
33032,13638,18448
33060,13635,18435
33096,13661,18498
33037,13640,18415
33010,13569,18487
32996,13517,18527
32961,13493,18552
32932,13539,18568
32948,13508,18501
33040,13551,18527
33076,13613,18620
33072,13687,18613
33056,13633,18677
33024,13617,18709
33036,13559,18677
32996,13534,18708
32960,13473,18783
32927,13500,18853
32927,13504,18877
32932,13562,18889
32932,13659,18924
32980,13632,18858
33012,13647,18887
32969,13666,18917
32896,13558,18961
32860,13525,19032
32856,13575,19064
32876,13478,19087
32936,13533,19053
32992,13540,19139
32970,13612,19173
32920,13631,19200
32906,13659,19237
32872,13603,19233
32869,13585,19281
32902,13508,19334
32884,13486,19360
32908,13519,19308
32924,13497,19329
32972,13551,19360
33024,13646,19397
33080,13629,19433
33069,13652,19509
33004,13599,19550
32992,13555,19593
32972,13517,19514
32900,13509,19484
32892,13468,19727
32932,13495,19668
32964,13553,19741
32992,13657,19783
33016,13623,19759
33036,13648,19743
32944,13621,19722
32920,13550,19796
32888,13513,19830
32852,13518,19848
32893,13460,19975
32950,13500,20130
32956,13545,20047
32948,13640,20146
33024,13623,20204
33036,13642,20257
33041,13644,20301
32972,13550,20349
32928,13513,20393
32893,13506,20306
32936,13459,20354
33000,13501,20355
33044,13571,20591
33057,13693,20533
33056,13620,20641
33044,13636,20719
32988,13703,20764
32952,13550,20628
32856,13519,20681
32820,13479,20773
32821,13489,20959
32860,13553,20969
32924,13530,21055
32980,13598,21113
33041,13690,21171
33036,13615,21212
33052,13601,21172
32964,13590,21187
32896,13495,21182
32864,13479,21284
32868,13502,21440
32901,13597,21516
32964,13519,21508
32992,13594,21595
33040,13645,21684
33028,13613,21741
32986,13580,21684
32916,13558,21687
32886,13533,21827
32841,13453,21908
32856,13471,22045
32880,13510,22068
32876,13518,22048
32920,13571,22136
32944,13639,22238
32916,13609,22309
32816,13608,22393
32708,13591,22448
32704,13493,22409
32669,13470,22504
32712,13481,22645
32784,13473,22655
32788,13512,22652
32772,13580,22720
32808,13673,22780
32792,13610,22851
32756,13600,22909
32700,13602,22948
32684,13487,23060
32628,13508,23191
32656,13461,23166
32704,13525,23269
32740,13505,23332
32812,13575,23404
32828,13603,23498
32765,13615,23732
32732,13654,23797
32672,13541,23874
32664,13563,23947
32657,13476,24033
32660,13521,24112
32684,13464,24182
32756,13525,24121
32788,13598,24199
32772,13599,24270
32756,13617,24404
32756,13599,24560
32728,13599,24742
32638,13476,24659
32540,13461,24812
32492,13466,24896
32552,13520,24999
32600,13507,24922
32600,13576,25036
32644,13674,25095
32588,13601,25180
32572,13589,25248
32536,13595,25366
32456,13493,25454
32428,13472,25633
32440,13500,25772
32476,13466,25773
32556,13508,25807
32576,13566,25859
32600,13650,26032
32646,13592,26116
32632,13591,26036
32661,13588,26144
32681,13479,26244
32654,13448,26382
32636,13465,26544
32637,13458,26619
32728,13507,26770
32800,13606,26760
32872,13593,26893
32836,13609,26890
32744,13599,26912
32670,13528,26973
32684,13487,27100
32724,13492,27184
32756,13423,27278
32812,13484,27365
32860,13556,27446
32886,13545,27519
32900,13611,27589
32880,13653,27655
32844,13594,27668
32784,13599,27775
32740,13503,27984
32716,13433,27893
32740,13449,28052
32748,13503,28182
32820,13501,28112
32852,13580,28150
32840,13584,28241
32846,13626,28327
32800,13565,28463
32740,13532,28565
32690,13497,28474
32676,13460,28528
32692,13497,28560
32712,13471,28807
32700,13545,28861
32700,13536,28922
32772,13605,28933
32828,13583,28958
32821,13605,29213
32764,13514,29288
32716,13488,29293
32628,13465,29253
32580,13421,29309
32608,13473,29364
32628,13534,29436
32542,13535,29576
32424,13600,29720
32228,13626,29869
31988,13557,29880
31732,13534,29972
31416,13465,29919
31144,13449,29949
30993,13472,30007
30884,13444,30210
31009,13505,30264
31136,13580,30368
31292,13575,30458
31476,13629,30500
31764,13548,30580
32117,13533,30675
32344,13522,30577
32408,13419,30585
32604,13430,30716
32612,13484,30786
32476,13476,30839
32512,13553,30925
32748,13638,30913
33540,13577,31031
34610,13557,31097
35808,13591,31121
36688,13474,31349
37012,13484,31418
36764,13423,31321
36344,13496,31237
35820,13471,31332
35296,13551,31600
34753,13565,31559
34232,13623,31829
33664,13566,31699
33210,13556,31716
32862,13454,31740
32644,13439,32001
32530,13469,32063
32508,13431,32123
32520,13489,32175
32548,13521,32164
32548,13579,32231
32545,13631,32398
32512,13553,32500
32464,13529,32508
32420,13455,32663
32360,13439,32839
32312,13445,32861
32289,13425,32966
32352,13491,32945
32446,13585,32929
32492,13583,32848
32492,13641,33188
32372,13558,33265
32305,13554,33261
32272,13462,33576
32325,13467,33463
32408,13398,33511
32384,13449,33665
32428,13492,33815
32448,13579,33967
32492,13559,34012
32508,13584,34118
32457,13599,34274
32364,13498,34153
32284,13471,34223
32288,13455,34345
32284,13398,34455
32268,13437,34695
32292,13537,34705
32352,13512,34775
32404,13575,34920
32452,13624,34927
32476,13535,35029
32448,13521,35164
32388,13448,35165
32364,13420,35323
32336,13390,35374
32336,13430,35359
32404,13513,35359
32409,13509,35212
32424,13570,35589
32416,13635,35675
32420,13538,35704
32392,13524,35749
32336,13514,36015
32252,13412,35983
32264,13428,36012
32344,13420,35873
32432,13467,35904
32484,13533,35990
32504,13613,36359
32484,13553,36442
32460,13550,36503
32421,13511,36583
32392,13493,36665
32340,13388,36696
32309,13413,36775
32336,13469,36839
32436,13445,36871
32500,13523,36988
32486,13540,37287
32464,13570,37300
32428,13587,37213
32444,13480,37041
32429,13467,37112
32372,13422,37479
32320,13384,37545
32301,13408,37647
32365,13477,37688
32446,13494,37720
32452,13559,37734
32414,13586,37946
32328,13521,38038
32304,13500,38132
32300,13500,38061
32233,13391,38100
32208,13391,37964
32208,13456,38309
32231,13436,38348
32248,13509,38340
32224,13535,38453
32184,13559,38698
32164,13521,38693
32128,13504,38660
32144,13480,38696
32116,13384,38471
32108,13396,38528
32136,13495,38940
32128,13452,39013
32124,13575,39072
32132,13544,39126
32084,13578,39192
32021,13591,39268
31924,13480,39339
31876,13461,39394
31812,13385,39420
31864,13389,39508
31912,13416,39596
31972,13503,39647
31968,13485,39718
31968,13573,39660
32028,13539,39970
32084,13538,40029
32044,13516,40116
31956,13428,40084
31868,13413,40069
31812,13370,40112
31844,13415,40095
31900,13487,39870
31978,13478,39937
32096,13544,40196
32125,13595,40473
32156,13518,40487
32132,13531,40473
32068,13421,40551
31966,13407,40740
31988,13369,40834
32108,13393,40744
32132,13443,40849
32212,13585,40920
32252,13541,40927
32264,13569,41005
32220,13514,41076
32157,13485,41149
32148,13497,41431
32136,13385,41377
32173,13401,41351
32228,13380,41125
32308,13431,41092
32420,13528,41572
32542,13514,41632
32573,13553,41652
32632,13565,41788
32668,13477,41991
32668,13471,42068
32632,13368,42076
32700,13389,42082
32837,13379,42173
32908,13429,42269
32964,13495,42324
33060,13517,42338
33108,13543,42307
33124,13570,42333
33112,13495,42072
33076,13477,42527
33084,13368,42628
33160,13365,42685
33241,13377,42759
33327,13422,42779
33388,13483,42828
33432,13582,42874
33416,13530,42946
33464,13545,42897
33445,13461,43079
33369,13444,43189
33296,13361,43269
33316,13372,43293
33348,13431,43261
33432,13412,43089
33458,13501,43460
33508,13513,43549
33485,13580,43442
33472,13492,43495
33432,13483,43692
33354,13407,43733
33280,13372,43757
33284,13398,43837
33334,13367,43837
33396,13421,43845
33436,13452,44015
33472,13541,44148
33488,13511,44197
33420,13511,44252
33400,13516,44337
33412,13402,44380
33380,13381,44103
33364,13379,44372
33384,13364,44413
33428,13427,44464
33493,13491,44485
33488,13498,44460
33448,13519,44652
33417,13513,44668
33372,13450,44735
33344,13430,44687
33272,13413,44763
33285,13369,45109
33292,13431,45204
33348,13399,45256
33436,13461,45319
33460,13550,45380
33432,13505,45319
33384,13525,45473
33308,13446,45436
33192,13423,45425
33153,13348,45332
33180,13354,45777
33188,13356,45782
33240,13453,45860
33372,13452,45931
33412,13493,45880
33396,13511,45717
33376,13542,45983
33305,13452,45925
33256,13420,46068
33208,13396,46272
33252,13332,46424
33308,13376,46519
33317,13412,46576
33280,13502,46623
33256,13487,46708
33216,13524,46772
33200,13513,46852
33142,13434,46919
33060,13410,46993
33036,13383,47013
33012,13332,47070
33072,13369,47192
33132,13446,47271
33224,13438,47329
33308,13511,47396
33309,13525,47468
33304,13562,47547
33281,13438,47607
33228,13407,47672
33160,13397,47744
33088,13325,47808
33112,13357,47873
33184,13413,47852
33340,13487,47930
33416,13478,47992
33396,13503,48058
33332,13493,48229
33253,13513,48257
33212,13389,48293
33200,13353,48412
33172,13394,48496
33236,13350,48562
33260,13404,48623
33272,13486,48647
33320,13477,48737
33372,13513,48831
33368,13514,48900
33318,13432,48952
33240,13405,48961
33144,13333,49028
33144,13338,49159
33216,13408,49220
33316,13375,49287
33344,13444,49316
33340,13534,49316
33341,13478,49415
33324,13484,49533
33252,13472,49567
33180,13389,49595
33108,13332,49671
33076,13332,49671
33120,13387,49559
33140,13372,49829
33200,13437,49892
33248,13566,49764
33264,13504,50097
33248,13495,50167
33214,13427,50294
33164,13405,50364
33108,13393,50364
33104,13343,50532
33156,13397,50583
33188,13374,50597
33164,13479,50524
33176,13468,50695
33212,13493,50761
33160,13527,50887
33120,13439,51004
33088,13426,51015
33004,13395,51120
33004,13306,51205
33040,13361,51261
33064,13426,51335
33104,13412,51391
33180,13483,51372
33200,13479,51431
33144,13461,51564
33060,13433,51673
32996,13455,51719
32908,13333,51790
32864,13359,51846
32924,13332,51888
32996,13368,51919
33024,13420,51567
33052,13498,51924
33076,13477,51990
33093,13481,52143
33068,13455,52228
33041,13478,52292
33008,13317,52324
32980,13331,52359
33040,13377,52460
33065,13434,52537
33080,13407,52623
33040,13461,52717
33004,13498,52773
32956,13495,52845
32860,13414,52817
32848,13399,52768
32800,13318,52487
32744,13343,53055
32760,13316,53084
32820,13377,53084
32848,13403,53220
32920,13476,53304
32920,13516,53345
32892,13445,53356
32900,13439,53357
32860,13371,53316
32805,13340,53069
32793,13361,53597
32856,13315,53586
32968,13380,53588
33044,13447,53644
33072,13448,53797
33112,13478,53839
33060,13473,53945
32917,13429,53892
32840,13389,54017
32804,13363,53924
32813,13357,54104
32812,13311,54167
32904,13380,54246
32960,13439,54309
32989,13445,54352
33020,13483,54407
33056,13465,54346
33000,13501,54425
32928,13369,54520
32872,13369,54503
32869,13291,54601
32932,13326,54693
32996,13372,54636
33066,13387,54711
33040,13472,54821
33016,13516,54860
32960,13482,54484
32880,13425,54784
32864,13391,54927
32828,13307,54701
32808,13303,55108
32816,13341,55228
32821,13346,55212
32864,13392,55240
32900,13460,55302
32908,13521,55380
32928,13435,55463
32917,13424,55512
32964,13375,55624
32940,13345,55687
32888,13351,55517
32888,13302,55696
32912,13357,55768
32905,13462,55652
32926,13454,55879
32916,13471,55919
32921,13484,56063
32900,13401,56202
32872,13353,56167
32852,13326,56236
32756,13334,56327
32776,13296,56412
32824,13351,56521
32933,13446,56572
33008,13430,56101
32993,13473,56620
32916,13466,56711
32860,13486,56828
32842,13360,56959
32828,13370,57017
32832,13312,57046
32848,13412,57069
32872,13348,57119
32928,13434,57095
32904,13433,56815
32836,13460,57303
32766,13505,57445
32724,13403,57551
32726,13376,57652
32692,13298,57767
32740,13300,57895
32824,13354,57988
32880,13327,58047
32940,13412,58110
32984,13429,58092
32940,13460,58229
32892,13498,58328
32865,13412,58164
32784,13381,58375
32692,13298,58615
32616,13301,58700
32622,13319,58807
32644,13402,58928
32712,13371,59063
32840,13437,59157
32899,13479,59137
32868,13543,59327
32876,13391,59399
32856,13366,59009
32832,13367,59004
32800,13276,59517
32844,13317,59616
32965,13377,59718
33044,13436,59889
33076,13415,60005
33040,13455,60068
33006,13435,60061
32940,13452,60111
32888,13340,60196
32848,13297,60312
32776,13323,60384
32876,13279,60360
32968,13330,60061
33084,13383,60391
33181,13523,60486
33164,13443,60524
33044,13450,60377
32920,13379,60788
32820,13359,60880
32832,13285,60965
32857,13279,61053
32896,13283,61092
32952,13323,61144
33001,13383,61239
33000,13493,61175
32944,13432,60854
32910,13456,61351
32836,13456,61337
32781,13343,61108
32754,13304,61021
32768,13350,61245
32772,13277,61596
32716,13336,61660
32764,13460,61719
32880,13417,61784
32892,13455,61844
32796,13413,61831
32668,13408,61524
32520,13334,61956
32408,13328,62087
32244,13263,62104
32020,13295,62205
31820,13374,62181
31584,13357,62188
31332,13409,62343
31128,13445,62398
30925,13477,62416
30780,13376,62381
30732,13362,62470
30664,13312,62545
30660,13319,62560
30845,13274,62624
31158,13326,62599
31488,13382,62646
31748,13467,62381
31988,13428,62413
31840,13440,62599
31476,13423,62463
31372,13339,62356
31881,13305,62471
33120,13302,62832
34876,13269,62916
36440,13309,62983
37380,13361,63079
37653,13415,63079
37281,13485,63093
36676,13545,63037
36068,13367,63054
35476,13343,63108
34945,13286,63158
34428,13313,63204
33988,13263,63221
33636,13298,63329
33368,13356,63223
33156,13414,63303
32992,13472,63348
32864,13481,63341
32772,13365,63239
32677,13329,63444
32633,13284,63459
32588,13270,63412
32556,13335,63468
32480,13295,63495
32548,13353,63457
32608,13458,63527
32604,13414,63491
32532,13429,63468
32526,13405,63512
32532,13324,63436
32448,13279,63561
32464,13272,63569
32526,13303,63680
32604,13368,63769
32568,13337,63791
32581,13409,63815
32568,13473,63796
32524,13397,63836
32492,13366,63860
32503,13352,63868
32452,13331,63879
32380,13242,63956
32320,13250,63973
32348,13303,63975
32456,13360,64007
32576,13445,64044
32612,13404,64007
32600,13395,63991
32533,13375,64003
32464,13357,64020
32392,13333,64053
32348,13239,64078
32360,13273,64076
32408,13314,64076
32456,13415,64079
32480,13380,64103
32446,13415,64135
32433,13454,64100
32412,13358,64135
32412,13322,64135
32388,13272,64191
32344,13261,64204
32360,13312,64220
32381,13282,64228
32408,13377,64215
32508,13379,64263
32528,13440,64293
32484,13384,64103
32488,13390,64301
32357,13305,64308
32258,13273,64324
32252,13288,64348
32300,13248,64220
32324,13292,64300
32352,13381,64292
32400,13374,64391
32412,13407,64439
32376,13440,64428
32360,13410,64463
32292,13305,64487
32268,13277,64444
32216,13281,64412
32120,13239,64151
32104,13333,64485
32181,13332,64541
32176,13371,64460
32172,13419,64279
32148,13381,64519
32137,13373,64551
32184,13306,64536
32229,13281,64519
32248,13272,64541
32161,13238,64536
32100,13296,64596
32060,13374,64608
32096,13367,64562
32160,13407,64557
32212,13443,64519
32184,13348,64501
32121,13332,64420
32004,13245,64519
31932,13246,64574
31928,13265,63937
31960,13301,64537
31969,13308,64519
32008,13378,64436
32012,13463,64492
31929,13401,64501
31924,13405,64469
31913,13311,64492
31916,13300,64500
31972,13220,64477
32036,13271,64445
32056,13278,64348
32040,13354,64341
32020,13363,64253
31968,13407,64359
32000,13436,64348
31967,13338,64343
31884,13322,64312
31869,13334,64263
31797,13228,64310
31768,13271,64288
31869,13263,64245
31900,13347,64173
31956,13354,64098
32008,13422,64133
31986,13414,64108
31960,13397,64181
31908,13297,64112
31884,13257,64068
31889,13213,64053
31932,13235,63967
32080,13353,63879
32176,13321,63460
32260,13410,63655
32344,13380,63983
32288,13402,63981
32288,13333,63919
32240,13299,63943
32148,13256,63879
32156,13277,63684
32184,13225,63623
32233,13263,63764
32320,13345,63791
32460,13353,63812
32484,13380,63841
32500,13388,63868
32484,13391,63785
32408,13290,63741
32424,13242,63780
32496,13236,63796
32644,13333,63765
32768,13257,63781
32916,13311,63789
32973,13349,63791
33040,13397,63740
33104,13432,63821
33081,13337,63832
32976,13343,63845
32988,13238,63848
33061,13234,63844
33148,13264,63824
33184,13266,63733
33292,13352,63517
33336,13348,63781
33352,13394,63847
33270,13457,63404
33168,13326,63808
33017,13297,63879
32960,13257,63917
33061,13273,63988
33228,13306,64047
33324,13245,63989
33416,13300,64057
33496,13408,64085
33489,13370,64093
33408,13377,64116
33448,13353,64151
33500,13356,64197
33544,13231,64220
33501,13236,64245
33424,13260,64281
33444,13243,64293
33564,13313,64276
33616,13403,64197
33617,13367,64287
33662,13399,64343
33520,13326,64373
33388,13306,64391
33410,13233,64391
33460,13211,64415
33497,13239,64423
33480,13249,64407
33392,13313,64436
33502,13397,64468
33664,13445,64568
33740,13358,64580
33820,13356,64562
33840,13351,64608
33780,13232,64628
33796,13234,64647
33752,13272,64673
33604,13249,64628
33536,13313,64598
33461,13408,64632
33444,13369,64669
33428,13367,64684
33352,13349,64739
33312,13309,64709
33345,13298,64727
33308,13208,64760
33257,13238,64771
33236,13273,64775
33276,13288,64774
33432,13350,64789
33528,13397,64801
33473,13485,64816
33466,13341,64820
33544,13318,64839
33600,13245,64839
33548,13210,64861
33436,13229,64880
33375,13271,64884
33401,13366,64892
33396,13351,64895
33448,13392,64903
33460,13364,64903
33328,13341,64916
33252,13302,64563
33248,13267,64888
33238,13271,64893
33221,13212,64927
33324,13271,64903
33320,13352,64903
33381,13344,64916
33456,13381,64860
33332,13397,64996
33175,13407,65004
33106,13301,65007
33224,13275,65014
33337,13281,64638
33422,13216,64884
33388,13290,65031
33272,13284,65031
33244,13380,64743
33240,13371,64903
33228,13380,65025
33186,13397,65048
33140,13300,65071
33140,13265,65080
33166,13209,65054
33132,13218,65080
33264,13253,65077
33364,13342,65052
33376,13345,65084
33452,13398,65116
33560,13386,65125
33440,13402,65125
33300,13290,65031
33228,13253,65066
33257,13258,65112
33292,13213,65144
33380,13265,65156
33454,13359,65173
33468,13343,65152
33440,13383,65159
33456,13440,65159
33380,13361,65159
33316,13340,65016
33350,13238,65124
33392,13226,65127
33432,13309,65151
33437,13261,65159
33505,13311,65205
33516,13369,65188
33508,13437,65136
33462,13371,65207
33414,13358,65205
33392,13335,65181
33361,13242,65197
33380,13225,65212
33373,13295,65235
33296,13247,65224
33208,13321,65212
33225,13409,65127
33300,13377,65188
33428,13382,65208
33440,13369,65172
33401,13301,65173
33356,13276,65212
33262,13286,65199
33156,13221,65197
33092,13272,65188
33192,13295,65006
33288,13381,65125
33340,13433,65140
33314,13375,65151
33288,13348,65180
33192,13313,65159
33113,13303,65088
33120,13218,65089
33172,13248,65133
33272,13310,65126
33359,13306,65109
33424,13377,65080
33344,13381,65072
33216,13389,65056
33128,13399,65070
33116,13308,65063
33142,13270,65065
33119,13290,65004
33180,13223,65007
33248,13264,64997
33232,13311,64519
33144,13403,64876
33065,13383,64869
32956,13385,64900
32984,13379,64832
32985,13333,64831
32960,13257,64796
32916,13238,64733
32924,13279,64196
32996,13256,64567
33085,13313,64548
33173,13392,64540
33180,13457,64556
33124,13397,64516
33100,13431,64474
33120,13332,64388
33076,13333,64348
33004,13245,64313
32957,13281,64239
32920,13258,64161
32888,13315,64087
32904,13391,64036
32884,13399,63973
32884,13403,63935
32840,13427,63900
32852,13319,63815
32796,13295,63777
32669,13234,63685
32708,13258,63648
32748,13329,63599
32760,13330,63470
32924,13363,63428
33032,13416,63461
33052,13395,63420
33021,13395,63367
32933,13321,63318
32812,13281,63236
32800,13308,63204
32821,13239,63156
32872,13300,63031
32892,13364,63015
32916,13365,62983
32968,13421,62968
32958,13453,62916
32856,13365,62816
32677,13337,62759
32649,13329,62688
32712,13237,62654
32684,13253,62629
32637,13320,62655
32636,13316,62496
32788,13396,62420
32961,13439,62423
33029,13397,62352
32888,13397,62260
32720,13361,62328
32652,13343,62356
32722,13245,62372
32852,13281,62268
32980,13277,62199
33044,13337,62192
32972,13433,62164
32880,13407,62160
32804,13446,62012
32704,13376,61957
32552,13342,61959
32524,13304,62021
32496,13248,61940
32484,13266,61908
32628,13319,61860
32800,13325,61806
32881,13400,61749
32789,13413,61679
32600,13427,61668
32445,13379,61742
32480,13360,61692
32764,13368,61612
32900,13265,61655
32900,13328,61545
32876,13313,61476
32941,13386,61484
32992,13384,61438
32980,13445,61405
32876,13534,61392
32686,13401,61348
32456,13371,61324
32365,13385,61317
32420,13256,61364
32520,13275,61319
32460,13380,61332
32236,13356,61296
31924,13444,61264
31684,13425,61260
31460,13459,61236
31156,13388,61221
30799,13377,61209
30612,13329,61124
30357,13290,61076
30292,13321,61152
30264,13314,61172
30180,13385,61157
30372,13395,61144
30552,13479,61062
30736,13433,61076
30996,13444,61084
31468,13364,61063
31632,13324,60959
31488,13319,60935
31493,13307,60991
32156,13310,60999
33784,13373,60957
35740,13395,60967
37212,13457,60956
37888,13500,60885
37868,13397,60881
37284,13397,60822
36469,13370,60893
35808,13308,60837
35212,13345,60849
34740,13322,60916
34444,13390,60896
34216,13399,60862
33908,13469,60880
33568,13492,60901
33173,13409,60895
32900,13391,60840
32684,13343,60780
32500,13366,60788
32601,13295,60826
32728,13363,60916
32844,13352,60916
32888,13432,60924
32768,13510,60932
32564,13452,60892
32356,13444,60868
32324,13441,60927
32372,13326,60935
32496,13309,61000
32468,13324,61063
32384,13319,61039
32256,13373,61063
32232,13488,61076
32265,13464,61126
32372,13481,61172
32485,13495,61191
32468,13385,61200
32336,13361,61258
32276,13389,61255
32340,13309,61191
32300,13353,61364
32392,13453,61447
32510,13444,61493
32604,13493,61543
32532,13455,61574
32432,13447,61625
32304,13390,61622
32089,13352,61664
31920,13353,61724
31872,13304,61793
32040,13343,61831
32244,13408,61848
32240,13435,61880
32308,13486,61890
32392,13532,61940
32380,13438,61951
32310,13421,61996
32226,13348,61991
32100,13319,61997
32149,13388,61974
32348,13342,62013
32492,13398,62052
32401,13431,61892
32276,13487,62127
32264,13516,62232
32212,13439,62188
32188,13422,62255
32204,13406,62215
32236,13319,62362
32276,13331,62429
32288,13384,62508
32272,13385,62548
32248,13440,62644
32172,13492,62591
31924,13541,62620
31988,13447,62703
32096,13437,62672
32020,13402,62696
31844,13319,62543
31736,13325,62828
31840,13370,63029
31996,13405,62959
32208,13478,63079
32332,13533,63007
32348,13481,63048
32425,13479,63092
32512,13476,63103
32392,13362,63053
32176,13349,63031
32040,13334,63285
32128,13380,63407
32192,13457,63421
32089,13476,63527
31993,13484,63532
32012,13500,63524
31965,13521,63525
32085,13420,63568
32024,13394,63652
31916,13391,63740
31940,13342,63777
31880,13402,63741
31864,13400,63732
31772,13476,63844
31908,13493,63879
32088,13515,63930
32104,13531,63967
32020,13429,63946
31921,13391,64006
31860,13390,64052
31901,13341,64069
31750,13376,63999
31612,13433,64031
31610,13516,64070
31888,13495,64111
32172,13517,64126
32108,13530,64166
32056,13437,64172
31925,13399,64180
31808,13404,64231
31669,13349,64244
31716,13413,64280
31856,13413,64301
31980,13478,64333
32036,13534,64353
32068,13623,64373
32128,13484,64373
32070,13452,64094
31944,13447,64391
31724,13353,64408
31772,13365,63949
31808,13431,64383
31945,13420,64407
32168,13503,64165
31996,13623,64325
31808,13546,64253
31632,13544,64536
31544,13446,64560
31893,13413,64519
32296,13393,64536
32517,13353,64541
32636,13407,64060
32568,13477,64656
32320,13478,64685
32296,13525,64687
32180,13566,64700
32196,13493,64701
32423,13449,64620
32505,13428,64628
32448,13421,64679
32320,13361,64701
32212,13408,64740
32269,13447,64807
32508,13527,64797
32968,13527,64800
32892,13526,64837
32792,13518,64853
32832,13532,64853
32944,13402,64876
33220,13394,64892
33412,13415,64445
33373,13393,64508
33100,13444,64844
32896,13495,64852
32740,13557,64892
32828,13557,64932
33260,13558,64961
33518,13461,64967
33292,13406,64918
33128,13395,64919
32968,13380,64999
32836,13444,64983
32860,13439,64988
32908,13485,65007
32928,13550,65029
33208,13553,65031
33404,13552,64989
33473,13466,64996
33552,13422,65016
33360,13385,65031
33369,13408,65031
33240,13396,65048
33164,13457,65077
33404,13507,65092
33560,13565,65093
33536,13605,65052
33396,13508,65072
33420,13492,65080
33300,13436,65135
33084,13419,65143
33036,13371,65108
32924,13398,65152
33004,13455,65159
33161,13554,65172
33136,13531,65180
33053,13545,65191
32997,13536,65172
32860,13495,64993
32808,13488,65119
33048,13374,65119
33384,13377,65124
33624,13426,65120
33740,13500,65140
33896,13513,65143
33832,13540,65189
33352,13580,65215
32708,13517,65239
32300,13477,65196
32357,13439,65239
32672,13444,65261
33176,13381,65255
33428,13421,65263
33252,13524,65248
32988,13501,65255
32780,13569,65471
32792,13569,65223
32996,13577,65231
33125,13481,65238
33196,13429,65260
33126,13388,65279
33132,13398,65300
33230,13438,65287
33337,13477,65287
33268,13527,65300
33264,13583,65317
33416,13611,65308
33144,13523,65317
32704,13510,65341
32516,13455,65271
32705,13446,65340
32989,13381,65350
33052,13413,65349
33060,13462,65399
33004,13519,65364
33212,13586,65342
33292,13644,65351
33292,13524,65269
33221,13500,65340
32992,13463,65340
32584,13485,65325
32580,13408,65324
32893,13436,65319
33344,13492,65287
33346,13557,65236
33156,13664,65223
33068,13550,65228
33184,13556,65239
33177,13511,65228
32970,13509,65223
32968,13393,65207
32901,13388,65220
32889,13412,65212
32888,13477,65196
32884,13541,65074
32929,13551,65120
33045,13562,65080
33181,13559,65140
33308,13533,65156
33264,13442,65173
33040,13429,65159
32940,13448,65220
32976,13420,65212
33012,13462,65236
33188,13525,65228
33140,13584,65212
33360,13565,65175
33316,13541,65181
32912,13519,65212
32652,13504,65228
32660,13404,65228
32813,13397,65287
33104,13449,65260
33344,13497,65236
33520,13508,65263
33397,13569,65284
33256,13582,65239
33220,13603,65309
33108,13503,65317
32960,13460,65308
32628,13420,65317
32348,13412,65263
32496,13423,65363
32956,13491,65352
33356,13538,65338
33292,13579,65535
32869,13598,65341
32904,13600,65286
33325,13498,65360
33376,13479,65365
32984,13458,65383
32840,13405,65383
32876,13426,65380
33024,13477,65391
33028,13523,65535
32816,13613,65400
32836,13657,65397
33084,13540,65375
33076,13501,65381
33120,13469,65396
33056,13421,65388
33104,13464,65319
33316,13423,65373
33276,13487,65388
33133,13525,65535
32793,13569,65400
32472,13583,65311
32673,13578,65380
33148,13583,65389
33352,13460,65390
33168,13431,65415
33012,13423,65429
32900,13477,65429
32720,13455,65375
32864,13521,65415
33244,13579,65445
33542,13579,65432
33445,13558,65437
33214,13532,65415
33144,13495,65461
33192,13473,65444
32977,13462,65429
32840,13420,65444
32672,13471,65404
32240,13519,65415
32148,13603,65445
32672,13566,65452
33061,13543,65455
33212,13525,65468
33216,13479,65480
32989,13486,65460
32768,13407,65484
32564,13473,65471
32958,13461,65471
33456,13507,65460
33600,13571,65469
33324,13582,65535
32840,13575,65471
32564,13579,65477
32428,13457,65460
32536,13434,65455
32600,13457,65440
32660,13416,65389
33117,13483,65396
33376,13559,65414
33388,13553,65383
33164,13586,65375
33151,13537,65337
33132,13500,65344
33276,13467,65284
33308,13444,65300
33028,13399,65276
32918,13413,65200
32876,13460,65240
32948,13528,65207
32998,13595,65197
33134,13562,65215
33252,13543,65191
33208,13517,65158
33032,13510,65111
32700,13406,65116
32736,13393,65109
32657,13425,65109
32764,13470,65093
32984,13535,65028
33317,13614,65030
33329,13553,65028
33256,13549,65021
33112,13511,64999
33124,13499,64916
32932,13488,64937
32648,13391,64957
32906,13425,64916
33124,13513,64893
33212,13573,64884
33088,13549,64832
33048,13583,64751
32966,13553,64772
32764,13547,64797
32708,13520,64735
32728,13518,64709
32712,13390,64600
32800,13411,64663
32704,13468,64578
32382,13515,64550
31976,13597,64519
31648,13666,64055
31536,13536,64375
31452,13518,64391
31097,13468,64329
30636,13432,64252
30345,13439,64197
30240,13513,64032
30184,13461,64036
30292,13510,64095
30388,13600,64005
30416,13645,63932
30536,13542,63425
30552,13516,63705
30576,13483,63751
30956,13447,63576
31085,13446,63551
31216,13421,63140
31736,13464,63284
33300,13510,63308
35360,13561,63189
36932,13607,63076
37736,13615,62978
37768,13490,62901
37359,13452,62932
36900,13425,62748
36364,13410,62708
35700,13447,62047
35188,13452,62402
34844,13502,62381
34672,13571,62396
34236,13570,62209
33784,13583,62192
33488,13497,62020
33132,13446,61908
32684,13407,61956
32400,13402,61744
32436,13425,61632
32765,13497,61557
32828,13496,61548
32876,13557,61508
32924,13615,61373
32837,13535,61240
32672,13518,61185
32452,13518,61153
32277,13399,60935
32128,13389,60925
32178,13433,60820
32257,13547,60740
32124,13495,60709
32176,13558,60740
32216,13612,60583
32264,13535,60496
32257,13524,60421
32416,13487,60381
32568,13404,60191
32584,13397,60021
32500,13440,60039
32525,13443,59964
32540,13515,59900
32526,13571,59855
32556,13620,59673
32560,13540,59644
32516,13517,59548
32392,13491,58840
32252,13476,59143
32112,13385,59189
31932,13415,59118
31968,13462,58941
32120,13549,58860
32263,13543,58759
32496,13579,58607
32582,13533,58503
32528,13509,58365
32412,13472,58204
32320,13494,57780
32240,13391,57999
32192,13423,57978
32269,13524,57788
32280,13501,57653
32364,13560,57471
32420,13615,57454
32420,13535,57396
32492,13528,57202
32538,13474,57020
32317,13463,56708
32148,13389,56652
32064,13426,56564
32084,13497,56545
32124,13600,56551
32208,13540,56327
32424,13581,56212
32604,13564,56097
32440,13553,55495
32142,13453,55815
32000,13402,55828
31705,13412,55611
31670,13428,55581
31756,13509,55368
32044,13483,54784
32340,13556,55116
32560,13604,55072
32569,13599,54943
32388,13501,54836
32164,13467,54711
32064,13477,54596
32144,13385,54518
32316,13415,54023
32336,13461,54216
32108,13558,54151
31840,13540,54092
31829,13569,54052
32028,13567,53941
32124,13496,53820
32076,13480,53720
32036,13403,53629
31860,13412,53525
31732,13446,53420
31812,13441,53319
32000,13521,53208
32132,13607,53075
32132,13556,52965
31945,13560,52780
31781,13589,52647
31720,13487,52540
31752,13474,52420
31734,13390,52411
31812,13420,51807
31988,13473,52015
31949,13551,52008
31812,13540,51949
31728,13574,51822
31508,13606,51703
31356,13503,51490
31272,13469,51383
31408,13423,51240
31588,13444,51143
31724,13413,51009
31885,13445,50951
31752,13513,50822
31616,13652,50708
31568,13557,50084
31588,13549,50113
31632,13549,50031
31744,13545,50148
32053,13403,50106
32140,13395,49885
32145,13442,49847
32096,13447,49693
32055,13494,49597
32004,13555,49408
31976,13604,49255
32036,13608,49188
32012,13502,48631
32064,13462,48864
32200,13435,48838
32261,13430,48724
32104,13413,48586
32044,13443,48386
32164,13498,48295
32414,13562,48236
32556,13606,48096
32592,13618,47657
32500,13499,47757
32409,13482,47615
32316,13462,47548
32404,13390,47397
32572,13435,47132
32782,13508,47101
32893,13481,47045
32927,13539,47009
33112,13557,46877
33172,13561,46757
33184,13539,46599
33004,13529,46452
32881,13404,46317
32904,13412,46228
33028,13460,46072
33164,13447,45977
33176,13517,45844
33185,13538,45781
33378,13556,45655
33461,13549,45532
33434,13565,45441
33472,13455,45345
33493,13431,45128
33408,13425,45057
33333,13420,44996
33212,13493,44849
33260,13481,44665
33334,13574,44453
33413,13558,44535
33520,13600,44463
33564,13521,44335
33672,13518,44215
33692,13403,44116
33528,13400,43998
33317,13446,43876
33264,13439,43764
33440,13490,43268
33508,13586,43493
33624,13553,43328
33788,13571,42988
33792,13540,43053
33661,13567,43008
33533,13407,42972
33412,13412,42865
33381,13482,42759
33500,13441,42660
33449,13495,42478
33393,13656,42461
33332,13577,42327
33345,13574,42215
33416,13607,42149
33416,13461,41936
33376,13412,41664
33364,13407,41551
33320,13475,41517
33336,13452,41359
33368,13519,41351
33374,13540,41188
33292,13579,41125
33304,13575,41036
33326,13504,40925
33336,13484,40813
33264,13477,40709
33152,13391,40612
33071,13421,40497
33100,13493,40310
33184,13547,40442
33191,13541,40199
33160,13583,39976
33054,13543,40005
33028,13560,39826
33064,13465,39708
32998,13413,39641
32960,13400,39522
33025,13464,39456
33028,13441,38969
33080,13505,38863
33120,13575,38782
33124,13638,38789
33138,13564,38959
33160,13552,38841
33165,13461,38764
33140,13411,38368
33071,13402,38396
33053,13427,38452
33176,13440,38351
33260,13477,38391
33280,13554,38377
33124,13588,38157
32844,13607,37959
32752,13507,37972
32721,13465,37894
32816,13428,37725
32868,13397,37760
32988,13428,37661
33096,13495,37483
33140,13479,37431
33160,13537,37009
33188,13562,37255
33200,13551,37307
33008,13561,37180
32837,13531,36909
32862,13407,36839
32944,13409,36795
32941,13413,36677
32976,13485,36600
33009,13478,36178
32996,13551,36324
32932,13586,36246
32948,13605,36316
33068,13503,36166
33128,13484,35941
33120,13405,35804
33081,13409,35724
32972,13446,35663
32924,13436,35583
32868,13495,35536
32980,13577,35188
33108,13553,35257
33153,13574,34951
33185,13503,34880
33152,13478,34765
33152,13455,34956
33156,13385,34842
33141,13399,34505
33060,13449,34524
33016,13543,34527
33125,13547,34455
33166,13612,34430
33156,13537,34389
33089,13535,34140
33020,13534,34109
33008,13411,34068
33038,13407,33978
32988,13467,33889
32868,13433,33837
32880,13485,33469
32976,13549,33460
33036,13623,33308
33080,13540,33430
33024,13529,33431
32924,13527,33323
32832,13402,33335
32828,13414,33277
32856,13441,33157
32960,13556,33084
33120,13500,33026
33148,13595,32917
33122,13555,32791
33124,13565,32542
33168,13565,32493
33135,13464,32465
33056,13440,32519
33110,13388,32413
33152,13405,32325
33152,13462,32253
33100,13476,32149
33096,13536,32077
33028,13586,31935
32916,13541,31835
32864,13520,31775
32936,13525,31702
33032,13408,31581
33145,13390,31583
33252,13423,31429
33208,13447,31318
33084,13521,31269
32884,13650,31024
32760,13553,31101
32656,13536,31160
32700,13521,30889
32884,13492,30869
32957,13453,30800
32992,13388,30732
33004,13406,30661
32972,13446,30567
32942,13511,30318
32901,13535,30332
32864,13553,30332
32896,13555,30301
32880,13552,30327
32758,13467,30210
32608,13436,29945
32573,13408,29974
32708,13450,29928
32808,13430,29858
32912,13498,29578
32960,13562,29551
32960,13664,29540
32896,13543,29454
32745,13523,29516
32632,13519,29516
32596,13491,29412
32633,13386,29271
32660,13413,29172
32724,13487,29140
32776,13478,29102
32824,13544,29041
32748,13575,28810
32661,13587,28806
32616,13508,28806
32584,13489,28750
32473,13443,28797
32424,13391,28717
32512,13430,28743
32616,13516,28476
32772,13473,28503
32906,13548,28257
32966,13576,28234
33052,13632,28198
32976,13509,28181
32904,13476,28292
32770,13483,28256
32684,13385,28253
32732,13411,27996
32836,13430,27980
32941,13478,27982
32932,13541,27944
32916,13589,27700
32960,13613,27739
32940,13501,27892
32940,13487,27638
32884,13460,27642
32804,13383,27636
32820,13396,27465
32916,13453,27598
33036,13487,27388
33114,13583,27437
33140,13615,27262
33176,13537,27384
33056,13519,27333
32920,13533,27316
32876,13404,27149
32880,13396,27063
32868,13421,27028
32936,13534,26988
32990,13474,26937
33024,13550,26836
33048,13545,26759
33056,13549,26751
32952,13570,26726
32856,13486,26759
32692,13462,26718
32604,13379,26604
32552,13407,26596
32448,13503,26485
32236,13469,26325
31997,13556,26332
31712,13551,26220
31404,13559,26186
31173,13539,26166
31012,13465,26124
30889,13407,26065
30846,13408,25853
30740,13447,25822
30644,13424,25849
30752,13495,25806
31009,13553,25734
31284,13553,25621
31376,13550,25624
31464,13556,25578
31464,13468,25504
31492,13434,25294
31772,13432,25245
32448,13395,25156
33740,13445,25147
35240,13464,25189
36656,13546,25124
37580,13541,25065
37881,13547,24998
37544,13496,24932
36896,13476,24868
36240,13459,24636
35620,13376,24576
35068,13386,24495
34654,13450,24481
34272,13515,24591
33988,13523,24463
33732,13549,24292
33350,13566,24317
33056,13506,24244
32893,13465,24035
32740,13431,24144
32640,13394,23991
32532,13428,23888
32496,13491,23900
32552,13460,23858
32676,13532,23783
32704,13598,23583
32672,13532,23500
32636,13524,23598
32556,13471,23493
32528,13428,23485
32562,13429,23290
32600,13382,23273
32661,13421,23380
32732,13486,23245
32712,13545,23228
32673,13606,23041
32600,13532,22964
32532,13512,22901
32460,13482,22833
32436,13486,22781
32382,13372,22901
32360,13407,22862
32436,13440,22655
32557,13528,22644
32616,13517,22606
32688,13553,22557
32708,13585,22484
32640,13567,22417
32560,13459,22347
32421,13420,22261
32349,13417,22186
32308,13494,22019
32346,13416,21865
32484,13457,21995
32572,13519,21884
32600,13561,21689
32617,13550,21570
32568,13514,21599
32504,13482,21589
32473,13447,21508
32448,13491,21316
32468,13383,21311
32464,13429,21310
32457,13487,21180
32448,13540,21002
32428,13582,20900
32412,13601,20967
32316,13604,20823
32276,13456,20838
32289,13412,20643
32280,13392,20683
32316,13396,20553
32416,13447,20545
32480,13513,20325
32504,13602,20304
32460,13543,20240
32368,13546,20254
32292,13515,20065
32241,13476,20132
32272,13434,20025
32272,13430,19882
32276,13380,19705
32296,13423,19808
32308,13467,19675
32312,13561,19683
32340,13602,19484
32320,13624,19481
32356,13505,19455
32364,13497,19417
32344,13409,19234
32270,13378,19244
32168,13396,19263
32188,13442,19095
32224,13470,19104
32232,13531,18888
32208,13607,18813
32150,13533,18879
32037,13518,18861
32008,13477,18781
31952,13428,18636
31988,13399,18724
32020,13425,18598
32064,13517,18508
32132,13462,18415
32136,13555,18384
32040,13542,18316
31984,13550,18233
31908,13526,18107
31785,13520,18181
31716,13413,18181
31642,13378,18057
31621,13390,18024
31669,13441,17846
31720,13468,17940
31720,13591,17840
31700,13540,17792
31712,13553,17735
31720,13517,17583
31716,13503,17493
31648,13468,17604
31616,13441,17475
31604,13385,17454
31592,13426,17392
31596,13508,17271
31580,13511,17160
31556,13567,17079
31468,13583,17041
31386,13576,17057
31412,13541,17001
31437,13411,16980
31517,13387,16872
31576,13397,16768
31677,13473,16666
31680,13521,16759
31685,13573,16668
31749,13539,16608
31773,13547,16541
31788,13526,16425
31756,13509,16353
31761,13410,16235
31810,13387,16217
31850,13400,16253
31924,13436,16122
31972,13469,16087
32012,13549,15970
32044,13618,15871
32060,13532,15800
32128,13508,15852
32218,13475,15735
32300,13423,15688
32396,13377,15526
32472,13411,15512
32512,13432,15473
32532,13512,15453
32564,13508,15337
32604,13658,15290
32652,13530,15147
32656,13499,15185
32728,13481,15098
32782,13458,15023
32804,13371,14917
32908,13383,14826
33012,13421,14855
33121,13473,14793
33104,13529,14693
33148,13593,14639
33232,13611,14521
33253,13499,14513
33244,13463,14474
33220,13435,14406
33244,13455,14337
33288,13372,14261
33356,13430,14201
33436,13471,14110
33486,13563,14059
33508,13538,13989
33484,13529,13893
33412,13501,13853
33300,13469,13813
33240,13420,13730
33180,13407,13650
33182,13447,13601
33270,13407,13524
33372,13447,13463
33436,13515,13394
33424,13568,13314
33376,13588,13247
33328,13501,13203
33356,13456,13133
33388,13421,13067
33433,13403,12999
33388,13399,12928
33476,13429,12891
33576,13467,12810
33540,13541,12749
33496,13573,12695
33432,13604,12642
33389,13497,12581
33352,13456,12523
33289,13413,12461
33288,13380,12414
33284,13391,12360
33326,13429,12311
33390,13469,12251
33504,13533,12206
33556,13574,12157
33472,13582,12105
33369,13500,12045
33342,13454,12009
33292,13401,11951
33288,13367,11906
33360,13370,11876
33404,13401,11812
33456,13445,11782
33421,13497,11722
33364,13533,11687
33333,13548,11661
33356,13519,11602
33312,13479,11568
33212,13466,11524
33176,13370,11491
33197,13371,11464
33236,13404,11436
33284,13451,11382
33312,13553,11336
33301,13518,11296
33254,13540,11260
33156,13522,11249
33104,13464,11205
33116,13422,11188
33196,13414,11151
33304,13432,11103
33332,13393,11048
33378,13436,10990
33390,13495,10964
33352,13550,10936
33292,13534,10879
33208,13527,10843
33132,13523,10800
33052,13401,10790
33013,13367,10756
32992,13365,10661
33024,13391,10642
33077,13436,10591
33088,13487,10597
33124,13526,10504
33153,13524,10477
33156,13525,10442
33140,13503,10407
33141,13399,10401
33110,13367,10368
33101,13382,10320
33164,13447,10229
33214,13434,10187
33248,13487,10172
33260,13537,10117
33276,13583,10068
33276,13489,10065
33236,13461,10042
33136,13424,9985
33036,13421,9933
32996,13361,9943
33040,13397,9909
33084,13447,9861
33164,13540,9780
33216,13515,9696
33316,13520,9652
33344,13511,9613
33324,13510,9606
33244,13404,9580
33184,13356,9506
33216,13359,9480
33284,13408,9439
33316,13446,9438
33308,13518,9382
33346,13561,9300
33384,13583,9216
33320,13485,9166
33184,13447,9192
33140,13420,9129
33120,13375,9145
33140,13406,9098
33176,13455,8966
33244,13425,8986
33244,13481,8921
33248,13525,8965
33200,13548,8905
33137,13537,8805
33124,13442,8822
33105,13413,8781
33084,13364,8713
33132,13380,8712
33200,13421,8705
33280,13477,8575
33352,13537,8577
33388,13517,8578
33388,13511,8588
33352,13490,8522
33284,13460,8389
33284,13413,8368
33274,13465,8333
33268,13355,8295
33206,13408,8319
33180,13444,8254
33264,13513,8268
33324,13618,8229
33365,13512,8200
33348,13496,8202
33232,13501,8162
33125,13387,8126
33080,13369,8040
33136,13383,7915
33180,13439,7975
33216,13415,7906
33256,13469,7852
33300,13505,7893
33376,13511,7785
33384,13492,7692
33340,13476,7731
33260,13459,7675
33196,13349,7633
33142,13371,7579
33160,13408,7525
33217,13481,7496
33224,13460,7515
33232,13516,7523
33216,13530,7482
33196,13529,7407
33120,13514,7300
33032,13384,7231
33023,13373,7291
33028,13372,7263
33016,13439,7198
33044,13409,7120
33064,13468,7156
33084,13526,7155
33056,13541,7052
33024,13551,6953
32972,13431,7008
32904,13398,6988
32848,13407,6947
32884,13348,6852
32908,13413,6790
32968,13408,6754
33068,13487,6779
33080,13564,6788
33088,13505,6682
33044,13496,6695
32956,13489,6708
32872,13388,6716
32836,13361,6690
32808,13338,6656
32844,13392,6557
32904,13465,6486
32953,13453,6466
33014,13526,6441
32988,13565,6463
32909,13474,6337
32840,13443,6302
32777,13424,6324
32752,13346,6244
32748,13365,6237
32748,13390,6191
32774,13407,6139
32804,13481,6183
32888,13559,6148
32896,13508,6179
32836,13510,6147
32732,13433,6136
32673,13388,6104
32704,13356,6044
32704,13365,5927
32748,13414,5859
32848,13398,5831
32916,13464,5812
32946,13524,5754
32904,13573,5742
32868,13469,5699
32840,13436,5645
32840,13396,5651
32856,13394,5577
32936,13329,5591
32976,13356,5617
33021,13424,5553
33041,13462,5448
33020,13518,5446
33040,13543,5503
33076,13528,5431
32996,13429,5362
32952,13382,5298
32916,13361,5179
32933,13388,5151
32960,13351,5115
32976,13411,5063
33000,13465,5017
33052,13520,5059
33028,13553,5048
32988,13460,4992
32970,13446,4971
32948,13405,4888
32960,13333,4884
32996,13348,4832
33008,13388,4797
32996,13466,4667
33008,13438,4629
33036,13517,4616
33068,13511,4693
33044,13517,4633
32972,13421,4574
32980,13385,4515
32992,13343,4427
32972,13388,4382
32986,13348,4312
33004,13391,4353
33045,13441,4189
33025,13505,4183
33032,13509,4266
32948,13502,4196
32881,13500,4067
32844,13375,3987
32752,13322,3939
32700,13339,3986
32630,13381,3964
32496,13461,3885
32340,13437,3746
32141,13478,3761
31908,13503,3695
31688,13530,3622
31510,13422,3658
31256,13397,3703
31096,13389,3654
31044,13326,3573
31012,13371,3446
30973,13431,3396
31048,13437,3437
31252,13509,3410
31408,13544,3280
31416,13467,3216
31364,13441,3175
31252,13433,3149
30972,13328,3183
31068,13345,3118
31572,13375,3106
32576,13447,3032
33972,13437,3005
35672,13495,2862
37020,13551,2853
37749,13449,2789
37716,13428,2806
37216,13394,2821
36608,13319,2696
36028,13340,2640
35464,13391,2655
34896,13381,2585
34344,13447,2536
33798,13513,2510
33380,13481,2479
33084,13465,2444
32892,13476,2450
32745,13369,2559
32668,13333,2496
32592,13343,2490
32584,13343,2465
32618,13407,2338
32620,13484,2248
32616,13574,2294
32620,13486,2319
32581,13478,2288
32541,13412,2294
32480,13364,2254
32452,13335,2167
32456,13363,2150
32424,13334,2093
32417,13386,2041
32452,13449,2040
32484,13476,2030
32521,13476,1985
32472,13479,1915
32384,13466,1955
32335,13361,1964
32377,13324,2004
32364,13325,1915
32366,13389,1876
32396,13449,1797
32444,13426,1852
32456,13484,1822
32416,13535,1712
32376,13458,1680
32350,13425,1652
32344,13471,1647
32356,13340,1700
32352,13346,1683
32361,13328,1667
32424,13397,1565
32480,13478,1565
32468,13475,1547
32452,13536,1596
32416,13470,1532
32388,13465,1547
32357,13358,1500
32341,13338,1420
32308,13361,1412
32324,13325,1395
32364,13381,1426
32374,13431,1432
32376,13550,1478
32328,13473,1465
32252,13481,1434
32193,13404,1331
32160,13377,1327
32160,13332,1269
32188,13356,1388
32200,13327,1316
32236,13368,1223
32240,13428,1260
32264,13522,1249
32237,13465,1161
32224,13459,1160
32216,13455,1229
32144,13353,1266
32112,13327,1259
32076,13347,1219
32080,13334,1226
32154,13374,1182
32172,13465,1141
32195,13453,1083
32152,13476,1058
32084,13502,1043
32004,13394,1043
31924,13370,1063
31885,13326,1033
31888,13361,987
31900,13317,1007
31952,13359,1094
32012,13415,1089
32044,13476,1040
32054,13514,995
32008,13435,975
31936,13405,958
31880,13363,914
31844,13349,911
31808,13289,1008
31808,13335,993
31852,13404,996
31848,13405,963
31849,13445,925
31788,13481,855
31748,13458,852
31688,13449,858
31642,13346,841
31580,13323,805
31580,13350,804
31552,13309,797
31584,13367,773
31598,13452,895
31608,13445,771
31616,13468,766
31616,13466,866
31556,13391,845
31496,13349,817
31456,13313,778
31440,13346,776
31448,13307,721
31528,13377,714
31600,13417,720
31636,13506,710
31644,13454,704
31640,13441,695
31616,13456,691
31596,13348,679
31576,13316,677
31628,13334,658
31661,13366,637
31748,13343,633
31797,13416,756
31846,13454,718
31864,13488,687
31844,13476,628
31844,13449,628
31848,13340,609
31840,13317,612
31872,13299,593
31885,13351,581
31948,13402,567
32036,13506,564
32124,13437,559
32180,13466,551
32220,13489,546
32196,13385,660
32196,13340,619
32228,13308,559
32316,13306,550
32428,13365,537
32548,13333,530
32700,13388,506
32784,13447,613
32868,13460,574
32884,13463,560
32908,13437,515
32912,13334,508
32945,13312,503
32980,13350,494
33020,13288,489
33117,13337,461
33184,13399,458
33244,13473,534
33296,13436,533
33288,13422,517
33300,13404,484
33296,13371,468
33308,13275,475
33296,13284,460
33295,13374,449
33345,13328,447
33440,13387,419
33492,13468,410
33488,13516,403
33468,13411,403
33408,13398,487
33388,13362,468
33376,13280,457
33380,13267,432
33413,13313,414
33466,13354,399
33521,13468,393
33516,13420,401
33568,13462,369
33540,13447,367
33481,13438,357
33437,13334,353
33354,13284,353
33373,13287,346
33340,13299,408
33352,13374,403
33388,13370,344
33429,13438,389
33412,13453,381
33396,13482,385
33328,13376,330
33264,13372,321
33217,13282,321
33196,13355,319
33220,13303,321
33300,13386,310
33360,13385,334
33398,13470,333
33383,13431,311
33364,13413,297
33336,13397,307
33274,13324,312
33232,13284,310
33192,13306,321
33228,13277,328
33274,13322,324
33280,13373,331
33276,13452,343
33232,13421,368
33184,13415,451
33152,13384,446
33109,13319,425
33108,13271,456
33116,13271,463
33116,13341,469
33148,13313,489
33188,13383,486
33208,13495,497
33212,13418,482
33204,13412,494
33128,13447,491
33088,13316,497
33076,13275,490
33076,13252,574
33052,13280,557
33058,13357,540
33072,13351,528
33076,13408,530
33124,13455,536
33092,13396,536
33056,13367,524
33000,13328,517
32948,13324,516
32962,13244,605
32952,13288,573
33010,13348,552
33029,13348,550
33024,13396,530
32996,13410,530
33032,13403,612
32981,13366,586
32956,13348,552
32908,13356,562
32908,13241,547
32920,13282,558
32928,13413,559
32932,13368,555
32984,13455,553
32989,13402,549
32988,13399,537
32976,13421,534
32964,13323,525
32944,13318,525
32934,13231,501
32965,13283,499
33016,13348,488
33032,13335,473
33016,13389,451
33020,13415,451
33032,13423,571
33053,13347,436
32984,13317,425
32928,13252,421
32912,13244,413
32960,13265,407
33020,13343,401
33096,13327,394
33120,13407,391
33116,13427,479
33116,13447,431
33072,13341,426
33008,13339,421
33013,13242,408
33052,13256,416
33065,13244,411
33082,13296,409
33088,13377,392
33100,13500,392
33128,13390,359
33100,13380,458
33024,13355,430
32976,13355,425
32916,13242,416
32940,13245,409
32960,13309,408
33060,13279,409
33145,13343,416
33196,13376,417
33172,13405,415
33121,13412,406
33068,13409,410
33004,13292,415
32960,13248,526
32896,13284,497
32916,13236,478
32976,13279,459
33049,13342,477
33108,13470,472
33136,13386,465
33160,13393,469
33104,13391,604
33052,13287,577
33048,13264,563
33012,13290,571
33048,13239,549
33088,13285,525
33093,13382,517
33112,13367,524
33080,13407,525
33080,13423,522
33036,13327,511
32988,13299,503
32932,13297,495
32912,13287,559
32948,13222,535
32982,13282,544
33020,13308,547
33060,13372,522
33040,13393,501
33033,13445,499
33020,13328,469
33008,13291,463
32996,13231,461
32960,13230,451
32992,13309,532
33048,13275,509
33092,13357,503
33088,13359,512
33084,13405,506
33036,13361,481
33028,13325,460
33012,13313,463
32952,13223,460
32940,13204,431
32960,13230,435
33004,13331,502
33057,13301,485
33133,13380,470
33148,13467,454
33078,13375,469
33020,13357,465
32996,13271,470
32944,13243,454
32945,13239,457
32977,13215,441
33012,13269,436
33048,13367,434
33056,13350,433
33068,13390,511
33008,13434,487
32956,13313,475
32896,13284,458
32901,13256,469
32940,13199,447
32964,13212,448
33016,13271,538
33048,13319,525
33028,13424,525
33013,13365,526
32968,13363,484
32940,13327,476
32932,13317,466
32857,13291,471
32844,13191,568
32832,13236,541
32904,13301,526
32940,13286,510
32944,13361,520
32992,13410,531
32996,13343,522
32956,13328,518
32920,13262,517
32829,13250,528
32800,13194,539
32856,13266,561
32904,13244,566
32936,13301,555
32969,13334,559
32964,13372,569
32964,13343,577
32928,13327,581
32880,13311,576
32836,13210,579
32852,13211,589
32864,13301,697
32901,13245,689
32944,13327,707
32988,13332,677
32960,13360,635
32916,13364,616
32852,13393,620
32808,13276,632
32768,13255,738
32769,13182,725
32793,13223,718
32776,13271,712
32824,13276,700
32852,13342,685
32864,13380,685
32840,13354,665
32824,13351,777
32824,13253,761
32768,13208,773
32736,13235,761
32770,13189,775
32844,13247,784
32848,13335,789
32825,13330,780
32841,13358,753
32840,13397,759
32832,13325,806
32788,13334,839
32772,13199,813
32752,13211,834
32772,13185,850
32820,13234,808
32824,13291,789
32832,13352,818
32840,13381,794
32813,13328,818
32792,13296,924
32728,13263,919
32692,13257,933
32636,13176,898
32696,13181,850
32732,13230,887
32748,13278,847
32816,13360,872
32802,13400,995
32784,13321,982
32760,13308,921
32720,13307,890
32664,13192,926
32660,13183,933
32737,13220,919
32793,13215,942
32776,13273,903
32788,13347,923
32828,13437,932
32744,13322,1039
32696,13312,1011
32646,13271,954
32564,13256,947
32500,13160,945
32524,13203,946
32572,13239,1061
32612,13253,1061
32669,13324,1022
32692,13357,961
32688,13373,961
32644,13278,958
32596,13250,1091
32576,13209,1073
32580,13245,1046
32568,13181,1031
32652,13267,1065
32725,13250,1040
32768,13329,987
32809,13357,1043
32816,13317,1041
32788,13307,1042
32752,13275,1007
32752,13265,1152
32792,13156,1111
32796,13180,1059
32824,13239,1043
32824,13344,1091
32876,13313,1111
32904,13373,1123
32912,13332,1106
32936,13332,1095
32868,13238,1143
32848,13177,1112
32816,13178,1113
32848,13281,1119
32888,13208,1123
32888,13278,1139
32873,13295,1149
32840,13335,1189
32830,13411,1163
32837,13284,1178
32808,13294,1239
32728,13173,1256
32736,13178,1264
32756,13175,1218
32780,13223,1371
32860,13289,1342
32908,13293,1299
32952,13327,1276
32920,13317,1332
32872,13314,1360
32812,13231,1373
32764,13184,1367
32788,13205,1402
32804,13172,1406
32813,13241,1419
32844,13244,1366
32881,13358,1398
32901,13337,1421
32840,13392,1502
32769,13276,1509
32776,13293,1577
32765,13192,1507
32734,13205,1443
32696,13157,1465
32664,13231,1473
32608,13233,1498
32520,13303,1528
32344,13424,1518
32100,13329,1617
31792,13300,1559
31560,13224,1668
31380,13195,1665
31224,13188,1659
31128,13156,1723
31184,13250,1699
31246,13238,1766
31316,13305,1779
31413,13311,1829
31616,13328,1871
31812,13314,1807
31800,13236,1747
31736,13247,1827
31764,13165,1852
31624,13199,1841
31496,13188,1857
31660,13248,1861
32212,13318,1888
33166,13307,1902
34476,13317,1925
35984,13304,1919
37040,13212,1940
37457,13179,1962
37292,13237,1986
36800,13141,2007
36196,13190,2088
35572,13284,2019
34848,13282,2060
34200,13327,2027
33616,13341,2051
33158,13255,2114
32856,13234,2118
32668,13169,2206
32516,13154,2300
32480,13193,2302
32464,13175,2265
32400,13232,2220
32432,13313,2224
32388,13293,2262
32372,13308,2277
32356,13273,2365
32316,13267,2421
32245,13156,2443
32204,13144,2471
32184,13179,2371
32197,13241,2555
32220,13214,2613
32228,13278,2644
32248,13356,2664
32256,13281,2629
32244,13252,2612
32204,13231,2624
32137,13237,2639
32084,13122,2700
32112,13131,2748
32188,13183,2712
32229,13268,2738
32208,13257,2833
32213,13300,2975
32208,13336,2954
32224,13248,2881
32156,13220,2972
32100,13175,3111
32080,13189,3106
32097,13132,3087
32116,13192,3098
32170,13277,3146
32244,13261,3128
32288,13295,3173
32268,13314,3299
32204,13243,3331
32152,13209,3255
32084,13165,3339
32060,13193,3445
32072,13120,3527
32116,13178,3528
32196,13242,3476
32230,13326,3524
32232,13352,3624
32196,13271,3671
32152,13252,3700
32112,13254,3725
32084,13139,3676
32040,13126,3716
32024,13123,3741
32065,13181,3785
32120,13257,3861
32184,13271,3879
32169,13324,3895
32118,13269,3929
32072,13253,3923
32012,13280,3884
32024,13162,3863
31988,13167,3863
32033,13119,3823
32044,13168,3848
32126,13254,3868
32128,13241,3932
32145,13295,3861
32142,13357,3978
32084,13233,4045
32044,13220,4045
31992,13132,3960
31976,13127,3964
31992,13176,4054
32012,13148,4050
32040,13194,4027
32020,13283,4039
32032,13282,3902
32065,13319,3886
32040,13228,3890
31961,13200,3907
31884,13197,3960
31844,13121,4034
31847,13130,4026
31880,13136,4019
31920,13199,3982
31908,13300,3907
31885,13287,3897
31872,13295,3861
31776,13223,3857
31708,13215,3921
31648,13196,3861
31596,13123,3871
31604,13141,3885
31612,13137,3861
31636,13198,3876
31628,13274,3850
31645,13378,3992
31606,13254,3905
31588,13234,3929
31513,13173,3873
31468,13133,3828
31460,13123,3891
31476,13207,3984
31492,13133,3969
31524,13191,3908
31542,13305,3869
31533,13259,3927
31536,13274,3935
31486,13271,3857
31420,13177,3899
31381,13141,3993
31348,13131,3970
31348,13097,3930
31420,13145,3922
31464,13219,3848
31564,13226,3942
31612,13255,3905
31625,13268,3938
31640,13269,3907
31604,13177,3963
31536,13144,4018
31504,13097,4003
31528,13098,3924
31598,13147,3987
31689,13189,4036
31760,13254,4004
31816,13319,3907
31860,13244,3998
31884,13218,4006
31888,13198,3965
31852,13120,3999
31872,13105,4012
31956,13128,4054
32080,13215,4003
32180,13156,4026
32228,13238,4094
32310,13325,4118
32368,13261,4146
32405,13264,4155
32440,13178,4112
32505,13152,4170
32556,13073,4116
32624,13100,4115
32732,13116,4062
32832,13172,4036
32944,13275,4055
32992,13244,4051
32980,13254,4105
32992,13206,4121
32992,13185,4153
33004,13151,4251
33004,13158,4237
33068,13082,4246
33172,13127,4267
33236,13252,4271
33308,13215,4253
33340,13262,4184
33369,13299,4141
33420,13204,4145
33406,13166,4259
33344,13145,4317
33336,13077,4320
33372,13080,4279
33384,13127,4220
33432,13150,4278
33464,13228,4260
33524,13287,4283
33510,13234,4261
33457,13221,4232
33412,13211,4296
33432,13106,4262
33413,13092,4268
33437,13072,4271
33448,13126,4346
33500,13148,4279
33516,13229,4335
33536,13232,4300
33528,13244,4316
33470,13290,4320
33384,13180,4334
33356,13187,4366
33356,13095,4363
33340,13110,4460
33376,13101,4445
33404,13191,4476
33436,13194,4508
33452,13292,4417
33424,13242,4436
33356,13249,4452
33332,13150,4471
33303,13135,4498
33238,13069,4533
33240,13088,4546
33276,13094,4559
33348,13145,4670
33406,13199,4641
33424,13238,4647
33400,13269,4719
33344,13188,4825
33252,13166,4808
33197,13155,4753
33176,13059,4781
33204,13086,4781
33244,13175,4905
33293,13153,4916
33296,13223,4863
33288,13219,4892
33244,13247,4955
33160,13185,4964
33149,13170,4985
33123,13190,5103
33113,13074,5114
33120,13132,5166
33156,13115,5133
33160,13218,5156
33180,13200,5184
33204,13284,5231
33206,13223,5334
33152,13203,5438
33164,13204,5454
33158,13095,5471
33135,13094,5533
33112,13055,5549
33153,13094,5549
33248,13187,5637
33224,13177,5687
33253,13228,5723
33264,13272,5756
33204,13194,5735
33160,13190,5767
33166,13092,5764
33160,13109,5781
33160,13069,5808
33160,13156,5896
33260,13149,5988
33300,13234,6016
33292,13213,6054
33284,13230,6075
33249,13224,6100
33232,13135,6104
33197,13086,6073
33188,13076,6091
33161,13137,6109
33160,13079,6099
33216,13143,6237
33248,13206,6191
33280,13279,6209
33312,13205,6239
33276,13201,6263
33204,13133,6360
33172,13101,6336
33156,13041,6304
33108,13088,6431
33102,13073,6488
33150,13134,6536
33216,13165,6567
33224,13231,6589
33272,13276,6565
33254,13191,6547
33188,13173,6618
33152,13079,6624
33132,13065,6605
33164,13043,6695
33196,13113,6714
33224,13111,6678
33268,13213,6698
33240,13204,6728
33168,13247,6774
33164,13169,6815
33124,13149,6895
33088,13077,6945
33048,13054,6959
33032,13064,6949
33028,13068,6991
33105,13104,7023
33124,13181,6997
33156,13253,7045
33140,13191,7157
33156,13180,7201
33136,13237,7222
33108,13093,7300
33089,13157,7347
33112,13065,7374
33140,13128,7417
33144,13102,7445
33120,13180,7475
33116,13199,7479
33090,13209,7414
33096,13207,7487
33092,13121,7517
33048,13093,7535
32976,13089,7616
32962,13029,7687
32940,13076,7720
33012,13159,7748
33052,13155,7737
33116,13224,7770
33140,13186,7708
33100,13168,7735
33072,13172,7788
32984,13066,7805
32952,13042,7813
32956,13117,7847
32942,13054,7863
33020,13127,7901
33044,13148,7924
33013,13212,7945
32992,13228,7973
32978,13150,8007
32937,13124,8076
32952,13092,8063
32920,13017,8087
32944,13052,8111
32968,13109,8138
32996,13087,8175
33064,13168,8254
33055,13208,8273
33044,13181,8301
32953,13179,8268
32928,13115,8272
32896,13082,8285
32828,13056,8331
32821,13092,8403
32860,13045,8411
32900,13100,8419
32928,13204,8428
32964,13179,8426
32956,13210,8447
32932,13149,8530
32878,13132,8546
32869,13058,8525
32846,13041,8548
32869,13018,8555
32878,13057,8556
32900,13081,8576
32916,13172,8617
32932,13168,8653
32973,13217,8686
32932,13160,8649
32864,13175,8720
32844,13061,8764
32832,13047,8786
32816,13018,8822
32809,13037,8771
32856,13092,8836
32908,13233,8888
32960,13190,8917
32949,13202,8938
32904,13143,8954
32888,13117,8986
32858,13095,8965
32820,13012,9004
32848,13037,9026
32876,13069,9038
32904,13074,9076
32911,13149,9092
32916,13222,9053
32880,13166,9077
32884,13161,9091
32798,13130,9108
32772,13082,9135
32736,13031,9167
32710,13058,9176
32728,13029,9274
32785,13082,9297
32844,13175,9313
32868,13175,9352
32844,13208,9335
32832,13135,9337
32768,13105,9346
32780,13104,9370
32788,13004,9391
32768,13042,9436
32772,13025,9468
32828,13074,9475
32832,13117,9510
32801,13170,9526
32808,13201,9540
32756,13132,9545
32740,13125,9549
32712,13092,9568
32704,13001,9597
32704,13011,9627
32741,13143,9686
32752,13086,9720
32772,13140,9721
32768,13154,9749
32762,13166,9751
32740,13151,9726
32668,13138,9793
32652,13038,9807
32652,13002,9838
32669,13010,9848
32681,13092,9855
32740,13063,9873
32772,13136,9897
32790,13148,9926
32745,13154,9924
32708,13140,9955
32704,13125,10015
32680,13033,10037
32668,12998,10031
32700,13009,10013
32732,13041,10061
32765,13105,10082
32796,13194,10130
32792,13162,10152
32790,13199,10170
32776,13125,10191
32741,13094,10203
32680,13031,10207
32617,13014,10204
32656,13010,10191
32680,13009,10235
32700,13074,10266
32728,13111,10274
32752,13189,10303
32705,13140,10348
32648,13126,10368
32626,13086,10329
32628,13053,10383
32640,13018,10383
32652,13095,10409
32680,13002,10459
32714,13073,10481
32789,13148,10503
32789,13143,10511
32784,13140,10487
32753,13132,10521
32728,13129,10554
32660,13021,10557
32629,12988,10592
32668,12996,10623
32692,13058,10652
32740,13042,10653
32800,13125,10675
32792,13184,10681
32760,13136,10689
32728,13143,10712
32672,13154,10752
32644,13053,10793
32644,13025,10800
32644,12967,10821
32672,13010,10849
32712,13106,10851
32748,13089,10864
32736,13153,10916
32704,13159,10927
32708,13165,10959
32680,13071,10996
32637,13046,11004
32652,13004,11041
32616,12968,11061
32608,13019,11081
32644,13099,11094
32664,13097,11117
32700,13144,11140
32728,13218,11171
32721,13103,11187
32704,13067,11229
32648,13025,11244
32572,12988,11265
32600,13001,11292
32613,12993,11308
32668,13029,11340
32712,13083,11377
32768,13150,11378
32784,13143,11406
32774,13147,11434
32762,13122,11450
32740,13131,11488
32744,12973,11510
32821,12980,11540
32841,13036,11556
32900,13094,11571
32896,13070,11607
32908,13147,11631
32876,13141,11648
32840,13157,11677
32820,13182,11717
32796,13010,11737
32772,12972,11754
32756,12972,11781
32796,13028,11814
32821,13100,11834
32825,13071,11866
32850,13140,11884
32852,13123,11919
32836,13125,11939
32825,13093,11966
32789,13082,12002
32782,12978,12025
32792,13014,12053
32832,12987,12083
32856,13064,12114
32904,13068,12148
32944,13141,12174
32956,13149,12205
32928,13216,12230
32854,13059,12261
32832,13032,12293
32772,13015,12324
32820,12951,12356
32832,12989,12384
32902,13072,12414
32952,13062,12440
32940,13108,12466
32912,13140,12503
32856,13166,12533
32772,13082,12568
32720,13046,12603
32704,12961,12632
32748,12977,12657
32696,13037,12697
32652,13011,12724
32528,13079,12761
32365,13116,12815
32164,13160,12858
31924,13171,12875
31669,13049,12910
31424,13008,12945
31260,12986,12981
31124,12979,13000
31172,13047,13034
31325,13004,13073
31425,13068,13153
31608,13122,13177
31816,13151,13219
32072,13089,13253
32176,13073,13294
32128,13037,13344
32184,13028,13377
32132,13018,13391
31953,13068,13484
31972,13004,13508
32288,13054,13553
33016,13119,13597
34072,13171,13636
35464,13081,13662
36656,13057,13706
37252,13057,13749
37264,12940,13785
36869,12936,13817
36292,12954,13938
35728,13008,13955
35124,13068,13993
34529,13162,14052
33957,13168,14079
33424,13082,14105
33008,13040,14205
32788,13021,14285
32660,12982,14301
32614,12988,14361
32629,12956,14378
32600,12998,14448
32620,13059,14563
32624,13155,14575
32644,13101,14635
32600,13079,14657
32538,13052,14687
32496,13050,14837
32488,12948,14868
32476,12961,14949
32480,13020,14979
32474,12996,14999
32464,13054,15153
32508,13109,15187
32481,13152,15281
32468,13141,15250
32448,13149,15441
32400,12993,15468
32392,12972,15548
32352,12996,15587
32348,12959,15678
32412,13025,15716
32454,13113,15784
32520,13090,15812
32510,13095,15923
32520,13104,16061
32489,13053,16108
32436,13002,16097
32388,13000,16154
32380,12928,16223
32420,12953,16341
32480,12999,16510
32513,13077,16541
32524,13151,16640
32489,13172,16653
32445,13138,16811
32420,13032,16821
32412,12988,16899
32369,12942,16944
32376,12924,17056
32388,12942,17178
32445,12989,17121
32448,13049,17365
32481,13093,17376
32493,13115,17492
32476,13100,17403
32464,13053,17601
32429,13003,17661
32408,12965,17725
32380,12956,17821
32414,12974,17946
32472,13020,17857
32476,13079,18111
32492,13074,18129
32472,13089,18236
32453,13077,18144
32390,13057,18415
32324,12999,18453
32316,12971,18403
32304,13037,18487
32328,13041,18653
32344,12973,18729
32376,13045,18670
32396,13092,18901
32364,13125,18893
32340,13185,19001
32268,13027,18951
32184,12989,19057
32188,12949,19197
32193,12983,19196
32220,12932,19180
32252,12986,19288
32268,13044,19378
32262,13123,19503
32240,13085,19510
32220,13069,19462
32184,13033,19743
32160,13007,19690
32120,12965,19757
32112,12964,19741
32132,12931,20011
32212,12977,19964
32230,13040,20109
32221,13097,20055
32217,13134,20144
32176,13057,20344
32096,13053,20276
32016,13003,20428
31952,12993,20341
31892,12906,20557
31878,12927,20653
31896,12982,20623
31936,13067,20624
31980,13067,20836
31952,13092,20928
31896,13131,20946
31896,13029,21086
31892,13020,21172
31856,12921,21088
31884,12906,21383
31888,12941,21392
31940,13009,21465
31984,13069,21464
31988,13053,21476
31928,13067,21640
31888,13075,21804
31844,13033,21705
31825,13026,22013
31796,12919,22095
31824,12916,22029
31842,12972,22205
31884,12955,22179
31894,13011,22196
31917,13080,22456
31940,13092,22492
31969,13104,22621
31988,13092,22546
32005,12971,22700
31996,12924,22855
32005,12957,22929
32052,12921,23031
32080,12952,22948
32105,13004,23234
32196,13079,23282
32205,13084,23207
32172,13085,23461
32156,13081,23460
32176,12973,23604
32192,12908,23535
32216,12895,23712
32254,12908,23856
32352,12947,23839
32492,12992,23933
32564,13043,24101
32636,13060,24124
32680,13045,24286
32624,13021,24240
32660,12989,24423
32674,12928,24350
32712,12941,24596
32824,13032,24574
32928,12942,24732
33076,12986,24639
33180,13056,24726
33214,13092,25031
33240,13093,24926
33188,13092,25119
33156,12964,25181
33164,12921,25245
33221,12948,25175
33284,12900,25306
33316,12953,25551
33421,12997,25527
33444,13089,25627
33472,13053,25699
33476,13041,25593
33484,13025,25706
33516,13028,25809
33564,12903,25960
33572,12919,25964
33647,12901,26024
33686,12947,26249
33744,13012,26229
33764,13038,26333
33740,13047,26448
33712,13061,26420
33588,13022,26518
33502,13028,26615
33472,12903,26523
33488,12899,26567
33524,12959,26694
33569,12924,26830
33624,12997,26993
33661,13089,27029
33652,13039,27071
33644,13046,27178
33584,13009,27063
33528,13025,27188
33412,12896,27319
33388,12886,27548
33398,12932,27631
33454,13020,27543
33528,12975,27573
33592,13078,27647
33544,13037,27717
33488,13041,27850
33413,13000,27937
33416,12978,27906
33348,12890,28201
33332,12871,28172
33380,12907,28218
33468,12975,28212
33488,12963,28276
33536,13025,28413
33568,13055,28519
33532,13091,28610
33520,12991,28673
33440,12957,28599
33332,12926,28751
33310,12924,28957
33364,12959,28869
33405,12921,29052
33425,12986,29101
33436,13047,29055
33432,13087,29254
33392,13026,29452
33372,12988,29385
33361,12959,29473
33364,12932,29548
33318,12866,29446
33302,12900,29615
33293,12983,29779
33312,12958,29772
33364,13028,29885
33372,13055,29789
33349,13083,29980
33268,12983,30258
33276,12962,30132
33264,12903,30269
33252,12924,30244
33276,12876,30357
33360,12943,30612
33388,13005,30580
33412,13010,30540
33416,13058,30677
33357,13064,30799
33296,12979,30624
33292,12967,30700
33212,12919,30901
33168,12921,31197
33164,12876,31041
33224,12912,31212
33300,12966,31188
33332,13039,31471
33304,13077,31413
33268,13069,31401
33240,12982,31663
33192,12930,31597
33160,12884,31671
33188,12871,31700
33220,12903,31905
33248,12929,31863
33288,12963,31876
33340,13036,32164
33292,13069,32069
33252,13077,31969
33196,12975,32205
33164,12946,32412
33144,12894,32337
33140,12911,32384
33164,12871,32511
33236,12911,32319
33268,12975,32577
33286,13027,32836
33296,13143,32909
33252,13018,32885
33164,12991,32784
33116,13011,32966
33092,12880,32820
33132,12854,33165
33181,12867,33156
33200,12911,33251
33188,12985,33228
33220,13067,33517
33288,13019,33364
33286,13006,33535
33214,13000,33367
33184,12981,33585
33116,12875,33822
33084,12870,33817
33080,12922,33868
33114,12897,33934
33136,12966,33924
33192,13031,34159
33220,13015,34191
33208,13027,34165
33212,13005,34295
33188,12969,34077
33172,12883,34356
33108,12861,34596
33092,12894,34591
33132,12957,34565
33120,12933,34663
33128,13000,34771
33156,13045,34828
33148,13067,34652
33088,12969,34885
33060,12939,35084
33068,12927,35204
33004,12846,35271
33005,12871,35244
33004,12952,35181
33048,13049,35335
33032,12988,35311
33033,13031,35503
33006,13043,35641
33028,13047,35580
33020,12923,35556
32992,12889,35641
32976,12916,35725
33044,12852,35784
33104,12908,35552
33110,12981,35620
33124,12988,35905
33084,13005,36173
33012,13010,36103
32976,12981,36135
32932,12939,35871
32862,12894,36191
32864,12889,36437
32932,12851,36359
33000,12886,36321
33020,12940,36452
33024,13019,36496
33072,13001,36532
33113,13021,36439
33124,13002,36589
33088,12990,36772
33012,12867,36725
32925,12865,36772
32913,12893,36855
32992,12967,36833
33060,12924,36993
33072,12993,37100
33076,13072,36929
33040,12993,37098
32956,12965,36811
32932,12939,37124
32928,12923,37255
32932,12836,37321
32928,12846,37324
32952,12886,37349
32940,12933,37321
33000,13033,37380
32972,12995,37448
32953,12997,37621
32880,12970,37711
32832,12945,37625
32774,12927,37691
32761,12832,37677
32816,12840,37865
32885,12884,37836
32912,12930,37797
32917,13036,37916
32910,12993,37957
32940,12997,37949
32904,12974,38109
32840,12982,38253
32832,12861,38202
32844,12857,38151
32888,12862,37856
32944,12916,38340
32976,12996,38439
33009,12973,38253
33008,13004,38406
32982,13006,38380
32920,13006,38575
32852,12902,38591
32800,12854,38500
32796,12834,38599
32780,12867,38500
32832,12889,38807
32924,12931,38589
32980,13001,38745
32977,13031,38732
32964,13027,38940
32936,13006,38845
32876,12910,38652
32832,12852,39007
32808,12817,39045
32781,12843,38925
32760,12873,39025
32800,12913,39028
32860,13007,39252
32852,13066,39031
32828,12975,39165
32756,12968,38888
32733,12935,39300
32740,12966,39425
32760,12819,39298
32774,12849,39231
32800,12892,39343
32844,12949,39015
32856,12955,39373
32862,12984,39591
32869,12991,39367
32812,13004,39444
32764,12899,39548
32716,12855,39414
32692,12847,39704
32716,12945,39625
32718,12853,39559
32760,12899,39679
32846,12961,39303
32912,13025,39677
32908,13033,39897
32908,12934,39679
32864,12916,39752
32804,12852,39782
32740,12831,39894
32764,12865,39828
32805,12851,39804
32852,12891,39896
32880,12964,39878
32928,13015,39943
32912,13066,40092
32844,12933,40088
32804,12921,40055
32800,12873,39898
32737,12863,40039
32760,12932,39932
32817,12847,40076
32813,12897,40132
32848,12972,40094
32880,13029,40090
32908,13054,39797
32852,12932,40232
32768,12892,40039
32720,12841,40132
32660,12838,40151
32632,12914,39736
32648,12839,40124
32692,12911,40256
32701,12980,40148
32716,13052,40176
32676,12958,40145
32654,12938,40157
32663,12900,40295
32681,12852,40080
32704,12874,40187
32724,12808,39773
32780,12849,40151
32797,12896,40199
32792,12947,40175
32816,12986,40136
32837,12981,40260
32820,12989,40060
32768,12884,40158
32736,12847,40165
32728,12844,40160
32740,12895,40150
32776,12832,39779
32849,12901,39964
32892,12981,40098
32873,13048,40244
32904,12953,40120
32896,12917,40010
32940,12881,40068
32932,12841,40071
32912,12845,39639
32956,12800,39653
32972,12833,39943
33010,12879,40124
33036,12935,39953
32984,12991,39921
32984,13022,39780
32936,13007,40039
32900,12879,39874
32872,12820,39495
32856,12809,39826
32885,12825,39742
32924,12853,39785
33006,12896,39711
33044,12964,39873
33016,13011,39640
32992,13073,39665
32974,12915,39397
32950,12903,39676
32932,12837,39653
32909,12839,39509
32880,12862,39131
32916,12943,39535
32909,12860,39516
32896,12939,39381
32949,12966,39384
32961,12975,39487
32940,12951,39223
32884,12874,39250
32820,12817,39249
32784,12795,39195
32776,12807,39264
32816,12855,39052
32800,12907,39132
32720,12916,38896
32536,12950,39136
32280,12964,38967
31976,12928,38960
31716,12897,38599
31424,12865,38862
31245,12849,38860
31076,12786,38828
31052,12819,38944
31165,12857,38713
31204,12927,38693
31208,12953,38677
31344,12961,38543
31558,12935,38574
31800,12929,38490
31844,12909,38615
31868,12780,38335
31932,12786,38390
31696,12837,38364
31616,12868,38127
31916,12934,38311
32732,12978,38217
33930,13018,38121
35428,12903,38108
36672,12894,38076
37396,12833,37855
37356,12842,38089
36886,12924,37788
36335,12805,37852
35832,12842,37613
35304,12911,37727
34824,12959,37652
34280,12962,37289
33780,12913,37511
33344,12875,37575
33004,12831,37457
32800,12829,37256
32724,12773,37276
32647,12819,37308
32584,12862,37191
32608,12914,36865
32636,12988,37058
32592,12973,37173
32534,12996,37012
32489,12853,36892
32480,12831,36931
32484,12824,36871
32476,12871,36804
32468,12797,36661
32528,12844,36805
32548,12900,36676
32536,12935,36559
32525,12935,36703
32508,12924,36508
32484,12889,36500
32448,12863,36367
32417,12873,36517
32428,12764,36359
32424,12818,36289
32488,12871,36292
32524,13008,35935
32580,12937,36128
32576,12945,36289
32568,12911,36052
32520,12880,36076
32444,12841,35951
32416,12820,36052
32436,12826,35932
32488,12855,35812
32564,12835,35952
32620,12882,35763
32600,12919,35609
32575,12921,35830
32556,12905,35581
32576,12864,35447
32572,12805,35660
32548,12789,35401
32564,12772,35439
32580,12800,35313
32612,12867,35381
32634,12939,35316
32632,12915,35125
32612,12922,35127
32596,12903,35101
32560,12879,35046
32498,12858,34896
32472,12763,35047
32485,12756,34921
32544,12778,34847
32600,12837,34785
32623,12895,34726
32624,12954,34820
32592,13014,34572
32544,12884,34599
32476,12845,34450
32448,12799,34597
32444,12779,34431
32456,12775,34375
32439,12793,34279
32508,12880,34404
32553,12943,34110
32540,12907,34147
32524,12910,33844
32496,12902,33836
32448,12909,33934
32384,12803,33921
32352,12778,34000
32336,12765,33788
32352,12807,33767
32384,12918,33473
32396,12868,33583
32432,12917,33600
32405,12944,33512
32384,12944,33450
32338,12838,33423
32276,12797,33126
32249,12762,33164
32248,12773,33221
32252,12815,33273
32304,12855,33109
32306,12922,32772
32288,12982,32931
32260,12974,32957
32200,12946,32843
32148,12920,32581
32100,12788,32701
32025,12743,32807
32016,12764,32489
32064,12793,32541
32121,12831,32292
32104,12884,32529
32092,12911,32298
32076,12931,32276
32032,12893,32173
31984,12845,32238
31953,12807,32071
31922,12768,31806
31912,12773,32020
31920,12789,31832
31924,12823,31635
31952,12887,31783
31991,12908,31660
32006,12913,31668
31932,12890,31577
31864,12863,31472
31828,12795,31261
31792,12763,31493
31796,12745,31343
31844,12761,31228
31912,12801,31337
31960,12869,31162
32012,12916,30911
32052,12919,31218
32053,12896,30981
32016,12855,30732
31988,12814,30895
32000,12756,30877
31972,12763,30784
32036,12807,30733
32100,12845,30589
32202,12901,30512
32280,13010,30570
32292,12892,30304
32296,12894,30388
32293,12845,30479
32252,12812,30215
32256,12780,30265
32277,12790,29991
32356,12852,30058
32432,12792,30084
32532,12842,30045
32596,12881,29980
32640,12885,29818
32660,12868,29990
32652,12825,29687
32684,12773,29728
32692,12732,29557
32762,12728,29710
32865,12781,29484
32980,12812,29301
33034,12871,29284
33060,12937,29415
33082,12970,29421
33136,12863,29140
33149,12820,29204
33188,12775,28938
33204,12729,28975
33258,12749,29025
33276,12771,29042
33332,12851,28985
33400,12834,28743
33448,12878,28741
33476,12883,28511
33476,12863,28607
33416,12832,28519
33388,12783,28527
33391,12733,28367
33364,12726,28519
33396,12766,28332
33432,12807,28283
33492,12863,28226
33488,12892,27972
33468,12892,27981
33452,12890,28135
33404,12855,27958
33388,12789,27761
33388,12747,27943
33396,12737,27809
33385,12780,27560
33420,12834,27591
33450,12895,27761
33496,12937,27558
33525,12919,27421
33476,12872,27461
33412,12843,27421
33360,12793,27292
33325,12732,27329
33304,12735,27266
33300,12772,27200
33393,12836,27039
33460,12897,27207
33496,12869,26953
33440,12869,27015
33368,12850,26781
33311,12835,26833
33264,12783,26969
33220,12775,26921
33248,12797,26752
33301,12732,26603
33320,12769,26660
33302,12829,26478
33301,12863,26631
33264,12869,26484
33264,12851,26294
33197,12828,26313
33164,12789,26397
33188,12759,26328
33214,12748,26132
33252,12774,26339
33276,12795,26172
33256,12850,25982
33268,12902,26023
33192,12925,26084
33180,12907,26042
33156,12800,25988
33080,12761,25819
33068,12737,25957
33080,12749,25809
33124,12853,25829
33182,12766,25816
33196,12839,25600
33237,12877,25654
33228,12924,25780
33189,12887,25556
33097,12802,25534
33076,12756,25474
33036,12783,25476
33005,12760,25354
33064,12782,25557
33133,12820,25424
33164,12875,25252
33152,12900,25282
33176,12911,25162
33158,12886,25302
33120,12844,25238
33092,12810,25095
33044,12708,25023
33042,12700,25223
33033,12743,25051
33108,12773,24903
33156,12844,24951
33176,12903,24940
33192,12903,24816
33152,12891,24863
33040,12871,24812
33008,12752,24868
33000,12705,24684
33026,12709,24885
33036,12738,24749
33068,12783,24724
33100,12862,24536
33144,12851,24648
33148,12859,24673
33108,12845,24590
33009,12802,24400
32997,12751,24473
33020,12728,24490
33044,12713,24309
33088,12737,24393
33076,12767,24383
33084,12830,24239
33084,12908,24319
33064,12915,24276
33044,12936,24100
33012,12793,24120
32997,12747,24231
32989,12704,24127
32976,12687,23959
32989,12730,24049
33041,12767,23972
33068,12833,23991
33092,12888,23852
33092,12901,23830
33072,12862,23751
33076,12807,23954
33028,12774,23844
33000,12717,23717
32980,12727,23773
32988,12777,23765
33000,12740,23588
33052,12799,23752
33080,12861,23587
33068,12871,23639
33052,12852,23463
32996,12812,23612
32964,12802,23522
32968,12697,23537
32952,12692,23362
32948,12722,23516
33012,12761,23393
33061,12851,23272
33036,12835,23421
33021,12845,23360
33012,12822,23336
32964,12794,23156
32889,12773,23324
32856,12721,23258
32864,12700,23079
32893,12770,23279
32960,12813,23140
32993,12775,23045
33020,12826,23121
33004,12846,23116
33000,12843,22914
32940,12795,22982
32928,12759,23037
32869,12703,22857
32876,12692,23033
32904,12745,22852
32924,12727,22935
32924,12776,22767
32932,12836,22853
32944,12863,22776
32948,12839,22838
32948,12813,22684
32900,12796,22702
32864,12762,22761
32884,12667,22582
32924,12700,22535
32969,12746,22701
32972,12807,22596
33028,12871,22500
33016,12884,22509
32989,12889,22593
32952,12772,22546
32917,12737,22356
32892,12697,22417
32888,12691,22466
32934,12726,22301
32948,12793,22372
32976,12764,22346
32984,12815,22252
32960,12835,22395
32952,12810,22328
32944,12777,22124
32868,12741,22171
32828,12711,22246
32812,12678,22100
32808,12704,22198
32868,12744,22182
32912,12803,22019
32940,12887,22054
32960,12825,22044
33008,12825,22080
33016,12782,22006
32944,12735,21972
32901,12703,22032
32877,12679,21872
32896,12724,21985
32900,12805,21873
32960,12756,21952
32984,12804,21775
32920,12826,21943
32892,12802,21892
32846,12765,21724
32852,12730,21801
32832,12684,21837
32833,12667,21681
32844,12706,21696
32860,12744,21695
32900,12802,21698
32904,12856,21693
32896,12874,21581
32900,12860,21737
32836,12834,21669
32788,12800,21519
32760,12669,21535
32764,12683,21665
32804,12685,21517
32832,12767,21587
32821,12747,21471
32861,12807,21364
32876,12837,21543
32844,12835,21477
32792,12869,21484
32775,12717,21333
32736,12673,21336
32672,12671,21471
32628,12698,21330
32668,12773,21389
32736,12747,21220
32745,12807,21290
32738,12828,21229
32704,12815,21309
32676,12802,21188
32640,12802,21129
32601,12661,21080
32592,12652,21243
32652,12673,21193
32704,12736,21116
32704,12789,21198
32724,12852,21006
32730,12878,21205
32672,12790,21172
32640,12771,21047
32600,12769,21124
32576,12660,21111
32564,12647,21005
32576,12684,20916
32644,12720,21097
32696,12803,21020
32760,12796,21032
32768,12810,20908
32758,12789,21084
32685,12764,20925
32572,12725,21012
32552,12690,20841
32552,12700,21018
32572,12780,20890
32608,12692,20959
32672,12733,20804
32640,12816,20880
32660,12852,20941
32648,12793,20872
32601,12751,20791
32568,12733,20703
32580,12702,20749
32564,12644,20896
32568,12653,20825
32612,12705,20833
32644,12746,20717
32686,12856,20687
32698,12797,20612
32680,12785,20814
32644,12758,20719
32616,12722,20608
32584,12681,20703
32584,12647,20686
32604,12666,20541
32668,12703,20615
32732,12783,20637
32749,12836,20636
32754,12847,20463
32736,12861,20547
32665,12829,20479
32613,12709,20554
32564,12657,20405
32536,12652,20506
32562,12652,20505
32628,12687,20308
32684,12725,20490
32744,12804,20396
32764,12827,20332
32688,12806,20349
32652,12763,20311
32656,12725,20383
32572,12671,20181
32560,12671,20380
32548,12674,20317
32526,12732,20209
32556,12771,20298
32604,12820,20261
32660,12815,20084
32684,12797,20213
32620,12765,20121
32564,12758,20251
32568,12702,20199
32588,12703,20082
32600,12729,20153
32592,12749,20168
32688,12765,20053
32780,12815,20105
32800,12857,20124
32796,12781,19942
32745,12742,20101
32720,12709,20001
32700,12660,20075
32724,12670,19956
32724,12697,19944
32752,12729,20036
32800,12771,20033
32820,12836,19904
32870,12873,19990
32876,12860,19972
32846,12844,19866
32820,12703,20029
32800,12642,19953
32776,12631,19841
32768,12636,19983
32784,12687,19946
32844,12735,19871
32884,12803,19940
32868,12806,19925
32844,12791,19743
32816,12754,19819
32856,12738,19900
32801,12697,19767
32784,12693,19801
32820,12630,19805
32820,12666,19792
32812,12707,19791
32864,12762,19768
32904,12779,19817
32892,12769,19814
32845,12735,19734
32792,12713,19637
32749,12649,19847
32708,12657,19760
32736,12671,19685
32784,12723,19685
32829,12786,19737
32874,12758,19689
32900,12781,19739
32840,12768,19615
32789,12733,19637
32772,12697,19712
32668,12649,19568
32564,12623,19632
32493,12658,19607
32300,12711,19658
32140,12762,19606
31932,12866,19605
31708,12775,19524
31500,12767,19581
31286,12730,19573
31094,12691,19518
31064,12654,19413
31101,12624,19601
31148,12652,19489
31294,12706,19556
31504,12698,19428
31872,12753,19447
32088,12773,19457
32096,12770,19508
32172,12733,19356
32036,12698,19505
31732,12660,19418
31808,12637,19402
32220,12669,19469
33104,12751,19369
34348,12693,19285
35846,12775,19457
36986,12782,19424
37442,12793,19313
37213,12764,19271
36716,12699,19337
36064,12665,19377
35468,12651,19210
34888,12685,19358
34336,12765,19335
33880,12685,19292
33460,12746,19325
33120,12773,19247
32864,12784,19156
32724,12764,19188
32600,12775,19318
32568,12627,19218
32552,12604,19162
32528,12612,19126
32512,12656,19269
32524,12700,19236
32544,12773,19164
32512,12763,19107
32500,12775,19053
32456,12735,19261
32392,12723,19132
32320,12698,19217
32293,12652,19112
32248,12664,19152
32316,12688,19213
32388,12722,19175
32412,12792,19140
32436,12839,19222
32424,12751,19041
32400,12715,19265
32352,12678,19197
32308,12624,19237
32285,12595,19070
32316,12608,19248
32328,12640,19249
32388,12676,19162
32428,12743,19268
32424,12773,19269
32445,12781,19201
32401,12807,19220
32348,12675,19269
32253,12622,19307
32241,12620,19226
32277,12620,19208
32302,12678,19164
32400,12673,19226
32460,12729,19273
32472,12768,19415
32412,12767,19360
32344,12733,19397
32288,12713,19309
32254,12678,19400
32320,12649,19347
32332,12660,19332
32320,12737,19298
32364,12677,19483
32384,12756,19437
32368,12816,19453
32332,12797,19365
32292,12716,19432
32226,12670,19398
32196,12614,19489
32172,12616,19413
32152,12620,19335
32232,12691,19441
32268,12669,19538
32300,12733,19499
32300,12761,19503
32260,12784,19523
32220,12806,19399
32192,12666,19409
32152,12620,19555
32128,12613,19464
32178,12621,19472
32228,12637,19352
32236,12685,19503
32212,12747,19524
32237,12765,19372
32200,12771,19533
32144,12759,19428
32072,12667,19488
32041,12609,19495
32005,12580,19383
32008,12588,19311
31976,12618,19520
32000,12687,19512
32053,12734,19370
32052,12781,19447
32008,12795,19331
31944,12765,19332
31834,12657,19388
31823,12613,19335
31840,12603,19384
31816,12626,19284
31836,12615,19246
31840,12654,19346
31860,12709,19273
31872,12753,19295
31858,12779,19309
31840,12757,19167
31772,12652,19103
31716,12601,19207
31700,12593,19192
31660,12589,19244
31632,12632,19087
31656,12673,19214
31682,12783,19263
31712,12733,19135
31684,12729,19193
31648,12708,19184
31624,12690,19164
31628,12655,19068
31588,12655,19005
31604,12577,18996
31664,12619,18943
31712,12679,19006
31788,12698,19063
31822,12732,19119
31776,12743,19080
31684,12727,18948
31673,12749,19003
31668,12591,18921
31652,12583,18836
31644,12580,18991
31652,12644,18948
31736,12727,18940
31836,12698,18759
31844,12724,18949
31876,12717,18893
31854,12690,18780
31832,12649,18764
31804,12610,18796
31836,12590,18847
31848,12596,18685
31870,12653,18754
31932,12754,18756
31972,12685,18796
31996,12719,18710
31996,12722,18588
32020,12709,18788
32072,12685,18714
32092,12589,18695
32104,12564,18701
32172,12589,18695
32256,12674,18604
32336,12631,18537
32392,12701,18493
32528,12772,18668
32581,12710,18626
32600,12704,18580
32576,12656,18601
32600,12631,18439
32644,12618,18404
32714,12557,18520
32784,12581,18457
32872,12641,18496
32948,12700,18498
32992,12837,18404
33048,12713,18311
33044,12687,18481
33056,12687,18404
33092,12580,18397
33088,12570,18368
33124,12609,18374
33173,12701,18321
33238,12626,18203
33248,12680,18384
33304,12728,18264
33326,12726,18311
33253,12701,18159
33228,12639,18325
33192,12602,18220
33200,12610,18260
33276,12546,18246
33349,12593,18137
33440,12646,18148
33448,12698,18161
33456,12745,18190
33452,12743,18017
33400,12730,18178
33348,12623,18101
33268,12600,18071
33216,12554,18041
33244,12554,17945
33285,12599,18129
33344,12669,18000
33373,12667,18049
33364,12698,18036
33344,12724,17928
33312,12726,17897
33254,12625,17836
33196,12585,17927
33172,12567,17990
33212,12548,17884
33260,12567,17972
33288,12634,17852
33336,12688,17903
33296,12715,17796
33260,12767,17750
33216,12669,17708
33200,12638,17889
33192,12597,17784
33148,12569,17820
33156,12590,17677
33188,12569,17629
33232,12604,17768
33280,12661,17742
33324,12698,17757
33272,12696,17680
33221,12661,17775
33176,12619,17703
33148,12565,17726
33072,12542,17630
33036,12550,17664
33072,12574,17666
33108,12624,17733
33168,12669,17649
33209,12712,17571
33216,12713,17733
33116,12673,17753
33068,12665,17685
33068,12655,17614
33065,12659,17756
33045,12525,17692
33068,12556,17749
33134,12604,17657
33228,12657,17719
33281,12692,17732
33244,12687,17684
33148,12671,17604
33145,12641,17788
33140,12575,17695
33172,12546,17703
33116,12584,17604
33109,12623,17786
33184,12671,17731
33233,12652,17764
33231,12678,17717
33220,12697,17660
33184,12670,17656
33109,12632,17773
33112,12599,17773
33068,12601,17781
33064,12518,17713
33109,12573,17615
33088,12615,17671
33088,12711,17815
33156,12678,17751
33216,12675,17781
33204,12644,17650
33140,12621,17694
33077,12575,17814
33024,12530,17765
33048,12535,17677
33096,12571,17793
33150,12609,17775
33184,12687,17721
33160,12742,17630
33120,12673,17804
33022,12644,17706
33036,12621,17782
32992,12572,17620
32985,12534,17815
32996,12539,17765
33033,12597,17715
33092,12660,17678
33108,12637,17801
33086,12668,17775
33076,12667,17677
33066,12645,17628
33056,12617,17815
33018,12564,17725
32944,12539,17783
32964,12541,17660
33024,12582,17687
33048,12631,17823
33070,12698,17745
33104,12733,17716
33060,12667,17617
33020,12639,17796
32956,12602,17790
32927,12625,17624
32912,12600,17831
32953,12606,17758
32944,12591,17722
32952,12618,17680
32988,12675,17736
33036,12733,17804
33025,12792,17708
32992,12708,17706
32940,12671,17860
32916,12612,17772
32909,12580,17826
32945,12504,17753
32960,12533,17656
32949,12665,17793
32932,12751,17875
32950,12660,17788
32924,12671,17823
32940,12657,17842
32880,12654,17847
32844,12661,17786
32856,12509,17708
32852,12496,17767
32860,12543,17836
32876,12588,17839
32908,12636,17741
32884,12681,17694
32880,12673,17860
32872,12645,17823
32852,12610,17781
32800,12573,17677
32816,12523,17773
32832,12543,17791
32860,12585,17818
32932,12641,17679
32964,12654,17780
32944,12782,17732
32921,12659,17773
32900,12637,17783
32864,12619,17774
32820,12570,17687
32784,12513,17755
32762,12511,17699
32776,12540,17743
32840,12615,17736
32936,12682,17604
32941,12674,17684
32892,12783,17663
32856,12631,17726
32756,12589,17657
32764,12568,17640
32792,12526,17620
32804,12545,17532
32828,12562,17708
32836,12606,17677
32841,12612,17687
32904,12647,17609
32892,12672,17508
32868,12662,17529
32804,12629,17587
32724,12620,17696
32676,12492,17608
32704,12546,17607
32724,12570,17593
32792,12628,17638
32748,12611,17530
32828,12657,17480
32844,12668,17479
32848,12668,17609
32776,12658,17613
32761,12623,17612
32712,12492,17530
32728,12493,17500
32752,12511,17579
32801,12549,17614
32822,12611,17557
32873,12658,17508
32864,12684,17442
32833,12699,17577
32772,12585,17562
32692,12530,17620
32676,12487,17486
32692,12513,17468
32736,12549,17550
32788,12610,17629
32824,12593,17643
32856,12639,17600
32844,12654,17629
32808,12645,17533
32788,12606,17476
32752,12573,17552
32662,12555,17662
32648,12485,17597
32720,12507,17623
32800,12538,17607
32788,12593,17527
32808,12641,17604
32808,12708,17543
32768,12656,17711
32764,12634,17639
32757,12588,17677
32720,12485,17573
32725,12476,17593
32768,12501,17741
32800,12535,17687
32804,12584,17658
32828,12630,17550
32828,12637,17721
32832,12635,17727
32780,12586,17597
32764,12520,17684
32792,12479,17650
32738,12473,17724
32796,12521,17808
32869,12565,17764
32880,12610,17676
32864,12657,17834
32884,12646,17765
32868,12646,17817
32809,12609,17641
32808,12562,17853
32776,12540,17809
32792,12544,17833
32848,12489,17746
32896,12529,17824
32932,12577,17820
32932,12614,17818
32976,12621,17711
32948,12599,17933
32872,12565,17845
32824,12519,17903
32780,12471,17740
32788,12479,17856
32849,12518,17965
32820,12575,17864
32872,12638,17953
32908,12713,17956
32908,12624,17853
32873,12599,17886
32824,12562,18004
32820,12511,17998
32776,12477,17875
32792,12480,18048
32796,12513,17991
32807,12557,18038
32886,12609,17882
32880,12648,18097
32873,12650,18071
32860,12624,17929
32780,12607,18133
32736,12573,18073
32761,12461,18111
32768,12456,18037
32748,12504,18032
32740,12531,17998
32788,12597,18124
32828,12631,18114
32801,12636,18194
32776,12632,18123
32800,12582,18059
32726,12532,18226
32704,12484,18220
32688,12486,18156
32664,12547,18109
32692,12509,18282
32762,12561,18244
32768,12612,18235
32764,12645,18120
32736,12619,18230
32640,12585,18311
32620,12507,18150
32636,12468,18294
32588,12449,18314
32597,12470,18346
32628,12539,18206
32708,12580,18425
32732,12617,18387
32752,12627,18264
32688,12599,18385
32616,12576,18404
32656,12532,18375
32648,12473,18375
32637,12468,18397
32648,12483,18474
32710,12527,18345
32736,12600,18545
32744,12675,18474
32764,12684,18461
32740,12589,18383
32684,12542,18476
32664,12500,18558
32697,12453,18486
32704,12465,18543
32732,12480,18603
32768,12541,18614
32832,12580,18468
32884,12647,18589
32896,12671,18696
32796,12582,18650
32712,12551,18636
32688,12500,18664
32724,12453,18553
32764,12467,18604
32796,12478,18665
32872,12509,18761
32941,12542,18620
32968,12589,18814
32935,12600,18809
32860,12582,18710
32852,12543,18874
32804,12501,18797
32784,12447,18801
32784,12433,18836
32789,12459,18871
32820,12526,18895
32902,12557,18959
32941,12626,18804
32908,12653,19004
32840,12703,18961
32829,12539,19038
32852,12507,18949
32832,12484,18924
32821,12512,18980
32848,12448,19149
32877,12501,19111
32918,12546,19060
32932,12608,19114
32928,12627,19131
32872,12602,19149
32828,12567,19279
32752,12517,19280
32688,12471,19192
32700,12439,19325
32725,12483,19328
32736,12522,19241
32724,12553,19426
32680,12601,19389
32552,12624,19301
32324,12585,19525
32000,12548,19511
31728,12514,19447
31456,12477,19480
31260,12464,19512
31140,12515,19633
31066,12487,19589
31132,12533,19514
31198,12605,19667
31192,12611,19682
31368,12621,19776
31604,12602,19628
31941,12491,19876
32173,12441,19838
32212,12430,19796
32388,12475,19856
32432,12500,19870
32245,12546,19992
32297,12591,19841
32628,12616,20024
33392,12588,20087
34480,12544,19931
35764,12520,20181
36796,12485,20168
37260,12503,20205
37117,12434,20070
36656,12475,20321
36148,12526,20287
35612,12578,20228
34984,12597,20409
34412,12588,20320
33828,12551,20442
33348,12510,20348
33013,12482,20505
32816,12478,20461
32696,12507,20582
32676,12558,20452
32700,12516,20603
32708,12571,20615
32661,12575,20666
32620,12566,20703
32528,12551,20832
32480,12486,20698
32448,12451,20943
32416,12436,20967
32436,12456,20882
32448,12483,20952
32468,12550,21106
32492,12627,21023
32524,12578,21229
32484,12556,21260
32388,12519,21160
32320,12477,21290
32276,12422,21348
32268,12408,21495
32293,12431,21567
32364,12460,21447
32436,12503,21712
32464,12556,21753
32446,12577,21676
32436,12561,21921
32404,12521,21936
32300,12503,21822
32328,12448,21976
32352,12420,22125
32384,12452,22028
32396,12512,22225
32448,12555,22324
32508,12581,22459
32520,12597,22471
32484,12567,22449
32432,12542,22521
32410,12527,22692
32396,12485,22616
32392,12404,22778
32376,12423,22805
32428,12481,22980
32480,12517,22887
32545,12583,23174
32548,12629,23177
32520,12612,23110
32460,12583,23302
32452,12519,23351
32408,12498,23388
32392,12401,23477
32364,12415,23661
32414,12449,23640
32432,12499,23621
32478,12554,23882
32476,12591,23880
32452,12559,23857
32424,12525,24115
32321,12492,24040
32288,12439,24055
32240,12415,24175
32232,12437,24256
32280,12467,24395
32312,12523,24485
32320,12585,24410
32320,12603,24699
32316,12615,24654
32304,12510,24613
32276,12596,24804
32272,12411,24894
32232,12396,24978
32204,12407,24894
32249,12468,25044
32288,12527,25253
32344,12541,25161
32344,12559,25309
32296,12542,25336
32228,12519,25498
32152,12478,25531
32064,12440,25460
32020,12452,25756
32030,12468,25734
32072,12536,25631
32113,12482,25956
32120,12543,25927
32120,12631,25892
32076,12532,26071
32048,12510,26149
31988,12469,26070
31957,12414,26359
31924,12402,26367
31896,12417,26313
31920,12455,26425
31944,12494,26465
31972,12536,26631
31992,12555,26745
31940,12538,26778
31888,12526,26822
31876,12490,26993
31796,12447,26945
31764,12441,27140
31772,12399,27228
31776,12525,27182
31824,12547,27281
31856,12534,27284
31904,12542,27543
31912,12533,27553
31876,12516,27578
31865,12467,27697
31836,12415,27988
31824,12408,27997
31880,12446,27961
31936,12433,28263
31968,12474,28228
32048,12552,28340
32044,12561,28213
32016,12589,28397
31984,12534,28657
31928,12469,28730
31904,12408,28727
31924,12425,28857
32004,12393,28738
32065,12431,28911
32120,12494,29226
32148,12534,29164
32193,12556,29087
32168,12551,29324
32164,12542,29602
32128,12520,29471
32088,12519,29673
32070,12374,29650
32116,12389,29869
32232,12422,29940
32288,12457,29807
32352,12523,30020
32412,12562,30304
32468,12548,30275
32495,12553,30388
32492,12519,30391
32537,12516,30637
32537,12459,30659
32580,12386,30732
32676,12421,30736
32772,12456,30951
32880,12517,30981
32973,12534,31056
32984,12536,31204
33021,12518,31193
33060,12473,31340
33076,12426,31470
33108,12430,31364
33160,12453,31746
33188,12486,31709
33248,12517,31581
33325,12592,32041
33388,12654,32013
33404,12513,32000
33389,12481,32293
33349,12446,32156
33340,12418,32364
33408,12391,32352
33448,12393,32598
33532,12443,32596
33580,12523,32723
33612,12507,32572
33620,12538,32732
33588,12539,32984
33545,12508,33015
33472,12508,33156
33420,12383,33128
33400,12361,33454
33416,12373,33287
33452,12427,33492
33510,12472,33525
33540,12527,33595
33512,12537,33505
33480,12536,33860
33460,12519,34005
33472,12492,34030
33440,12429,34055
33390,12389,34133
33412,12431,34263
33497,12399,34391
33500,12473,34230
33464,12507,34544
33436,12538,34543
33412,12519,34721
33376,12523,34749
33292,12518,34911
33236,12377,34989
33248,12358,35049
33252,12377,35057
33280,12428,34996
33268,12447,35487
33312,12505,35452
33352,12544,35502
33353,12541,35520
33320,12515,35423
33281,12493,35841
33208,12455,35779
33256,12406,35692
33304,12411,36188
33316,12432,36094
33372,12459,36149
33424,12503,36420
33437,12543,36307
33388,12517,36159
33336,12512,36526
