ECG,EDA,RR
32033,20937,29509
32032,20903,29671
32348,20908,29719
32629,20914,29510
32834,20938,29657
33148,20973,29554
33360,20993,29647
33316,21008,29646
33192,20989,29679
33074,20956,29452
32992,20943,29558
32813,20900,29564
32748,20911,29620
32852,20903,29437
32872,20959,29574
32887,20964,29556
32900,20989,29400
32895,20983,29535
32768,20983,29565
32612,20948,29356
32340,20920,29503
32180,20901,29548
32213,20892,29312
32168,20896,29389
32100,20932,29300
32204,20965,29421
32224,20976,29440
32232,20996,29260
32292,20969,29385
32216,20934,29325
32052,20922,29350
32032,20877,29191
32149,20898,29305
32032,20896,29369
32000,20910,29272
32180,20951,29150
32356,20980,29293
32380,20989,29245
32296,20968,29300
32129,20931,29084
32044,20910,29218
32021,20883,29236
31836,20868,29215
31864,20895,29148
32112,20911,29039
32362,20949,29180
32548,20959,29138
32672,20982,29205
32640,20952,29022
32514,20940,28989
32440,20896,29137
32364,20885,29038
32276,20868,29008
32280,20873,28976
32380,20918,29072
32444,20935,29047
32612,20962,29121
32600,20957,29066
32436,20957,28960
32468,20920,29116
32384,20901,29053
32292,20866,29092
32268,20849,29113
32336,20887,29060
32552,20903,28965
32768,20927,29105
32880,20960,29033
32900,20963,28964
32696,20940,29098
32524,20907,29125
32564,20879,28976
32580,20862,28980
32548,20853,28921
32545,20860,29058
32540,20900,28909
32688,20923,28989
32816,20942,29071
32912,20942,29063
32829,20941,29053
32840,20901,28893
32764,20867,29028
32648,20858,29099
32520,20849,28907
32536,20857,28949
32580,20892,29025
32452,20916,29037
32389,20932,28933
32440,20956,28935
32480,20922,29021
32508,20892,29061
32553,20863,28837
32524,20851,28980
32497,20836,28935
32492,20844,28973
32576,20887,28989
32584,20905,28797
32676,20925,28925
32766,20943,28845
32820,20921,28932
32732,20884,28937
32672,20869,28745
32618,20832,28888
32452,20816,28919
32365,20847,28718
32240,20867,28777
32168,20893,28695
32397,20934,28813
32624,20932,28807
32768,20901,28693
32785,20876,28832
32624,20859,28624
32452,20821,28732
32368,20817,28720
32484,20845,28615
32653,20857,28678
32780,20886,28575
32796,20910,28731
32816,20933,28720
32724,20906,28715
32456,20871,28606
32270,20862,28548
32236,20821,28697
32456,20807,28679
32580,20838,28529
32564,20855,28631
32556,20879,28516
32664,20907,28633
32640,20917,28514
32728,20898,28631
32724,20869,28559
32697,20842,28655
32656,20812,28625
32580,20815,28635
32588,20817,28551
32748,20837,28639
32872,20891,28485
33092,20908,28629
33172,20900,28687
33024,20878,28639
32877,20857,28549
32932,20827,28486
32944,20825,28625
32764,20807,28660
32568,20811,28489
32393,20847,28620
32456,20878,28565
32744,20895,28657
33126,20900,28643
33152,20887,28492
33080,20841,28660
32956,20821,28684
32780,20786,28524
32768,20783,28695
32864,20817,28525
32884,20840,28670
32900,20859,28732
32944,20888,28551
32889,20889,28728
32768,20868,28719
32636,20837,28689
32522,20820,28583
32432,20788,28740
32424,20810,28789
32431,20805,28622
32464,20823,28773
32504,20866,28833
32588,20881,28676
32564,20882,28738
32404,20853,28788
32276,20841,28780
32148,20807,28861
32056,20773,28803
32160,20786,28964
32320,20789,29037
32375,20808,28858
32430,20847,29061
32449,20863,29028
32421,20873,28967
32348,20848,29144
32224,20847,29143
32016,20798,29200
31896,20775,29248
31980,20760,29183
32140,20786,29262
32260,20803,29193
32436,20828,29404
32440,20869,29357
32376,20865,29320
32392,20833,29470
32353,20820,29423
32300,20782,29604
32284,20755,29630
32448,20747,29684
32645,20784,29621
32932,20799,29613
33116,20818,29790
33184,20847,29893
33272,20851,29725
33326,20830,29924
33300,20791,29983
33368,20762,30013
33568,20744,29950
33814,20741,30020
34104,20782,30144
34236,20794,30193
34229,20823,30073
34292,20841,30221
34252,20857,30212
34020,20830,30312
33576,20801,30392
33360,20769,30232
33429,20767,30340
33669,20756,30329
33748,20775,30517
33088,20793,30616
32140,20828,30482
31852,20861,30483
31316,20844,30580
30446,20821,30725
30188,20800,30599
30432,20756,30816
30688,20743,30775
30992,20740,30793
31422,20751,30945
31872,20789,31055
32156,20808,30836
32338,20828,31036
32368,20816,31089
32388,20816,31126
32441,20781,31065
32472,20737,31264
32464,20730,31044
32452,20718,31191
32272,20733,31323
32117,20769,31148
31874,20801,31359
31788,20809,31271
32116,20828,31434
32360,20792,31361
32604,20764,31373
32688,20743,31503
32596,20709,31452
32560,20701,31469
32568,20731,31605
32636,20749,31540
32652,20777,31594
32756,20809,31503
32792,20799,31725
32744,20789,31688
32742,20750,31865
32704,20731,31820
32584,20696,31645
32512,20716,31844
32560,20716,31895
32612,20737,31693
32648,20787,31822
32660,20797,31844
32640,20786,31751
32522,20785,31873
32366,20744,31853
32316,20711,31981
32316,20692,31921
32348,20684,32007
32420,20711,31796
32516,20747,31980
32548,20768,31972
32528,20791,32052
32508,20775,31910
32424,20768,31761
32392,20735,31925
32448,20695,31990
32508,20679,31781
32569,20672,31782
32572,20708,31856
32636,20735,31727
32684,20759,31869
32834,20802,31657
32956,20775,31751
32972,20746,31600
32940,20723,31724
32924,20701,31593
32920,20661,31615
32924,20681,31483
32973,20685,31537
33020,20723,31526
33020,20749,31391
33022,20780,31321
32960,20762,31440
32780,20737,31358
32732,20724,31236
32818,20679,31349
32888,20675,31267
32972,20669,31272
33056,20679,31258
33205,20709,31253
33312,20737,31073
33324,20750,31170
33332,20756,31204
33172,20727,30969
32774,20709,31068
32538,20663,30935
32476,20661,31004
32740,20649,30815
32984,20661,30936
33184,20700,30857
33168,20719,30914
33172,20762,30808
33049,20743,30663
32900,20716,30769
32780,20693,30541
32644,20655,30437
32564,20645,30577
32560,20636,30465
32576,20658,30420
32568,20677,30404
32556,20719,30203
32644,20728,30325
32644,20746,30311
32596,20711,30045
32528,20677,30159
32376,20653,30001
32282,20632,30048
32292,20641,29839
32428,20655,29932
32540,20683,29908
32640,20703,29677
32693,20731,29767
32604,20717,29596
32440,20708,29572
32108,20677,29588
31756,20638,29501
31728,20614,29510
31889,20628,29262
32132,20642,29358
32436,20659,29343
32669,20700,29092
32780,20727,29186
32921,20703,29173
33108,20695,28919
33189,20657,29017
33132,20638,28858
33044,20622,28913
32944,20600,28705
32920,20634,28807
32988,20651,28783
33028,20709,28552
32968,20703,28663
32816,20709,28535
32672,20681,28548
32620,20670,28371
32672,20623,28455
32612,20589,28462
32680,20610,28234
32832,20625,28279
33054,20640,28143
33156,20677,28232
33172,20701,28084
33216,20689,27971
33172,20686,28072
33072,20649,28070
33008,20607,27828
32960,20594,27944
32940,20596,27793
33104,20607,27828
33228,20648,27654
33254,20684,27616
33204,20692,27712
33112,20701,27565
33038,20667,27640
32980,20665,27415
32924,20599,27527
32888,20580,27484
32860,20588,27335
32852,20614,27219
32936,20647,27192
33049,20676,27295
33124,20672,27143
33102,20676,27108
32960,20653,27012
32884,20644,27067
32748,20601,27039
32655,20588,26875
32640,20581,26928
32732,20603,26768
32840,20617,26645
32884,20661,26766
32876,20681,26709
32823,20662,26559
32793,20652,26580
32700,20619,26591
32616,20580,26380
32576,20576,26470
32504,20566,26426
32620,20580,26249
32768,20608,26343
32888,20639,26269
33060,20653,26126
33056,20663,26214
32780,20637,26151
32532,20597,26141
32416,20583,25983
32352,20558,25936
32448,20558,26010
32580,20581,25989
32694,20609,25808
32760,20628,25824
32844,20663,25872
32880,20649,25695
32924,20645,25690
32898,20599,25773
32756,20560,25767
32628,20557,25588
32623,20557,25605
32600,20570,25591
32540,20619,25634
32606,20626,25522
32700,20655,25573
32828,20644,25389
32764,20609,25522
32704,20601,25484
32672,20561,25400
32628,20549,25296
32652,20553,25444
32720,20559,25336
32860,20604,25213
33017,20625,25380
33156,20630,25264
33192,20639,25264
33076,20620,25181
32944,20604,25288
32844,20549,25191
32828,20541,25261
32800,20534,25040
32796,20551,25204
32756,20593,25095
32616,20620,25138
32580,20622,24959
32700,20627,25112
32836,20609,25052
32912,20565,24920
32884,20557,25016
32724,20521,24943
32672,20522,25018
32741,20555,24989
32780,20577,24988
32821,20594,24877
32868,20618,24916
32833,20601,24940
32716,20591,24780
32496,20554,24895
32328,20525,24855
32184,20499,24723
32112,20519,24753
31992,20524,24836
32024,20561,24756
32096,20585,24822
32021,20612,24683
32112,20599,24776
32209,20567,24777
32300,20553,24632
32406,20510,24772
32496,20512,24778
32604,20517,24600
32656,20551,24661
32573,20554,24757
32501,20576,24676
32660,20592,24633
32780,20588,24677
32828,20583,24713
32800,20540,24753
32732,20500,24560
32652,20498,24732
32656,20492,24665
32685,20529,24742
32700,20541,24556
32724,20568,24702
32632,20596,24727
32494,20580,24589
32458,20572,24727
32552,20532,24702
32794,20487,24551
32972,20466,24711
33244,20487,24741
33472,20513,24601
33509,20556,24725
33444,20567,24673
33572,20571,24662
33856,20579,24645
34037,20558,24712
34204,20537,24771
34386,20486,24649
34468,20463,24745
34596,20487,24773
34648,20514,24679
34572,20519,24723
34556,20580,24677
34952,20586,24812
35148,20574,24811
35108,20549,24772
34760,20536,24831
33648,20499,24829
32676,20487,24811
32413,20475,24807
31468,20512,24967
30564,20529,25003
30408,20565,24890
30825,20575,25069
31284,20559,25113
31500,20544,24996
31590,20507,25104
31766,20471,25064
31940,20464,25275
32096,20466,25316
32225,20481,25229
32340,20502,25292
32412,20553,25224
32356,20557,25358
32234,20554,25360
32174,20517,25471
32104,20487,25454
32081,20461,25519
32100,20439,25508
32120,20444,25580
32188,20469,25562
32232,20487,25720
32277,20544,25684
32196,20543,25759
32050,20529,25699
32132,20514,25863
32184,20484,25926
32252,20440,25831
32269,20440,26021
32245,20434,26033
32164,20471,26133
32231,20490,25977
32400,20523,26181
32564,20542,26236
32562,20524,26156
32504,20519,26264
32464,20476,26330
32548,20431,26244
32560,20430,26403
32644,20444,26436
32663,20447,26468
32640,20491,26503
32776,20517,26380
32844,20518,26490
32853,20522,26550
32860,20495,26446
32900,20454,26519
32892,20444,26440
32752,20421,26476
32680,20417,26356
32654,20452,26513
32769,20464,26492
32976,20511,26337
33176,20502,26357
33272,20503,26391
33052,20475,26417
32632,20455,26303
32352,20416,26405
32192,20410,26412
32293,20421,26260
32448,20431,26372
32485,20452,26372
32462,20509,26223
32613,20498,26331
32725,20511,26342
32925,20468,26159
33074,20434,26289
33108,20408,26267
33112,20385,26133
33117,20400,26269
33210,20415,26234
33284,20451,26272
33332,20474,26061
33364,20508,26120
33292,20495,26228
33136,20450,26190
33028,20433,26212
32906,20390,26022
32868,20397,26105
32900,20412,26181
33024,20412,26085
33160,20448,26084
33224,20475,25994
33278,20490,26116
33304,20479,26138
33137,20440,26000
32812,20423,26052
32656,20386,26061
32640,20385,26085
32680,20380,25981
32836,20399,25920
32916,20443,25956
32876,20474,25858
32782,20469,26015
32628,20465,25936
32479,20435,25856
32412,20404,25918
32452,20395,25821
32480,20373,25878
32397,20372,25863
32360,20406,25808
32417,20431,25924
32473,20484,25940
32520,20462,25770
32540,20452,25892
32366,20430,25915
32125,20398,25745
32008,20380,25848
32076,20358,25733
32280,20359,25878
32480,20398,25888
32708,20412,25768
32766,20440,25788
32688,20462,25820
32552,20451,25735
32540,20420,25844
32521,20404,25831
32660,20374,25868
32740,20349,25732
32710,20353,25902
32732,20386,25928
32684,20399,25813
32604,20445,25836
32736,20443,25757
32908,20452,25956
33016,20417,25911
33012,20384,25842
32988,20359,25903
32968,20340,25890
32980,20344,26041
33016,20385,26054
33060,20394,26002
33068,20449,26045
32966,20446,25991
32952,20427,26172
32924,20407,26050
32948,20395,26217
32956,20356,26087
32982,20327,26252
33046,20357,26151
33229,20372,26345
33300,20388,26412
33236,20429,26304
33117,20431,26472
33072,20428,26479
32948,20402,26441
32910,20369,26568
32976,20331,26484
33004,20341,26654
32996,20335,26651
32992,20356,26657
33040,20391,26722
33093,20429,26693
33066,20417,26887
32932,20417,26971
32592,20385,26846
32405,20373,26961
32408,20329,26901
32389,20332,27127
32608,20329,27151
32825,20346,27070
32953,20367,27159
32920,20414,27140
32910,20422,27255
32832,20400,27310
32660,20386,27342
32492,20349,27500
32372,20329,27500
32287,20305,27403
32376,20337,27621
32672,20344,27684
32968,20373,27548
33132,20380,27743
33164,20417,27734
33133,20392,27745
33044,20381,27854
32889,20357,27789
32860,20304,27816
32880,20311,27801
32765,20313,27995
32612,20342,27952
32528,20357,27924
32584,20416,28127
32632,20394,28145
32600,20400,28188
32404,20372,28113
32348,20353,28112
32380,20301,28285
32497,20306,28325
32628,20319,28348
32744,20324,28302
32869,20353,28361
33048,20384,28390
33084,20397,28407
33080,20372,28556
33020,20374,28623
32881,20333,28511
32708,20293,28718
32644,20286,28786
32613,20292,28630
32640,20324,28844
32708,20340,28828
32828,20390,28764
32993,20382,28963
33000,20365,29036
32902,20355,28888
32744,20318,29071
32584,20288,29125
32582,20272,29044
32736,20293,29249
32912,20306,29199
33020,20340,29350
33060,20367,29238
33084,20381,29440
32916,20375,29469
32776,20360,29370
32672,20327,29565
32748,20273,29636
32804,20271,29517
32868,20276,29652
32880,20308,29638
32898,20325,29833
32980,20376,29935
32980,20370,29796
32740,20387,29999
32448,20332,30080
32357,20299,29941
32174,20282,30119
32116,20275,30164
32300,20266,30125
32556,20295,30207
32716,20341,30401
32903,20357,30247
32908,20375,30414
32805,20349,30433
32733,20316,30609
32677,20305,30556
32592,20271,30793
32500,20257,30637
32436,20277,30659
32444,20287,30881
32504,20309,30911
32664,20345,30847
32852,20344,31065
32708,20353,31214
32344,20311,31076
32188,20300,31284
32244,20248,31343
32284,20256,31329
32486,20259,31550
32480,20277,31422
32417,20306,31407
32465,20329,31576
32656,20346,31774
32780,20327,31831
32680,20308,31720
32616,20290,31719
32616,20258,31996
32740,20253,31980
33060,20246,32204
33332,20280,32129
33584,20305,32068
33728,20321,32320
33696,20346,32365
33664,20335,32360
33824,20327,32504
34076,20274,32608
34213,20253,32625
34420,20226,32732
34504,20233,32769
34557,20269,32903
34640,20289,32833
34680,20334,32800
34732,20325,33108
34916,20324,33144
35047,20295,33151
34988,20271,33353
34648,20239,33301
33664,20239,33231
32632,20244,33530
32508,20269,33499
32096,20303,33640
31201,20332,33862
30884,20341,33750
31016,20306,33833
31360,20293,34016
31692,20260,34021
31868,20235,34270
31872,20215,34244
31929,20237,34249
32164,20241,34181
32360,20287,34496
32492,20309,34549
32588,20341,34596
32644,20300,34710
32728,20269,34572
32728,20247,34882
32596,20231,34900
32448,20205,35070
32432,20228,35093
32440,20236,35191
32480,20280,35183
32636,20293,35327
32797,20313,35476
32892,20301,35477
32873,20261,35448
32760,20245,35401
32596,20219,35685
32512,20191,35782
32568,20205,35860
32708,20240,35904
32736,20256,35916
32550,20307,36142
32332,20308,36152
32356,20282,35943
32672,20247,36264
32796,20231,36460
32672,20186,36336
32532,20196,36498
32468,20193,36502
32613,20228,36487
32972,20244,36773
33228,20285,36693
33152,20281,36769
33140,20274,36833
33208,20276,36860
33216,20215,36878
33120,20188,36844
33024,20169,36964
32921,20193,37072
32944,20231,37057
33032,20236,36999
33181,20284,36788
33316,20271,37101
33340,20277,37028
33148,20232,37100
32949,20227,37276
32856,20180,37220
32817,20177,37221
32856,20176,37210
32972,20214,37169
33096,20263,37191
33224,20268,37308
33324,20290,37271
33340,20257,37340
33248,20233,37368
33044,20217,37298
32884,20164,37383
32892,20165,37518
32972,20164,37423
33092,20204,37366
33276,20223,37190
33432,20268,37522
33404,20261,37552
33296,20257,37554
33288,20228,37613
33309,20225,37540
33255,20164,37596
33197,20150,37383
33248,20180,37743
33484,20202,37765
33604,20215,37720
33556,20258,37821
33513,20246,37932
33424,20237,37819
33316,20226,37655
33277,20180,37926
33216,20167,37865
33100,20143,38047
32974,20175,37905
33072,20189,37981
33168,20237,37980
33268,20247,38157
33256,20240,37765
33172,20244,38076
33060,20201,38016
32836,20165,38063
32608,20143,38064
32526,20140,37883
32648,20142,38208
32756,20187,38348
32823,20201,38052
32896,20236,38284
32864,20228,38225
32764,20237,38436
32736,20191,38247
32736,20171,38357
32678,20135,38496
32608,20159,38137
32684,20149,38340
32768,20163,38366
32757,20216,38426
32820,20228,38573
32908,20231,38151
32852,20208,38348
32681,20195,38606
32516,20157,38340
32344,20145,38501
32552,20120,38641
32800,20149,38565
32996,20164,38383
33092,20211,38431
33132,20223,38599
33188,20220,38581
33140,20215,38473
33145,20181,38687
33156,20167,38311
33000,20122,38591
32900,20129,38759
32724,20130,38407
32544,20166,38644
32712,20201,38665
33126,20229,38716
33396,20219,38684
33518,20210,38639
33408,20180,38764
33252,20148,38668
33160,20111,38733
33113,20117,38676
32904,20125,38838
32768,20154,38709
32852,20171,38757
33100,20228,38778
33344,20215,38663
33404,20196,38746
33209,20186,38840
32970,20149,38461
32872,20108,38727
32948,20120,38828
33144,20127,38585
33280,20159,38719
33436,20190,38855
33496,20196,38840
33392,20209,38842
33207,20188,38611
33108,20173,38816
33004,20126,38848
33028,20132,38892
33084,20109,38870
33080,20133,38988
33100,20134,38760
33056,20173,38864
33040,20193,38967
33076,20214,38888
33142,20180,39015
33204,20156,38900
33048,20121,39015
32877,20108,38906
32844,20088,39021
32869,20126,38552
32984,20141,38820
33177,20190,38860
33352,20190,38902
33368,20191,38967
33288,20183,38535
33120,20154,38980
32910,20111,38598
32804,20101,38837
32748,20092,38687
32744,20096,38832
32904,20140,38791
33012,20162,38820
33024,20174,38866
33088,20197,38847
33128,20167,38840
33060,20151,38759
33036,20111,38726
32897,20077,38777
33060,20092,38791
33156,20101,38774
32784,20121,38812
32440,20164,38918
32476,20192,38836
32676,20168,38918
33016,20179,38845
33340,20153,38709
33336,20103,38785
33153,20088,38831
33160,20077,38905
33212,20087,38818
33204,20125,38928
33296,20144,38541
33340,20179,38720
33308,20167,38840
33225,20168,38828
33112,20135,38879
33063,20100,38685
32976,20087,38789
32872,20071,38823
32844,20086,38460
32845,20129,38860
32912,20137,38593
32960,20197,38765
33000,20171,38889
32932,20148,38695
32836,20131,38764
32796,20087,38820
32720,20084,38738
32638,20077,38859
32648,20090,38669
32768,20103,38751
32888,20143,38632
32892,20155,38721
32752,20167,38711
32625,20143,38566
32673,20129,38764
32600,20093,38702
32613,20059,38551
32688,20060,38708
32772,20098,38391
32788,20103,38624
32814,20117,38780
32860,20161,38724
32860,20167,38604
32748,20132,38397
32656,20124,38532
32584,20084,38617
32396,20044,38673
32396,20055,38536
32480,20055,38684
32470,20106,38669
32472,20121,38796
32672,20142,38595
32764,20152,38663
32856,20137,38616
32869,20094,38657
32788,20078,38684
32624,20042,38700
32580,20041,38809
32628,20063,38604
32701,20074,38724
32804,20119,38585
33016,20136,38724
33148,20132,38743
33133,20129,38863
33024,20093,38765
33020,20068,38822
33128,20031,38775
33264,20039,38841
33400,20049,38461
33532,20076,38758
33688,20102,38791
33892,20135,38822
33928,20141,38833
33848,20105,38840
33773,20103,38908
33804,20074,38791
33912,20031,38909
34012,20035,38765
33964,20070,39003
33956,20098,38919
34208,20109,38903
34440,20155,39013
34520,20138,38788
34148,20132,38889
33248,20087,39101
32664,20076,38993
32124,20031,39080
30964,20048,39092
30342,20064,39044
30512,20072,39164
31200,20108,39065
31636,20127,39271
31836,20136,39231
32017,20108,39219
32132,20095,39296
32192,20045,39325
32228,20044,39422
32340,20028,39294
32592,20033,39360
32805,20065,39360
32762,20101,39495
32741,20117,39468
32608,20113,39348
32508,20103,39440
32548,20071,39524
32648,20049,39654
32680,20021,39204
32592,20037,39476
32432,20045,39596
32364,20077,39581
32598,20078,39604
32884,20103,39559
33108,20103,39686
33168,20097,39704
33220,20063,39822
33302,20063,39672
33200,20004,39749
33102,19999,39740
33068,20025,39849
33045,20037,39457
33048,20079,39773
33020,20093,39864
32961,20108,39860
32948,20076,39799
32848,20061,39815
32828,20027,39861
32852,19994,39889
32888,20003,39887
32913,20021,39985
32986,20069,39596
33044,20076,39791
33088,20090,40021
33056,20106,39768
32968,20073,39766
32913,20043,39853
32796,20020,39879
32669,19997,39961
32620,19986,39674
32756,20023,39796
32872,20037,39894
32845,20060,39687
32760,20079,39703
32696,20078,39668
32660,20076,39671
32661,20039,39576
32752,20003,39556
32720,19996,39580
32576,19988,39444
32568,19998,39485
32677,20021,39492
32848,20070,39577
33116,20087,39286
33336,20071,39397
33512,20078,39484
33490,20051,39392
33448,20006,39325
33356,19971,39412
33284,19990,39265
33384,19992,39351
33408,20029,39199
33345,20052,39327
33212,20069,39311
33124,20076,39215
33076,20064,39265
33120,20021,39294
33108,19991,39325
33033,19969,39287
33102,19974,39156
33096,19982,39334
33064,20009,39281
33116,20055,39148
33146,20063,39303
33199,20054,39257
33072,20049,39145
32853,20013,39191
32772,19998,39265
32688,19964,39171
32709,19965,39215
32744,19985,39220
32793,19999,39161
32920,20046,39318
32844,20061,39130
32516,20073,39220
32288,20047,39260
32353,20007,39113
32540,19989,39201
32792,19952,39124
32840,19973,39200
32805,19985,38828
32780,19997,39149
32764,20037,39019
32676,20047,39199
32584,20055,38823
32428,20024,39077
32308,20015,39211
32128,19988,39031
32050,19943,39091
32188,19963,39096
32408,19970,38985
32688,19992,39028
32904,20050,39047
32836,20057,38982
32456,20042,38991
32264,20036,38919
32340,20003,39072
32464,19972,38860
32624,19957,38900
32700,19962,38956
32754,19964,38849
32860,20005,38840
32972,20023,38828
32996,20049,38791
32940,20039,38681
32837,20027,38884
32740,19992,38705
32560,19974,38499
32576,19953,38712
32544,19956,38660
32521,19961,38700
32622,19996,38647
32732,20019,38549
32800,20071,38613
32904,20047,38716
32916,20019,38496
32876,20004,38228
32761,19963,38476
32688,19941,38457
32685,19934,38597
32724,19973,38383
32813,19987,38452
32892,20029,38272
33048,20031,38517
33104,20059,38303
33034,20027,38065
32929,19980,38337
32862,19959,38359
32808,19930,38240
32660,19946,38313
32680,19965,38207
32728,19969,38338
32840,20023,38236
32904,20034,38120
32884,20028,38117
32761,20004,38165
32736,19972,38300
32750,19958,37965
32780,19934,38098
32884,19931,38061
32904,19945,38056
32965,19971,38175
32988,20019,37756
33016,20028,37980
32928,20020,38048
32828,19991,38000
32752,19980,37895
32692,19958,37865
32700,19912,37895
32728,19919,37871
32756,19959,37853
32812,19973,37833
32896,20014,37788
32888,20013,37852
32792,20028,37639
32704,19991,37733
32734,19983,37600
32620,19942,37686
32562,19913,37663
32556,19915,37735
32620,19953,37408
32592,19980,37524
32436,20000,37337
32480,20007,37437
32589,20016,37498
32842,19988,37473
33080,19957,37545
33116,19948,37415
33057,19927,37401
33024,19928,37065
33028,19933,37229
32992,19967,37244
32916,19999,37264
32868,20004,37334
32864,20015,37158
33008,19988,37176
32992,19957,37285
32824,19940,36925
32672,19913,37145
32685,19911,37168
32840,19944,36855
33036,19959,36948
33188,19988,37007
33301,20039,37037
33186,20004,36957
33124,19981,36922
33097,19947,36959
32928,19916,37011
32736,19919,36908
32764,19914,36866
32844,19923,36871
32905,19963,36889
33032,19975,36735
32980,20001,36783
32892,20016,36757
32792,19991,36813
32672,19955,36633
32560,19928,36575
32452,19894,36550
32378,19917,36564
32288,19929,36586
32156,19949,36607
32194,19975,36578
32316,20011,36655
32376,19989,36292
32332,19970,36583
32312,19969,36291
32436,19913,36393
32593,19889,36355
32804,19897,36423
32948,19924,36448
33036,19933,36287
33080,19986,36359
32957,19997,36421
32753,19977,36045
32608,19972,36213
32613,19939,36256
32608,19910,36271
32536,19878,36359
32517,19907,36212
32609,19911,36125
32832,19930,36182
32968,19981,36188
32992,19997,36111
32860,19975,36124
32668,19961,35868
32500,19921,36057
32500,19908,36121
32576,19892,36117
32716,19878,36127
32872,19910,35988
33080,19925,36081
33278,19975,36068
33452,19988,35920
33526,19961,36007
33448,19951,36141
33348,19956,35941
33327,19892,36031
33556,19865,35919
33800,19878,36068
33876,19892,35837
33848,19936,36009
33856,19963,35877
33968,19983,35964
34012,19967,35760
33892,19952,35900
33684,19920,36089
33701,19907,35910
33805,19895,35982
34032,19887,36048
33976,19928,35889
33336,19941,35981
32632,19988,35913
32360,20001,36100
31717,19974,35965
31022,19969,36029
30904,19936,36133
31136,19890,36005
31246,19868,36065
31444,19884,36069
31756,19895,36040
32148,19935,35861
32549,19963,36040
32780,20002,36177
32745,19964,36121
32728,19935,36007
32764,19932,36188
32429,19889,35887
32128,19861,36111
32110,19870,36124
32359,19882,36173
32708,19927,36229
32960,19959,36144
32877,19953,36046
32728,19959,36189
32722,19933,36116
32772,19910,36249
32756,19884,36231
32628,19853,36183
32604,19868,36160
32665,19885,36236
32792,19904,36235
32888,19957,36241
32944,19958,36349
32948,19960,36201
32909,19920,36100
32868,19901,36303
32744,19859,36268
32628,19850,36405
32616,19847,36236
32664,19882,36064
32752,19900,36305
32824,19941,36296
32908,19945,36253
32868,19950,36351
32736,19938,36020
32576,19891,36207
32277,19876,36209
32077,19850,36231
32058,19849,36268
32246,19881,36101
32636,19901,36165
32949,19926,36168
33132,19962,36032
33108,19941,36022
33053,19908,36029
32964,19915,35965
32832,19869,35892
32737,19845,35956
32696,19854,35624
32668,19884,35783
32768,19894,35757
32900,19932,35669
32892,19941,35604
32804,19962,35636
32676,19919,35611
32584,19886,35572
32568,19844,35562
32600,19858,35585
32712,19843,35492
32872,19885,35532
32978,19895,35412
32992,19920,35439
32913,19928,35397
32840,19940,35416
32724,19905,35487
32766,19868,35436
32828,19876,35413
32792,19833,35309
32841,19829,35396
32960,19869,35423
33093,19876,35252
33312,19934,35292
33520,19937,35388
33584,19931,35329
33456,19927,35204
33216,19876,35193
33008,19834,35281
32888,19842,35380
32892,19830,34996
32992,19846,35112
33044,19894,35142
33156,19923,35215
33080,19918,35273
32820,19934,35184
32656,19905,35220
32652,19867,35060
32696,19828,35222
32830,19831,34874
32996,19842,35056
33100,19869,35089
33116,19880,35037
33072,19920,34877
33104,19921,35044
33036,19925,34885
32848,19884,35063
32613,19877,34734
32408,19847,34889
32342,19810,34942
32450,19832,34949
32574,19854,34916
32647,19881,34873
32696,19908,34637
32717,19943,34860
32688,19916,34897
32568,19883,34737
32416,19868,34557
32409,19820,34727
32424,19832,34852
32420,19825,34748
32461,19844,34641
32574,19891,34802
32732,19907,34437
32840,19911,34545
32837,19906,34561
32813,19874,34589
32684,19864,34375
32597,19826,34619
32584,19804,34471
32644,19820,34645
32772,19836,34465
32856,19876,34545
32968,19895,34500
33004,19924,34625
32892,19907,34425
32671,19892,34517
32468,19859,34469
32388,19830,34505
32420,19807,34253
32384,19835,34425
32408,19849,34384
32400,19871,34446
32452,19892,34567
32597,19912,34356
32796,19902,34450
32937,19885,34413
32964,19842,34336
32948,19828,34417
32968,19810,34431
32980,19847,34301
32992,19832,34439
33064,19852,34425
33100,19921,34453
33104,19910,34327
33096,19887,34412
32912,19856,34495
32732,19849,34324
32704,19807,34436
32736,19801,34311
32850,19799,34397
32976,19841,34164
33078,19853,34354
33084,19881,34472
33064,19900,34406
32996,19885,34481
32881,19865,34397
32808,19843,34399
32680,19805,34278
32601,19813,34371
32668,19805,34300
32797,19820,34388
32900,19854,34344
32792,19897,34225
32665,19906,34364
32563,19896,34076
32429,19879,34280
32328,19838,34328
32328,19793,34156
32284,19789,34252
32292,19793,34111
32458,19834,34311
32636,19844,34107
32784,19911,34176
32944,19896,34046
32884,19874,34120
32692,19873,34142
32676,19837,33999
32616,19802,33988
32381,19779,34087
32320,19807,33969
32449,19815,34047
32664,19855,33908
32784,19883,34012
32776,19901,33964
32612,19874,33900
32580,19866,34020
32608,19818,33903
32664,19805,33900
32620,19777,33884
32596,19805,33809
32668,19826,33865
32797,19868,33717
32900,19890,33804
32904,19877,33860
32800,19881,33633
32668,19852,33709
32600,19820,33745
32532,19795,33572
32442,19768,33655
32482,19794,33689
32632,19804,33492
32750,19833,33468
32886,19878,33576
33004,19877,33528
32869,19881,33396
32577,19860,33484
32373,19846,33216
32398,19790,33388
32457,19771,33482
32556,19795,33279
32812,19803,33344
32893,19852,33191
32880,19878,33305
32852,19878,33025
32857,19868,33101
32821,19832,33117
32752,19825,33165
32708,19781,33018
32720,19764,32984
32764,19776,33071
32828,19812,33092
32852,19829,33026
32865,19863,33076
32856,19893,32824
32760,19864,32925
32672,19829,32834
32602,19813,32838
32508,19766,32639
32472,19773,32768
32468,19772,32868
32484,19809,32616
32516,19822,32724
32512,19873,32570
32416,19865,32687
32398,19875,32519
32481,19829,32602
32496,19799,32444
32364,19777,32517
32220,19780,32281
32252,19773,32455
32400,19789,32512
32624,19827,32308
32780,19855,32390
32814,19879,32255
32728,19855,32380
32632,19840,32230
32580,19801,32271
32600,19761,32154
32664,19759,32116
32700,19759,32192
32820,19793,32054
32932,19812,32016
33092,19866,32117
33356,19863,31980
33520,19859,32105
33436,19814,31915
33361,19808,32015
33468,19761,31988
33592,19765,31933
33813,19767,31751
33996,19784,31894
34056,19816,31964
34208,19847,31687
34320,19869,31860
34304,19845,31855
34112,19822,31609
34244,19837,31828
34405,19784,31617
34560,19765,31761
34380,19773,31822
33437,19809,31538
32647,19823,31725
32472,19877,31807
31612,19863,31623
30496,19863,31704
30192,19835,31708
30328,19807,31713
30682,19759,31596
31288,19751,31617
31732,19761,31604
32036,19799,31623
32292,19820,31746
32576,19839,31561
32553,19863,31663
32384,19840,31589
32208,19808,31695
32173,19801,31722
32252,19756,31569
32309,19737,31604
32484,19773,31560
32492,19780,31492
32440,19816,31671
32412,19847,31550
32420,19859,31661
32464,19842,31711
32644,19804,31437
32736,19775,31640
32684,19736,31513
32596,19748,31672
32650,19762,31487
32700,19767,31623
32672,19812,31503
32632,19823,31554
32628,19848,31421
32532,19828,31623
32384,19800,31495
32264,19783,31472
32077,19748,31583
31999,19725,31655
32044,19744,31356
32204,19759,31507
32412,19807,31596
32569,19819,31401
32648,19847,31489
32700,19819,31541
32692,19804,31458
32726,19762,31210
32712,19736,31396
32652,19718,31265
32677,19740,31379
32748,19758,31154
32768,19807,31239
32848,19823,31101
32836,19844,31205
32744,19815,30964
32705,19804,31045
32677,19762,30885
32657,19756,30943
32588,19727,30672
32612,19735,30799
32584,19769,30703
32540,19785,30700
32660,19821,30503
32864,19820,30393
33033,19817,30442
33204,19776,30510
33172,19773,30212
33096,19727,30245
33030,19744,30183
32988,19729,30095
33061,19753,30152
33088,19815,29964
33105,19816,29949
33104,19812,29841
32992,19825,29945
32796,19789,29777
32720,19754,29697
32644,19735,29771
32688,19711,29712
32972,19737,29652
33076,19761,29628
33348,19772,29487
33532,19820,29589
33560,19812,29314
33648,19823,29434
33564,19792,29297
33348,19780,29335
33133,19727,29196
33009,19709,29204
33048,19735,29037
33104,19755,29113
33120,19771,29040
33108,19821,29029
33004,19813,28869
32848,19827,28807
32660,19777,28860
32476,19780,28772
32404,19726,28802
32454,19737,28533
32600,19730,28640
32756,19773,28607
32765,19782,28375
32812,19793,28468
32860,19809,28430
32796,19787,28241
32556,19783,28300
32252,19749,28316
32028,19725,28060
31933,19698,28009
32064,19733,28108
32260,19741,27945
32444,19780,27983
32604,19800,27799
32656,19808,27878
32695,19784,27850
32652,19781,27636
32556,19759,27744
32348,19716,27615
32236,19733,27655
32231,19717,27511
32302,19748,27373
32524,19765,27486
32756,19815,27364
33010,19817,27282
32979,19806,27175
32772,19773,27196
32626,19735,27128
32620,19727,27205
32781,19719,26963
33152,19719,26946
33353,19756,27041
33400,19764,26911
33328,19818,26983
33200,19815,26754
33197,19808,26876
33164,19765,26821
33016,19761,26718
32760,19710,26737
32568,19692,26531
32612,19719,26655
32948,19732,26518
33168,19774,26575
33272,19793,26365
33328,19811,26431
33268,19783,26449
33077,19791,26447
32848,19748,26221
32648,19698,26325
32684,19703,26341
32809,19706,26135
32970,19738,26157
33098,19762,26204
33162,19793,26177
33288,19797,26022
33368,19797,25987
33252,19779,26076
33160,19736,26095
33152,19706,25993
33140,19684,25848
33156,19712,25969
33184,19745,25925
33152,19749,25874
33066,19800,25877
32992,19813,25663
32869,19773,25676
32740,19757,25790
32640,19719,25652
32577,19708,25740
32760,19691,25540
32913,19721,25658
33052,19744,25664
33168,19757,25476
33161,19804,25494
33056,19794,25456
32960,19770,25414
32880,19765,25503
32816,19741,25391
32757,19687,25287
32713,19685,25276
32856,19698,25380
33064,19731,25376
33212,19748,25172
33330,19801,25319
33324,19789,25192
33200,19761,25155
33124,19753,25242
33017,19710,25223
32980,19703,25040
32736,19680,25169
32516,19711,25079
32484,19715,24981
32652,19765,25108
32852,19793,25008
33029,19781,24889
32996,19776,25040
32881,19759,25003
32832,19713,24924
32782,19697,24895
32744,19682,24853
32832,19727,24893
33088,19735,24908
33248,19749,24928
33264,19791,24804
33236,19787,24879
33092,19765,24898
32870,19753,24772
32793,19727,24764
32734,19683,24672
32692,19689,24822
32728,19693,24735
32744,19734,24740
32800,19741,24613
32960,19785,24663
33104,19775,24756
33096,19764,24746
33020,19757,24658
32928,19704,24707
32848,19681,24609
32900,19694,24669
33036,19687,24709
33304,19731,24498
33484,19752,24670
33453,19771,24594
33324,19780,24671
33136,19761,24479
32960,19744,24640
32716,19707,24568
32532,19689,24631
32388,19671,24527
32388,19695,24444
32433,19709,24520
32664,19759,24560
33004,19773,24609
33104,19791,24405
33061,19764,24583
32976,19729,24521
32880,19708,24509
32804,19673,24416
32600,19666,24580
32460,19680,24510
32512,19716,24562
32398,19741,24442
32348,19777,24573
32372,19769,24548
32480,19770,24452
32556,19738,24462
32660,19711,24604
32732,19672,24611
32845,19663,24456
33000,19699,24604
33116,19709,24644
33152,19751,24448
33092,19769,24650
32974,19772,24569
32864,19750,24514
32748,19757,24561
32704,19700,24639
32716,19657,24599
32741,19676,24692
32832,19695,24703
32856,19722,24588
32896,19743,24631
33060,19749,24716
33252,19762,24773
33452,19743,24623
33692,19730,24812
33972,19683,24734
33900,19677,24671
33652,19669,24874
33636,19685,24831
33900,19695,24900
34148,19749,24775
34624,19756,24855
35040,19770,24963
35256,19753,24947
35324,19715,24951
35308,19708,25020
35193,19678,25095
35362,19683,25017
35668,19686,25007
35732,19732,25137
35528,19749,25181
34656,19766,25060
33428,19781,25151
33012,19750,25306
32212,19740,25252
30826,19697,25402
30093,19669,25263
30312,19661,25494
30832,19684,25556
31352,19701,25427
31496,19748,25648
31383,19750,25720
31532,19768,25669
31872,19737,25684
31924,19732,25748
31758,19685,25729
31812,19651,25945
32116,19664,25895
32328,19687,25904
32576,19693,26102
32744,19732,26060
32804,19747,26222
32778,19762,26076
32704,19728,26312
32692,19716,26258
32724,19676,26273
32736,19667,26353
32680,19652,26502
32559,19662,26590
32481,19705,26470
32448,19725,26685
32408,19741,26777
32380,19754,26631
32352,19726,26804
32304,19715,26890
32244,19668,27021
32160,19663,26868
32128,19642,26957
32173,19669,27169
32324,19686,27143
32500,19727,27276
32660,19744,27332
32684,19740,27308
32664,19740,27380
32590,19701,27378
32412,19677,27516
32116,19632,27469
31928,19640,27507
31930,19646,27609
32228,19687,27520
32608,19705,27503
32780,19735,27670
32780,19728,27603
32742,19721,27723
32776,19689,27578
32826,19671,27701
32920,19639,27729
32916,19629,27602
32764,19659,27730
32628,19674,27757
32684,19719,27673
32746,19730,27622
32780,19735,27796
32757,19710,27780
32689,19690,27700
32560,19652,27844
32588,19636,27792
32742,19649,27687
32932,19649,27860
33088,19665,27848
33160,19714,27783
33232,19719,27876
33256,19743,27764
33248,19717,27911
33208,19713,27921
33140,19653,27912
33048,19637,27809
32932,19623,27805
32920,19657,27972
33008,19664,27886
33160,19713,27859
33332,19730,28007
33460,19756,27982
33252,19713,27861
32892,19676,28015
32716,19671,28068
32613,19631,27873
32544,19621,28044
32688,19657,28029
32789,19662,27906
32853,19692,28059
33124,19727,28116
33232,19715,27937
33076,19725,28045
32876,19689,27945
32559,19638,28116
32316,19628,28068
32320,19621,28128
32420,19628,28138
32552,19676,28167
32672,19692,28202
32744,19719,28025
32736,19736,28188
32661,19703,28196
32540,19671,28242
32384,19632,28301
32224,19630,28124
32276,19625,28217
32472,19637,28232
32644,19655,28183
32775,19700,28366
32724,19710,28448
32516,19728,28268
32348,19700,28447
32308,19652,28519
32348,19640,28348
32380,19615,28527
32468,19617,28441
32576,19627,28486
32620,19673,28613
32668,19692,28672
32720,19716,28497
32716,19711,28591
32757,19705,28553
32735,19679,28636
32665,19637,28620
32644,19631,28798
32705,19621,28836
32732,19625,28695
32840,19673,28873
32896,19689,28879
32862,19706,28951
32832,19731,29000
32792,19690,28861
32817,19660,29095
32806,19657,29068
32728,19615,29042
32660,19604,28983
32684,19656,29084
32870,19661,29161
32924,19683,29229
32728,19724,29229
32628,19702,29239
32700,19699,29213
32790,19676,29284
33000,19631,29253
33101,19613,29447
33228,19602,29504
33226,19638,29343
33124,19648,29519
33144,19714,29453
33284,19719,29650
33396,19703,29633
33416,19690,29677
33432,19656,29613
33304,19637,29824
33148,19598,29821
33092,19627,29752
33080,19630,29933
33052,19680,29971
33233,19687,29878
33444,19706,30017
33440,19719,30012
33244,19690,30183
33024,19681,30298
32858,19646,30153
32772,19644,30324
32852,19620,30269
32900,19628,30326
32877,19644,30484
32908,19703,30416
33048,19707,30460
33128,19695,30619
33092,19692,30580
33020,19655,30700
32868,19637,30757
32720,19621,30866
32700,19607,30717
32792,19625,30857
32909,19646,30994
32952,19697,30992
32989,19699,30932
32977,19714,31020
33077,19684,31141
33048,19649,31223
32984,19621,31092
33028,19597,31277
33000,19622,31252
32952,19633,31459
32916,19667,31332
33036,19694,31281
33080,19694,31519
32878,19706,31599
32808,19674,31623
32788,19668,31564
32664,19616,31556
32560,19609,31813
32505,19595,31817
32504,19649,31972
32605,19652,31847
32772,19677,32019
32916,19691,32058
32884,19702,32039
32908,19677,32164
32921,19681,32188
32916,19623,32356
32908,19594,32117
32752,19612,32391
32652,19629,32491
32764,19637,32336
32916,19677,32550
33104,19695,32679
33212,19721,32452
33260,19677,32589
33228,19654,32640
33172,19607,32815
33084,19592,32742
33018,19591,32887
32956,19620,32717
32985,19636,32960
33060,19682,33132
33145,19695,32973
33073,19701,33136
32924,19675,33216
32816,19634,33087
32704,19617,33221
32575,19599,33338
32457,19591,33100
32492,19629,33343
32544,19648,33460
32664,19684,33425
32812,19693,33484
32876,19699,33509
32749,19663,33623
32676,19650,33648
32716,19604,33548
32736,19601,33716
32764,19581,33766
32893,19622,33741
32925,19648,33817
32876,19657,33750
32832,19692,33922
32792,19678,33941
32556,19681,33878
32180,19644,33964
32028,19599,33846
32060,19596,34128
32232,19583,34126
32425,19617,34108
32677,19623,34287
32832,19671,34341
32984,19676,34261
33052,19684,34267
33120,19668,34244
32892,19625,34503
32612,19605,34548
32560,19591,34599
32604,19578,34593
32644,19604,34639
32772,19623,34717
32860,19664,34879
32912,19689,34817
32968,19670,34788
32984,19659,34933
33040,19628,34897
33112,19622,34972
33172,19588,34812
33240,19578,35097
33396,19612,35069
33644,19617,35284
33792,19656,35180
33864,19676,35330
34064,19679,35335
34256,19640,35371
34328,19641,35476
34368,19602,35501
34350,19573,35492
34440,19601,35605
34552,19617,35427
34565,19658,35664
34500,19666,35761
34616,19672,35756
34772,19703,35877
34780,19675,36019
34616,19649,35829
33856,19635,35978
32644,19590,36167
32128,19585,36053
31666,19621,36196
30720,19631,36157
30340,19684,36359
30612,19684,36140
30948,19676,36452
31216,19668,36637
31392,19631,36309
31640,19590,36652
31988,19574,36724
32280,19571,36808
32540,19605,36855
32652,19617,36915
32772,19669,36863
32788,19671,36999
32793,19688,37113
32673,19654,37049
32592,19617,37332
32473,19599,37236
32357,19567,37341
32388,19580,37453
32540,19591,37607
32756,19629,37632
32908,19677,37573
32908,19676,37692
32800,19684,37631
32752,19652,37735
32692,19634,37607
32664,19596,37921
32596,19591,37911
32537,19587,38080
32640,19591,38143
32756,19628,38176
32848,19651,38202
32876,19685,38256
32804,19662,38372
32836,19642,38465
32852,19612,38628
32836,19593,38255
32788,19583,38550
32708,19565,38607
32684,19597,38672
32736,19623,38767
32812,19647,38828
32800,19669,38970
32764,19652,38658
32684,19650,38831
32532,19624,38985
32512,19565,39022
32512,19553,39151
32581,19572,39068
32821,19604,39193
32988,19612,39107
33128,19637,39198
33224,19672,38780
33072,19662,39040
32520,19643,38832
32192,19607,39296
32286,19567,39175
32660,19544,39299
33100,19575,39201
33288,19591,39220
33076,19620,38919
33169,19633,39116
33360,19680,39121
33452,19663,39204
33452,19631,39104
33376,19597,39154
33308,19576,39216
33304,19561,39380
33364,19557,39340
33436,19570,39484
33457,19623,39372
33468,19640,39412
33437,19649,39414
33374,19663,39505
33308,19629,39461
33324,19592,39605
33312,19591,39495
33316,19553,39618
33320,19551,39175
33300,19587,39460
33300,19601,39639
33353,19634,39562
33408,19657,39706
33364,19647,39591
33248,19637,39591
33188,19607,39540
33088,19597,39624
33040,19549,39749
33012,19546,39639
33084,19589,39532
33108,19617,39687
33148,19661,39687
33316,19650,39796
33380,19639,39373
33188,19614,39657
32830,19597,39759
32518,19568,39743
32364,19540,39878
32320,19551,39696
32381,19563,39726
32576,19609,39854
32740,19645,39773
32865,19663,39732
32897,19630,39896
32792,19621,39745
32648,19584,39815
32550,19556,39918
32505,19535,39753
32572,19563,39822
32594,19575,39796
32532,19585,39905
32548,19641,39631
32620,19637,39813
32685,19641,39718
32772,19604,39929
32700,19599,39732
32641,19548,39772
32536,19549,39848
32524,19542,39599
32540,19567,39764
32684,19588,39815
32900,19631,39724
33088,19636,39769
33116,19647,39694
33032,19623,39677
32896,19583,39676
32757,19556,39751
32736,19528,39712
32788,19552,39570
32888,19580,39776
33088,19588,39573
33104,19634,39668
32936,19635,39781
32756,19645,39293
32728,19617,39542
32848,19574,39658
32912,19563,39631
32944,19542,39489
32848,19536,39597
32790,19569,39594
32853,19591,39687
32880,19643,39396
32941,19637,39573
32961,19651,39431
32956,19611,39577
33070,19573,39220
33192,19561,39423
33252,19541,39572
33316,19559,39358
33292,19565,39408
33274,19585,39472
33320,19620,39489
33252,19657,39566
33086,19632,39515
32996,19599,39625
32976,19571,39495
32936,19552,39508
33124,19537,39278
33168,19550,39341
33113,19556,39476
33172,19587,39481
33220,19638,39602
33221,19637,39317
33164,19622,39385
33148,19620,39557
33056,19576,39357
32896,19573,39421
32701,19534,39279
32620,19532,39381
32601,19558,39391
32701,19591,39272
32796,19623,39168
32916,19621,39280
32980,19634,39343
33016,19607,39317
33117,19573,39362
33216,19540,38961
33012,19541,39153
32868,19541,39175
32912,19552,39210
33052,19595,39340
33208,19621,38872
33293,19621,39130
33236,19636,39272
33120,19598,39087
33016,19567,38772
32942,19550,39079
32862,19527,39220
32816,19541,38829
32849,19556,39013
32868,19604,39125
32864,19625,38742
32879,19623,38956
32868,19633,39097
32788,19602,38783
32680,19567,38949
32612,19548,38791
32580,19531,38884
32528,19530,38900
32524,19550,38905
32620,19592,38775
32816,19630,38832
32968,19623,38916
32992,19645,38497
32888,19604,38647
32757,19562,38797
32744,19553,38741
32764,19534,38685
32828,19525,38740
33000,19572,38569
33118,19583,38688
33128,19613,38781
33064,19640,38572
33034,19621,38636
32952,19597,38708
32793,19564,38503
32644,19546,38584
32588,19533,38573
32620,19527,38500
32644,19571,38533
32760,19582,38404
32920,19640,38508
32980,19627,38477
33124,19613,38477
33192,19621,38461
33096,19579,38358
33016,19546,38420
32964,19513,38372
32900,19545,38511
32832,19565,38297
32784,19571,38297
32752,19606,38297
32677,19616,38334
32297,19624,38444
32228,19592,38215
32289,19564,38246
32388,19516,38385
32716,19529,38065
32965,19532,38217
33092,19547,38276
33052,19590,38196
33004,19613,38261
32989,19620,38197
32852,19620,38311
32540,19586,38255
32344,19551,38031
32368,19529,38222
32425,19513,38338
32552,19553,38118
32668,19553,38245
32821,19567,38086
32961,19618,38311
33054,19611,38141
33008,19620,38219
32805,19590,38339
32644,19554,38057
32568,19540,38181
32600,19519,38316
32800,19532,37956
32860,19540,38183
32828,19587,38308
32812,19606,37940
32824,19614,38103
32852,19596,38150
32832,19593,38200
32861,19562,38093
32892,19519,38183
32962,19499,38209
33036,19529,38064
33056,19541,38276
33268,19562,38108
33532,19619,38045
33732,19621,38091
33828,19602,38112
33845,19572,38191
33964,19541,38169
34112,19524,38273
34276,19507,37837
34376,19511,38028
34494,19564,38080
34725,19577,38114
34820,19618,38151
34820,19607,38127
34612,19616,38002
34684,19582,38168
34709,19588,38127
34692,19533,38060
34224,19514,38239
33025,19547,37892
32184,19556,38084
32028,19572,38212
31320,19620,38070
30368,19617,38193
30004,19605,38206
30320,19581,38151
30808,19559,38218
31400,19513,38344
31856,19516,38165
32112,19531,38132
32168,19546,38252
32220,19567,37959
32325,19606,38252
32488,19602,38423
32615,19614,38231
32604,19575,38297
32648,19536,38420
32628,19525,38254
32696,19511,38317
32756,19520,38335
32664,19537,38268
32577,19576,38316
32588,19593,38391
32672,19637,38437
32807,19608,38388
32860,19572,38101
32868,19533,38369
32812,19535,38508
32744,19511,38453
32752,19513,38351
32880,19541,38393
32874,19554,38503
32858,19598,38477
32812,19596,38495
32752,19595,38613
32656,19557,38461
32496,19553,38567
32356,19511,38572
32308,19492,38375
32468,19503,38500
32636,19528,38503
32813,19572,38556
33064,19604,38660
33108,19613,38232
32936,19578,38516
32856,19576,38611
32828,19533,38535
32832,19496,38520
32862,19484,38413
32916,19505,38447
32912,19536,38548
32952,19565,38350
32950,19587,38397
32864,19614,38465
32800,19584,38111
32768,19553,38236
32684,19551,38230
32704,19501,38188
32772,19501,38231
32756,19495,38124
32820,19532,38031
32951,19549,37988
33164,19606,38025
33151,19584,37687
33008,19584,37853
32960,19553,37956
32932,19524,37894
32852,19504,37740
32960,19495,37759
33069,19496,37727
33184,19525,37717
33268,19565,37719
33408,19597,37704
33504,19586,37729
33497,19596,37820
33504,19556,37417
33400,19527,37625
33244,19516,37717
33168,19500,37684
33263,19516,37580
33461,19515,37444
33648,19566,37561
33657,19591,37545
33408,19590,37511
33224,19572,37547
32992,19547,37557
32852,19539,37565
32810,19482,37447
32992,19483,37359
33216,19507,37424
33381,19529,37420
33556,19545,37476
33652,19573,37229
33604,19590,37383
33420,19583,37381
33196,19543,37373
33004,19544,37372
32792,19495,37356
32608,19480,37460
32548,19513,37032
32664,19519,37187
32809,19541,37212
32786,19601,37255
32684,19591,37345
32562,19575,36980
32405,19563,37208
32284,19516,37285
32150,19482,37049
32188,19495,37166
32320,19503,37117
32576,19530,37127
32891,19540,36844
33104,19580,36992
33068,19589,37100
32936,19567,36749
32812,19539,36895
32748,19521,37093
32728,19492,36809
32780,19472,36952
32854,19505,36895
32900,19523,36880
32928,19542,36718
32976,19568,36871
33001,19589,36886
32944,19567,36676
32900,19538,36807
32852,19528,36687
32732,19480,36834
32672,19474,36465
32725,19505,36653
32745,19519,36581
32725,19583,36709
32752,19581,36366
32756,19585,36511
32740,19587,36652
32672,19555,36406
32564,19512,36549
32357,19510,36628
32420,19483,36279
32644,19503,36501
32885,19512,36567
32992,19558,36516
32976,19575,36394
32944,19575,36537
32844,19587,36460
32808,19548,36439
32752,19528,36498
32612,19485,36360
32340,19484,36383
32264,19491,36380
32446,19535,36481
32793,19549,36329
33060,19567,36068
33260,19590,36295
33216,19578,36213
33124,19534,36292
33000,19528,36296
32876,19478,36300
32784,19476,36191
32912,19511,36241
33132,19516,36212
33224,19553,36124
33144,19574,36231
33069,19605,35920
33060,19565,36116
33024,19533,36212
32912,19523,35990
32792,19485,36101
32764,19469,36163
32788,19508,35821
32872,19527,36048
32932,19536,35997
32924,19581,35920
32912,19569,35964
32814,19564,35837
32649,19525,35985
32572,19524,35628
32508,19486,35843
32472,19503,35896
32536,19492,35792
32628,19513,35809
32668,19557,35655
32776,19567,35816
32905,19569,35463
32928,19580,35612
32797,19538,35657
32572,19541,35452
32424,19489,35660
32473,19471,35559
32472,19501,35668
32644,19525,35516
32784,19541,35565
32860,19579,35453
32796,19569,35506
32636,19558,35479
32532,19527,35217
32512,19519,35464
32500,19498,35404
32544,19478,35408
32672,19493,35388
32736,19541,35150
32768,19547,35121
32808,19585,35331
32877,19577,35319
32832,19548,35220
32700,19535,35046
32612,19495,35266
32548,19485,35255
32560,19463,35324
32636,19487,35286
32800,19501,35157
32860,19549,35146
32912,19567,35100
32828,19599,35207
32664,19556,35010
32480,19522,35057
32388,19509,35014
32372,19463,35020
32509,19461,34956
32636,19492,34741
32964,19500,34943
33240,19556,34855
33376,19580,34901
33324,19590,34775
33104,19554,34831
32796,19524,34804
32516,19512,34836
32472,19478,34717
32512,19484,34640
32536,19495,34487
32692,19540,34663
32952,19535,34653
33124,19556,34535
33252,19573,34692
33216,19548,34473
33008,19532,34334
32789,19494,34519
32661,19483,34461
32568,19462,34372
32705,19505,34365
32844,19511,34400
32905,19533,34370
32966,19580,34236
32892,19572,34400
32676,19545,34297
32608,19519,34216
32672,19497,34253
32705,19469,34021
32764,19459,34172
32792,19481,34218
32793,19497,33976
32782,19549,34093
32748,19565,34068
32645,19555,34110
32382,19559,34195
32288,19533,34004
32324,19485,34085
32357,19469,33992
32380,19458,34157
32433,19469,33890
32540,19499,33996
32652,19546,34036
32741,19557,33903
32764,19559,33956
32748,19537,33982
32664,19542,33984
32524,19490,33905
32432,19456,33975
32456,19473,33711
32624,19476,33879
32836,19495,33890
32988,19541,33924
33045,19556,33935
32992,19551,33729
32868,19557,33837
32796,19529,33935
32764,19478,33641
32680,19464,33836
32616,19478,33796
32669,19468,33909
32832,19509,33734
33124,19523,33850
33412,19562,33705
33660,19549,33917
33881,19554,33720
33985,19517,33806
34166,19494,33773
34360,19444,33671
34440,19457,33871
34448,19474,33767
34428,19488,33772
34453,19546,33668
34660,19556,33772
34812,19551,33647
34696,19551,33836
34288,19523,33517
34128,19517,33757
33964,19477,33790
33852,19463,33647
33468,19484,33676
32303,19522,33829
31464,19540,33612
31416,19576,33756
30936,19559,33645
30208,19556,33700
29960,19525,33765
30197,19510,33763
30460,19456,33901
30788,19451,33704
31353,19479,33823
31928,19498,33892
32156,19524,33722
32308,19559,33844
32472,19556,33893
32492,19530,33749
32516,19511,33860
32504,19482,33921
32421,19449,33760
32400,19461,33850
32480,19460,33865
32580,19509,33881
32717,19527,33895
32776,19554,33813
32496,19543,33879
32256,19548,33667
32256,19510,33872
32334,19468,33900
32421,19458,33943
32568,19460,33793
32656,19474,33929
32733,19476,34029
32824,19529,33874
32932,19544,33989
33012,19537,34070
33037,19542,34000
32916,19516,33799
32692,19463,34009
32536,19453,34100
32528,19441,34084
32712,19476,33864
32924,19500,34032
33036,19510,34151
33124,19575,33829
33152,19548,33993
32964,19518,34113
32744,19516,33952
32564,19471,33903
32436,19439,34025
32412,19462,34105
32540,19463,33874
32726,19478,33984
32808,19529,33885
32796,19550,33952
32616,19562,33893
32552,19532,33730
32656,19492,33828
32812,19469,33761
32892,19433,33736
32960,19455,33741
32972,19473,33580
33000,19479,33655
33036,19545,33711
33029,19542,33493
32984,19532,33528
32928,19514,33513
32900,19500,33353
32860,19468,33425
32836,19449,33281
32825,19428,33453
32856,19463,33287
32932,19477,33181
33048,19525,33095
33260,19553,33239
33354,19537,33199
33244,19510,33212
33148,19509,33071
33088,19481,32909
33053,19434,33073
33256,19431,33121
33396,19456,32927
33412,19476,33006
33364,19527,32956
33320,19540,33041
33389,19532,32829
33528,19519,32663
33392,19485,32878
33185,19472,32799
33068,19429,32687
33004,19448,32841
33040,19445,32612
33214,19482,32549
33244,19496,32638
33220,19541,32564
33236,19525,32452
33129,19523,32546
33014,19500,32263
32920,19453,32390
32812,19435,32248
32821,19457,32273
32820,19460,32345
32848,19491,32150
32877,19499,32042
32896,19547,31913
32837,19527,32047
32724,19514,32007
32608,19481,31908
32504,19463,31893
32389,19426,31887
32388,19439,31669
32480,19447,31706
32444,19468,31573
32296,19520,31625
32229,19542,31438
32212,19520,31481
32232,19521,31441
32208,19479,31287
32220,19459,31360
32233,19425,31193
32228,19439,31021
32252,19445,30962
32344,19501,31046
32468,19504,31028
32593,19525,30940
32692,19555,30855
32632,19516,30790
32592,19477,30716
32564,19458,30521
32512,19428,30545
32436,19463,30623
32404,19449,30356
32420,19463,30455
32536,19514,30333
32700,19526,30183
32948,19521,30252
32789,19520,30137
32392,19484,30124
32284,19441,29959
32408,19438,29988
32648,19423,29734
33040,19468,29841
33169,19476,29798
33184,19503,29562
33200,19536,29671
33121,19527,29495
33012,19499,29380
32864,19492,29456
32696,19452,29420
32388,19423,29165
32348,19433,29241
32432,19460,29173
32436,19463,28967
32516,19527,29038
32644,19528,28932
32792,19521,28760
32812,19507,28841
32736,19479,28632
32580,19471,28615
32425,19429,28647
32508,19414,28443
32597,19458,28512
32740,19485,28500
32912,19499,28257
32980,19540,28303
32920,19527,28177
32866,19511,28228
32812,19487,28125
32748,19441,27965
32696,19432,27876
32704,19419,27916
32768,19441,27786
32836,19483,27839
32790,19510,27793
32752,19526,27538
32676,19519,27598
32604,19505,27573
32489,19466,27329
32332,19463,27426
32172,19436,27301
32024,19419,27311
32093,19455,27077
32304,19465,27153
32484,19511,27031
32608,19527,27044
32636,19532,26917
32588,19492,26750
32468,19483,26674
32360,19435,26759
32340,19427,26699
32437,19418,26522
32572,19446,26583
32740,19455,26353
32840,19511,26440
32908,19511,26269
32860,19522,26300
32748,19493,26116
32592,19493,26164
32513,19445,26154
32464,19417,25897
32320,19428,26007
32264,19433,25866
32332,19472,25798
32520,19497,25673
32668,19529,25767
32576,19513,25721
32480,19493,25479
32416,19476,25496
32388,19435,25532
32532,19448,25495
32704,19416,25287
32727,19472,25191
32728,19468,25312
32700,19490,25185
32718,19526,25215
32692,19510,24987
32645,19486,25070
32588,19477,25004
32504,19443,24819
32300,19428,24856
32168,19416,24840
32132,19430,24831
32232,19471,24674
32292,19495,24740
32400,19546,24669
32484,19514,24645
32528,19490,24449
32481,19489,24556
32348,19447,24473
32268,19428,24308
32289,19410,24333
32413,19443,24388
32577,19463,24252
32680,19495,24182
32824,19525,24173
32924,19525,24217
32908,19485,24117
32636,19477,24001
32520,19429,24108
32464,19428,24045
32348,19408,23876
32492,19447,23975
32708,19479,23961
32865,19489,23820
32960,19529,23808
33056,19512,23762
33068,19506,23665
33048,19461,23781
33040,19442,23703
33072,19425,23709
33048,19409,23612
33021,19446,23522
33028,19466,23591
33144,19494,23580
33196,19526,23384
33150,19508,23410
33000,19483,23460
32792,19457,23455
32620,19441,23239
32516,19417,23383
32552,19406,23278
32564,19439,23321
32592,19457,23119
32692,19503,23196
32880,19520,23172
32932,19527,23230
32834,19491,23047
32689,19452,23152
32488,19442,23161
32397,19399,22985
32380,19428,23108
32384,19431,23097
32484,19453,22948
32672,19503,23047
32720,19509,23040
32606,19495,22887
32528,19496,23000
32584,19449,22989
32520,19433,22901
32500,19401,22971
32548,19425,22821
32596,19431,22940
32633,19448,22849
32636,19500,22922
32656,19514,22817
32717,19532,22895
32696,19490,22880
32668,19451,22882
32685,19437,22758
32640,19413,22871
32692,19401,22831
32788,19440,22807
32901,19455,22734
33004,19500,22849
33160,19504,22809
33358,19495,22736
33524,19487,22753
33748,19455,22764
33676,19424,22684
33340,19397,22832
33252,19433,22828
33584,19439,22805
34344,19452,22780
35112,19481,22703
35492,19510,22855
35436,19491,22820
35300,19475,22716
35352,19471,22812
35552,19434,22697
35472,19410,22861
35028,19410,22896
34832,19451,22740
34768,19461,22900
34712,19513,22854
34637,19521,22791
33744,19508,22929
32513,19494,22892
32140,19479,22839
31576,19439,22986
30588,19425,22948
30108,19412,22877
30488,19435,22970
31170,19470,22988
31680,19497,22982
31876,19511,23093
31956,19531,23084
32069,19482,23107
32133,19452,22948
32145,19432,23142
32168,19398,23110
32300,19405,23004
32464,19430,23172
32592,19453,23188
32648,19503,23062
32688,19501,23195
32660,19513,23205
32474,19483,23094
32336,19449,23185
32256,19421,23224
32300,19391,23023
32372,19410,23197
32528,19422,23197
32612,19444,23071
32712,19493,23156
32796,19497,23170
32700,19508,23082
32576,19479,23201
32452,19444,23196
32400,19419,23093
32372,19392,23196
32440,19428,23234
32517,19428,23264
32484,19438,23164
32476,19501,23232
32509,19497,23252
32500,19491,23311
32400,19464,23296
32312,19458,23191
32193,19412,23231
32160,19397,23170
32199,19394,23277
32336,19444,23154
32524,19452,23261
32664,19479,23188
32772,19490,23247
33028,19500,23210
33064,19476,23193
32720,19438,23100
32364,19416,22966
32128,19391,23116
32036,19417,23032
32228,19421,23036
32437,19439,22898
32576,19496,22989
32726,19492,22919
32880,19506,22829
32900,19477,22831
32954,19463,22887
32988,19425,22793
32953,19415,22825
32868,19402,22624
32784,19410,22745
32844,19456,22717
32936,19484,22540
32990,19488,22655
33006,19498,22629
33060,19482,22450
33168,19432,22575
33240,19414,22541
33204,19390,22461
33109,19404,22399
33076,19423,22444
33104,19463,22399
33145,19492,22226
33244,19487,22357
33332,19491,22300
33260,19463,22135
33076,19416,22208
32892,19415,22189
32920,19384,22121
33084,19431,22045
33240,19416,22135
33368,19431,22033
33476,19482,21940
33508,19483,21895
33492,19493,21938
33432,19477,21903
33351,19423,21926
33172,19405,21728
32973,19380,21754
32893,19410,21812
32853,19412,21758
32864,19446,21707
32903,19477,21654
32924,19513,21527
32832,19484,21544
32672,19455,21585
32552,19452,21551
32448,19391,21382
32366,19408,21511
32308,19398,21445
32456,19411,21468
32615,19452,21279
32520,19477,21393
32404,19487,21327
32420,19503,21311
32448,19473,21273
32432,19445,21255
32396,19397,21274
32313,19397,21116
32300,19397,21221
32341,19410,21200
32400,19445,21081
32404,19475,21037
32236,19500,21135
32165,19474,21073
32312,19476,21076
32460,19441,20949
32584,19414,21028
32680,19396,21004
32660,19389,20988
32762,19418,20880
32821,19436,20999
32885,19492,20955
32824,19487,20869
32768,19499,20876
32740,19461,20922
32742,19429,20930
32685,19404,20804
32604,19376,20919
32528,19395,20912
32520,19413,20766
32580,19455,20892
32528,19482,20909
32501,19481,20793
32472,19501,20863
32573,19462,20769
32632,19429,20875
32652,19418,20856
32709,19390,20809
32784,19393,20859
32948,19416,20835
33093,19440,20831
33021,19496,20838
32908,19497,20757
32768,19490,20847
32629,19454,20769
32576,19471,20911
32656,19404,20940
32720,19386,20784
32832,19394,20933
32852,19428,20964
32840,19444,20927
32932,19472,20941
33100,19503,20908
33072,19481,20932
32978,19452,21018
32892,19435,21001
32840,19428,21066
32880,19391,20922
32824,19395,21085
32722,19422,21103
32668,19463,21094
32676,19492,21145
32832,19491,21084
32964,19484,21185
32908,19454,21160
32741,19436,21240
32672,19396,21098
32788,19393,21213
32986,19389,21273
33064,19436,21297
32876,19455,21348
32560,19477,21329
32586,19487,21260
32732,19487,21383
32804,19452,21410
32856,19463,21326
32796,19399,21522
32664,19368,21500
32664,19396,21432
32800,19412,21617
32896,19453,21617
32960,19484,21700
33096,19487,21574
33172,19494,21752
33117,19457,21785
32984,19447,21692
32833,19401,21892
32748,19390,21947
32740,19392,21823
32780,19424,21968
32872,19439,22036
32948,19492,22117
32960,19496,22008
32940,19477,22213
32932,19463,22203
32877,19431,22252
32720,19391,22295
32536,19389,22410
32444,19393,22405
32496,19424,22505
32572,19441,22446
32768,19495,22641
32904,19505,22718
32928,19470,22599
32828,19468,22821
32760,19446,22869
32696,19397,22800
32641,19412,23006
32668,19404,23065
32713,19420,23001
32760,19458,23025
32772,19486,23268
32858,19487,23268
32842,19497,23226
32824,19463,23460
32820,19437,23485
32800,19401,23527
32712,19377,23648
32736,19407,23749
32808,19419,23629
32884,19463,23817
32948,19501,23868
32968,19490,23892
32964,19504,24100
32932,19463,24196
32908,19427,24137
32824,19376,24304
32774,19399,24420
32796,19400,24337
32888,19417,24559
32936,19463,24556
32964,19487,24580
32952,19495,24698
32860,19486,24880
32728,19456,24893
32540,19453,24989
32412,19404,24968
32372,19408,25144
32324,19420,25306
32420,19417,25390
32532,19461,25431
32696,19503,25511
32772,19490,25662
32729,19500,25621
32536,19479,25805
32096,19441,25829
31756,19403,26106
31688,19410,26220
31892,19412,26171
32313,19419,26327
32732,19468,26396
32937,19494,26631
32925,19513,26668
32844,19479,26677
32753,19476,26952
32608,19449,27007
32520,19402,27107
32472,19407,27125
32657,19399,27388
32752,19441,27516
32836,19463,27445
32868,19489,27701
32900,19508,27813
32852,19487,27756
32804,19484,28008
32721,19453,28151
32680,19434,28066
32628,19396,28319
32620,19401,28409
32656,19432,28414
32644,19452,28611
32628,19497,28693
32620,19493,28640
32616,19496,28864
32549,19457,28868
32456,19444,29084
32373,19423,29169
32329,19405,29165
32300,19422,29190
32440,19429,29240
32784,19461,29500
33164,19485,29483
33572,19503,29719
33896,19483,29606
33880,19480,29839
33812,19440,29978
33888,19398,29807
34065,19397,30052
34228,19407,30157
34520,19437,30100
34780,19463,30325
34944,19529,30395
35152,19513,30352
35216,19492,30569
35008,19491,30583
34932,19445,30785
34904,19428,30657
34488,19407,30901
34084,19434,30871
33292,19453,31033
31928,19505,30952
31416,19516,31239
31332,19519,31405
30540,19513,31236
29700,19485,31448
29624,19453,31524
30112,19431,31743
30756,19409,31724
31244,19415,31888
31616,19450,32031
31820,19483,32197
31992,19501,32119
32165,19513,32348
32262,19495,32319
32254,19482,32581
32120,19447,32516
31908,19421,32751
31788,19399,32724
31908,19423,32964
32124,19434,32832
32237,19473,33156
32364,19501,33141
32288,19516,33327
32192,19487,33221
32136,19476,33542
32065,19451,33708
32004,19433,33683
31848,19416,33852
31796,19416,33852
31920,19454,34020
32127,19468,33976
32372,19515,34277
32620,19502,34319
32752,19514,34509
32665,19470,34492
32512,19461,34695
32448,19412,34756
32360,19420,34783
32296,19414,34743
32316,19463,34980
32308,19471,35193
32196,19511,35351
32169,19497,35309
32128,19506,35159
32132,19476,35472
32206,19463,35660
32289,19425,35473
32336,19423,35725
32430,19433,35749
32468,19466,35892
32420,19479,35817
32432,19503,35942
32396,19519,36008
32280,19495,36125
32208,19477,35956
32228,19445,36132
32272,19423,36055
32380,19409,36311
32548,19432,36028
32668,19463,36270
32821,19484,36468
32876,19506,36262
32792,19517,36372
32702,19500,36516
32628,19493,36240
32496,19461,36496
32305,19415,36717
32320,19421,36561
32424,19417,36687
32568,19463,36700
32696,19471,36827
32814,19515,36837
32880,19527,36777
32738,19519,36909
32544,19477,37045
32416,19463,36909
32394,19426,37047
32650,19429,36956
33160,19433,37228
33488,19480,37085
33504,19487,37208
33444,19503,37253
33460,19522,37265
33456,19494,37040
33468,19491,37316
33420,19451,37493
33100,19412,37453
32852,19425,37477
32752,19436,37433
32784,19436,37574
32924,19484,37476
32980,19508,37665
33016,19519,37669
32928,19495,37719
32888,19491,37711
32876,19446,37780
32884,19436,37512
32956,19419,37783
32868,19429,38005
32761,19460,37937
32692,19478,37836
32652,19523,37966
32576,19515,38139
32474,19516,37968
32386,19478,38071
32380,19474,38001
32316,19429,38108
32312,19428,38148
32333,19425,38277
32328,19463,37988
32340,19483,38231
32400,19529,38308
32384,19526,38212
32392,19505,38290
32313,19493,38432
32208,19449,38235
32184,19433,38352
32272,19412,38484
32381,19455,38311
32480,19468,38350
32516,19492,38439
32500,19517,38421
32436,19546,38551
32481,19515,38181
32528,19489,38341
32556,19468,38524
32528,19440,38140
32404,19440,38472
32385,19430,38484
32540,19469,38596
32688,19492,38420
32820,19532,38500
32896,19536,38615
32788,19505,38438
32712,19500,38172
32629,19476,38477
32612,19441,38614
32728,19420,38447
32596,19445,38520
32444,19462,38458
32460,19503,38548
32620,19520,38457
32842,19535,38311
33088,19512,38509
33108,19495,38505
32988,19460,38532
32888,19439,38252
32832,19427,38500
32888,19454,38629
33065,19463,38448
33280,19508,38534
33256,19543,38645
32936,19528,38456
32672,19528,38207
32596,19514,38543
32640,19472,38500
32736,19437,38505
32712,19443,38557
32797,19441,38577
32953,19491,38623
32996,19513,38372
33101,19548,38573
33108,19533,38548
33104,19551,38713
33040,19505,38521
32972,19467,38596
32877,19453,38461
32800,19447,38529
32712,19445,38567
32788,19485,38709
32864,19511,38263
32916,19551,38601
32910,19537,38535
32833,19536,38629
32664,19492,38600
32568,19477,38520
32614,19461,38287
32628,19452,38573
32692,19447,38627
32640,19475,38492
32624,19503,38570
32704,19535,38429
32816,19567,38657
32952,19543,38572
32990,19495,38540
32925,19483,38492
32728,19447,38519
32593,19463,38526
32568,19467,38465
32580,19473,38624
32616,19519,38208
32752,19537,38460
32844,19550,38617
32856,19521,38535
32892,19509,38289
32848,19463,38459
32705,19460,38575
32632,19452,38404
32598,19454,38492
32577,19485,38335
32668,19507,38484
32776,19542,38437
32900,19535,38407
32824,19532,38564
32560,19495,38416
32352,19472,38445
32261,19443,38397
32308,19453,38394
32376,19473,38485
32588,19487,38407
32756,19532,38420
32844,19543,38284
32932,19532,38429
32876,19535,38176
32717,19511,38380
32460,19509,38520
32264,19455,38346
32192,19453,38222
32396,19452,38396
32568,19487,38447
32671,19508,38176
32698,19545,38346
32652,19543,38498
32552,19531,38276
32416,19503,38352
32432,19476,38245
32448,19463,38461
32404,19437,38334
32540,19463,38132
32741,19495,38297
32885,19509,38324
33101,19546,38385
32972,19541,38211
32748,19537,38300
32578,19504,38237
32522,19473,38324
32588,19471,38279
32800,19451,38140
32873,19455,38292
32916,19500,37932
32960,19527,38121
33012,19538,38231
32916,19557,37925
32816,19530,38228
32776,19547,38252
32796,19495,38161
32784,19459,38038
32804,19452,38200
32826,19477,38159
32720,19485,38188
32628,19532,38055
32730,19541,38177
32884,19562,38303
33020,19536,38060
33077,19541,38085
32941,19473,38303
32812,19459,38172
32692,19461,38204
32668,19479,38087
32732,19481,38064
32816,19522,38302
32820,19540,38117
32820,19549,38196
32776,19526,38132
32500,19508,38320
32320,19465,38131
32192,19470,38209
32184,19449,38096
32284,19478,38252
32476,19492,38223
32605,19516,38114
32832,19556,38167
33016,19547,38238
32937,19540,38120
32796,19501,38216
32620,19492,38244
32464,19453,38220
32348,19461,38318
32328,19460,38192
32428,19493,38007
32652,19511,38248
32856,19549,38382
32832,19545,38198
32732,19545,38282
32780,19524,38388
32800,19508,37981
32820,19444,38325
33000,19452,38248
33292,19457,38301
33620,19490,38452
33960,19530,38388
34200,19539,38309
34228,19548,38276
34205,19530,38360
34278,19508,38348
34428,19463,38278
34624,19463,38389
34700,19461,38496
34684,19460,38373
34712,19499,38383
34712,19518,38276
34644,19559,38484
34418,19548,38220
34144,19563,38380
33832,19531,38390
33556,19500,38473
33200,19471,38207
32205,19475,38399
31216,19477,38265
31344,19507,38534
31365,19558,38389
30749,19556,38308
30516,19568,38437
30780,19535,38533
31072,19527,38161
31192,19495,38388
31204,19471,38565
31406,19456,38430
31804,19478,38204
32208,19490,38500
32552,19531,38540
32812,19545,38521
32900,19554,38437
32825,19525,38565
32672,19509,38567
32552,19472,38446
32588,19458,38714
32609,19445,38572
32509,19471,38276
32468,19506,38606
32556,19535,38644
32678,19563,38631
32868,19560,38644
32976,19549,38586
32924,19504,38780
32756,19489,38587
32628,19447,38676
32524,19469,38663
32516,19463,38812
32668,19505,38718
32856,19517,38432
32968,19556,38767
32984,19548,38788
32972,19541,38908
32877,19501,38812
32777,19487,38461
32762,19445,38663
32804,19454,38908
32864,19456,38733
32886,19496,38551
32848,19519,38788
32852,19559,38932
32732,19549,38727
32588,19544,38786
32532,19510,38706
32528,19488,38748
32564,19450,38791
32608,19463,38528
32708,19479,38709
32752,19510,38633
32796,19528,38639
32903,19538,38623
32996,19548,38484
33043,19524,38524
33064,19516,38422
33056,19466,38426
32992,19447,38309
33018,19454,38361
33036,19471,38225
33036,19483,38375
33088,19532,37932
33172,19551,38121
33140,19542,38208
32962,19534,38055
32756,19498,37753
32632,19482,37989
32660,19445,37925
32812,19453,37924
33080,19463,37905
33321,19487,37929
33456,19527,37796
33652,19540,37834
33692,19560,37924
33600,19530,37692
33422,19498,37759
33248,19471,37668
33257,19437,37799
33328,19458,37602
33472,19467,37660
33704,19483,37508
33712,19531,37664
33608,19535,37700
33644,19557,37468
33674,19540,37524
33520,19503,37544
33292,19463,37271
33204,19453,37452
33172,19443,37444
33172,19481,37377
33368,19493,37380
33524,19524,37253
33575,19557,37433
33596,19558,37231
33433,19551,37004
33228,19496,37273
33032,19481,37208
32960,19444,37121
33016,19447,37175
33089,19459,37261
33181,19501,37245
33224,19518,37031
33260,19555,37065
33236,19545,36976
33114,19554,37065
32900,19503,36943
32660,19466,36992
32456,19463,36941
32365,19461,36888
32396,19457,36825
32512,19494,36981
32644,19547,36969
32768,19538,36891
32864,19553,36593
32912,19519,36769
32848,19516,36829
32784,19477,36540
32837,19469,36700
32876,19460,36704
32844,19458,36525
32792,19493,36740
32680,19522,36639
32629,19551,36322
32604,19541,36540
32664,19532,36503
32720,19497,36492
32804,19473,36465
32812,19445,36213
32872,19452,36143
32988,19491,36402
33077,19505,36303
33125,19543,36455
33008,19551,36359
32840,19543,36004
32752,19524,36231
32672,19492,36303
32732,19479,36132
32732,19455,36172
32764,19444,36252
32832,19479,35889
32970,19491,36151
32984,19531,36095
32896,19538,36060
32716,19559,36059
32617,19542,36076
32589,19500,35932
32680,19476,36028
32788,19439,35857
32772,19447,36004
32797,19460,35932
32961,19493,35979
33049,19520,35964
33012,19549,35648
33005,19537,35877
33144,19528,35988
33133,19493,35615
32973,19470,35844
32864,19463,35748
32868,19460,35918
32976,19456,35748
33172,19495,35823
33156,19516,35768
33093,19551,35808
32996,19537,35505
32940,19532,35753
32869,19490,35653
32868,19482,35736
32896,19441,35437
32972,19460,35671
32988,19460,35710
33012,19482,35629
33064,19524,35516
33140,19536,35692
33150,19544,35525
33076,19517,35300
32904,19500,35540
32588,19491,35420
32481,19458,35590
32508,19444,35400
32608,19465,35212
32744,19484,35453
32896,19524,35301
32992,19533,35441
33096,19548,35237
32996,19523,35374
32801,19493,35228
32624,19458,35385
32357,19447,35041
32228,19443,35271
32318,19471,35308
32668,19485,35228
33072,19528,35236
33124,19554,35223
32804,19572,35108
32469,19535,35148
32296,19495,35228
32417,19485,34895
32612,19454,34997
32656,19453,35119
32712,19483,34902
32796,19497,35038
32954,19541,34878
33036,19540,35029
33053,19541,34869
32932,19524,34941
32692,19515,34883
32532,19463,35005
32529,19463,34773
32668,19452,34847
32752,19461,34919
32740,19527,34605
32788,19529,34756
32956,19546,34845
32944,19534,34641
32788,19526,34729
32552,19495,34679
32408,19453,34585
32381,19460,34661
32576,19445,34749
32752,19454,34367
32837,19494,34552
32792,19532,34597
32628,19535,34564
32604,19551,34566
32728,19521,34416
32784,19493,34252
32765,19463,34459
32828,19436,34549
32925,19462,34353
32984,19457,34159
33074,19500,34404
33128,19518,34308
33200,19550,34257
33112,19531,34228
32928,19526,34360
32789,19491,34300
32704,19468,34375
32708,19433,34215
32816,19454,34000
32968,19460,34201
32988,19500,34204
32956,19519,34183
32948,19543,34151
32916,19533,34136
32805,19530,34100
32732,19511,34107
32728,19459,33976
32736,19453,34078
32872,19447,34081
33004,19458,33967
33097,19503,34023
33128,19527,33774
33080,19558,34017
32940,19540,33919
32776,19540,34091
32641,19492,33888
32500,19455,33975
32404,19448,34065
32386,19435,33946
32462,19477,33721
32605,19492,33927
32720,19521,33935
32748,19526,33856
32704,19533,34021
32536,19510,33834
32364,19495,33959
32292,19447,33881
32208,19444,33956
32252,19441,33964
32332,19457,33962
32332,19489,34084
32380,19512,33890
32480,19548,34002
32528,19526,33892
32672,19521,34097
32680,19479,34102
32548,19463,33917
32348,19431,34047
32256,19437,34144
32332,19455,33967
32468,19476,34085
32596,19521,34116
32676,19532,34181
32632,19535,34092
32509,19502,34123
32384,19490,34106
32344,19447,34124
32280,19441,34102
32496,19424,33922
32730,19462,34164
32856,19475,34222
32868,19524,34125
33125,19535,34220
33500,19520,34208
33584,19524,34148
33516,19484,34249
33596,19480,34144
33925,19437,34183
34360,19429,34281
34752,19451,34397
34997,19481,34183
35157,19503,34303
35137,19565,34359
35065,19542,34156
34820,19501,34311
34424,19500,34267
34090,19455,34412
33948,19456,34223
33828,19449,34284
33692,19471,34340
32744,19503,34303
31524,19524,34089
31136,19554,34292
30956,19548,34404
30166,19516,34114
29736,19495,34317
29936,19456,34373
30404,19447,34380
30873,19442,34374
31376,19466,34311
31812,19484,34310
32176,19524,34361
32384,19534,34432
32476,19519,34529
32448,19520,34221
32364,19491,34311
32308,19452,34333
32280,19426,34423
32376,19459,34548
32472,19457,34201
32556,19494,34336
32652,19508,34355
32724,19553,34460
32648,19524,34477
32598,19538,34447
32540,19485,34201
32400,19447,34469
32296,19421,34196
32238,19436,34353
32264,19446,34535
32328,19485,34340
32432,19504,34431
32586,19537,34439
32672,19518,34412
32654,19509,34465
32632,19477,34223
32584,19455,34458
32520,19434,34561
32568,19425,34362
32636,19452,34463
32676,19467,34455
32812,19519,34388
32896,19519,34465
32708,19537,34341
32454,19502,34420
32352,19468,34282
32392,19460,34400
32516,19417,34111
32632,19423,34316
32501,19452,34398
32360,19476,34053
32260,19519,34233
32364,19535,34212
32732,19512,34045
32880,19503,34099
32852,19480,34000
32783,19436,33988
32830,19423,33936
32892,19419,33761
32945,19461,33759
32932,19478,33775
32980,19541,33730
33036,19524,33543
33148,19508,33573
33149,19496,33615
33072,19463,33329
32941,19437,33392
32804,19416,33188
32732,19427,33340
32756,19442,33092
32864,19487,33077
32948,19508,33112
33017,19540,32821
33056,19531,32924
33104,19517,32903
33096,19473,32745
33093,19425,32526
33064,19423,32623
33056,19414,32697
33080,19447,32412
33164,19464,32292
33164,19505,32451
33164,19516,32474
33164,19518,32230
33168,19487,32220
33148,19476,32305
33085,19428,32034
33048,19428,31881
32960,19428,31981
32938,19442,31989
33024,19476,31776
33016,19521,31816
33088,19508,31836
33150,19521,31484
33224,19499,31572
33280,19454,31612
33326,19436,31317
33280,19408,31388
33140,19436,31239
32872,19461,31277
32644,19486,31020
32548,19499,31083
32632,19523,31020
32789,19505,30839
32824,19493,30633
32704,19463,30662
32460,19451,30651
32300,19420,30393
32336,19413,30500
32412,19441,30360
32529,19487,30309
32656,19495,30293
32704,19521,30023
32649,19524,29889
32452,19483,29996
32344,19468,29852
32310,19457,29708
32244,19421,29559
32224,19432,29656
32324,19443,29551
32544,19473,29533
32636,19500,29239
32544,19530,29315
32401,19508,29128
32305,19503,29207
32268,19478,28894
32376,19424,28973
32421,19416,28919
32492,19417,28644
32564,19454,28735
32676,19463,28575
32752,19512,28445
32796,19511,28354
32836,19513,28388
32888,19515,28230
32962,19463,28295
33020,19443,28037
32900,19428,28114
32800,19445,27972
32822,19448,27948
32901,19463,27896
33096,19509,27780
33160,19511,27609
32916,19522,27697
32740,19495,27524
32660,19492,27506
32637,19435,27493
32813,19411,27412
32932,19441,27205
32964,19442,27256
32901,19461,27205
32924,19509,27002
32976,19509,27080
32920,19519,26926
32770,19490,26884
32688,19457,26781
32680,19434,26836
32664,19404,26682
32808,19428,26690
32992,19460,26620
33020,19477,26631
33008,19503,26597
33097,19518,26356
33112,19503,26478
33001,19491,26324
32896,19460,26349
32816,19445,26213
32676,19425,26277
32685,19438,26181
32840,19452,26013
33080,19483,26119
33168,19500,25982
33144,19535,25841
33040,19506,25965
32836,19496,25897
32748,19460,25800
32792,19439,25716
32772,19408,25767
32720,19443,25535
32808,19456,25522
32876,19470,25561
32944,19525,25538
33101,19523,25340
33160,19511,25431
33040,19497,25376
32852,19463,25207
32736,19445,25220
32728,19424,25236
32836,19443,24993
32908,19453,25040
32956,19510,25063
33008,19512,24929
33068,19508,24978
32952,19512,24823
32844,19485,24804
32804,19478,24789
32768,19431,24796
32736,19409,24608
32768,19429,24709
32792,19444,24588
32749,19490,24449
32798,19515,24553
32920,19513,24525
33039,19535,24372
33084,19493,24438
32976,19458,24406
32868,19447,24247
32804,19423,24335
32708,19421,24231
32660,19462,24087
32636,19489,24176
32702,19500,24013
32637,19541,24143
32416,19517,24124
32364,19487,23903
32452,19477,23863
32492,19423,24022
32749,19423,23892
32900,19421,23874
32896,19457,23808
32980,19471,23892
33140,19528,23868
33264,19527,23715
33272,19505,23785
33132,19515,23676
32900,19471,23680
32725,19425,23640
32741,19412,23519
32836,19433,23673
33024,19452,23664
33152,19477,23484
33292,19543,23590
33228,19528,23498
33136,19509,23528
32952,19505,23330
32884,19461,23428
32996,19444,23452
33032,19414,23402
33156,19450,23268
33372,19451,23323
33481,19495,23353
33520,19515,23262
33592,19544,23204
33509,19521,23205
33300,19495,23213
33156,19484,23245
32956,19447,23061
32868,19434,23074
32904,19437,23150
33048,19447,23143
33224,19489,22934
33300,19512,23028
33180,19526,23028
33036,19536,22997
32900,19510,22967
32940,19469,22901
32976,19438,22970
32934,19421,22940
32877,19442,22900
32948,19454,22772
33236,19487,22904
33472,19516,22831
33572,19539,22759
33376,19519,22720
33128,19503,22845
32884,19463,22755
32700,19451,22813
32660,19439,22688
32748,19428,22802
32912,19468,22801
33048,19497,22623
33060,19515,22781
33012,19534,22769
32908,19518,22636
32660,19495,22740
32356,19477,22787
32185,19433,22599
32140,19439,22693
32272,19431,22772
32496,19471,22738
32736,19483,22754
32921,19532,22674
33142,19524,22630
33173,19527,22725
32973,19504,22729
32660,19500,22809
32480,19447,22639
32416,19425,22737
32504,19444,22815
32708,19458,22732
32815,19492,22812
32908,19524,22696
33036,19548,22823
33080,19537,22830
32972,19496,22671
32796,19479,22791
32556,19429,22844
32544,19435,22853
32733,19437,22788
33056,19469,22722
33384,19523,22759
33744,19527,22889
34093,19559,22900
34308,19526,22879
34269,19493,22930
33984,19487,22933
33760,19455,22823
33920,19429,22914
34428,19457,22965
35028,19463,22998
35480,19486,22868
35725,19525,22930
35800,19532,23044
35760,19535,23004
35621,19501,23087
35216,19492,22921
35008,19468,23116
34880,19439,23149
34812,19470,22997
34576,19494,23182
33556,19510,23154
32564,19549,23231
32400,19548,23198
31784,19551,23143
30684,19518,23333
30200,19503,23364
30464,19463,23324
30928,19437,23388
31374,19472,23332
31624,19476,23383
31896,19517,23465
32151,19534,23576
32220,19553,23579
32314,19526,23557
32392,19525,23692
32404,19498,23572
32436,19471,23673
32464,19449,23776
32264,19473,23738
31952,19490,23857
31889,19522,23703
32016,19548,23900
32108,19544,23889
32280,19556,23771
32320,19522,23961
32341,19481,23959
32396,19468,23965
32456,19439,24034
32580,19471,23899
32748,19487,23985
32884,19530,24086
32884,19546,24138
32904,19543,24108
32872,19527,24136
32760,19523,24161
32656,19495,24227
32588,19447,24229
32484,19452,24346
32524,19453,24196
32677,19494,24325
32796,19516,24402
32772,19532,24451
32688,19554,24292
32648,19541,24474
32640,19506,24428
32668,19493,24364
32738,19451,24417
32801,19473,24470
32924,19465,24518
33072,19473,24425
33104,19519,24494
33020,19541,24420
32884,19561,24485
32732,19534,24398
32665,19520,24356
32656,19487,24311
32616,19473,24430
32668,19452,24441
32880,19484,24415
33004,19502,24259
33120,19507,24350
33124,19553,24290
33172,19567,24261
33164,19567,24260
32956,19527,24340
32812,19511,24259
32704,19460,24308
32532,19463,24182
32480,19457,24156
32540,19495,24292
32582,19509,24210
32728,19558,24262
32896,19553,24125
32952,19559,24252
33088,19513,24229
33208,19500,24199
33192,19453,24167
33172,19457,24079
33181,19484,24141
33180,19502,24159
33244,19536,24194
33409,19562,23997
33446,19568,24043
33268,19542,24152
33060,19526,24113
32869,19490,24083
32712,19474,23940
32873,19444,23963
32992,19468,23983
32836,19527,24071
32744,19528,24045
32948,19581,23988
33192,19569,24006
33272,19542,23879
33060,19524,23998
32876,19487,23911
32821,19463,23932
32836,19471,23804
32794,19469,23813
32772,19503,23936
32848,19521,23916
32892,19559,23841
32909,19556,23810
32884,19567,23817
32760,19525,23886
32608,19506,23863
32444,19461,23900
32324,19468,23720
32361,19491,23788
32454,19489,23872
32564,19539,23786
32672,19557,23860
32612,19598,23775
32401,19556,23844
32220,19537,23780
32116,19495,23793
32120,19479,23856
32136,19462,23911
32168,19470,23756
32176,19513,23894
32169,19540,23887
32237,19556,23836
32344,19578,23862
32404,19559,23935
32300,19529,23950
32192,19529,23854
32032,19485,24017
31952,19460,23950
32100,19484,23991
32396,19500,24063
32632,19537,23927
32797,19572,24140
32808,19564,24092
32812,19564,24157
32808,19534,24092
32728,19501,24264
32660,19487,24293
32744,19477,24199
32808,19496,24208
32737,19500,24276
32768,19566,24461
32938,19574,24436
33100,19573,24460
33092,19556,24518
32916,19545,24602
32620,19505,24687
32540,19484,24632
32712,19463,24687
32988,19511,24740
33216,19515,24845
33216,19559,24728
33230,19567,24839
33262,19583,25004
33241,19556,25045
33184,19545,25024
33109,19516,25104
32944,19495,25052
32789,19471,25285
32713,19485,25276
32752,19526,25224
32840,19545,25461
32872,19566,25534
32948,19569,25474
32964,19572,25541
32905,19537,25653
32828,19520,25604
32692,19494,25793
32604,19463,25850
32632,19491,25820
32760,19510,25996
32880,19557,26093
32924,19577,25980
32948,19595,26192
32920,19572,26213
32893,19556,26145
32900,19503,26389
32869,19520,26487
32821,19480,26385
32796,19502,26476
32880,19508,26566
32920,19545,26708
32950,19564,26764
32824,19585,26876
32657,19557,26748
32560,19541,26844
32464,19509,27020
32400,19492,27124
32468,19471,27130
32568,19501,27078
32664,19513,27345
32748,19552,27300
32780,19572,27428
32736,19591,27399
32804,19564,27628
32805,19572,27678
32776,19524,27621
32629,19491,27842
32372,19495,27902
32248,19497,27853
32328,19510,28090
32576,19556,28060
32764,19589,28078
32760,19574,28319
32724,19577,28281
32777,19534,28507
32920,19523,28442
32916,19482,28447
32910,19486,28689
32892,19487,28710
32870,19525,28869
32984,19548,28767
33196,19573,28847
33198,19593,28942
33060,19561,29111
32892,19552,29189
32768,19516,29277
32676,19492,29381
32704,19476,29268
32686,19505,29481
32712,19527,29424
32808,19555,29584
32797,19575,29540
32624,19583,29736
32512,19575,29682
32440,19536,29709
32432,19533,29900
32424,19494,29913
32448,19496,29894
32516,19504,29887
32616,19536,30100
32736,19557,30225
32796,19574,30093
32688,19590,30084
32520,19565,30319
32552,19553,30287
32528,19515,30319
32662,19507,30285
32860,19479,30526
32952,19509,30485
33040,19517,30632
33016,19570,30536
33033,19589,30712
32876,19583,30668
32689,19577,30837
32540,19544,30661
32464,19527,30871
32408,19486,31007
32396,19508,30892
32504,19502,31066
32828,19524,31001
32940,19565,31192
32873,19585,31092
32752,19620,31285
32696,19580,31404
32724,19556,31269
32616,19533,31465
32412,19501,31519
32280,19513,31503
32216,19508,31543
32286,19533,31729
32534,19576,31685
32712,19598,31903
32680,19580,31784
32616,19577,31985
32592,19565,32052
32576,19522,32130
32524,19483,32245
32448,19493,32108
32520,19500,32337
32604,19542,32481
32596,19559,32463
32628,19579,32476
32565,19596,32669
32534,19582,32701
32576,19543,32731
32620,19518,32906
32493,19484,32937
32462,19511,32945
32513,19505,33135
32589,19524,33137
32613,19559,33193
32684,19577,33460
32736,19598,33319
32740,19562,33286
32724,19559,33580
32641,19516,33668
32533,19505,33637
32532,19492,33830
32604,19532,33921
32716,19537,33748
32860,19559,34020
33024,19580,34103
33238,19591,34280
33389,19559,34247
33568,19551,34130
33688,19509,34396
33652,19499,34449
33742,19503,34527
34072,19518,34689
34445,19526,34589
34716,19550,34748
34960,19585,34823
35044,19581,34844
34905,19587,34977
34904,19542,35001
34972,19540,34964
34800,19498,35150
34756,19488,35172
34768,19520,35223
34640,19537,35399
34444,19588,35488
33688,19584,35453
32468,19609,35300
32086,19601,35631
31672,19561,35664
30592,19527,35838
29896,19514,35557
30016,19499,35853
30592,19508,36065
31264,19548,35791
31680,19571,36016
31860,19587,36174
31990,19604,36276
32136,19576,36256
32220,19566,36527
32416,19527,36257
32556,19495,36532
32472,19484,36729
32424,19519,36407
32492,19531,36631
32564,19557,36909
32644,19602,36740
32700,19591,36964
32636,19569,36894
32532,19552,37204
32476,19516,37101
32366,19494,36930
32356,19479,37268
32388,19510,37333
32439,19522,37446
32481,19576,37484
32540,19592,37516
32508,19606,37519
32432,19579,37743
32356,19583,37476
32364,19518,37793
32434,19487,37973
32452,19523,37895
32448,19518,38008
32536,19523,38065
32676,19563,38068
32756,19580,38196
32768,19593,38151
32788,19567,38308
32788,19562,38296
32708,19528,38332
32592,19517,38132
32441,19496,38364
32397,19502,38621
32468,19556,38472
32472,19559,38573
32732,19579,38545
32908,19585,38568
32864,19564,38637
32769,19548,38651
32652,19509,38791
32568,19499,38348
32468,19489,38585
32532,19501,38643
32594,19556,38661
32624,19560,38833
32885,19577,38628
33000,19591,38757
33052,19559,38628
33057,19551,38820
33092,19508,38712
33056,19497,38549
33008,19481,38786
33069,19503,38682
33096,19525,38860
33084,19559,38729
33112,19573,38812
33024,19591,38764
32864,19584,38735
32653,19543,38816
32584,19527,38960
32620,19485,38820
32669,19492,38519
32782,19492,38874
33000,19533,38836
33272,19550,38852
33489,19584,38849
33584,19572,39031
33616,19561,39028
33532,19528,38884
33380,19521,38916
33158,19503,38929
33013,19495,38864
32920,19496,38945
32941,19538,38966
33000,19571,38884
33020,19602,38621
33068,19580,38964
33060,19556,38883
32944,19548,39021
32846,19500,38919
32936,19492,38625
32996,19471,38991
33033,19512,38997
33036,19542,38990
33071,19559,38964
33100,19612,38919
33004,19588,39047
32760,19557,38961
32506,19561,39008
32336,19509,39001
32304,19495,39000
32340,19479,38946
32388,19506,39017
32484,19559,38860
32545,19561,38871
32520,19589,39041
32428,19582,39073
32336,19573,38988
32328,19531,38799
32312,19513,38769
32188,19479,38678
32116,19499,38890
32132,19511,38932
32276,19540,39050
32401,19557,39047
32688,19589,38919
32702,19575,38764
32436,19574,38948
32264,19540,38791
32340,19532,39021
32448,19492,38903
32661,19477,38637
32804,19506,38905
32688,19526,38775
32596,19553,38982
32623,19585,38820
32720,19575,38844
32868,19566,38836
32897,19540,38965
32868,19537,38831
32728,19487,38757
32740,19476,38565
32824,19506,38462
32925,19544,38777
33040,19559,38847
33072,19573,38861
33000,19583,38688
32824,19553,38553
32804,19542,38757
32692,19500,38733
32612,19485,38722
32745,19489,38741
32836,19492,38679
32920,19527,38756
32976,19575,38788
33101,19573,38788
33089,19593,38767
33032,19557,38592
32904,19538,38340
32717,19509,38647
32608,19493,38529
32544,19497,38711
32684,19508,38483
32942,19539,38383
33056,19555,38403
32972,19592,38559
32840,19573,38552
32672,19564,38595
32589,19526,38324
32572,19507,38599
32568,19473,38567
32612,19493,38630
32576,19506,38553
32656,19538,38417
32832,19565,38513
32992,19591,38553
33100,19569,38631
33120,19567,38644
33024,19524,38464
32840,19504,38343
32585,19485,38500
32356,19498,38376
32336,19495,38536
32444,19519,38535
32656,19567,38516
32910,19592,38470
33004,19575,38317
33016,19566,38255
32936,19534,38391
32764,19508,38276
32669,19489,38420
32704,19490,38463
32772,19500,38255
32877,19517,37980
33006,19568,38306
33064,19589,38264
32964,19578,38191
32692,19549,38175
32540,19541,38225
32576,19497,38135
32777,19470,38317
32936,19479,38093
32996,19493,38140
33012,19545,38271
32952,19553,37988
33017,19568,38125
33112,19577,38004
33044,19561,38140
32912,19524,37767
32744,19505,38045
32640,19468,37887
32660,19484,38035
32800,19491,37724
32824,19539,37940
32835,19557,38049
32994,19565,37941
33008,19577,37832
32856,19542,37909
32748,19527,37748
32677,19492,37925
32534,19479,37783
32616,19474,37796
32740,19508,37692
32776,19526,37868
32820,19548,37685
32952,19578,37607
32980,19559,37732
32959,19553,37690
32932,19519,37652
32860,19501,37680
32798,19465,37351
32716,19489,37636
32824,19500,37576
32948,19519,37683
33028,19541,37322
33168,19587,37468
33224,19563,37403
33176,19557,37535
33068,19527,37361
32952,19503,37421
32901,19476,37341
32908,19505,37461
32937,19497,37255
32964,19509,37299
33000,19556,37261
32976,19591,37189
32958,19564,37097
32992,19556,37047
33060,19514,37032
32968,19497,37127
32781,19463,37189
32808,19471,37077
33000,19484,36813
33222,19520,37001
33272,19549,36937
33344,19562,36868
33156,19577,36886
32920,19563,37005
32920,19551,36892
33016,19500,36835
33104,19482,36924
33045,19463,36508
32816,19504,36637
32784,19513,36772
32748,19543,36722
32704,19594,36576
32585,19566,36724
32548,19538,36420
32677,19521,36541
32852,19479,36625
33064,19501,36313
33137,19473,36524
33004,19484,36556
32896,19534,36572
32881,19553,36413
33001,19596,36565
33080,19572,36244
33108,19539,36461
33036,19517,36605
32848,19510,36587
32696,19471,36484
32700,19458,36405
32806,19484,36580
32928,19504,36556
32970,19541,36380
32876,19556,36460
32740,19569,36368
32628,19555,36461
32585,19508,36370
32500,19488,36465
32320,19459,36416
32320,19457,36468
32500,19493,36228
32864,19513,36400
33095,19537,36496
33156,19553,36452
33144,19564,36359
33140,19549,36550
33156,19498,36351
33260,19487,36433
33456,19450,36410
33648,19471,36539
33924,19494,36497
34141,19526,36420
34352,19546,36407
34512,19586,36156
34492,19556,36420
34520,19527,36272
34592,19513,36503
34648,19460,36405
34776,19465,36301
34884,19449,36381
34860,19486,36354
34676,19503,36309
34392,19563,36349
34120,19570,36281
34020,19559,36368
33976,19556,36247
34025,19521,36257
33244,19487,36348
31852,19477,36412
31349,19485,36295
31056,19492,36356
30244,19525,36469
29872,19548,36303
30197,19559,36103
30825,19556,36271
31315,19530,36479
31629,19519,36292
31732,19493,36390
31854,19452,36272
32040,19463,36461
32348,19479,36306
32620,19511,36407
32756,19534,36351
32816,19567,36349
32804,19546,36490
32649,19535,36428
32456,19498,36427
32273,19477,36278
32108,19443,36461
32192,19481,36458
32460,19483,36357
32732,19523,36178
32824,19543,36463
32908,19547,36436
32896,19556,36575
32832,19518,36418
32788,19517,36484
32736,19461,36516
32716,19463,36504
32816,19450,36452
32989,19493,36615
33064,19501,36669
33056,19548,36671
33012,19556,36468
32942,19545,36601
32846,19529,36569
32780,19498,36649
32760,19477,36716
32704,19461,36566
32712,19446,36647
32800,19487,36636
32881,19504,36756
32920,19537,36525
32908,19543,36633
32844,19563,36654
32772,19532,36591
32748,19502,36629
32697,19455,36631
32592,19455,36503
32552,19455,36585
32684,19488,36437
32832,19497,36456
32944,19525,36519
33076,19556,36345
33064,19549,36462
33040,19517,36158
33016,19504,36289
33013,19456,36345
32932,19455,36116
32912,19463,36249
33028,19468,36319
33128,19496,36157
33176,19556,36180
33240,19538,36172
33220,19551,36029
33100,19512,36123
32965,19498,36145
32804,19449,35784
32844,19463,36014
32961,19456,36133
33096,19473,35932
33256,19516,35989
33480,19532,35927
33632,19537,36039
33720,19540,35792
33752,19508,35941
33656,19505,35959
33460,19455,35844
33336,19439,35924
33372,19455,35807
33452,19479,35900
33524,19484,35887
33620,19535,35823
33742,19553,35911
33740,19530,35884
33704,19505,35876
33588,19500,35773
33388,19460,35828
33276,19437,35913
33180,19436,35548
33172,19479,35761
33224,19490,35911
33112,19519,35727
32888,19553,35796
32740,19522,35697
32668,19529,35876
32576,19487,35796
32502,19439,35664
32476,19433,35706
32612,19471,35722
32798,19463,35584
33103,19476,35676
33236,19526,35615
33276,19524,35692
33252,19534,35625
33057,19518,35770
32824,19474,35553
32657,19450,35637
32536,19438,35597
32480,19437,35665
32536,19468,35508
32600,19500,35599
32576,19518,35576
32620,19547,35565
32553,19529,35325
32433,19497,35500
32374,19493,35573
32304,19445,35428
32224,19444,35492
32264,19440,35390
32412,19453,35445
32617,19495,35460
32736,19518,35415
32900,19543,35449
32973,19532,35353
32932,19492,35423
32832,19493,35259
32604,19451,35446
32372,19430,35272
32329,19443,35356
32376,19457,35293
32584,19480,35333
32820,19538,35333
32840,19535,35344
32773,19522,35172
32644,19496,35236
32512,19481,35369
32642,19449,35181
32788,19416,35268
32656,19450,35110
32460,19455,35236
32392,19485,35244
32504,19530,35192
32822,19537,35165
33108,19519,35180
33012,19513,35262
32764,19471,35198
32596,19440,35271
32484,19447,35069
32460,19439,35153
32556,19468,35238
32644,19473,35105
32660,19529,35017
32704,19539,35116
32748,19550,34823
32728,19501,35053
32777,19467,35159
32700,19457,34830
32590,19431,35036
32608,19436,34921
32750,19451,35050
32932,19486,34948
33052,19505,34921
33098,19538,35028
33032,19522,34873
32920,19523,35012
32832,19474,34723
32648,19425,34932
32524,19433,35057
32492,19421,34901
32544,19462,34697
32592,19479,34892
32668,19538,34927
32764,19527,34853
32773,19511,34640
32700,19506,34733
32668,19463,34812
32596,19428,34813
32480,19424,34757
32404,19423,34880
32424,19453,34703
32444,19468,34751
32512,19514,34703
32644,19514,34773
32716,19524,34657
32704,19483,34600
32542,19463,34421
32456,19429,34670
32444,19410,34516
32356,19418,34709
32381,19445,34521
32529,19470,34605
32613,19521,34600
32596,19521,34463
32644,19503,34564
32720,19492,34487
32740,19463,34468
32672,19445,34280
32596,19413,34468
32480,19441,34336
32460,19455,34541
32540,19503,34325
32648,19506,34404
32732,19511,34292
32716,19508,34445
32673,19478,34261
32676,19461,34339
32548,19417,34310
32366,19416,34390
32356,19414,34198
32484,19460,34064
32628,19487,34243
32805,19530,34119
32865,19530,34293
32788,19498,33967
32761,19484,34183
32732,19446,34277
32714,19423,33909
32582,19404,34037
32528,19430,34229
32516,19437,34087
32626,19477,33959
32700,19503,34102
32732,19524,33974
32668,19512,34155
32439,19475,33941
32260,19461,34048
32172,19420,34074
32184,19444,33919
32272,19424,34017
32428,19432,33901
32540,19490,34049
32576,19506,33908
32572,19526,33743
32524,19503,33961
32497,19492,33900
32502,19454,34039
32556,19412,33828
32580,19418,33938
32668,19422,33802
32748,19452,33908
32652,19471,33916
32560,19495,33881
32520,19523,33794
32576,19496,33872
32652,19494,33821
32708,19444,33905
32605,19406,33754
32408,19405,33864
32304,19407,33961
32392,19445,33780
32608,19469,33877
32804,19492,33856
32952,19510,33892
33124,19488,33735
33096,19473,33876
32952,19441,33873
32864,19417,33959
32837,19393,33869
32920,19411,33722
33012,19429,33913
32932,19476,33941
32820,19497,33813
32744,19497,33940
32796,19497,33886
32820,19463,33957
32772,19455,33716
32704,19407,33890
32628,19411,34000
32400,19407,33996
32296,19437,33809
32368,19455,34020
32504,19487,34065
32650,19514,33938
32837,19484,34068
32820,19459,34183
32620,19451,33989
32540,19399,33856
32480,19405,34124
32544,19406,34137
32664,19449,34112
32696,19457,33934
32752,19486,34106
32792,19493,34092
32736,19499,33951
32572,19459,34133
32384,19445,34199
32296,19396,34028
32318,19398,34247
32421,19419,34137
32588,19431,34361
32612,19449,34191
32660,19492,34264
32748,19491,34330
32800,19493,34285
32760,19456,34096
32640,19449,34303
32564,19396,34277
32521,19421,34196
32640,19400,34360
32844,19431,34236
33148,19463,34284
33336,19481,34295
33524,19489,34263
33728,19494,34239
33750,19462,34124
33800,19445,34242
34084,19391,34220
34464,19392,34139
34552,19394,34332
34584,19424,34132
34589,19434,33977
34567,19493,34177
34536,19484,34127
34208,19485,34069
33753,19457,34137
33436,19453,34244
33518,19410,34124
33729,19391,34005
33953,19425,34063
33528,19441,33870
32284,19462,34007
31384,19498,34153
31392,19495,33945
30916,19501,34076
30260,19466,34005
30068,19436,33968
30384,19413,34079
30788,19402,33955
31208,19401,34028
31558,19431,34073
31904,19461,33980
32184,19472,33997
32366,19495,34062
32520,19471,34009
32586,19463,34093
32500,19421,34073
32484,19399,33917
32464,19377,34052
32628,19406,33992
32756,19417,34132
32784,19459,34047
32778,19470,33958
32762,19490,33902
32780,19461,33993
32776,19453,33860
32568,19414,34007
32165,19396,33780
31928,19369,33904
31958,19395,33885
32196,19407,33872
32448,19449,33769
32612,19463,33836
32676,19487,33791
32700,19459,33599
32640,19448,33829
32526,19411,33671
32372,19396,33878
32364,19381,33561
32377,19384,33647
32444,19426,33799
32480,19451,33605
32552,19492,33447
32584,19479,33629
32632,19460,33574
32556,19450,33500
32548,19408,33316
32374,19369,33489
32296,19375,33574
32348,19375,33405
32380,19408,33151
32388,19428,33324
32532,19479,33281
32788,19463,33150
32956,19481,33181
32940,19437,33196
32812,19407,32837
32748,19380,32983
32900,19357,32994
33044,19388,32669
32968,19401,32727
32920,19447,32732
32940,19469,32449
33004,19483,32532
33048,19456,32412
32900,19445,32433
32660,19402,32219
32568,19407,32263
32609,19369,32169
32728,19372,31990
32894,19409,32018
32992,19434,31959
33152,19479,31892
33216,19476,31592
33184,19458,31711
33088,19444,31599
32948,19401,31607
32864,19380,31396
32868,19359,31318
32977,19389,31247
33120,19434,31087
33201,19444,31212
33224,19455,31156
33184,19480,31044
33204,19444,31017
33214,19434,30743
33135,19400,30829
32948,19365,30869
32760,19372,30701
32598,19372,30524
32541,19415,30432
32625,19423,30487
32805,19463,30424
32964,19455,30311
33064,19461,30261
33120,19423,30244
33144,19401,30118
33104,19360,29909
33060,19365,29792
32848,19390,29669
32664,19396,29604
32634,19444,29682
32620,19447,29606
32614,19463,29499
32610,19441,29324
32624,19425,29409
32637,19391,29163
32600,19369,29056
32580,19366,28933
32580,19371,28872
32516,19401,28911
32372,19417,28820
32144,19454,28729
31973,19456,28596
31934,19445,28460
32005,19428,28343
32148,19388,28324
32152,19360,28198
32220,19381,28074
32384,19365,27997
32557,19401,28031
32669,19417,27892
32748,19460,27664
32724,19448,27588
32733,19446,27505
32712,19410,27409
32741,19393,27357
32732,19354,27399
32677,19358,27305
32652,19364,27224
32700,19401,27076
32828,19420,27100
32928,19452,26858
32904,19444,26790
32789,19460,26840
32676,19428,26659
32472,19403,26688
32232,19361,26492
32208,19348,26449
32412,19366,26496
32708,19382,26409
32832,19421,26332
32868,19443,26141
32784,19463,26245
32676,19441,26189
32528,19426,25956
32432,19388,26072
32452,19346,25944
32620,19365,25981
32724,19368,25783
32776,19389,25784
32789,19410,25791
32956,19460,25559
32996,19445,25669
32964,19425,25542
32808,19415,25569
32676,19386,25372
32572,19344,25482
32796,19349,25329
32952,19354,25303
32888,19383,25175
32780,19428,25140
32767,19444,25130
32852,19463,25191
32864,19434,25128
32764,19406,24937
32664,19391,25074
32636,19352,24969
32628,19377,24829
32604,19372,24823
32620,19398,24897
32644,19418,24780
32564,19457,24803
32356,19449,24740
32124,19441,24551
31968,19404,24552
32016,19378,24548
32190,19340,24599
32516,19342,24518
32840,19350,24524
32936,19379,24431
32908,19401,24277
32912,19445,24380
32937,19435,24258
32976,19428,24233
32872,19394,24260
32801,19378,24082
32792,19372,23999
32660,19351,24020
32558,19376,24096
32598,19385,24044
32696,19413,24003
32824,19428,23895
32896,19452,23919
32668,19435,23844
32477,19394,23893
32404,19374,23815
32192,19328,23687
32197,19335,23622
32292,19345,23700
32392,19379,23653
32660,19397,23687
32862,19447,23614
32676,19428,23534
32505,19430,23431
32284,19391,23428
32350,19365,23463
32424,19330,23525
32616,19333,23488
32844,19356,23437
33016,19361,23393
33088,19408,23397
32884,19431,23248
32452,19428,23282
32237,19418,23353
32060,19389,23300
31852,19376,23241
31592,19344,23261
31712,19327,23093
32036,19362,23145
32552,19370,23175
32916,19406,23141
33281,19423,22996
33420,19431,23137
33392,19404,23087
33384,19399,23104
33260,19356,23036
33109,19342,22949
33020,19323,22912
33096,19346,22850
33221,19382,22826
33236,19386,22838
33056,19431,22739
32804,19463,22713
32520,19421,22694
32276,19402,22700
32232,19356,22643
32292,19345,22648
32348,19325,22769
32556,19372,22727
32665,19374,22654
32816,19391,22623
32997,19433,22661
33116,19422,22512
33064,19429,22618
32996,19386,22606
32920,19353,22557
32782,19333,22535
32820,19317,22484
32904,19344,22386
32992,19356,22513
33072,19414,22416
33152,19437,22485
33080,19440,22284
33008,19408,22349
32928,19401,22441
32864,19352,22365
32808,19353,22432
32808,19331,22241
32868,19356,22337
32892,19377,22390
32836,19384,22412
32732,19443,22230
32728,19431,22290
32856,19417,22392
32948,19376,22373
33125,19367,22416
32988,19338,22242
32629,19345,22340
32444,19334,22386
32564,19358,22381
32848,19401,22440
33148,19428,22297
33220,19416,22329
33012,19424,22479
32858,19378,22427
32668,19343,22527
32313,19325,22365
32136,19315,22460
32220,19339,22567
32476,19366,22534
32864,19383,22600
33108,19417,22554
33172,19408,22652
33132,19414,22508
33100,19389,22573
32992,19358,22713
32942,19313,22708
32916,19319,22692
32960,19356,22614
32928,19354,22677
32852,19388,22745
32744,19434,22862
32605,19415,22869
32376,19389,22853
32301,19376,22909
32484,19350,22803
32812,19307,22852
33140,19307,22884
33444,19349,23003
33680,19349,23028
33920,19390,23041
34120,19396,23025
34288,19422,23107
34404,19382,23110
34368,19370,22978
34296,19333,23039
34378,19314,23105
34617,19329,23210
34884,19326,23201
35204,19335,23236
35420,19386,23294
35636,19401,23127
35860,19424,23249
35904,19400,23361
35768,19388,23354
35748,19335,23317
35564,19335,23398
35224,19318,23453
34552,19373,23332
33456,19369,23428
32612,19388,23552
32492,19424,23549
31852,19427,23612
30761,19397,23515
30304,19367,23570
30600,19340,23625
31240,19309,23722
31692,19319,23738
31904,19339,23783
31980,19344,23878
32058,19381,24004
32165,19423,24053
32264,19416,24081
32341,19408,24053
32302,19364,24193
32124,19348,24164
31871,19319,24128
31889,19331,24211
32250,19325,24385
32608,19342,24423
32768,19380,24391
32804,19388,24519
32820,19401,24612
32788,19377,24455
32684,19368,24486
32563,19326,24611
32452,19317,24744
32428,19304,24738
32476,19308,24785
32400,19340,24893
32257,19385,24992
32344,19407,24980
32421,19410,24926
32494,19378,25041
32660,19346,25225
32756,19325,25291
32736,19313,25351
32704,19296,25383
32686,19308,25400
32708,19347,25543
32800,19365,25408
32848,19396,25459
32852,19407,25490
32756,19369,25543
32629,19357,25756
32457,19325,25791
32434,19299,25821
32332,19305,25839
32232,19345,25872
32384,19329,25905
32546,19374,25937
32728,19397,25949
32972,19383,25959
32932,19386,25989
32953,19360,26002
33080,19311,26001
32981,19302,26037
32868,19311,26019
32845,19301,25973
32877,19336,26105
32936,19357,26051
32924,19396,25949
32804,19407,25996
32760,19378,26151
32704,19358,26169
32609,19303,26153
32676,19298,26119
32794,19285,26261
32876,19319,26069
33004,19327,26133
33124,19368,26296
33220,19377,26215
33248,19385,26369
33280,19363,26357
33352,19345,26217
33400,19302,26282
33329,19295,26425
33288,19278,26340
33224,19305,26492
33224,19325,26356
33188,19374,26359
33206,19379,26412
33188,19390,26541
33140,19386,26568
33072,19335,26584
32996,19313,26577
32860,19317,26596
32924,19290,26533
33183,19321,26612
33348,19329,26543
33188,19351,26657
32896,19377,26639
32741,19391,26580
32692,19362,26694
32720,19329,26789
32736,19316,26653
32640,19278,26816
32512,19289,26733
32545,19295,26828
32736,19342,26742
32660,19364,26894
32485,19369,26928
32434,19378,26793
32448,19354,26993
32488,19348,26913
32500,19317,27015
32376,19313,26904
32273,19285,27079
32244,19292,27162
32322,19332,26993
32392,19348,27189
32432,19389,27147
32424,19378,27116
32386,19353,27288
32368,19343,27234
32414,19300,27196
32464,19272,27399
32504,19292,27324
32524,19302,27509
32516,19334,27388
32485,19368,27392
32512,19393,27588
32414,19381,27632
32296,19369,27584
32272,19325,27624
32316,19310,27791
32436,19270,27655
32528,19283,27701
32669,19289,27919
32840,19324,27868
32968,19389,27892
33040,19385,27964
33112,19394,28068
33124,19354,28144
33146,19341,28236
33065,19292,28086
32676,19288,28302
32372,19268,28340
32408,19301,28297
32556,19317,28517
32814,19365,28368
33064,19368,28415
33172,19383,28623
32970,19353,28661
32780,19335,28729
32704,19295,28749
32670,19278,28725
32716,19282,28767
32904,19287,28985
33100,19315,29021
33169,19359,29039
33230,19362,28948
33156,19374,28964
32756,19375,29025
32520,19332,29262
32416,19309,29207
32456,19268,29269
32656,19270,29369
32932,19303,29541
33108,19307,29465
33185,19349,29436
33192,19397,29452
33060,19373,29692
32984,19343,29628
32889,19327,29877
32884,19287,29714
32856,19278,29913
32737,19269,29886
32628,19282,30074
32700,19329,29913
32884,19359,30117
33016,19383,30162
33118,19365,30220
33193,19348,30245
33116,19345,30208
32956,19291,30409
32837,19283,30452
32744,19262,30408
32745,19293,30383
32756,19335,30436
32764,19356,30399
32885,19384,30647
32948,19366,30601
32908,19367,30804
32880,19331,30727
32780,19305,30701
32620,19273,30857
32508,19266,30885
32484,19295,31039
32601,19311,30883
32782,19353,30909
32920,19359,31077
32821,19366,31136
32640,19338,31125
32508,19321,31268
32476,19276,31166
32548,19270,31119
32740,19254,31362
32948,19285,31377
33104,19303,31509
33096,19338,31487
33064,19350,31353
32980,19359,31620
32796,19332,31631
32700,19309,31610
32617,19277,31847
32544,19265,31696
32512,19259,31872
32588,19291,31900
32676,19306,31870
32704,19347,32082
32756,19356,32076
32744,19360,31917
32622,19327,32180
32528,19327,32215
32428,19294,32277
32284,19255,32336
32192,19261,32247
32288,19270,32445
32564,19301,32399
32840,19333,32536
33000,19360,32672
32900,19347,32600
32656,19336,32588
32501,19301,32548
32509,19285,32804
32532,19246,32763
32620,19281,32872
32892,19277,32972
33052,19295,32989
33012,19338,32971
33036,19351,33217
33022,19364,33093
32800,19344,33257
32644,19303,33205
32640,19284,33444
32564,19249,33189
32572,19258,33477
32612,19269,33484
32660,19311,33671
32824,19349,33415
33136,19342,33621
33240,19362,33822
33100,19332,33724
32943,19321,33727
32816,19276,33692
32740,19269,33736
32800,19259,34015
33024,19269,34055
33112,19301,34055
33156,19321,34221
33144,19359,34252
33000,19345,34212
32816,19347,34191
32612,19303,34412
32496,19261,34485
32464,19253,34535
32397,19246,34604
32316,19279,34638
32364,19305,34709
32500,19321,34772
32584,19364,34807
32608,19349,34777
32508,19316,34941
32366,19317,35054
32256,19262,35073
32167,19257,35236
32180,19238,35281
32276,19273,35373
32460,19287,35357
32628,19344,35304
32744,19354,35188
32758,19370,35529
32696,19325,35566
32567,19284,35532
32453,19266,35572
32376,19239,35856
32417,19261,35935
32495,19267,35807
32557,19285,35933
32540,19330,36000
32548,19332,36044
32556,19342,36056
32608,19311,36124
32680,19291,36165
32768,19281,36199
32736,19236,36250
32716,19258,36303
32812,19255,36546
33020,19305,36649
33248,19318,36709
33516,19332,36688
33792,19335,36705
34005,19300,36709
33968,19298,36839
33880,19245,36895
33872,19250,36964
33944,19239,36959
34254,19279,36969
34606,19289,37220
34972,19332,37134
35156,19335,37041
35256,19353,36983
35237,19307,37337
35000,19303,37325
34542,19257,37536
34148,19269,37408
34088,19253,37271
34244,19308,37556
34272,19311,37715
33476,19341,37725
32304,19349,37736
32012,19353,37911
31540,19316,37908
30460,19304,37872
29980,19268,37988
30068,19255,38043
30336,19244,38148
30756,19254,38218
31380,19297,37916
31940,19325,38196
32356,19348,38287
32470,19327,38407
32484,19320,38548
32490,19291,38535
32390,19252,38648
32228,19231,38615
32260,19236,38713
32276,19255,38629
32308,19292,38860
32408,19308,38941
32480,19357,38650
32532,19332,39003
32500,19311,38908
32488,19277,39215
32436,19245,39230
32388,19260,39079
32484,19237,39175
32598,19253,39268
32612,19268,39029
32692,19325,39409
32704,19330,39543
32712,19320,39508
32741,19322,39237
32724,19277,39620
32648,19238,39768
32584,19234,39853
32508,19222,39821
32448,19254,39636
32560,19279,39904
32588,19305,39972
32568,19341,39936
32516,19322,40055
32536,19301,40077
32525,19269,40148
32545,19249,40100
32624,19229,40198
32688,19239,40241
32624,19252,40225
32652,19303,40279
32712,19306,40431
32748,19313,40385
32840,19317,40280
32840,19285,40000
32800,19280,39996
32644,19240,40311
32464,19212,40497
32388,19246,40341
32453,19249,40054
32461,19266,40428
32437,19319,40353
32633,19319,40469
32928,19303,40560
33141,19301,40490
33200,19261,40465
33229,19240,40335
33148,19224,40064
33068,19240,40439
33124,19243,40471
33160,19260,40464
33208,19311,40381
33392,19322,40576
33280,19336,40575
33068,19287,40517
32968,19275,40516
32904,19221,40439
32996,19218,40140
33193,19220,40496
33340,19250,40479
33437,19261,40416
33500,19303,40512
33520,19303,40592
33480,19317,40679
33440,19281,40702
33432,19274,40653
33360,19231,40527
33148,19199,40564
33088,19210,40575
33060,19249,40605
33092,19258,40607
33220,19308,40544
33280,19315,40557
33288,19300,40743
33274,19290,40623
33152,19271,40508
33004,19246,40353
32852,19207,40593
32773,19229,40628
32652,19241,40545
32604,19286,40740
32620,19295,40605
32813,19301,40289
32917,19316,40607
32884,19281,40700
32776,19248,40583
32704,19234,40284
32624,19217,40639
32502,19244,40502
32380,19239,40647
32328,19271,40647
32376,19282,40666
32532,19310,40687
32564,19293,40519
32556,19284,40660
32472,19267,40508
32416,19205,40798
32520,19217,40581
32349,19212,40327
32045,19231,40644
31937,19260,40509
32032,19295,40725
32236,19333,40580
32668,19301,40653
32904,19269,40503
32836,19264,40749
32616,19217,40544
32624,19196,40620
32644,19210,40629
32785,19223,40641
33004,19263,40239
33128,19305,40575
33141,19300,40625
33017,19292,40492
32821,19273,40158
32656,19241,40543
32613,19217,40484
32576,19221,40468
32569,19213,40639
32636,19260,40425
32780,19262,40492
32932,19286,40343
33061,19310,40508
33056,19291,40549
32981,19285,40455
32793,19247,40361
32596,19221,40250
32600,19196,40021
32668,19209,40396
32828,19221,40327
32916,19259,40319
32909,19284,40452
32876,19338,40301
32768,19292,40229
32792,19268,40293
32920,19257,40245
32948,19204,40150
32920,19207,40368
32957,19197,40317
32976,19227,40324
33024,19247,40199
33028,19296,40125
32980,19292,40105
32904,19300,40087
32760,19265,40055
32692,19249,39753
32504,19207,40117
32432,19205,40078
32548,19197,39951
32600,19236,40016
32588,19244,40080
32752,19289,40106
32964,19287,40020
33024,19296,39943
33020,19265,39620
32888,19258,39980
32656,19204,39960
32372,19204,39917
32256,19232,39894
32248,19224,39543
32408,19257,39791
32665,19273,39776
32796,19305,39623
32745,19315,39783
32600,19272,39405
32562,19246,39407
32557,19197,39721
32656,19206,39564
32880,19198,39677
33086,19252,39769
33088,19249,39741
33036,19300,39743
33072,19295,39629
33016,19303,39673
33032,19254,39665
33028,19253,39583
32860,19220,39452
32776,19181,39364
32780,19205,39048
32797,19222,39349
32838,19239,39423
32845,19294,39249
32816,19297,39088
32620,19280,39268
32465,19270,39240
32502,19250,39175
32621,19194,39033
32696,19199,39190
32672,19214,39204
32596,19220,39185
32678,19252,39148
32848,19269,39098
32960,19295,39033
32976,19276,38884
32893,19266,38691
32712,19228,38673
32480,19200,38759
32364,19199,38599
32431,19196,38788
32533,19233,38609
32696,19260,38716
32757,19285,38599
32760,19280,38645
32708,19287,38724
32684,19250,38631
32714,19239,38551
32684,19223,38612
32648,19175,38578
32716,19199,38492
32724,19212,38383
32661,19245,38353
32732,19294,38332
32897,19292,38036
33076,19285,38023
33077,19246,38092
32997,19232,37993
32860,19214,38013
32776,19180,38233
32796,19205,37878
32996,19214,38197
33188,19237,38165
33296,19279,38107
33328,19279,38032
33308,19285,38116
33292,19249,38151
33192,19242,38124
33108,19209,38052
33064,19180,38124
33084,19195,37959
33069,19244,37890
33152,19250,37965
33212,19269,37922
33144,19288,37828
33018,19267,37807
32880,19269,37545
32756,19241,37852
32508,19205,37821
32424,19173,37817
32560,19196,37791
32672,19207,37713
32660,19254,37780
32652,19268,37795
32540,19296,37716
32332,19281,37648
32293,19244,37703
32440,19233,37378
32589,19183,37442
32672,19183,37420
32672,19185,37557
32696,19209,37521
32792,19250,37485
32864,19280,37653
32922,19271,37497
32968,19280,37744
32894,19243,37693
32752,19235,37639
32680,19191,37320
32688,19207,37337
32724,19186,37548
32872,19203,37689
33070,19232,37676
33140,19256,37551
33048,19283,37340
32904,19284,37636
32813,19236,37628
32768,19210,37562
32813,19188,37623
32928,19195,37497
33060,19196,37684
33264,19223,37733
33524,19218,37767
33852,19264,37725
34105,19287,37770
34192,19255,37753
34280,19241,37621
34352,19205,37582
34372,19185,37454
34400,19163,37349
34456,19192,37409
34524,19221,37681
34732,19242,37661
34944,19281,37623
34933,19280,37779
34648,19301,37639
34384,19245,37589
34152,19236,37457
33948,19189,37524
33796,19184,37573
33196,19201,37492
32216,19208,37442
31956,19240,37735
31620,19271,37649
30638,19287,37637
30189,19266,37711
30453,19253,37804
31040,19230,37797
31356,19172,37895
31588,19176,37870
31968,19190,37797
32316,19196,37717
32548,19237,37748
32660,19295,37748
32704,19281,37505
32628,19277,37826
32388,19247,37797
32264,19204,37741
32268,19174,37961
32152,19165,37793
32256,19175,37633
32508,19188,37852
32676,19233,37854
32732,19258,37895
32732,19279,37854
32720,19246,37919
32800,19239,38019
32708,19204,38047
32336,19188,37906
32076,19159,37830
32044,19183,37953
32260,19185,37953
32712,19232,37841
32964,19255,38105
32824,19257,38044
32740,19255,37760
32629,19226,38036
32432,19205,38009
32412,19151,37973
32544,19162,38023
32698,19205,38165
32972,19185,38149
33212,19231,38111
33365,19241,38032
33400,19266,37980
33200,19239,37727
33100,19241,37990
33109,19214,37947
33029,19165,38060
32926,19167,37885
32998,19202,37845
33012,19180,37732
33225,19223,37839
33440,19242,37779
33421,19268,37681
33188,19241,37791
33057,19237,37758
33030,19196,37577
33088,19193,37437
33140,19154,37511
33156,19181,37452
33220,19205,37324
33257,19231,37361
33144,19242,37389
33074,19266,37271
33004,19236,37164
32792,19224,37137
32748,19204,37037
32908,19153,36828
33048,19162,36983
33181,19153,36927
33308,19183,36855
33365,19224,36820
33512,19239,36761
33612,19252,36733
33626,19254,36661
33608,19231,36589
33629,19221,36740
33604,19159,36463
33609,19141,36591
33504,19173,36676
33560,19196,36534
33708,19205,36276
33840,19247,36475
33880,19239,36508
33776,19243,36578
33684,19207,36512
33524,19196,36348
33356,19148,36418
33156,19161,36329
33168,19150,36448
33296,19182,36319
33524,19224,36140
33721,19247,36340
33668,19277,36260
33412,19238,36353
33268,19245,36381
33230,19194,36295
33204,19169,36116
33198,19144,35953
33008,19165,36224
32909,19168,36196
32924,19215,36103
33112,19235,36176
33408,19248,36188
33372,19228,36072
33128,19209,35936
32924,19181,36113
32818,19155,36032
32776,19135,35943
32754,19173,36072
32828,19174,36032
32876,19202,36013
32957,19238,35983
32964,19251,36085
32928,19226,35877
32900,19215,35673
32856,19177,35912
32712,19169,35988
32656,19142,35605
32704,19143,35807
32748,19191,35936
32816,19223,35756
32801,19234,35623
32700,19247,35745
32572,19228,35761
32608,19223,35649
32684,19191,35694
32684,19147,35624
32584,19144,35733
32472,19145,35565
32628,19173,35452
32785,19197,35604
32796,19234,35548
32760,19261,35478
32764,19236,35607
32868,19221,35621
33040,19169,35471
33080,19152,35389
32985,19135,35464
32968,19160,35375
32996,19167,35484
32936,19217,35420
32945,19229,35271
32896,19257,35389
33030,19231,35473
33064,19200,35349
32876,19197,35341
32732,19142,35319
32640,19167,35188
32676,19157,35406
32812,19163,35295
32897,19205,35205
33056,19229,35076
33160,19241,34967
33016,19223,35220
32868,19228,35168
32704,19177,35268
32638,19132,35172
32745,19136,34927
32820,19143,35132
33008,19183,35124
33188,19220,35244
33280,19231,35030
33385,19228,35129
33460,19236,35116
33392,19212,35156
33232,19171,35113
32948,19150,34832
32772,19131,35079
32728,19146,35172
32712,19175,35058
32692,19192,34807
32668,19243,35060
32680,19231,35045
32688,19233,34991
32560,19205,35061
32453,19166,34777
32504,19157,34991
32500,19137,34916
32416,19141,34986
32569,19175,34866
32752,19191,34709
32877,19242,34691
32928,19229,34941
32853,19231,34893
32701,19189,34823
32648,19173,34812
32497,19129,34823
32452,19143,34904
32556,19160,34834
32652,19167,34890
32672,19207,34948
32600,19226,34764
32456,19243,34647
32428,19215,34591
32348,19204,34823
32276,19165,34780
32313,19153,34679
32420,19128,34893
32548,19155,34889
32768,19166,34804
32960,19200,34543
33017,19246,34741
33056,19229,34476
32964,19234,34722
32664,19183,34469
32248,19179,34703
31988,19133,34666
32045,19132,34653
32284,19136,34628
32700,19163,34567
32900,19187,34514
32940,19237,34605
32984,19245,34676
32908,19211,34711
32820,19199,34660
32685,19157,34561
32552,19140,34460
32424,19122,34566
32420,19157,34413
32538,19165,34590
32672,19192,34627
32877,19215,34564
32996,19238,34364
32888,19207,34471
32696,19197,34437
32692,19152,34311
32716,19139,34517
32736,19117,34311
32704,19151,34401
32637,19165,34352
32572,19220,34351
32612,19234,34288
32752,19222,34237
32828,19222,34199
32816,19181,34106
32714,19175,34292
32612,19135,34252
32540,19122,34223
32668,19133,34157
32900,19168,34244
33065,19181,34169
33052,19236,34311
33048,19241,34121
33028,19240,33941
32808,19186,34161
32640,19154,34105
32504,19134,34225
32608,19117,34055
32792,19145,34024
32916,19158,34094
32716,19199,34108
32528,19214,34093
32584,19236,34087
32640,19203,34045
32804,19187,34025
32796,19144,34084
32532,19139,34120
32372,19116,33975
32444,19128,33895
32680,19167,33822
32812,19183,33856
32852,19231,34068
32768,19220,34029
32708,19199,34032
32692,19182,34124
32612,19141,33960
32480,19130,33842
32392,19108,33956
32356,19133,33996
32444,19148,33964
32621,19189,33823
32741,19249,34060
32781,19221,34068
32696,19232,33837
32624,19184,33981
32534,19162,33988
32420,19111,34037
32382,19125,34104
32494,19146,34011
32600,19164,33997
32756,19197,34012
32928,19209,34085
32953,19217,34087
32884,19193,34020
32860,19177,34061
32933,19162,34036
33100,19111,34036
33356,19108,34055
33596,19112,33936
33772,19161,34126
33860,19172,34145
34016,19207,34137
34220,19253,34145
34324,19212,34146
34356,19161,34112
34224,19147,34054
34017,19141,34051
33980,19119,34055
34072,19149,34104
34080,19149,34097
33832,19205,34281
33824,19213,34267
33836,19237,34196
33876,19205,34125
33588,19194,34102
32408,19156,33948
31212,19133,33994
30952,19131,34007
30477,19157,34017
30000,19156,33991
30096,19196,34000
30454,19207,34265
30925,19216,34285
31405,19197,34198
31720,19173,34390
31960,19144,34381
32164,19125,34423
32272,19127,34225
32364,19132,34079
32456,19169,34359
32429,19183,34229
32540,19207,34445
32504,19231,34343
32288,19207,34396
32108,19169,34328
32097,19156,34413
32085,19111,34311
32208,19121,34430
32374,19119,34401
32460,19154,34511
32608,19173,34477
32749,19207,34329
32876,19200,34239
32764,19196,34431
32516,19163,34444
32296,19149,34564
32184,19126,34414
32288,19111,34272
32404,19108,34439
32565,19152,34586
32708,19171,34549
32816,19207,34494
32864,19223,34439
32820,19176,34287
32672,19169,34548
32464,19127,34498
32370,19113,34581
32464,19099,34544
32508,19137,34284
32597,19156,34524
32681,19165,34415
32720,19200,34543
32784,19196,34527
32796,19180,34407
32772,19183,34212
32652,19144,34425
32646,19124,34289
32620,19101,34471
32612,19124,34300
32621,19164,34150
32617,19172,34273
32656,19193,34300
32704,19214,34091
32704,19175,34148
32641,19172,33975
32452,19132,34120
32360,19115,33900
32381,19097,33948
32544,19131,33992
32736,19154,33769
32904,19165,33807
33040,19211,33860
33100,19199,33604
33031,19177,33628
32944,19188,33676
32804,19135,33583
32684,19093,33543
32720,19111,33372
32868,19119,33396
32860,19135,33461
32801,19188,33177
32920,19197,33285
32976,19186,33295
32940,19189,33260
32924,19152,33219
32732,19118,33031
32677,19102,33133
32813,19087,32992
33052,19119,33044
33316,19135,33031
33380,19156,32924
33324,19201,33041
33248,19185,32868
33056,19195,32684
32904,19148,32868
32686,19116,32785
32534,19095,32843
32516,19086,32644
32620,19111,32480
32736,19118,32640
32832,19167,32647
33104,19182,32631
33128,19183,32530
32980,19188,32313
32809,19153,32449
32712,19127,32271
32536,19089,32425
32388,19079,32179
32316,19119,32245
32316,19128,32091
32372,19149,32087
32576,19191,31932
32645,19177,32031
32436,19175,31914
32192,19135,31981
31972,19109,31719
31886,19084,31629
32004,19094,31716
32124,19103,31628
32125,19141,31668
32148,19162,31402
32224,19178,31239
32240,19188,31366
32244,19161,31409
32208,19153,31133
32200,19109,31193
32220,19117,31009
32344,19092,31032
32496,19101,30783
32548,19141,30924
32520,19159,30747
32508,19204,30854
32448,19201,30648
32376,19165,30437
32226,19153,30564
32101,19111,30464
32098,19081,30293
32288,19099,30327
32516,19103,30351
32736,19121,30220
32901,19183,30181
33013,19189,29969
32892,19180,30027
32696,19160,29956
32328,19151,29704
31822,19113,29802
31616,19081,29797
31864,19101,29549
