ECG,EDA,RR
32336,26862,44092
32264,26853,44254
32316,26875,44127
32368,26903,44294
32420,26922,44280
32484,26963,44261
32500,26956,44253
32472,26951,44385
32416,26921,44285
32421,26909,44295
32392,26872,44486
32456,26871,44507
32620,26887,44453
32840,26913,44404
33116,26941,44524
33407,26969,44565
33612,26968,44585
33736,26956,44544
33752,26935,44550
33688,26913,44629
33700,26881,44487
33896,26876,44724
34204,26898,44620
34528,26922,44679
34793,26948,44532
34968,26981,44486
35132,26989,44802
35196,26975,44669
35192,26961,44806
34944,26940,44567
34820,26923,44850
34604,26921,44836
34460,26945,44635
34105,26952,44925
33068,27005,44908
32144,27028,44748
31952,27036,44949
31205,27021,44967
30056,27012,44764
29628,26978,44985
29864,26947,45063
30312,26942,44980
30832,26949,44876
31364,26969,45154
31872,26998,45191
32258,27027,45293
32494,27022,45301
32592,27014,45140
32596,26993,45393
32569,26973,45409
32526,26942,45508
32496,26937,45477
32557,26959,45485
32652,26981,45628
32752,27005,45575
32832,27036,45549
32820,27036,45437
32740,27022,45756
32596,26998,45693
32540,26977,45784
32560,26953,45831
32572,26951,45933
32672,26966,45902
32748,26989,45919
32850,27015,45756
32956,27045,46087
32976,27046,46087
32956,27038,46132
32880,27005,45988
32796,26987,46324
32713,26959,46367
32636,26950,46343
32645,26975,46456
32784,26996,46479
32878,27029,46316
32976,27051,46649
33024,27057,46697
32988,27039,46621
32892,27015,46823
32812,26997,46794
32686,26974,46740
32624,26973,46944
32680,26989,46949
32799,27004,46895
32916,27037,47039
33024,27063,47057
33028,27063,46896
32997,27055,47020
32928,27031,47013
32880,27003,47104
32897,26983,47072
32972,26983,47093
33052,26996,47056
33108,27020,46804
33164,27052,47092
33236,27076,47100
33276,27081,46951
33304,27071,47100
33240,27042,47106
33142,27020,47023
33092,26984,47106
33112,26993,46904
33200,27013,47092
33280,27036,47103
33345,27065,47000
33456,27085,46793
33484,27090,47039
33444,27076,47095
33412,27060,46902
33372,27037,47125
33313,27005,47028
33340,27005,47111
33420,27017,47075
33508,27044,47100
33672,27071,47117
33776,27092,46824
33816,27097,47057
33812,27087,47108
33760,27065,46809
33708,27033,47072
33684,27015,47096
33716,27015,47124
33784,27031,47092
33868,27053,47045
33940,27080,46964
34012,27110,47079
33948,27108,47000
33892,27095,47040
33809,27071,46790
33748,27044,47036
33668,27025,46924
33640,27015,46991
33605,27041,46693
33636,27063,46913
33660,27095,46884
33640,27119,46628
33569,27124,46885
33504,27117,46901
33418,27084,46572
33372,27053,46876
33316,27029,46848
33221,27033,46700
33192,27059,46853
33212,27079,46800
33232,27108,46724
33256,27125,46812
33244,27133,46784
33182,27117,46644
33096,27094,46813
32992,27067,46695
32864,27046,46720
32836,27046,46495
32849,27054,46716
32908,27093,46684
33020,27119,46719
33096,27141,46599
33072,27143,46701
33004,27133,46665
32832,27111,46693
32704,27077,46529
32620,27062,46660
32609,27060,46652
32640,27077,46648
32660,27105,46396
32744,27133,46676
32820,27158,46660
32832,27159,46625
32800,27140,46599
32752,27117,46633
32680,27097,46550
32640,27069,46349
32668,27070,46625
32700,27085,46549
32712,27119,46501
32812,27140,46589
32892,27170,46516
32850,27167,46342
32800,27149,46575
32672,27133,46503
32608,27105,46559
32544,27087,46525
32556,27086,46501
32636,27108,46398
32728,27131,46582
32784,27156,46480
32864,27180,46471
32884,27176,46542
32832,27164,46453
32737,27143,46279
32596,27116,46536
32572,27092,46516
32592,27101,46428
32652,27116,46462
32708,27139,46503
32816,27167,46429
32909,27188,46286
32977,27189,46479
32896,27175,46439
32808,27151,46421
32728,27126,46445
32702,27099,46309
32756,27109,46458
32824,27124,46408
32928,27143,46384
33004,27179,46356
33080,27202,46180
33084,27205,46393
33008,27182,46343
32952,27164,46343
32860,27129,46289
32725,27111,46060
32700,27111,46284
32696,27133,46278
32780,27157,46260
32844,27188,46209
32880,27206,46244
32944,27205,46215
32944,27190,46120
32868,27175,46026
32840,27143,46103
32748,27122,45985
32737,27124,46132
32824,27142,46031
32912,27175,45967
32984,27199,46012
33036,27205,46026
33064,27216,45908
33024,27202,45732
32888,27179,45924
32768,27159,45860
32668,27135,45612
32668,27131,45897
32718,27158,45809
32800,27179,45804
32928,27206,45725
32984,27229,45528
32948,27228,45773
32908,27212,45719
32860,27185,45620
32746,27154,45460
32652,27143,45685
32632,27143,45588
32704,27167,45524
32784,27189,45509
32904,27216,45558
32973,27237,45543
32960,27239,45439
32916,27221,45447
32876,27195,45404
32832,27174,45173
32750,27151,45423
32708,27159,45357
32740,27173,45278
32820,27199,45076
32912,27226,45380
32961,27249,45260
32984,27244,45293
32918,27229,45167
32828,27205,45036
32728,27172,45261
32684,27161,45156
32652,27171,45180
32736,27191,44924
32796,27208,45095
32888,27234,45105
32988,27262,44882
32960,27252,45076
32904,27239,44977
32808,27205,44969
32736,27186,45000
32660,27170,44983
32676,27175,44951
32740,27197,44647
32822,27214,44793
32848,27247,44759
32860,27265,44845
32808,27265,44836
32752,27244,44837
32680,27221,44684
32584,27196,44716
32512,27178,44596
32524,27176,44679
32645,27201,44692
32777,27223,44724
32888,27258,44640
33028,27271,44356
33008,27271,44580
32948,27260,44606
32860,27231,44312
32776,27205,44495
32704,27191,44548
32740,27196,44412
32806,27213,44252
32864,27233,44540
33008,27263,44377
33084,27285,44439
33133,27280,44337
33144,27266,44468
33152,27243,44373
33020,27223,44391
32848,27207,44415
32808,27198,44276
32836,27221,44135
32984,27248,44423
33114,27278,44284
33204,27297,44317
33184,27295,44348
33088,27271,44249
33045,27249,44352
33004,27220,44161
32916,27203,44374
32904,27212,44295
32972,27232,44175
33000,27255,44341
33006,27282,44181
32956,27309,44215
32838,27301,44008
32752,27292,44284
32688,27267,44263
32616,27239,44240
32636,27221,44005
32708,27215,44272
32774,27237,44121
32796,27268,44180
32768,27295,43956
32807,27308,44226
32785,27317,44188
32716,27293,44039
32596,27269,44240
32522,27241,44165
32458,27223,44130
32468,27231,43937
32569,27247,44173
32624,27269,44167
32676,27305,43896
32720,27317,44164
32694,27313,44137
32608,27303,44001
32516,27276,44204
32476,27245,44164
32504,27227,44006
32536,27237,44180
32647,27261,44036
32736,27279,44119
32857,27315,43892
32944,27319,44157
32972,27327,44165
32908,27301,43977
32836,27287,44180
32724,27253,44167
32621,27237,44133
32740,27244,43871
32924,27265,44100
33232,27292,44156
33525,27314,44180
33840,27333,44068
33908,27324,44140
33821,27305,43904
33732,27287,44132
33852,27261,43951
34048,27233,44079
34328,27244,44129
34544,27271,44196
34748,27287,44039
35012,27331,44052
35172,27345,43952
35150,27343,44164
34820,27329,44165
34588,27313,43889
34352,27293,44119
34104,27281,43900
33748,27289,44070
32778,27316,44136
31776,27339,44191
31652,27369,44164
31232,27388,44221
30228,27381,44127
29816,27365,43998
30084,27340,44264
30561,27301,44295
30964,27287,44100
31396,27295,44367
31832,27311,44345
32208,27335,44263
32476,27356,44441
32676,27380,44367
32728,27375,44309
32676,27349,44497
32605,27329,44447
32558,27300,44492
32470,27279,44568
32511,27285,44551
32608,27309,44333
32790,27333,44559
32896,27365,44377
32976,27373,44551
32980,27370,44455
32928,27350,44738
32832,27335,44709
32712,27301,44494
32613,27280,44788
32624,27293,44807
32780,27309,44604
32936,27333,44900
33052,27364,44925
33076,27383,44769
32956,27373,45028
32850,27350,45028
32784,27335,44905
32744,27303,45116
32788,27292,45116
32832,27295,44973
32912,27313,45232
32984,27341,45261
33020,27375,45353
33088,27388,45292
33104,27384,45326
33068,27356,45477
32968,27333,45477
32864,27303,45511
32812,27295,45460
32894,27290,45545
32956,27313,45335
33016,27340,45596
33053,27374,45613
33104,27391,45389
33089,27383,45649
33024,27365,45561
32936,27343,45636
32892,27309,45407
32880,27303,45670
32877,27300,45623
32912,27327,45500
33004,27351,45605
33088,27380,45655
33172,27404,45486
33116,27388,45700
33096,27373,45668
33057,27349,45437
33024,27325,45648
32958,27309,45672
32936,27311,45391
33070,27332,45660
33232,27359,45677
33372,27391,45581
33461,27399,45436
33424,27396,45678
33344,27374,45693
33281,27356,45603
33228,27316,45749
33188,27310,45703
33248,27317,45548
33352,27330,45702
33508,27361,45669
33660,27384,45815
33716,27411,45784
33748,27399,45568
33740,27377,45831
33656,27351,45852
33600,27319,45728
33624,27308,45908
33640,27326,45869
33660,27342,45941
33740,27367,45669
33828,27399,45993
33860,27415,45968
33804,27399,45727
33672,27383,46027
33552,27361,45925
33512,27324,45975
33472,27319,45869
33440,27327,45760
33444,27346,46085
33433,27371,46032
33404,27399,46104
33396,27417,45876
33396,27404,46135
33301,27391,46136
33188,27364,46057
33080,27337,46199
32980,27325,46116
32944,27332,46132
33013,27348,46215
33040,27375,46196
33060,27409,46228
33048,27421,46230
33004,27412,46068
32892,27399,46311
32804,27373,46230
32696,27337,46300
32580,27328,46343
32528,27343,46333
32544,27361,46212
32600,27388,46373
32684,27410,46372
32744,27439,46440
32704,27425,46421
32581,27396,46260
32480,27381,46429
32400,27353,46388
32360,27333,46487
32404,27341,46495
32472,27368,46455
32596,27397,46358
32692,27432,46503
32714,27438,46516
32688,27431,46509
32604,27415,46441
32456,27389,46436
32480,27356,46572
32468,27340,46536
32472,27348,46489
32400,27380,46552
32400,27405,46317
32390,27436,46599
32513,27445,46616
32672,27436,46353
32680,27417,46561
32664,27391,46596
32620,27363,46700
32540,27356,46599
32597,27358,46700
32700,27377,46420
32828,27407,46650
32884,27444,46725
32856,27444,46743
32776,27441,46789
32656,27421,46701
32656,27386,46727
32592,27359,46662
32568,27353,46816
32604,27371,46828
32668,27388,46796
32730,27410,46726
32837,27444,46885
32869,27460,46864
32833,27443,46781
32736,27427,46924
32661,27399,46913
32576,27369,46933
32560,27363,46903
32616,27367,46919
32700,27388,46855
32748,27420,47056
32700,27450,47044
32726,27463,46876
32709,27445,46781
32644,27433,47111
32624,27399,47013
32628,27372,47121
32616,27362,47111
32684,27372,46999
32744,27399,46932
32800,27421,47188
32844,27450,47148
32892,27461,47161
32852,27448,47100
32756,27422,47239
32684,27407,47252
32586,27372,47196
32549,27366,47261
32568,27380,47238
32648,27399,47263
32692,27431,47236
32748,27460,47172
32781,27456,47021
32756,27463,47332
32649,27438,47359
32584,27411,47278
32560,27374,47396
32564,27365,47304
32572,27382,47260
32588,27409,47393
32616,27428,47404
32644,27460,47381
32672,27477,47428
32616,27461,47437
32544,27444,47192
32480,27422,47462
32392,27389,47514
32440,27377,47535
32472,27388,47388
32520,27410,47584
32592,27431,47580
32680,27461,47524
32677,27475,47648
32616,27467,47606
32556,27436,47623
32496,27425,47564
32428,27389,47550
32404,27375,47495
32368,27391,47772
32424,27415,47709
32548,27447,47820
32664,27468,47764
32740,27477,47528
32705,27468,47876
32592,27444,47904
32501,27423,47860
32394,27385,47837
32333,27390,47948
32324,27398,47884
32349,27421,47777
32436,27439,47709
32569,27468,47977
32608,27477,48062
32564,27468,48077
32488,27450,47982
32410,27426,47872
32321,27388,48135
32324,27381,48148
32410,27392,48191
32548,27418,48058
32660,27445,48213
32660,27468,48252
32640,27478,48224
32624,27476,48269
32512,27455,48237
32417,27426,48313
32344,27390,48276
32332,27381,48359
32385,27399,48196
32476,27421,48404
32516,27451,48336
32549,27477,48369
32584,27486,48262
32608,27474,48481
32664,27452,48417
32652,27431,48460
32608,27396,48380
32600,27391,48279
32661,27399,48556
32740,27420,48511
32836,27446,48612
32884,27477,48543
32849,27492,48647
32774,27475,48616
32716,27463,48647
32657,27431,48732
32710,27407,48711
32760,27390,48751
32816,27409,48757
32824,27428,48741
32800,27456,48861
32790,27482,48840
32756,27493,48773
32752,27473,48624
32720,27463,48980
32648,27445,48996
32580,27409,48932
32568,27407,49068
32664,27412,49051
32852,27433,48916
32936,27453,49180
32968,27494,49204
32956,27494,49143
32820,27484,49262
32682,27465,49228
32504,27440,49125
32397,27406,49343
32360,27401,49404
32352,27405,49368
32500,27437,49391
32660,27455,49500
32788,27493,49557
32796,27497,49517
32728,27489,49313
32608,27463,49669
32468,27443,49661
32368,27411,49652
32328,27399,49756
32344,27420,49660
32456,27436,49606
32568,27459,49493
32632,27492,49895
32612,27495,49813
32528,27487,49893
32448,27463,49879
32420,27440,49661
32404,27411,50052
32412,27405,50021
32448,27413,50033
32584,27434,50137
32664,27463,50127
32704,27493,50183
32676,27495,50164
32621,27484,49904
32576,27462,50260
32548,27436,50249
32448,27407,50346
32452,27396,50239
32524,27404,50357
32708,27428,50385
32886,27449,50343
33125,27487,50455
33348,27494,50476
33484,27479,50480
33592,27456,50468
33744,27439,50505
33752,27399,50583
33792,27398,50532
33992,27412,50614
34304,27431,50589
34557,27453,50509
34716,27480,50509
34809,27484,50351
34880,27476,50733
35000,27457,50695
35020,27431,50740
34791,27409,50769
34493,27403,50791
34384,27430,50804
34144,27462,50725
34008,27482,50805
33398,27517,50605
32117,27527,50872
31476,27511,50892
31436,27485,50862
30588,27471,50928
29848,27440,50894
29870,27426,50951
30425,27437,51020
31060,27456,50951
31500,27472,51068
31876,27503,51078
32204,27509,50972
32408,27492,50758
32552,27468,51165
32624,27447,51140
32604,27423,51155
32612,27415,51135
32678,27420,51245
32764,27444,51174
32824,27471,51286
32842,27489,51092
32808,27501,51324
32750,27485,51349
32692,27471,51357
32653,27433,51245
32604,27409,51385
32611,27404,51344
32680,27416,51396
32800,27443,51391
32936,27462,51284
32988,27490,51104
32952,27488,51509
32900,27481,51463
32788,27459,51504
32688,27433,51545
32640,27408,51500
32676,27399,51621
32769,27416,51471
32816,27429,51654
32916,27460,51613
33012,27484,51705
33068,27493,51580
32968,27476,51737
32800,27449,51684
32700,27428,51711
32696,27399,51809
32797,27392,51773
32832,27417,51732
32884,27436,51829
32966,27452,51719
33016,27484,51760
33064,27489,51844
33024,27472,51732
32960,27450,51767
32864,27430,51820
32768,27396,51805
32748,27396,51488
32806,27407,51700
32884,27428,51744
32976,27452,51644
33078,27485,51357
33076,27493,51661
33068,27467,51677
33024,27450,51437
33020,27421,51620
32965,27399,51601
32924,27390,51527
32980,27412,51527
33084,27435,51460
33214,27450,51520
33320,27483,51246
33320,27483,51517
33352,27471,51404
33272,27445,51452
33212,27421,51401
33176,27389,51361
33196,27388,51320
33297,27397,51401
33412,27428,51367
33452,27459,51396
33542,27474,51385
33541,27476,51388
33492,27463,51335
33437,27433,51207
33369,27417,51364
33360,27399,51262
33406,27379,51319
33508,27399,51319
33637,27424,51225
33720,27455,51175
33760,27472,51277
33728,27477,51207
33652,27461,51004
33556,27441,51194
33445,27412,51148
33317,27389,51206
33225,27377,51188
33308,27399,51117
33326,27419,51101
33280,27443,51079
33324,27470,51018
33360,27479,51088
33372,27462,50684
33332,27437,51024
33248,27404,51023
33120,27387,50840
33008,27383,50937
32940,27394,50841
32900,27419,50951
32889,27444,50949
32936,27471,50790
33032,27476,50916
33044,27453,50815
32968,27437,50821
32832,27413,50540
32726,27386,50805
32640,27372,50823
32669,27388,50764
32764,27419,50757
32844,27447,50766
32856,27475,50604
32869,27472,50732
32801,27456,50735
32734,27434,50607
32644,27406,50343
32612,27391,50646
32588,27385,50665
32680,27390,50583
32745,27422,50636
32816,27446,50389
32860,27474,50597
32860,27476,50564
32784,27461,50533
32664,27436,50556
32585,27408,50460
32496,27388,50449
32528,27375,50463
32588,27396,50425
32685,27419,50100
32768,27444,50399
32852,27469,50412
32832,27473,50236
32800,27451,50407
32749,27434,50293
32700,27411,50300
32617,27374,50159
32572,27372,49981
32608,27396,50280
32680,27420,50308
32792,27444,50269
32932,27465,50261
32948,27466,50236
32888,27453,50140
32812,27426,50245
32804,27404,50223
32768,27377,50113
32772,27375,50183
32853,27389,50183
32944,27419,49840
32968,27440,50133
32964,27467,50112
32936,27467,50148
32860,27459,49876
32744,27431,50111
32684,27405,50055
32720,27379,50039
32732,27375,50084
32764,27394,50047
32840,27415,50064
32870,27441,49920
32936,27468,50046
32920,27468,49935
32897,27455,50012
32808,27428,49829
32704,27399,49968
32645,27382,49860
32652,27375,49876
32716,27394,49853
32796,27413,49789
32854,27444,49844
32952,27458,49711
32933,27464,49732
32860,27444,49665
32805,27428,49646
32769,27394,49646
32704,27373,49486
32724,27368,49506
32784,27388,49497
32856,27405,49412
32968,27436,49380
32989,27458,49286
32960,27461,48903
32805,27442,49228
32700,27423,49108
32568,27392,49005
32540,27369,48997
32560,27372,48933
32636,27391,48774
32724,27414,48449
32677,27436,48748
32656,27460,48568
32640,27456,48576
32601,27444,48468
32628,27421,48230
32688,27389,48341
32720,27365,48210
32704,27363,48215
32785,27380,48069
32853,27411,47808
32856,27434,47972
32885,27454,47828
32832,27452,47826
32740,27434,47623
32636,27417,47660
32578,27386,47609
32540,27359,47424
32544,27356,47439
32621,27373,47152
32736,27399,47321
32848,27429,47164
32948,27448,47109
32972,27457,46847
32880,27436,47023
32756,27404,46948
32704,27383,46623
32660,27352,46788
32645,27359,46712
32704,27369,46504
32766,27399,46311
32809,27424,46535
32893,27451,46404
32912,27447,46375
32876,27424,46236
32780,27407,45992
32656,27365,46161
32612,27349,46108
32600,27356,45940
32686,27367,45719
32812,27384,45927
32878,27416,45812
32932,27433,45799
32876,27438,45575
32772,27428,45687
32676,27398,45615
32588,27367,45477
32572,27342,45495
32628,27342,45220
32702,27361,45415
32752,27389,45344
32850,27406,45190
32929,27432,45201
32893,27429,44919
32876,27421,45188
32840,27395,45063
32736,27366,45016
32612,27343,44773
32584,27340,45036
32656,27357,44868
32744,27381,44928
32844,27410,44798
32936,27426,44908
32980,27431,44753
32956,27412,44864
32852,27388,44644
32760,27363,44860
32704,27338,44739
32672,27340,44812
32784,27356,44662
32965,27380,44847
32980,27409,44783
33016,27429,44861
32984,27433,44749
32856,27412,44916
32768,27391,44852
32632,27359,44965
32598,27340,44741
32784,27333,45092
32929,27359,45088
33013,27373,45100
33008,27409,45262
33009,27423,45273
33072,27428,45399
33072,27412,45284
33238,27386,45620
33128,27354,45617
33004,27333,45752
32916,27335,45717
32925,27353,45692
33046,27375,46087
33084,27399,46095
33108,27429,46284
33032,27421,46372
32916,27406,46255
32744,27383,46649
32640,27345,46660
32648,27329,46841
32692,27332,46964
32764,27343,47077
32862,27373,47224
32940,27404,47293
32980,27414,47239
32880,27415,47661
32690,27399,47685
32564,27370,47920
32496,27346,47911
32489,27324,48180
32592,27324,48331
32716,27343,48444
32785,27367,48615
32892,27395,48645
32976,27412,48924
32940,27407,49012
32880,27398,49141
32800,27365,49341
32774,27338,49473
32712,27320,49573
32680,27323,49640
32708,27333,49703
32839,27356,49607
32941,27391,50117
33000,27405,50117
33008,27402,50295
32996,27382,50413
32944,27364,50470
32928,27332,50649
32936,27309,50695
33032,27311,50677
33252,27333,50519
33504,27356,51004
33796,27381,51028
34004,27399,51117
34046,27391,51175
34080,27377,51036
34180,27340,51367
34344,27317,51444
34476,27303,51429
34584,27308,51538
34660,27319,51628
34844,27349,51719
35016,27381,51756
35056,27406,51757
34741,27399,51542
34420,27383,51924
34144,27365,51908
33824,27335,51935
33472,27329,52071
32448,27328,51922
31342,27356,52152
31220,27369,52123
30940,27413,52224
30197,27431,52159
29972,27424,52324
30324,27392,52263
30808,27369,52412
31148,27341,52320
31368,27319,52405
31596,27311,52468
31889,27327,52470
32125,27357,52588
32281,27379,52573
32364,27399,52555
32368,27394,52519
32332,27375,52639
32397,27351,52692
32320,27322,52743
32140,27303,52758
32044,27301,52728
32108,27316,52813
32236,27340,52667
32468,27366,52477
32600,27388,52860
32640,27378,52854
32592,27359,52892
32564,27332,52903
32548,27311,52911
32464,27293,52844
32415,27295,52965
32460,27309,52892
32590,27335,52716
32752,27357,52999
32832,27375,52927
32836,27371,53036
32788,27357,52961
32732,27329,52662
32676,27307,53076
32596,27279,53030
32548,27280,53112
32600,27300,53117
32700,27325,53143
32764,27348,53127
32856,27367,53077
32864,27361,52743
32812,27345,53159
32717,27319,53191
32624,27292,53097
32553,27271,53172
32468,27271,52764
32457,27292,53165
32548,27317,53061
32656,27346,53140
32890,27358,52712
33000,27353,53081
32884,27332,53063
32650,27313,53076
32543,27279,52998
32504,27263,52615
32617,27264,52999
32800,27284,52879
33024,27308,52973
33096,27334,52887
33148,27351,52517
33152,27359,52897
33045,27320,52783
32956,27308,52852
32936,27284,52832
32896,27263,52770
32908,27261,52713
32952,27277,52628
33000,27301,52559
33056,27333,52694
33068,27348,52695
33020,27338,52608
32988,27321,52690
32984,27300,52655
32962,27271,52632
32950,27244,52579
32997,27248,52533
33078,27271,52487
33088,27295,52606
33228,27327,52645
33332,27340,52620
33312,27346,52536
33224,27314,52632
33093,27293,52551
32996,27260,52236
33020,27247,52628
33081,27241,52640
33168,27270,52656
33236,27287,52583
33280,27325,52614
33324,27335,52599
33309,27329,52588
33228,27311,52660
33124,27285,52660
32972,27254,52724
32892,27239,52733
32884,27238,52660
32928,27261,52709
32916,27280,52789
32916,27311,52728
32944,27323,52684
32841,27317,52743
32804,27296,52706
32732,27277,52517
32632,27251,52444
32548,27231,52817
32560,27237,52844
32564,27254,52892
32556,27275,52761
32552,27307,52705
32612,27317,52901
32612,27317,52814
32513,27295,52928
32404,27273,52892
32324,27241,52783
32296,27225,52908
32364,27234,52824
32472,27247,52921
32577,27270,52824
32628,27308,52579
32616,27322,52917
32676,27311,52911
32572,27284,52857
32557,27270,52871
32512,27238,52868
32473,27220,52847
32522,27228,52860
32620,27248,52900
32724,27271,52829
32844,27303,52868
32900,27319,52797
32892,27301,52454
32792,27287,52836
32740,27264,52767
32644,27226,52839
32624,27212,52825
32608,27221,52565
32645,27245,52812
32753,27270,52824
32812,27300,52677
32832,27316,52777
32740,27303,52684
32684,27287,52628
32704,27256,52757
32712,27226,52719
32652,27214,52679
32584,27223,52381
32608,27236,52688
32676,27271,52596
32788,27295,52644
32832,27301,52516
32784,27293,52261
32741,27271,52612
32728,27250,52487
32649,27225,52572
32540,27211,52460
32528,27212,52525
32556,27236,52440
32716,27255,52508
32796,27285,52124
32784,27294,52487
32833,27288,52381
32841,27263,52471
32808,27247,52404
32764,27217,52204
32676,27201,52413
32628,27206,52276
32664,27226,52327
32754,27245,51982
32840,27274,52292
32928,27292,52306
32928,27284,52119
32857,27257,52231
32788,27237,52111
32692,27204,52033
32604,27192,52133
32672,27196,52023
32816,27220,52023
32892,27239,52064
32948,27271,51926
32948,27280,51956
32933,27276,51911
32808,27248,51869
32660,27229,51903
32580,27204,51837
32388,27185,51751
32352,27194,51719
32440,27209,51389
32512,27237,51745
32564,27257,51620
32672,27281,51702
32724,27268,51591
32734,27252,51287
32680,27220,51588
32540,27193,51552
32396,27179,51500
32388,27180,51143
32372,27207,51460
32416,27220,51372
32520,27259,51412
32628,27270,51296
32740,27261,51124
32704,27239,51300
32628,27206,51224
32516,27186,51137
32516,27173,51196
32588,27181,50969
32637,27193,51116
32748,27213,51104
32768,27244,50848
32756,27260,51002
32692,27244,50912
32568,27229,50796
32484,27207,50908
32440,27175,50765
32450,27164,50845
32480,27164,50652
32488,27193,50769
32512,27218,50725
32584,27241,50431
32660,27248,50636
32628,27238,50597
32620,27224,50490
32588,27196,50517
32524,27174,50397
32440,27151,50361
32432,27156,50392
32485,27184,50260
32548,27207,50284
32540,27233,49948
32480,27245,50228
32404,27231,50103
32277,27212,50136
32220,27191,49925
32177,27156,50065
32224,27143,49913
32302,27149,49972
32444,27168,49740
32520,27194,49892
32596,27226,49823
32644,27237,49708
32652,27223,49719
32624,27207,49624
32656,27179,49596
32624,27149,49629
32608,27134,49513
32688,27143,49505
32776,27165,49356
32829,27185,49443
32832,27221,49415
32776,27224,49217
32764,27218,49368
32836,27197,49255
32884,27172,49300
32852,27137,49237
32720,27132,49137
32692,27134,49191
32692,27161,49076
32780,27176,49133
32916,27208,49029
32948,27226,49069
32896,27214,48903
32830,27188,49004
32736,27165,48976
32680,27135,48832
32580,27118,48901
32620,27135,48860
32688,27143,48846
32824,27175,48844
32872,27211,48472
32836,27212,48807
32672,27207,48719
32576,27186,48735
32473,27164,48439
32380,27130,48708
32320,27113,48660
32288,27125,48692
32365,27140,48557
32469,27160,48324
32592,27189,48583
32624,27206,48596
32584,27190,48317
32486,27173,48532
32352,27143,48605
32212,27117,48487
32192,27111,48567
32228,27110,48511
32284,27131,48546
32380,27157,48508
32496,27185,48255
32600,27195,48471
32584,27185,48518
32484,27162,48232
32320,27134,48518
32132,27118,48416
32098,27097,48468
32192,27111,48141
32400,27124,48440
32584,27149,48482
32708,27175,48276
32789,27181,48457
32752,27175,48463
32592,27153,48277
32436,27130,48447
32296,27093,48413
32276,27091,48301
32380,27095,48437
32620,27109,48340
32980,27141,48285
33393,27173,48396
33712,27169,48352
33904,27153,48340
33828,27140,48380
33696,27113,48347
33804,27078,48202
34116,27067,48344
34540,27074,48368
34868,27088,48016
34908,27124,48253
34768,27161,48337
34764,27167,48246
34784,27161,48228
34616,27140,48094
34304,27116,48295
34196,27091,48194
34066,27082,48247
33914,27103,48118
33332,27127,48284
32012,27150,48228
31232,27190,48196
31152,27186,48256
30488,27177,48165
29960,27153,48284
29984,27132,48263
30352,27090,48182
30752,27079,48270
31048,27087,48225
31456,27108,48293
31904,27133,48092
32264,27156,48236
32512,27167,48292
32629,27157,48150
32588,27126,48255
32456,27103,48196
32356,27071,48287
32268,27060,48020
32304,27072,48263
32432,27089,48300
32574,27113,47973
32664,27137,48313
32680,27155,48308
32608,27132,47965
32520,27111,48215
32484,27088,48219
32472,27052,48279
32481,27050,48289
32556,27052,48292
32680,27077,48252
32756,27095,48316
32869,27127,48297
32917,27128,48343
32852,27117,48336
32716,27101,48198
32652,27073,48348
32575,27039,48365
32552,27032,48029
32616,27049,48292
32644,27068,48188
32669,27090,48359
32712,27117,48391
32797,27124,48391
32788,27109,48369
32652,27089,48276
32504,27061,48436
32436,27039,48408
32440,27020,48364
32520,27034,48404
32557,27053,48349
32548,27076,48376
32609,27106,48421
32657,27111,48401
32680,27100,48096
32704,27079,48329
32648,27052,48361
32532,27020,48117
32504,27007,48316
32540,27023,48309
32668,27045,48260
32756,27067,48260
32840,27101,48100
32832,27103,48204
32776,27091,48117
32704,27065,48168
32688,27045,48097
32716,27008,48135
32766,26997,48110
32805,27008,47937
32772,27037,48032
32804,27055,47949
32944,27085,47911
33132,27085,47980
33173,27076,47911
33137,27052,47933
33084,27031,47977
33052,27001,47937
33060,26991,47788
33157,27007,47897
33216,27023,47916
33244,27050,47623
33276,27083,47828
33268,27084,47861
33212,27064,47751
33232,27047,47900
33176,27029,47804
33101,26988,47841
32970,26980,47549
32869,26993,47879
32864,27015,47879
33008,27037,47842
33252,27068,47824
33452,27071,47796
33448,27057,47872
33380,27038,47667
33244,27013,47875
33116,26978,47852
33032,26973,47845
32978,26982,47825
33036,27005,47653
33076,27028,47783
33076,27053,47748
33008,27057,47815
32888,27050,47623
32748,27026,47808
32669,27002,47700
32644,26965,47727
32586,26959,47759
32692,26976,47685
32848,26997,47751
32909,27020,47679
32872,27051,47512
32796,27051,47736
32684,27037,47679
32596,27015,47628
32576,26993,47388
32560,26961,47701
32532,26953,47609
32580,26971,47664
32636,26989,47504
32709,27010,47674
32790,27045,47554
32864,27044,47623
32776,27031,47344
32637,27009,47607
32551,26986,47530
32528,26956,47568
32600,26947,47280
32736,26956,47508
32800,26980,47543
32801,27009,47573
32820,27035,47559
32844,27041,47408
32900,27023,47584
32964,27001,47570
32972,26973,47389
32832,26948,47510
32592,26943,47479
32524,26959,47538
32593,26973,47520
32860,27007,47536
33084,27025,47302
33128,27037,47553
33052,27023,47544
32916,26996,47384
32733,26964,47561
32573,26944,47588
32552,26940,47248
32631,26947,47535
32740,26972,47586
32837,27004,47432
32916,27027,47597
32968,27025,47552
33012,27015,47508
33004,26988,47596
32928,26964,47590
32814,26937,47609
32768,26931,47500
32792,26940,47641
32860,26967,47612
32917,26989,47674
32980,27015,47524
33036,27013,47708
33044,27009,47612
33049,26980,47576
32992,26954,47748
32889,26922,47663
32745,26923,47732
32721,26938,47430
32808,26959,47725
32956,26984,47781
33137,27015,47508
33188,27015,47855
33180,26996,47772
33024,26975,47764
32800,26950,47892
32676,26916,47791
32565,26913,47901
32704,26924,47743
32868,26953,47889
33024,26972,47860
33024,27007,47812
32908,27007,47592
32812,26993,47956
32680,26967,47879
32644,26937,47879
32700,26908,47991
32700,26905,47900
32673,26924,48004
32656,26947,47928
32596,26972,47684
32632,26996,48044
32736,26998,47989
32716,26991,48004
32609,26962,47956
32572,26933,48084
32508,26900,48100
32536,26894,48100
32645,26918,48020
32776,26933,47975
32836,26953,48103
32852,26981,48109
32820,26991,47856
32728,26975,48135
32688,26948,48071
32636,26924,48208
32556,26901,48196
32508,26887,48209
32512,26907,48241
32584,26930,48240
32676,26958,48231
32736,26983,48277
32736,26981,48230
32701,26967,48336
32640,26940,48196
32644,26913,48391
32585,26887,48324
32576,26885,48420
32608,26903,48265
32661,26921,48437
32732,26951,48477
32732,26972,48508
32672,26978,48390
32500,26959,48540
32348,26937,48535
32332,26909,48543
32289,26879,48448
32352,26877,48599
32434,26885,48572
32520,26913,48637
32652,26938,48385
32812,26968,48656
32864,26958,48725
32864,26942,48585
32800,26927,48764
32704,26903,48705
32668,26874,48784
32676,26866,48703
32736,26884,48837
32776,26908,48788
32880,26935,48879
32968,26959,48829
33020,26956,48775
32916,26945,48669
32816,26917,48948
32669,26892,48933
32553,26869,48884
32512,26868,48996
32528,26881,48988
32556,26905,48780
32656,26933,49052
32765,26958,48976
32868,26956,49050
32929,26932,48957
32944,26910,49093
32896,26887,49118
32868,26855,49159
32876,26855,48852
32812,26877,49184
32784,26894,49191
32692,26921,49159
32684,26944,48963
32700,26944,49257
32632,26924,49200
32588,26905,49302
32576,26878,49272
32568,26847,49245
32556,26849,49244
32636,26861,49399
32616,26887,49377
32612,26911,49279
32680,26942,49460
32816,26930,49456
32840,26917,49430
32764,26895,49528
32624,26869,49452
32584,26833,49569
32560,26833,49441
32594,26852,49580
32648,26871,49581
32680,26903,49660
32716,26931,49669
32732,26933,49636
32669,26906,49753
32592,26887,49685
32572,26853,49767
32500,26830,49783
32524,26833,49781
32593,26847,49868
32676,26861,49710
32716,26893,49888
32824,26916,49895
32841,26913,49935
32807,26901,49961
32812,26874,49978
32968,26848,49904
33096,26814,50068
33252,26821,50095
33440,26835,50111
33652,26858,50130
33836,26881,50093
34042,26904,50212
34292,26905,50233
34548,26886,50105
34592,26857,50279
34604,26828,50308
34584,26815,50271
34632,26807,50256
34776,26831,50375
34881,26853,50416
34721,26885,50376
34516,26916,50340
34476,26919,50513
34266,26899,50532
34108,26885,50528
33468,26854,50567
32150,26839,50536
31472,26836,50695
31360,26846,50647
30588,26880,50589
30120,26905,50808
30312,26927,50745
30688,26917,50863
31048,26898,50847
31380,26869,50933
31613,26844,50985
31860,26817,51036
32140,26808,51011
32361,26829,51109
32520,26849,51068
32604,26877,51207
32676,26887,51207
32624,26903,51010
32504,26877,51324
32376,26849,51244
32325,26822,51399
32328,26801,51309
32388,26789,51453
32462,26811,51526
32480,26833,51424
32668,26857,51575
32853,26882,51549
32880,26885,51548
32704,26863,51679
32560,26839,51708
32488,26813,51423
32506,26782,51735
32624,26780,51847
32809,26797,51472
32921,26821,51847
33004,26855,51957
33040,26876,51701
32984,26874,52031
32892,26855,52057
32800,26829,52068
32745,26799,51837
32708,26777,52128
32732,26775,52212
32756,26791,52167
32860,26809,52263
32936,26837,52244
33024,26857,52324
32960,26863,52132
32852,26845,52420
32860,26821,52373
32795,26788,52475
32756,26765,52487
32796,26765,52501
32892,26789,52516
32988,26810,52449
33056,26839,52545
33072,26855,52524
33060,26855,52430
32920,26837,52564
32816,26815,52480
32825,26783,52596
32816,26759,52569
32804,26759,52460
32848,26779,52583
32948,26799,52517
33092,26825,52548
33188,26849,52415
33232,26849,52597
33176,26829,52601
33069,26800,52359
32940,26770,52573
32876,26748,52572
32948,26759,52568
33074,26766,52293
33204,26788,52572
33348,26812,52593
33400,26842,52564
33396,26836,52588
33316,26815,52511
33272,26796,52581
33192,26766,52584
33116,26741,52580
33068,26740,52576
33084,26758,52454
33144,26785,52244
33188,26813,52564
33232,26823,52581
33260,26831,52480
33261,26806,52572
33238,26779,52493
33236,26753,52404
33233,26731,52548
33189,26732,52539
33217,26751,52461
33216,26772,52550
33260,26798,52527
33302,26815,52308
33288,26814,52519
33148,26797,52487
33018,26773,52316
32868,26745,52460
32792,26724,52391
32744,26721,52313
32748,26742,52335
32788,26759,52349
32794,26791,52357
32832,26814,52316
32801,26806,52199
32672,26792,52270
32556,26762,52223
32417,26737,51932
32310,26719,52165
32272,26719,52164
32316,26732,52044
32420,26756,51973
32544,26792,52061
32588,26804,52020
32576,26806,51932
32560,26788,51671
32474,26761,51505
32352,26733,51871
32348,26708,51847
32460,26711,51701
32572,26734,51772
32648,26756,51639
32684,26782,51671
32728,26801,51601
32712,26791,51581
32688,26779,51549
32730,26756,51400
32804,26719,51463
32768,26700,51421
32820,26713,51224
32833,26724,51324
32840,26751,51244
32828,26783,51124
32846,26799,51153
32932,26791,51105
32933,26771,50829
32878,26748,51000
32796,26719,50855
32736,26700,50894
32788,26700,50751
32864,26719,50771
32928,26747,50695
32989,26780,50558
33073,26786,50296
33088,26783,50535
32997,26764,50391
32900,26746,50341
32856,26713,50261
32864,26702,50097
32900,26702,49767
32928,26719,49991
32916,26737,49892
32921,26764,49543
33020,26788,49671
33108,26785,49448
33116,26760,49391
33028,26737,49272
32909,26709,49168
32768,26697,49016
32652,26697,48716
32776,26717,48704
33004,26732,48452
33180,26767,48388
33248,26783,47996
33235,26783,48028
33120,26759,47833
32962,26732,47683
32844,26695,47426
32834,26687,47297
32868,26695,47111
32940,26714,46840
33016,26728,46727
33028,26765,46391
33044,26777,46342
33116,26775,46072
33112,26754,45908
33031,26727,45444
32916,26700,45512
32732,26680,45215
32620,26689,45041
32629,26707,44645
32740,26724,44603
32900,26758,44359
33052,26771,44128
33029,26769,43948
32900,26750,43673
32676,26722,43143
32424,26694,43180
32348,26680,42989
32504,26676,42491
32780,26696,42460
33092,26718,42087
33235,26754,41958
33172,26765,41647
32997,26758,41379
32812,26743,41065
32616,26719,41009
32508,26686,40558
32384,26674,40167
32392,26683,40108
32524,26692,39787
32704,26717,39565
32792,26748,39028
32840,26766,39047
32820,26758,38876
32768,26735,38385
32780,26710,38247
32716,26679,38074
32600,26663,37495
32612,26668,37432
32721,26691,37080
32842,26708,36871
32952,26741,36578
33000,26756,36380
32872,26753,35953
32696,26735,35856
32484,26709,35525
32484,26681,35165
32572,26662,35131
32768,26660,34646
32925,26681,34502
32976,26710,34270
32944,26743,33834
32856,26755,33708
32788,26743,33423
32856,26732,33105
32884,26705,32826
32793,26667,32591
32784,26661,32164
32860,26665,32034
32988,26679,31788
33028,26705,31502
33052,26732,31140
33089,26756,30940
33068,26748,30551
33080,26721,30327
33060,26702,30142
32920,26668,29817
32760,26657,29628
32640,26663,29271
32644,26679,28957
32724,26709,28758
32768,26738,28602
32904,26753,28305
32900,26743,27944
32729,26726,27847
32488,26697,27597
32352,26673,27239
32337,26652,27119
32425,26661,26858
32640,26674,26660
32788,26701,26415
32860,26740,26105
32812,26745,25936
32665,26743,25704
32512,26713,25445
32368,26695,25234
32284,26670,25077
32320,26657,24864
32416,26658,24579
32481,26678,24444
32544,26696,24241
32404,26726,24027
32336,26741,23817
32388,26728,23607
32444,26716,23421
32432,26695,23221
32420,26663,23023
32520,26645,22821
32668,26647,22644
32756,26673,22460
32829,26690,22263
33016,26727,22086
33040,26733,21906
32916,26731,21728
32760,26715,21562
32570,26689,21409
32530,26657,21207
32504,26639,21043
32512,26650,20871
32668,26671,20752
32868,26693,20580
33040,26724,20410
33168,26732,20289
33301,26723,20081
33364,26708,19943
33448,26681,19758
33480,26647,19693
33508,26636,19545
33668,26641,19333
34000,26665,19216
34404,26687,19129
34956,26713,18948
35460,26730,18768
35676,26724,18665
35856,26694,18471
35900,26684,18455
35876,26655,18346
35805,26647,18175
35936,26652,17980
35828,26680,17906
35508,26705,17712
34848,26750,17751
33341,26758,17494
32256,26759,17413
31924,26735,17263
30704,26721,17294
29548,26684,17041
29388,26668,16983
30033,26671,16813
30800,26687,16725
31432,26710,16661
31832,26748,16653
32072,26754,16397
32172,26746,16281
32056,26727,16264
31890,26699,16126
31764,26671,15961
31756,26659,15868
31768,26660,15726
31936,26681,15749
32052,26707,15572
32064,26739,15395
32016,26748,15324
31884,26740,15239
31812,26718,15213
31832,26693,14920
31956,26659,14803
31942,26655,14775
31905,26656,14727
32024,26678,14460
32024,26706,14424
32002,26737,14234
32036,26741,14280
32048,26740,13999
32104,26711,13990
32128,26694,13852
31988,26668,13884
32008,26653,13584
32196,26661,13505
32360,26682,13403
32420,26703,13480
32208,26732,13233
32082,26748,13092
32128,26746,13025
32144,26717,12968
32192,26694,12862
32164,26660,12849
32204,26652,12679
32260,26657,12449
32460,26677,12412
32664,26702,12354
32700,26735,12323
32656,26746,11977
32576,26739,11900
32480,26723,11921
32412,26692,11743
32461,26660,11548
32524,26655,11418
32648,26663,11439
32793,26677,11169
32908,26701,11005
32924,26734,10972
32829,26746,10806
32524,26741,10813
32272,26719,10486
32104,26698,10404
32052,26666,10276
32228,26656,10249
32460,26665,9992
32464,26692,9812
32412,26713,9726
32340,26748,9713
32288,26754,9523
32312,26743,9330
32501,26725,9211
32728,26699,9194
32896,26664,9120
33004,26660,8910
33028,26665,8674
33148,26692,8699
33360,26717,8573
33372,26744,8564
33340,26748,8231
33196,26745,8268
33060,26727,8093
32992,26701,7998
32936,26670,8003
32848,26660,7898
32720,26672,7828
32688,26693,7530
32656,26716,7547
32601,26748,7426
32604,26759,7374
32632,26754,7102
32648,26735,7081
32736,26709,7014
32872,26673,7019
32876,26660,6839
32861,26679,6765
33076,26700,6667
33373,26727,6624
33520,26753,6408
33396,26769,6444
32920,26759,6367
32417,26738,6230
32342,26712,6214
32352,26686,6088
32292,26679,6035
32372,26687,5952
32480,26710,5844
32488,26727,5778
32540,26762,5762
32420,26776,5727
32246,26767,5496
32180,26741,5548
32112,26732,5412
32012,26700,5221
31884,26688,5266
31888,26702,5255
32104,26725,5179
32316,26743,5113
32477,26781,5114
32429,26783,4824
32260,26779,4901
32302,26756,4896
32316,26737,4747
32312,26711,4748
32448,26694,4661
32636,26702,4577
32856,26733,4528
32884,26754,4500
32892,26788,4506
32900,26793,4377
32780,26791,4339
32588,26766,4284
32312,26748,4165
32036,26719,4253
32068,26711,4195
32288,26721,4086
32620,26740,4105
32816,26765,4023
32836,26801,4037
32792,26818,3907
32728,26805,3933
32740,26788,3857
32638,26759,3884
32364,26729,3907
32225,26725,3669
32256,26736,3639
32484,26759,3675
32684,26781,3749
32880,26822,3486
32812,26822,3588
32640,26818,3652
32316,26800,3404
32140,26783,3537
32160,26742,3494
32236,26747,3544
32404,26751,3332
32596,26768,3305
32705,26793,3420
32837,26832,3395
32918,26836,3437
32792,26828,3213
32565,26807,3324
32556,26790,3369
32608,26753,3190
32772,26751,3281
32849,26756,3349
32928,26784,3111
32872,26804,3245
32848,26832,3161
32973,26849,3218
33121,26840,3303
32968,26816,3124
32752,26799,3177
32480,26765,3146
32396,26763,3216
32548,26778,3161
32708,26788,3223
32924,26823,3215
33105,26860,3025
33088,26869,3164
32984,26850,3184
32797,26833,3189
32612,26816,3121
32444,26793,3150
32380,26772,3173
32641,26790,3210
32980,26808,3036
33140,26833,3196
33016,26871,3225
32814,26887,3228
32568,26873,3070
32364,26848,3194
32268,26824,3262
32359,26796,3091
32624,26791,3228
32904,26804,3210
33052,26829,3289
33068,26855,3363
32936,26885,3179
32840,26893,3353
32756,26893,3438
32688,26869,3299
32840,26839,3244
32917,26815,3440
32812,26804,3399
32606,26822,3473
32600,26845,3406
32592,26871,3479
32640,26905,3595
32640,26919,3387
32704,26903,3573
32600,26876,3549
32549,26859,3672
32526,26828,3463
32570,26821,3675
32641,26839,3656
32772,26854,3766
33040,26885,3549
33224,26927,3703
33372,26920,3831
33352,26916,3622
33141,26892,3822
32793,26868,3845
32485,26846,3778
32212,26839,3894
32064,26860,3872
32272,26879,3928
32502,26901,3850
32540,26935,3981
32338,26947,4057
32064,26932,3894
32086,26909,3976
32041,26893,4111
31936,26857,4075
31956,26852,4219
31952,26871,4027
31860,26892,4173
32048,26918,4079
32264,26947,4238
32412,26957,4207
32364,26947,4304
32312,26927,4374
32313,26894,4428
32300,26869,4503
32204,26860,4484
32148,26887,4547
32200,26903,4411
32268,26926,4540
32361,26948,4644
32360,26965,4609
32376,26959,4660
32384,26932,4753
32304,26914,4698
32192,26887,4836
32220,26875,4719
32252,26893,4879
32376,26919,4824
32544,26950,4968
32732,26975,4899
32824,26979,5125
32889,26967,4987
32928,26951,5151
32856,26923,5270
32804,26893,5253
32856,26887,5334
32888,26905,5350
32877,26927,5445
32872,26949,5448
33192,26989,5450
33752,26983,5568
34264,26978,5517
34720,26953,5666
35108,26929,5658
35576,26906,5769
36016,26902,5754
36200,26919,5897
36456,26949,5930
37112,26976,6006
37724,27007,6132
37364,27025,6177
36404,27021,6331
34852,26997,6340
33249,26976,6419
32615,26948,6340
31612,26948,6507
30220,26976,6580
29505,27001,6679
29596,27024,6671
30036,27053,6854
30768,27049,6918
31388,27031,7052
31617,27013,7222
31612,26983,7130
31636,26953,7344
31588,26951,7459
31584,26965,7585
31696,26989,7664
31780,27012,7673
31900,27045,7806
31936,27045,8062
31941,27039,8026
31905,27015,8081
31868,26983,8334
31804,26959,8386
31746,26965,8637
31816,26973,8551
31920,26999,8650
31964,27023,8903
32100,27047,8949
32076,27053,9188
32028,27041,9162
32068,27020,9376
32040,26997,9481
31936,26973,9682
31984,26962,9616
32064,26983,9858
32136,27012,10099
32188,27031,10071
32176,27065,10262
32161,27066,10502
32152,27055,10496
32237,27028,10609
32236,27012,10765
32200,26978,11033
32169,26974,10955
32112,26997,11223
32096,27022,11300
32080,27044,11467
32116,27081,11608
32244,27079,11708
32322,27062,11939
32253,27044,11873
32152,27023,12057
32068,26989,12200
32096,26989,12308
32304,27009,12492
32540,27030,12660
32656,27055,12864
32784,27087,12844
32762,27089,13095
32660,27074,13149
32640,27053,13333
32590,27030,13436
32456,26996,13701
32300,26999,13648
32404,27012,13815
32534,27038,14042
32644,27071,14158
32776,27097,14375
32848,27097,14388
32828,27079,14557
32764,27062,14740
32772,27037,14852
32692,27011,15132
32672,27015,15148
32712,27023,15272
32813,27049,15596
32800,27076,15649
32844,27107,15796
32886,27100,15873
32866,27087,16048
32796,27066,16265
32777,27037,16279
32660,27021,16436
32636,27015,16582
32640,27032,16680
32596,27063,16860
32758,27082,16997
33016,27104,17223
33212,27116,17257
33101,27095,17460
32890,27074,17511
32612,27051,17713
32349,27035,17753
32365,27031,17922
32581,27044,17948
32808,27067,18045
32864,27089,18263
32797,27122,18337
32700,27126,18478
32566,27108,18535
32300,27087,18751
32120,27067,18757
32052,27033,18840
32096,27039,19071
32156,27052,19081
32192,27081,19220
32157,27113,19324
32124,27135,19481
32016,27140,19495
31912,27127,19584
31919,27104,19726
31968,27076,19821
32032,27052,19882
32004,27052,19983
32056,27067,20100
32120,27095,20178
32228,27122,20299
32404,27143,20359
32396,27143,20426
32224,27133,20587
32000,27116,20605
31868,27089,20699
31837,27061,20773
31920,27068,20873
31953,27080,20943
32040,27109,21036
32096,27134,21087
32285,27159,21169
32512,27165,21247
32584,27143,21316
32453,27127,21389
32340,27105,21476
32136,27087,21516
32064,27082,21582
32128,27101,21665
32244,27126,21722
32408,27152,21813
32684,27178,21837
32801,27176,21904
32786,27169,21963
32704,27136,22029
32620,27123,22102
32616,27095,22150
32612,27088,22212
32654,27112,22264
32816,27133,22332
32800,27171,22382
32864,27188,22418
32856,27188,22476
32744,27175,22535
32644,27159,22581
32520,27122,22647
32476,27108,22706
32512,27104,22767
32588,27119,22804
32748,27153,22866
32852,27172,22921
32976,27207,22956
33032,27198,23001
32940,27190,23057
32828,27165,23106
32860,27142,23136
32892,27125,23183
32869,27115,23239
32801,27135,23276
32824,27160,23303
32908,27189,23353
32928,27218,23397
32866,27209,23414
32924,27203,23465
32880,27175,23492
32844,27143,23524
32880,27126,23543
32908,27127,23593
32892,27143,23601
32904,27175,23660
32856,27198,23684
32888,27223,23698
32856,27212,23700
32901,27205,23757
32901,27183,23760
32912,27152,23805
32857,27135,23772
32900,27134,23829
32949,27150,23856
32992,27175,23833
33032,27212,23876
33056,27227,23895
33092,27231,23878
33104,27215,23924
33032,27189,23933
32960,27165,23906
32852,27143,23957
32836,27141,23961
32986,27165,23943
33108,27190,23980
33133,27221,23994
33220,27239,23975
33344,27243,23996
33484,27227,24011
33468,27204,23977
33396,27172,24021
33200,27152,24038
32948,27162,24000
32796,27172,24036
32828,27197,24004
32956,27236,24046
33048,27252,24071
33124,27248,24031
33153,27237,24071
33184,27214,24044
33244,27186,24092
33208,27169,24101
33141,27169,24094
33108,27188,24117
33156,27217,24110
33236,27245,24133
33232,27271,24125
33049,27265,24132
32841,27247,24160
32712,27225,24184
32628,27195,24160
32708,27175,24175
32696,27183,24213
32728,27199,24216
32777,27213,24238
32820,27246,24257
32836,27269,24265
32788,27270,24228
32712,27252,24280
32716,27228,24263
32668,27207,24321
32600,27182,24340
32648,27188,24351
32748,27205,24367
32817,27227,24348
32816,27253,24389
32984,27277,24389
33148,27271,24429
33104,27259,24447
32940,27231,24460
32768,27207,24464
32660,27188,24436
32613,27193,24504
32692,27207,24527
32784,27231,24513
32906,27254,24539
32960,27274,24540
32937,27277,24597
32872,27267,24616
32817,27236,24596
32812,27208,24634
32812,27197,24598
32780,27196,24672
32773,27215,24681
32864,27237,24650
33032,27264,24701
33216,27284,24737
33404,27287,24772
33452,27264,24727
33508,27247,24794
33421,27211,24814
33244,27204,24793
33165,27203,24832
33400,27209,24805
33684,27244,24884
34116,27269,24900
34591,27292,24847
34908,27287,24931
35184,27266,24961
35430,27244,24911
35560,27227,24974
35628,27208,24929
35936,27213,25013
36268,27242,25044
36384,27268,25053
36205,27301,25087
35272,27325,25036
33956,27326,25120
33420,27304,25134
32580,27288,25145
31236,27255,25189
30668,27246,25151
30922,27241,25252
31436,27258,25303
31944,27278,25259
32208,27315,25332
32412,27324,25319
32576,27320,25423
32620,27308,25456
32544,27277,25484
32468,27244,25516
32284,27229,25548
32232,27233,25555
32364,27247,25510
32512,27278,25609
32645,27307,25569
32696,27326,25684
32652,27311,25701
32620,27299,25642
32646,27277,25717
32640,27244,25748
32632,27226,25725
32636,27237,25727
32656,27257,25836
32732,27273,25876
32904,27300,25831
33073,27325,25919
33085,27316,25899
32925,27300,26013
32756,27276,26028
32628,27253,26044
32432,27231,26014
32380,27228,26156
32528,27253,26165
32700,27279,26120
32788,27308,26261
32753,27328,26295
32752,27319,26212
32756,27307,26351
32744,27281,26316
32756,27248,26413
32680,27239,26434
32732,27238,26385
32832,27262,26436
32916,27283,26365
32926,27313,26455
33108,27326,26361
33260,27327,26477
33164,27303,26452
33037,27277,26462
33028,27252,26414
33112,27236,26456
33264,27244,26421
33404,27262,26412
33438,27288,26390
33448,27324,26330
33469,27332,26344
33380,27332,26277
33252,27305,26305
33228,27281,26199
33216,27257,26287
33185,27241,26212
33208,27251,26239
33240,27271,26244
33268,27292,26150
33313,27319,26249
33404,27338,26221
33440,27332,26137
33412,27316,26172
33416,27287,26209
33496,27266,26239
33493,27241,26131
33437,27258,26237
33500,27271,26197
33632,27292,26228
33764,27327,26125
33784,27333,26234
33632,27338,26207
33552,27318,26229
33608,27295,26191
33636,27263,26148
33632,27249,26236
33636,27249,26206
33684,27271,26212
33804,27293,26133
33932,27335,26229
34036,27340,26212
34068,27332,26181
34008,27319,26172
33892,27294,26198
33712,27270,26221
33628,27250,26117
33628,27257,26220
33640,27284,26194
33652,27301,26100
33644,27332,26205
33661,27345,26172
33664,27345,26109
33596,27321,26186
33484,27300,26160
33280,27271,26069
33081,27259,26188
32960,27258,26153
32956,27278,26143
32990,27311,26134
33064,27335,26152
33157,27362,26149
33188,27349,26093
33176,27328,26145
33112,27311,26170
32996,27279,26100
32908,27267,26064
32888,27269,26068
32992,27289,26159
33032,27319,26168
33108,27348,26166
33128,27366,26138
33100,27357,26140
33008,27332,26163
32928,27319,26060
32870,27281,26182
32851,27268,26164
32814,27277,26071
32748,27303,26180
32748,27328,26181
32864,27364,26080
32996,27375,26183
33028,27365,26213
33036,27348,26095
32932,27327,26229
32912,27295,26214
32848,27279,26237
32781,27287,26180
32840,27316,26192
32973,27332,26261
33124,27364,26335
33212,27383,26350
33144,27373,26360
33040,27353,26404
32964,27335,26473
32924,27308,26421
32884,27295,26458
32908,27300,26543
32980,27324,26639
33116,27340,26678
33196,27377,26687
33188,27396,26724
33192,27390,26759
33120,27364,26769
33008,27346,26855
32928,27316,26887
32932,27301,26868
32984,27307,26952
33088,27324,27076
33116,27349,27102
33160,27390,27177
33216,27404,27084
33212,27392,27271
33240,27375,27316
33216,27343,27267
33176,27325,27332
33157,27302,27417
33196,27313,27476
33242,27340,27503
33280,27365,27530
33264,27394,27628
33284,27415,27655
33240,27400,27731
33196,27378,27756
33176,27357,27844
33204,27332,27726
33248,27316,27852
33340,27325,27975
33336,27343,27961
33272,27373,28050
33216,27400,27972
33216,27420,28005
33285,27408,28044
33280,27395,28236
33236,27367,28276
33152,27332,28290
33157,27321,28308
33172,27340,28409
33208,27353,28375
33236,27380,28361
33320,27416,28420
33444,27431,28513
33448,27425,28640
33400,27396,28657
33304,27373,28700
33257,27343,28764
33175,27340,28672
33160,27343,28802
33212,27364,28893
33264,27391,28961
33328,27425,28892
33380,27435,28909
33408,27428,28987
33272,27409,29059
33180,27382,29140
33116,27359,29260
33076,27340,29284
33104,27351,29303
33185,27371,29433
33264,27399,29348
33360,27428,29520
33348,27445,29575
33240,27433,29549
33080,27410,29543
32884,27388,29682
32676,27363,29806
32564,27343,29826
32672,27365,29914
32792,27375,29820
32920,27399,30037
33072,27436,30061
33080,27442,30012
33020,27436,30078
32877,27412,30236
32808,27388,30280
32744,27365,30269
32760,27351,30233
32832,27359,30348
32868,27380,30449
32864,27413,30524
32789,27439,30508
32720,27459,30504
32762,27445,30630
32812,27417,30630
32816,27399,30695
32784,27356,30747
32796,27356,30641
32928,27367,30844
33044,27391,30801
33084,27413,30810
33068,27444,30838
33073,27462,30949
33056,27448,30956
33016,27425,31053
32953,27399,30909
32928,27374,31114
32952,27356,31068
33072,27370,31031
33248,27396,31197
33328,27418,31149
33264,27456,31205
33141,27463,31272
33008,27445,31154
32970,27431,31189
33096,27410,31245
33316,27375,31380
33573,27365,31350
33804,27375,31456
34028,27390,31329
34445,27424,31466
34796,27458,31424
34964,27471,31529
34976,27463,31468
35252,27453,31590
35584,27432,31538
35868,27394,31548
35868,27390,31524
35328,27409,31703
34436,27435,31722
34029,27463,31675
33196,27493,31751
31804,27511,31845
31152,27495,31706
31168,27476,31872
31400,27443,31917
31648,27414,31900
31868,27399,31868
32128,27408,31861
32424,27430,32057
32658,27453,31989
32760,27493,32132
32828,27494,31990
32852,27480,32027
32792,27465,32087
32752,27437,32245
32677,27406,32276
32580,27402,32276
32576,27404,32369
32660,27432,32276
32740,27461,32263
32760,27495,32435
32806,27492,32455
32792,27492,32397
32728,27468,32495
32672,27442,32359
32624,27412,32516
32592,27399,32551
32640,27408,32608
32804,27429,32485
32877,27454,32655
32997,27491,32628
33081,27495,32681
33088,27487,32620
33072,27465,32821
33016,27450,32765
32988,27417,32899
32956,27407,32817
32918,27416,32960
32958,27439,32988
33092,27458,32981
33124,27488,32970
33060,27502,33060
33004,27493,33172
32924,27463,33039
32816,27451,33020
32748,27413,33069
32702,27404,33236
32720,27418,33143
32817,27441,33236
32941,27469,33092
32932,27497,33248
32880,27516,33284
32940,27495,33093
32920,27471,33224
32895,27450,33273
32918,27416,33062
33024,27413,33143
33110,27425,33196
33232,27453,33113
33352,27467,33020
33452,27505,33153
33456,27509,33031
33413,27500,33135
33384,27484,32965
33338,27453,33094
33260,27425,32980
33216,27420,33030
33188,27424,32901
33195,27449,33055
33232,27481,32996
33304,27514,32996
33380,27506,32876
33412,27503,32868
33368,27487,33029
33248,27464,33020
33233,27436,32962
33272,27421,32958
33408,27433,33031
33508,27463,33024
33609,27480,32957
33692,27514,33056
33722,27517,33044
33740,27509,32929
33692,27493,32872
33616,27465,32876
33528,27432,32872
33492,27429,33022
33473,27426,33013
33508,27462,32973
33509,27485,32857
33500,27520,33028
33500,27526,32935
33433,27513,33046
33308,27489,32992
33097,27464,32982
32980,27443,32856
32956,27425,32857
33036,27445,32980
33136,27461,32909
33268,27493,33025
33332,27521,32835
33308,27527,32833
33256,27513,32829
33144,27493,32991
33028,27460,32932
32888,27447,32970
32750,27436,32935
32708,27453,32807
32708,27474,32834
32724,27503,32940
32828,27532,32852
32909,27534,32868
32888,27533,32924
32848,27502,32961
32781,27480,32775
32636,27451,32933
32504,27438,32919
32432,27453,32961
32477,27479,32760
32660,27508,32760
32751,27538,32924
32736,27549,32809
32588,27535,32924
32493,27509,32747
32500,27493,32749
32532,27446,32895
32612,27452,32793
32741,27469,32846
32857,27489,32761
32885,27511,32881
32868,27541,32791
32916,27559,32860
32858,27541,32865
32764,27525,32707
32700,27501,32865
32624,27461,32775
32576,27460,32885
32604,27476,32702
32716,27498,32692
32804,27522,32859
32848,27557,32759
32828,27565,32876
32756,27544,32716
32652,27533,32688
32584,27503,32863
32508,27470,32837
32497,27468,32858
32532,27487,32871
32620,27508,32702
32810,27530,32710
32950,27565,32865
33016,27573,32868
33028,27551,32845
32933,27532,32773
32780,27515,32876
32684,27484,32921
32696,27482,32876
32770,27491,32756
32764,27517,32936
32832,27536,32904
32889,27567,32975
32968,27575,32936
32933,27552,32821
32964,27536,32829
32932,27519,32990
32846,27489,32902
32816,27477,33011
32888,27497,32873
32924,27513,33052
33004,27541,33063
33112,27577,33027
33188,27583,33021
33164,27567,33031
33076,27543,32964
32980,27522,32959
32876,27492,33143
32892,27491,33141
32984,27503,33117
33060,27525,33045
33088,27545,33048
33160,27588,33223
33164,27588,33192
33112,27583,33228
33104,27551,33149
33084,27527,33111
32968,27497,33287
32928,27496,33213
32952,27508,33319
33064,27538,33201
33184,27565,33184
33264,27589,33366
33324,27592,33324
33320,27583,33375
33232,27556,33269
33076,27535,33268
32897,27511,33453
32834,27505,33465
32904,27521,33460
33048,27541,33441
33112,27561,33561
33136,27595,33428
33092,27598,33414
32948,27585,33447
32796,27564,33610
32669,27544,33533
32616,27517,33693
32560,27505,33532
32616,27527,33546
32692,27545,33740
32800,27574,33757
32846,27600,33745
32855,27604,33836
32756,27588,33752
32623,27565,33711
32512,27541,33920
32384,27518,33935
32380,27509,33904
32448,27525,33909
32576,27551,34072
32748,27578,33994
32893,27604,33935
32901,27610,33945
32772,27591,34165
32596,27575,34076
32516,27548,34228
32460,27518,34081
32444,27513,34279
32480,27533,34268
32588,27547,34235
32664,27576,34273
32712,27615,34213
32726,27610,34299
32724,27591,34441
32672,27576,34489
32608,27549,34350
32534,27527,34333
32584,27514,34337
32668,27531,34544
32816,27549,34535
32921,27582,34557
33052,27595,34500
33164,27609,34668
33032,27593,34677
32792,27571,34508
32649,27549,34684
32696,27519,34695
32872,27513,34629
33096,27529,34750
33277,27551,34774
33456,27588,34773
33721,27604,34749
33932,27614,34641
33968,27615,34637
33932,27588,34635
34156,27564,34815
34660,27536,34823
35108,27548,34845
35404,27557,34864
35052,27583,34772
34280,27617,34940
33892,27641,34917
33096,27644,34789
31524,27633,34948
30701,27609,34991
30604,27582,34999
30721,27556,34876
31080,27548,34846
31444,27567,35054
31864,27582,34975
32172,27607,35116
32364,27636,34977
32493,27636,34948
32532,27623,35164
32544,27599,35173
32488,27573,35188
32440,27539,35231
32468,27535,35292
32564,27549,35263
32604,27575,35157
32596,27601,35132
32596,27638,35349
32493,27631,35331
32352,27612,35252
32356,27591,35428
32480,27563,35357
32540,27535,35270
32540,27537,35425
32584,27551,35332
32632,27572,35495
32676,27601,35308
32652,27626,35306
32622,27627,35500
32561,27610,35504
32568,27585,35493
32556,27560,35417
32500,27532,35591
32452,27533,35516
32404,27549,35678
32480,27567,35524
32572,27603,35676
32696,27629,35590
32780,27629,35624
32781,27614,35761
32704,27585,35797
32552,27557,35807
32410,27527,35676
32384,27527,35830
32460,27549,35728
32568,27572,35889
32636,27601,35860
32704,27629,35669
32775,27620,35817
32752,27612,35801
32679,27590,35845
32604,27556,35588
32548,27531,35750
32556,27535,35719
32636,27538,35697
32716,27572,35488
32776,27601,35626
32816,27620,35599
32792,27621,35548
32716,27608,35359
32616,27587,35497
32500,27553,35468
32464,27537,35360
32568,27527,35421
32684,27551,35303
32836,27568,35408
32928,27599,35168
32952,27620,35308
32956,27623,35333
32932,27605,35180
32872,27590,35057
32848,27559,35233
32796,27541,35118
32828,27527,35198
32944,27546,35119
33084,27572,35013
33164,27592,35166
33260,27620,35069
33320,27623,34998
33260,27607,35130
33084,27580,35052
32968,27556,34988
32878,27527,35012
32894,27527,35032
32964,27542,35039
33020,27569,34909
33110,27600,34867
33208,27623,34985
33220,27623,35046
33172,27607,34844
33068,27577,34973
32964,27546,35000
32853,27531,34847
32839,27530,34735
32868,27549,34797
32888,27567,34919
32936,27595,34746
32980,27617,34668
32916,27612,34725
32772,27605,34836
32656,27583,34644
32548,27554,34676
32456,27525,34762
32408,27527,34580
32404,27549,34708
32456,27574,34700
32544,27597,34530
32652,27615,34652
32612,27620,34596
32544,27607,34640
32508,27590,34497
32453,27553,34420
32412,27535,34478
32413,27532,34452
32470,27548,34549
32528,27582,34504
32572,27599,34375
32621,27623,34516
32580,27631,34416
32568,27604,34449
32540,27585,34421
32480,27564,34252
32384,27534,34420
32308,27541,34298
32361,27553,34430
32496,27580,34240
32573,27605,34373
32673,27628,34264
32716,27625,34368
32692,27615,34220
32628,27591,34156
32485,27559,34205
32430,27542,34140
32364,27543,34268
32392,27556,34235
32414,27578,34234
32509,27604,34207
32664,27629,34223
32716,27631,34118
32660,27623,34230
32600,27591,34044
32550,27558,34189
32514,27541,34147
32512,27541,34173
32572,27557,34036
32648,27583,33965
32697,27604,34151
32770,27623,34107
32805,27624,34104
32744,27608,33967
32668,27590,34111
32616,27567,34012
32552,27542,33987
32544,27535,33999
32596,27553,34126
32661,27580,33950
32706,27617,34068
32796,27633,34002
32832,27627,34104
32820,27615,34047
32760,27589,33927
32704,27567,34063
32620,27543,34046
32624,27540,33983
32676,27560,33900
32772,27583,33951
32892,27606,34060
32936,27621,33860
32940,27631,34036
32805,27610,33935
32696,27591,33944
32636,27564,34039
32656,27541,34039
32712,27543,33879
32844,27565,33817
32944,27581,33969
32960,27614,33945
32984,27628,33956
32953,27628,33785
32900,27615,33926
32788,27591,33986
32716,27564,33783
32685,27543,33935
32684,27542,33831
32736,27557,33910
32812,27591,33755
32919,27612,33887
32972,27632,33819
32944,27634,33935
32864,27612,33721
32820,27593,33818
32776,27565,33916
32688,27548,33741
32613,27543,33711
32620,27561,33901
32691,27583,33799
32772,27615,33820
32762,27643,33712
32660,27631,33868
32496,27615,33871
32372,27591,33734
32289,27562,33900
32288,27542,33780
32350,27544,33904
32408,27559,33721
32492,27583,33894
32560,27613,33817
32598,27628,33776
32604,27628,33924
32520,27613,33836
32428,27583,33891
32276,27560,33789
32104,27540,33905
32109,27543,33876
32200,27557,33969
32365,27584,33910
32493,27609,34029
32544,27630,33849
32492,27621,34012
32404,27609,34012
32278,27580,34055
32164,27559,33969
32108,27539,33911
32136,27532,33906
32248,27556,34055
32396,27577,34007
32496,27605,34023
32613,27624,34125
32676,27623,34014
32652,27607,34145
32584,27579,33989
32528,27548,34157
32500,27527,34055
32516,27534,34212
32568,27551,34125
32648,27573,34039
32816,27600,34197
32928,27617,34183
32933,27615,34146
32764,27593,34271
32476,27572,34085
32192,27551,34052
32113,27527,34260
32372,27526,34205
32704,27543,34239
32992,27562,34228
33216,27599,34310
33500,27612,34352
33792,27611,34149
33932,27601,34286
33860,27577,34213
33844,27555,34375
34136,27533,34391
34588,27544,34260
35104,27566,34431
35212,27590,34374
34644,27624,34429
33890,27638,34325
33420,27645,34433
32225,27623,34414
30869,27601,34596
30404,27574,34566
30480,27556,34646
30804,27543,34566
31265,27560,34720
31712,27588,34631
32037,27610,34760
32285,27628,34821
32392,27620,34685
32384,27597,34887
32224,27581,34997
32033,27546,34833
31917,27527,35023
31988,27530,34964
32092,27551,35012
32264,27568,35140
32401,27602,35079
32561,27609,35067
32543,27611,35223
32432,27591,35288
32348,27573,35079
32272,27535,35276
32186,27521,35380
32221,27516,35199
32320,27543,35377
32440,27570,35441
32472,27594,35271
32513,27606,35481
32524,27598,35559
32481,27584,35543
32472,27559,35508
32440,27534,35591
32408,27517,35463
32341,27513,35580
32388,27528,35771
32508,27559,35620
32657,27589,35577
32760,27599,35808
32820,27599,35740
32844,27574,35941
32784,27551,35788
32704,27527,35948
32688,27505,35899
32720,27511,35981
32756,27528,35804
32800,27548,36033
32760,27580,36076
32708,27603,35906
32668,27597,36048
32602,27573,35964
32566,27548,36095
32544,27519,35868
32516,27503,35956
32577,27503,36030
32685,27527,35791
32780,27541,35814
32864,27580,35881
32988,27589,35832
33012,27585,35903
32974,27561,35964
32900,27535,35765
32880,27509,35896
32868,27493,35751
32917,27495,35884
32960,27519,35661
32968,27543,35836
32981,27570,35778
33010,27588,35742
33036,27583,35605
32992,27559,35680
33000,27533,35704
33028,27511,35778
32929,27486,35656
32904,27488,35632
33012,27510,35764
33121,27532,35725
33148,27567,35623
33152,27579,35736
33180,27575,35804
33148,27553,35553
33116,27527,35756
33020,27497,35661
32976,27476,35753
33012,27485,35575
33152,27503,35726
33292,27524,35693
33366,27559,35624
33372,27575,35748
33284,27557,35718
33152,27547,35719
33057,27521,35695
32992,27494,35580
32900,27477,35724
32790,27475,35652
32701,27496,35633
32736,27520,35736
32820,27559,35687
32844,27572,35501
32858,27565,35668
32808,27535,35616
32676,27519,35672
32558,27489,35484
32508,27479,35591
32512,27474,35536
32570,27487,35669
32688,27513,35664
32764,27549,35607
32808,27565,35487
32788,27557,35663
32736,27541,35476
32644,27512,35620
32520,27484,35708
32381,27469,35533
32348,27474,35657
32360,27499,35634
32408,27519,35701
32517,27546,35652
32546,27562,35580
32548,27558,35495
32460,27535,35632
32381,27511,35621
32284,27485,35626
32248,27468,35681
32340,27473,35613
32480,27491,35552
32560,27517,35484
32576,27548,35600
32518,27559,35548
32432,27551,35639
32380,27538,35461
32360,27515,35410
32342,27479,35591
32348,27469,35521
32464,27471,35514
32592,27492,35427
32656,27514,35568
32716,27545,35597
32780,27553,35644
32780,27549,35492
32740,27526,35647
32668,27505,35591
32616,27474,35710
32568,27465,35525
32584,27470,35558
32684,27489,35683
32733,27507,35671
32780,27541,35588
32744,27552,35599
32661,27545,35704
32570,27527,35764
32544,27500,35719
32584,27469,35655
32596,27453,35804
32572,27462,35825
32552,27484,35847
32616,27503,35719
32656,27543,35872
32736,27556,35890
32868,27543,35796
32860,27527,35975
32800,27501,35815
32741,27473,35782
32652,27453,35767
32608,27458,35999
32652,27484,36005
32742,27497,35921
32861,27534,35952
32928,27551,36021
32968,27534,35862
32876,27519,36103
32776,27492,36101
32669,27463,36031
32612,27457,36149
32596,27461,36038
32656,27477,36234
32704,27507,36120
32756,27533,36071
32772,27545,36229
32784,27533,36321
32708,27517,36133
32630,27486,36289
32628,27461,36190
32576,27452,36377
32604,27452,36205
32700,27471,36333
32801,27503,36391
32832,27535,36221
32864,27540,36402
32876,27534,36487
32880,27519,36231
32812,27487,36494
32665,27463,36417
32572,27447,36533
32528,27448,36477
32605,27472,36444
32760,27501,36615
32924,27530,36548
33072,27541,36650
33068,27528,36556
32936,27513,36716
32793,27487,36743
32700,27452,36692
32640,27442,36865
32613,27450,36845
32670,27468,36889
32785,27487,36911
32880,27527,36859
32928,27536,37046
32852,27526,36828
32644,27501,37085
32428,27477,37188
32269,27454,37068
32244,27439,37231
32356,27447,37300
32429,27461,37341
32496,27491,37241
32604,27527,37436
32652,27524,37381
32648,27519,37614
32492,27497,37516
32376,27470,37551
32328,27445,37732
32200,27428,37709
32173,27436,37924
32276,27463,37831
32413,27484,37725
32540,27509,38037
32581,27518,38124
32500,27510,38137
32393,27488,38137
32373,27469,38361
32336,27431,38356
32314,27428,38396
32317,27432,38566
32324,27449,38452
32360,27472,38594
32345,27508,38628
32416,27519,38807
32398,27508,38676
32316,27487,38832
32169,27463,38828
32064,27428,38941
32068,27417,39008
32180,27424,39026
32368,27439,39132
32588,27468,39257
32752,27493,39215
32816,27503,39183
32828,27493,39204
32809,27469,39095
32644,27449,39431
32425,27417,39431
32272,27400,39644
32344,27415,39624
32552,27428,39378
32832,27454,39687
33136,27485,39851
33460,27499,39700
33736,27484,39567
34088,27465,39911
34236,27443,39918
34236,27420,39892
34372,27404,39999
34788,27425,40016
35284,27447,40056
35632,27470,40109
35340,27511,40293
34452,27519,40321
33816,27509,40180
33088,27489,40476
31540,27468,40493
30500,27438,40599
30300,27417,40685
30508,27426,40484
30914,27448,40775
31384,27475,40704
31744,27500,40952
32000,27507,41061
32156,27489,40907
32196,27465,41058
32180,27444,41061
32112,27412,41260
32098,27395,41139
32124,27407,40959
32192,27428,41319
32281,27448,41503
32404,27474,41446
32437,27487,41153
32468,27474,41556
32420,27453,41533
32333,27428,41637
32288,27392,41509
32268,27383,41733
32308,27388,41640
32400,27410,41781
32508,27437,41858
32576,27468,41821
32606,27476,42057
32488,27467,41892
32398,27449,41756
32328,27422,42149
32276,27391,42108
32292,27378,42260
32380,27389,42268
32496,27405,42193
32556,27436,42388
32608,27461,42285
32636,27471,42156
32616,27460,42523
32602,27433,42503
32601,27412,42641
32561,27380,42684
32484,27367,42653
32456,27377,42696
32458,27399,42652
32504,27425,42856
32613,27459,42748
32724,27463,42901
32728,27450,42734
32680,27425,42937
32640,27399,42832
32504,27365,42980
32436,27356,42719
32508,27362,42996
32645,27395,42844
32784,27409,42969
32841,27446,42815
32861,27455,43004
32836,27433,42821
32800,27415,43004
32796,27394,42720
32804,27361,42998
32804,27351,42820
32770,27356,42972
32820,27383,42759
32937,27406,42991
33090,27436,42870
33156,27444,42941
33260,27436,42823
33304,27412,42972
33164,27384,43015
32981,27355,43001
32916,27343,42940
32944,27356,43015
33064,27372,42865
33188,27410,42719
33288,27430,43029
33344,27436,43044
33356,27421,43045
33308,27397,43045
33228,27375,43087
33128,27349,42944
33032,27335,42892
33076,27340,42789
33208,27367,43061
33354,27388,43049
33441,27414,42972
33440,27431,43084
33327,27415,42988
33156,27387,43108
33020,27364,42895
32880,27337,43104
32856,27324,42960
32856,27332,43045
32896,27351,42980
33017,27385,43077
33116,27415,42994
33108,27417,43045
33008,27407,42909
32860,27381,42871
32712,27356,43094
32580,27332,42903
32500,27322,43028
32496,27331,42782
32560,27351,42725
32600,27373,43077
32593,27399,43002
32568,27416,42887
32508,27399,43071
32396,27387,42924
32324,27351,43060
32316,27322,42937
32272,27316,42868
32320,27324,43037
32388,27351,42980
32480,27373,42964
32521,27407,42967
32516,27411,42721
32464,27396,42988
32396,27380,42999
32352,27353,43000
32316,27319,42944
32316,27308,42813
32356,27325,42895
32484,27343,42956
32545,27369,42957
32564,27399,42770
32564,27406,42581
32502,27395,42925
32408,27373,42895
32284,27344,42789
32212,27311,42756
32284,27308,42877
32524,27317,42790
32712,27337,42625
32796,27365,42860
32704,27396,42884
32649,27399,42592
32532,27390,42801
32388,27367,42856
32332,27340,42695
32320,27311,42871
32412,27307,42885
32516,27316,42581
32592,27335,42852
32656,27364,42759
32728,27389,42724
32776,27399,42844
32764,27386,42788
32676,27365,42725
32613,27337,42873
32492,27308,42684
32500,27295,42861
32504,27305,42711
32572,27332,42873
32644,27355,42692
32712,27388,42854
32720,27390,42841
32714,27377,42828
32660,27357,42903
32668,27328,42783
32636,27299,42729
32588,27293,42693
32608,27308,42850
32625,27321,42820
32728,27354,42725
32836,27376,42861
32856,27390,42655
32812,27371,42823
32708,27351,42759
32637,27330,42586
32580,27301,42793
32554,27287,42701
32576,27300,42756
32692,27324,42733
32752,27344,42645
32772,27376,42554
32776,27380,42703
32709,27367,42620
32628,27343,42580
32544,27317,42320
32421,27284,42648
32316,27284,42496
32322,27289,42662
32429,27316,42429
32604,27338,42619
32714,27369,42596
32768,27373,42431
32752,27363,42596
32640,27338,42456
32510,27317,42421
32408,27287,42572
32368,27279,42451
32401,27281,42407
32496,27311,42549
32621,27337,42412
32812,27363,42596
32932,27367,42393
32820,27361,42518
32616,27329,42517
32440,27302,42417
32376,27271,42559
32404,27269,42537
32512,27276,42560
32701,27303,42468
32852,27327,42544
32992,27351,42599
33048,27361,42304
32968,27349,42618
32865,27324,42575
32748,27296,42604
32641,27258,42412
32637,27262,42646
32684,27271,42673
32792,27298,42565
32864,27324,42668
32904,27351,42375
32916,27353,42719
32928,27337,42631
32862,27315,42776
32772,27292,42607
32656,27266,42453
32588,27260,42815
32544,27270,42690
32621,27297,42808
32703,27324,42564
32824,27349,42796
32858,27349,42908
32820,27336,42830
32721,27311,42598
32628,27289,42964
32532,27252,42943
32444,27249,42876
32446,27268,43004
32492,27284,42877
32596,27315,43088
32668,27344,43015
32756,27338,42901
32740,27335,43143
32672,27303,42989
32544,27271,43183
32412,27254,42884
32354,27242,43095
32388,27259,43224
32416,27280,42948
32428,27309,43212
32508,27333,43301
32520,27334,43157
32500,27321,43371
32440,27300,43365
32332,27269,43397
32309,27237,43332
32328,27237,43296
32382,27245,43472
32501,27274,43484
32592,27290,43215
32620,27327,43393
32597,27327,43470
32556,27313,43576
32420,27287,43484
32309,27263,43420
32280,27235,43632
32277,27229,43527
32389,27247,43631
32500,27263,43380
32572,27288,43679
32653,27310,43598
32733,27324,43704
32704,27303,43460
32724,27276,43797
32768,27251,43780
32881,27221,43592
32961,27215,43824
33008,27221,43804
33196,27248,43887
33472,27275,43797
33728,27300,43703
33917,27301,43885
34028,27295,43624
34148,27277,43894
34405,27241,43965
34652,27220,43798
34820,27217,43724
34824,27237,44026
35032,27269,43924
35244,27295,43973
35548,27316,44085
35465,27334,44020
34656,27319,44078
33424,27302,43936
32864,27271,44161
31928,27242,44094
30380,27244,44178
29676,27260,44183
29760,27271,44055
30248,27303,44065
30828,27319,44005
31370,27323,44308
31748,27301,44247
31996,27276,44268
32096,27247,44121
32084,27220,44111
32114,27218,44447
32104,27226,44452
32184,27252,44402
32252,27271,44385
32364,27303,44508
32453,27300,44383
32452,27279,44601
32368,27256,44524
32232,27239,44620
32176,27205,44377
32236,27201,44686
32364,27214,44661
32468,27235,44648
32588,27257,44532
32680,27285,44806
32717,27285,44756
32616,27271,44887
32496,27250,44856
32440,27216,44873
32404,27191,45028
32397,27193,44949
32496,27199,44924
32653,27220,45138
32736,27253,45173
32809,27271,44959
32821,27273,45229
32804,27256,45319
32752,27236,45154
32676,27210,45447
32624,27182,45391
32545,27183,45505
32532,27191,45453
32534,27220,45623
32648,27247,45551
32724,27269,45661
32772,27266,45463
32732,27254,45768
32666,27222,45759
32580,27207,45702
32508,27176,45545
32484,27169,45860
32592,27176,45846
32708,27205,45689
32820,27235,45932
32948,27253,45892
32984,27252,45687
32888,27239,45925
32812,27212,45917
32688,27194,45665
32684,27167,45917
32676,27165,45908
32760,27173,45740
32924,27207,45928
33104,27224,45812
33261,27256,45799
33208,27252,45908
33076,27232,45789
32964,27213,45828
32884,27181,45592
32860,27156,45860
32892,27151,45861
33012,27167,45645
33120,27191,45862
33188,27212,45776
33260,27237,45815
33228,27240,45591
33192,27220,45871
33176,27203,45757
33158,27172,45751
33140,27142,45876
33132,27142,45764
33260,27160,45853
33380,27180,45769
33452,27205,45839
33508,27225,45844
33490,27229,45852
33432,27210,45695
33352,27193,45888
33266,27164,45821
33164,27132,45699
33145,27135,45876
33184,27143,45791
33276,27181,45853
33329,27194,45765
33265,27220,45841
33226,27225,45749
33100,27207,45792
32852,27186,45544
32684,27157,45762
32605,27129,45788
32596,27124,45524
32644,27143,45797
32712,27160,45769
32726,27191,45540
32776,27212,45741
32776,27212,45740
32680,27196,45628
32572,27177,45727
32404,27150,45676
32298,27127,45487
32240,27119,45607
32316,27143,45640
32436,27161,45345
32520,27188,45565
32576,27208,45533
32552,27212,45388
32500,27198,45444
32444,27173,45440
32432,27142,45511
32417,27119,45428
32472,27122,45463
32588,27132,45356
32648,27160,45249
32620,27184,45317
32588,27212,45268
32544,27204,45332
32520,27188,45278
32453,27172,45249
32404,27133,45217
32400,27115,45225
32456,27109,45182
32512,27129,45187
32602,27155,45124
32640,27178,44880
32665,27202,45068
32621,27203,44964
32548,27183,45037
32500,27161,44775
32404,27133,45040
32292,27106,44935
32258,27111,44974
32300,27118,44743
32365,27140,44964
32440,27168,44868
32469,27194,44929
32484,27193,44705
32412,27180,44929
32320,27154,44820
32296,27124,44693
32332,27107,44852
32404,27096,44847
32588,27120,44828
32700,27140,44708
32764,27175,44556
32752,27192,44848
32708,27192,44737
32612,27172,44583
32488,27143,44837
32420,27119,44748
32413,27094,44686
32481,27101,44831
32528,27108,44707
32576,27131,44788
32636,27160,44580
32652,27183,44785
32704,27183,44679
32696,27167,44740
32709,27143,44607
32636,27116,44468
32496,27085,44729
32472,27087,44700
32504,27103,44485
32544,27132,44720
32612,27159,44679
32677,27179,44616
32712,27185,44628
32676,27162,44490
32620,27137,44348
32568,27113,44653
32526,27082,44580
32504,27076,44494
32597,27096,44551
32688,27116,44295
32756,27150,44573
32776,27172,44484
32752,27170,44439
32680,27153,44526
32560,27133,44335
32540,27098,44516
32494,27083,44399
32456,27076,44423
32412,27093,44196
32441,27109,44445
32481,27143,44433
32544,27167,44399
32645,27164,44164
32640,27143,44452
32520,27125,44300
32508,27089,44324
32550,27060,44183
32552,27069,44412
32508,27085,44389
32440,27111,44196
32432,27142,44432
32476,27159,44311
32540,27153,44353
32640,27142,44428
32692,27109,44326
32676,27082,44125
32604,27063,44336
32540,27063,44396
32576,27079,44132
32645,27094,44391
32680,27133,44381
32744,27153,44209
32742,27143,44425
32680,27129,44277
32604,27106,44268
32544,27071,44441
32500,27054,44328
32489,27053,44404
32580,27073,44143
32652,27091,44354
32725,27124,44396
32770,27143,44181
32764,27143,44435
32728,27117,44380
32661,27102,44290
32592,27070,44105
32584,27052,44396
32568,27052,44372
32608,27072,44364
32692,27094,44112
32724,27117,44396
32768,27137,44391
32806,27132,44276
32756,27113,44329
32724,27097,44193
32696,27068,44140
32704,27039,44368
32724,27041,44317
32824,27060,44229
32976,27085,44333
33097,27114,44222
33136,27134,44132
33113,27128,44017
32996,27111,44316
32916,27086,44192
32832,27058,44156
32801,27036,44263
32808,27041,44081
32868,27051,44240
32920,27074,44167
32992,27109,44212
33004,27122,44029
33040,27125,43879
33022,27111,44172
32924,27080,44173
32868,27052,44127
32844,27029,43991
32926,27039,44114
32952,27055,43952
32904,27074,44078
32896,27108,44060
32940,27119,44004
32908,27118,43933
32816,27103,43844
32752,27072,44025
32688,27044,43924
32686,27031,43969
32560,27029,43740
32644,27037,43975
32724,27073,43882
32760,27092,43893
32822,27106,43704
32836,27108,43911
32764,27093,43836
32641,27075,43731
32628,27039,43842
32552,27016,43751
32552,27020,43645
32608,27039,43492
32632,27060,43780
32669,27095,43740
32740,27108,43719
32744,27108,43544
32660,27092,43716
32577,27056,43545
32588,27031,43644
32524,27013,43402
32544,27015,43319
32648,27031,43622
32745,27044,43564
32820,27079,43541
32852,27103,43412
32824,27095,43542
32752,27074,43421
32708,27049,43463
32716,27025,43457
32828,26997,43140
33033,26993,43428
33312,27015,43388
33646,27037,43292
33844,27070,43066
33905,27087,43365
34017,27078,43204
34237,27062,43320
34400,27037,43015
34492,27009,42964
34564,26980,43253
34697,26999,43177
34930,27015,43048
35084,27045,43183
35096,27075,43031
34892,27095,42812
34856,27092,43130
34716,27084,43106
34492,27057,43013
34028,27039,42956
32918,27014,42939
31877,27022,43015
31776,27036,43037
31292,27056,42964
30136,27095,42855
29684,27113,42669
29885,27102,43014
30344,27081,42925
30805,27047,42981
31342,27015,42816
31780,26997,42940
32161,26992,42927
32472,27016,42792
32669,27039,42972
32768,27074,42900
32788,27080,42661
32716,27076,42932
32628,27053,42759
32561,27037,42927
32484,27005,42740
32432,26980,42846
32484,26987,42804
32560,26999,42804
32625,27025,42784
32668,27044,42845
32724,27068,42676
32736,27064,42820
32750,27045,42796
32716,27021,42644
32645,26996,42812
32600,26964,42737
32600,26977,42711
32664,26996,42865
32710,27009,42676
32712,27046,42503
32764,27063,42860
32720,27060,42724
32680,27037,42879
32664,27005,42631
32660,26978,42874
32612,26957,42791
32588,26973,42804
32600,26981,42615
32736,27007,42753
32920,27039,42886
33076,27047,42575
33128,27045,42912
33080,27021,42759
32950,27007,42768
32760,26979,42876
32716,26957,42884
32716,26959,42526
32777,26978,42709
32820,27001,42629
32877,27023,42749
33016,27046,42697
33089,27033,42532
33104,27012,42672
33052,26988,42567
33040,26959,42633
33028,26944,42618
33070,26950,42382
33156,26972,42513
33264,26990,42452
33324,27025,42484
33316,27035,42077
33284,27029,42247
33204,27014,42407
33120,26980,42212
33057,26956,42329
33032,26934,42225
33080,26940,42331
33173,26956,42150
33300,26980,41935
33381,27012,42278
33400,27029,42142
33388,27021,42309
33332,27004,42018
33192,26976,42223
33101,26948,42182
33101,26931,42343
33204,26927,41923
33380,26955,42188
33580,26977,42329
33688,27015,42101
33768,27027,42237
33668,27015,42348
33536,26992,42031
33444,26973,42280
33364,26940,42247
33340,26924,42164
33388,26930,42353
33396,26944,42325
33468,26975,42156
33532,26999,42295
33576,27012,42141
33560,27009,42374
33440,26988,42162
33264,26964,42272
33060,26933,42196
32952,26916,42369
32876,26924,42265
32910,26940,41967
32980,26959,42295
33088,26996,42181
33149,27012,42356
33104,27002,42304
32992,26983,42048
32832,26952,42343
32753,26924,42229
32692,26917,42388
32684,26919,42282
32704,26930,42021
32709,26958,42320
32726,26991,42335
32825,27005,42191
32780,26996,42343
32692,26979,42225
32612,26953,42330
32576,26924,42170
32552,26907,42332
32536,26919,42173
32568,26932,42364
32600,26952,42375
32640,26985,42212
32680,27004,42094
32668,27001,42236
32654,26975,42266
32544,26951,42208
32468,26921,42168
32392,26904,41874
32388,26909,42204
32470,26932,42095
32580,26955,42188
32728,26995,42151
32796,27001,42178
32800,26991,42093
32748,26973,42093
32628,26949,42023
32500,26916,42129
32440,26900,41768
32536,26908,42103
32622,26928,41957
32720,26959,42073
32776,26988,41820
32820,26999,42095
32749,26993,41991
32692,26968,42134
32688,26950,42095
32664,26921,41764
32636,26901,42047
32612,26908,42013
32632,26925,41991
32676,26957,41645
32756,26991,41991
32785,26997,41836
32848,26991,42028
32813,26964,41845
32708,26942,41964
32612,26911,42037
32568,26894,41839
32636,26911,41975
32756,26926,41892
32846,26951,42041
32924,26983,41741
32964,26997,41910
32906,26980,41900
32796,26960,41881
32724,26947,41956
32661,26913,41757
32608,26897,41540
32653,26907,41775
32800,26933,41920
32893,26949,41689
32900,26977,41441
32908,26995,41605
32880,26982,41735
32796,26961,41585
32736,26937,41654
32605,26909,41753
32514,26895,41532
32480,26909,41319
32548,26927,41580
32672,26946,41446
32844,26975,41607
32904,26985,41543
32837,26983,41532
32821,26965,41412
32840,26932,41223
32724,26909,41322
32612,26892,41315
32512,26905,41209
32433,26927,41324
32616,26946,41092
32724,26973,41188
32780,26991,41030
32740,26981,41236
32600,26961,40996
32432,26942,40709
32344,26904,41023
32344,26896,40937
32432,26902,40860
32452,26929,40983
32460,26950,40809
32568,26978,40823
32660,26995,40804
32712,26980,40655
32712,26964,40836
32596,26937,40687
32480,26911,40605
32409,26887,40513
32408,26903,40452
32480,26924,40619
32556,26949,40455
32629,26974,40664
32704,26988,40535
32681,26983,40396
32616,26961,40468
32533,26933,40338
32416,26902,40484
32340,26894,40302
32389,26897,40063
32472,26924,40316
32489,26945,40042
32548,26978,40287
32560,26990,40291
32548,26980,40156
32564,26957,40209
32540,26933,40164
32432,26909,40109
32285,26891,40189
32236,26897,40020
32316,26923,40089
32420,26950,39972
32504,26982,40135
32556,26988,39924
32536,26985,40012
32448,26959,39912
32314,26939,39999
32262,26905,39631
32200,26887,39800
32270,26903,39889
32392,26925,39681
32516,26949,39852
32592,26980,39959
32636,26991,39733
32684,26981,39809
32640,26958,39760
32564,26939,39671
32429,26908,39744
32366,26895,39633
32413,26901,39783
32536,26928,39449
32577,26951,39687
32660,26983,39568
32700,26996,39751
32692,26987,39557
32676,26967,39644
32705,26940,39727
32692,26907,39556
32678,26892,39639
32732,26906,39649
32856,26935,39529
33060,26954,39628
33128,26987,39559
33109,26998,39647
33068,26991,39620
32968,26969,39546
32892,26944,39644
32876,26913,39431
32892,26908,39612
32924,26916,39577
32924,26933,39599
32892,26958,39615
32872,26993,39636
32881,26999,39576
32864,26991,39724
32816,26979,39492
32680,26946,39663
32564,26919,39596
32476,26905,39744
32520,26916,39581
32665,26942,39687
32766,26967,39628
32788,26989,39797
32768,27004,39612
32728,27001,39705
32648,26979,39712
32602,26955,39633
32544,26921,39836
32536,26909,39663
32580,26916,39788
32662,26945,39687
32688,26965,39920
32708,27003,39905
32740,27013,39766
32716,27001,39853
32672,26978,39837
32624,26958,39989
32484,26924,39676
32388,26919,39905
32364,26919,39972
32460,26945,39956
32704,26975,39881
32904,26993,40094
32972,27011,39831
32844,26997,40003
32764,26985,39894
32632,26961,40081
32564,26924,40024
32588,26917,40039
32692,26916,40055
32932,26950,40012
33208,26968,40044
33521,26999,40055
33800,27012,40015
33880,26999,40129
33809,26981,39752
33860,26956,40017
34009,26922,40094
34196,26913,40016
34444,26923,40037
34684,26941,40084
34868,26975,39941
35004,27007,40028
35064,27025,39893
34885,27012,40023
34540,26999,39869
34464,26979,39983
34312,26955,39917
34160,26951,39920
33745,26965,39949
32526,26981,39844
31672,27012,40036
31554,27039,39873
30812,27052,39924
29844,27045,39829
29680,27023,39825
30120,26993,39915
30601,26955,39924
31032,26948,39847
31414,26956,39908
31880,26978,39892
32260,26996,39860
32532,27022,39967
32637,27039,39932
32632,27028,39860
32508,27007,39773
32360,26986,39855
32288,26945,39860
32328,26939,39876
32388,26951,39847
32484,26974,39783
32544,26999,39878
32560,27036,39733
32596,27047,39804
32588,27016,39750
32524,27013,39751
32488,26986,39860
32420,26952,39655
32382,26944,39460
32420,26953,39687
32520,26975,39687
32568,27010,39804
32645,27036,39675
32684,27039,39764
32696,27029,39749
32646,27015,39814
32580,26983,39564
32580,26959,39777
32540,26946,39765
32616,26959,39673
32696,26981,39761
32860,27012,39871
32949,27042,39672
32928,27039,39785
32828,27039,39687
32665,27015,39865
32528,26994,39653
32448,26959,39745
32508,26957,39662
32634,26963,39796
32768,26995,39721
32884,27012,39517
32984,27047,39648
32984,27055,39652
32852,27049,39559
32728,27023,39504
32669,27009,39567
32628,26972,39476
32605,26961,39524
32696,26975,39336
32888,26995,39133
33008,27023,39388
33148,27060,39461
33160,27067,39134
33085,27056,39260
32925,27033,39316
32736,27005,39029
32664,26979,39226
32736,26981,39112
32844,26983,39116
33016,27004,39143
33124,27031,39014
33208,27068,39145
33256,27073,38984
33204,27061,39046
33148,27036,39047
33112,27005,38964
33093,26979,39096
33104,26973,38847
33264,26990,38982
33422,27014,38980
33452,27045,38903
33429,27076,38693
33404,27081,38940
33377,27067,38816
33364,27047,39004
33358,27031,38631
33324,26991,38847
33296,26987,38953
33340,26999,38812
33414,27023,38564
33428,27046,38810
33500,27079,38852
33512,27085,38700
33396,27072,38492
33164,27059,38736
33030,27023,38817
32900,26994,38632
32856,26990,38445
32936,27005,38641
33032,27023,38564
33073,27049,38549
33088,27087,38549
33088,27094,38464
33036,27087,38599
32952,27055,38560
32797,27040,38434
32693,27009,38252
32600,27001,38393
32526,27013,38340
32548,27036,38341
32604,27060,38344
32708,27092,38180
32720,27105,38252
32612,27089,38199
32540,27071,38087
32440,27049,38169
32380,27015,38097
32384,27012,37874
32420,27027,38044
32452,27051,38012
32528,27079,37917
32572,27110,37804
32604,27115,37887
32612,27100,37935
32608,27079,37596
32576,27057,37820
32485,27031,37774
32348,27025,37823
32330,27036,37665
32373,27063,37540
32468,27086,37407
32668,27127,37589
32842,27122,37550
32840,27109,37475
32720,27090,37468
32652,27071,37402
32596,27042,37306
32540,27036,37349
32565,27047,37383
32637,27074,37253
32684,27101,37055
32672,27135,37247
32584,27132,37113
32553,27124,37255
32484,27103,37100
32392,27078,36878
32365,27047,37117
32484,27045,36964
32650,27060,37103
32728,27084,36980
32772,27110,36777
32773,27143,36960
32788,27150,36946
32809,27124,36887
32814,27111,36774
32801,27084,36765
32709,27068,36911
32716,27055,36871
32673,27072,36853
32692,27093,36813
32700,27113,36711
32704,27151,36807
32701,27158,36764
32716,27143,36789
32689,27124,36797
32684,27101,36660
32716,27071,36532
32728,27060,36737
32800,27079,36742
32928,27102,36615
32988,27126,36591
33108,27157,36494
33148,27171,36676
33048,27156,36589
32960,27133,36721
32830,27108,36537
32769,27079,36663
32836,27072,36538
32756,27084,36628
32816,27111,36628
32905,27142,36486
32988,27172,36600
32984,27173,36487
33096,27153,36505
33001,27137,36325
32660,27117,36551
32416,27091,36585
32588,27087,36399
32680,27094,36496
32984,27117,36460
33053,27143,36384
33072,27173,36511
33048,27182,36357
32892,27174,36300
32884,27143,36229
32892,27120,36416
32788,27093,36340
32760,27090,36479
32821,27105,36455
32908,27125,36317
32924,27159,36452
32964,27182,36444
33008,27191,36415
32956,27173,36373
32796,27159,36512
32676,27128,36404
32588,27097,36353
32528,27099,36485
32592,27113,36485
32676,27138,36400
32732,27167,36557
32783,27196,36575
32752,27199,36441
32692,27188,36347
32664,27161,36583
32644,27141,36581
32584,27111,36549
32576,27108,36647
32657,27117,36549
32716,27143,36681
32724,27168,36639
32752,27197,36737
32724,27205,36631
32669,27188,36647
32568,27172,36805
32540,27143,36773
32544,27125,36837
32496,27113,36861
32500,27132,36751
32497,27152,36674
32524,27177,36909
32564,27197,36903
32586,27210,36892
32652,27200,36969
32604,27181,36816
32496,27149,36751
32436,27120,36941
32420,27119,36932
32544,27136,36964
32660,27164,37015
32712,27188,36839
32753,27208,36692
32684,27217,36919
32632,27206,36804
32624,27182,36967
32632,27148,36833
32700,27132,36743
32788,27133,36612
32828,27141,36845
32841,27167,36881
32792,27196,36782
32797,27223,36671
32872,27227,36792
32872,27213,36671
32812,27183,36837
32736,27169,36695
32685,27139,36600
32676,27132,36708
32709,27143,36697
32776,27173,36598
32820,27205,36628
32908,27228,36680
32964,27233,36712
32904,27216,36668
32796,27194,36509
32716,27171,36609
32660,27143,36591
32640,27142,36565
32716,27159,36455
32864,27178,36580
32972,27207,36600
33080,27230,36479
33116,27239,36398
33062,27220,36511
32969,27204,36500
32832,27178,36424
32692,27157,36532
32652,27148,36453
32668,27173,36255
32757,27190,36476
32816,27214,36455
32860,27238,36373
32869,27244,36481
32824,27232,36533
32784,27207,36517
32756,27183,36369
32712,27156,36373
32674,27152,36357
32728,27160,36359
32732,27191,36295
32764,27229,36543
32804,27244,36463
32767,27244,36614
32676,27227,36656
32584,27217,36492
32590,27188,36624
32608,27159,36729
32620,27157,36468
32624,27175,36707
32708,27194,36773
32784,27223,36548
32832,27247,36772
32820,27249,36916
32792,27239,36871
32742,27217,36782
32672,27188,36815
32616,27165,36769
32628,27159,37023
32608,27177,36949
32560,27198,37149
32532,27233,37016
32628,27252,36940
32765,27257,37205
32856,27238,37133
32908,27223,37301
32944,27192,37365
32936,27167,37188
33012,27161,37383
33296,27181,37316
33592,27204,37527
33888,27225,37304
34096,27253,37537
34072,27253,37547
34136,27237,37562
34272,27215,37548
34404,27189,37676
34528,27165,37727
34708,27164,37532
34868,27186,37790
35016,27206,37775
35232,27237,37845
35120,27269,37927
34752,27273,37869
34484,27261,37764
34232,27257,37733
34016,27223,37786
33540,27205,38076
32248,27207,38109
31340,27221,38052
31372,27237,38261
30760,27277,38160
30044,27305,38259
30022,27301,38319
30436,27285,38268
30864,27253,38418
31192,27224,38319
31500,27206,38452
31790,27196,38461
31972,27210,38679
32164,27231,38542
32357,27258,38434
32488,27276,38737
32521,27286,38703
32544,27268,38916
32520,27240,38823
32428,27217,38722
32368,27191,38756
32412,27184,39047
32500,27204,39084
32524,27231,39120
32552,27260,39060
32612,27284,39279
32544,27279,39149
32508,27268,39295
32472,27236,39321
32424,27215,39304
32408,27185,39516
32396,27192,39545
32468,27207,39552
32548,27233,39460
32640,27260,39617
32732,27284,39546
32840,27284,39809
32840,27266,39833
32708,27244,39866
32496,27218,39745
32352,27188,39585
32300,27191,39942
32408,27200,39991
32628,27230,39988
32780,27255,40153
32868,27276,39943
32844,27280,40189
32780,27264,40239
32749,27241,40156
32692,27208,40287
32668,27192,40417
32684,27189,40264
32700,27207,40089
32704,27231,40436
32776,27263,40345
32864,27279,40577
32920,27279,40548
32864,27264,40279
32740,27239,40549
32696,27215,40572
32596,27193,40582
32600,27191,40495
32672,27213,40700
32812,27230,40710
32934,27262,40573
32964,27279,40672
32984,27279,40668
32953,27266,40831
32908,27244,40668
32909,27212,40448
32960,27190,40804
32993,27193,40787
33034,27207,40798
33080,27234,40988
33116,27260,40788
33080,27285,40799
33092,27287,40815
33068,27268,40734
33052,27247,40676
33028,27213,40988
33058,27193,41032
33052,27194,40965
33148,27213,41084
33240,27234,41140
33344,27263,41057
33432,27289,40812
33476,27289,41144
33476,27263,41177
33400,27246,41113
33317,27212,41103
33296,27192,41268
33320,27194,41324
33468,27209,41305
33524,27239,41310
33480,27263,41375
33380,27284,41159
33228,27279,41300
33108,27271,41302
33052,27240,41186
33036,27212,41293
33024,27188,41437
33064,27190,41391
33012,27207,41126
32985,27233,41368
32988,27260,41319
32992,27287,41346
32968,27282,41399
32912,27265,41348
32884,27240,41464
32836,27218,41433
32717,27194,41178
32656,27196,41454
32676,27215,41335
32720,27239,41581
32768,27269,41293
32820,27285,41501
32780,27286,41386
32749,27265,41645
32652,27249,41521
32472,27223,41308
32300,27204,41552
32252,27193,41467
32308,27217,41564
32452,27245,41337
32588,27271,41597
32668,27292,41643
32720,27295,41716
32741,27271,41748
32588,27255,41575
32520,27219,41773
32444,27199,41703
32480,27207,41568
32472,27222,41461
32582,27253,41719
32708,27273,41604
32784,27295,41808
32812,27295,41607
32804,27277,41768
32752,27253,41757
32669,27231,41863
32600,27207,41591
32636,27206,41831
32688,27220,41681
32772,27247,41932
32804,27278,41511
32764,27299,41756
32704,27300,41972
32672,27284,41777
32620,27260,41689
32586,27228,41879
32484,27212,41853
32556,27209,41981
32684,27227,41735
32744,27259,41920
32788,27279,41791
32825,27300,41981
32816,27303,41865
32724,27284,41604
32714,27259,41946
32672,27237,41832
32613,27210,42028
32644,27208,42029
32724,27229,41861
32808,27252,41804
32894,27281,41941
32920,27304,41884
32868,27295,41813
32848,27287,41848
32780,27262,41839
32720,27229,41949
32632,27209,41836
32617,27212,41572
32652,27239,41829
32796,27259,41772
32888,27283,41860
32860,27309,41622
32808,27302,41370
32760,27289,41692
32640,27271,41630
32568,27236,41501
32556,27211,41672
32678,27209,41407
32804,27233,41479
32832,27258,41459
32848,27283,41332
32896,27308,41415
32848,27303,41424
32808,27289,41294
32777,27263,41100
32714,27236,41180
32616,27221,41005
32540,27211,41191
32572,27232,40903
32653,27260,40967
32832,27285,40960
32906,27306,40849
32904,27308,40687
32792,27286,40727
32713,27266,40668
32628,27234,40661
32604,27212,40601
32568,27215,40228
32580,27229,40455
32644,27261,40309
32684,27292,40387
32720,27305,40169
32808,27305,39903
32754,27284,40139
32632,27266,40081
32520,27235,40020
32438,27208,39943
32396,27221,39859
32476,27234,39791
32597,27263,39694
32692,27292,39687
32684,27308,39704
32652,27305,39559
32585,27290,39359
32580,27263,39128
32516,27237,39030
32444,27215,39251
32388,27215,39095
32352,27239,39097
32346,27261,39004
32444,27287,38929
32588,27305,38781
32656,27303,38807
32601,27281,38791
32501,27263,38693
32372,27231,38495
32280,27215,38439
32288,27213,38374
32340,27229,38269
32436,27252,38109
32568,27293,38009
32644,27308,37989
32672,27305,38033
32636,27287,37859
32556,27263,37669
32512,27234,37692
32464,27209,37493
32412,27215,37583
32436,27237,37297
32544,27260,37087
32608,27289,37220
32660,27311,37127
32764,27301,36985
32840,27284,36827
32860,27270,36725
32816,27226,36671
32734,27212,36615
32769,27218,36381
32884,27232,36178
32960,27263,36283
33034,27286,36052
33104,27297,36097
33036,27305,35932
32952,27281,35616
32964,27261,35709
32892,27233,35612
32780,27211,35396
32772,27215,35215
32822,27239,35052
32858,27261,35129
32904,27285,34945
32912,27311,34935
32852,27303,34673
32772,27284,34439
32673,27263,34513
32488,27236,34284
32384,27207,34208
32356,27215,33962
32452,27232,33815
32608,27260,33856
32748,27284,33616
32780,27305,33617
32756,27297,33308
32660,27280,33138
32484,27259,33159
32462,27229,33013
32417,27207,32774
32472,27208,32696
32576,27233,32428
32676,27253,32421
32804,27280,32277
32920,27303,32104
32960,27301,31817
32924,27276,31654
32721,27254,31495
32636,27228,31335
32645,27204,31309
32712,27210,31133
32800,27228,30974
32852,27249,30779
32884,27282,30566
32796,27303,30373
32660,27293,30254
32548,27271,30074
32560,27253,29828
32612,27216,29561
32576,27198,29397
32631,27209,29263
32732,27227,29156
33056,27246,28916
33449,27279,28729
33848,27293,28551
34212,27285,28420
34310,27264,28201
34332,27241,27895
34368,27212,27768
34632,27191,27681
34976,27198,27468
35392,27209,27271
35676,27239,27088
35872,27271,26933
35992,27284,26701
35977,27291,26516
35768,27278,26396
35532,27252,26197
35492,27216,26019
35408,27212,25773
35348,27218,25700
35092,27244,25509
33817,27271,25367
32660,27303,25186
32464,27321,25031
31872,27309,24858
30844,27300,24664
30388,27269,24529
30564,27237,24404
30776,27217,24255
30913,27221,24107
31109,27238,23949
31497,27259,23789
32020,27284,23653
32432,27303,23482
32588,27300,23314
32536,27276,23170
32336,27252,23022
32204,27228,22871
32024,27205,22721
32156,27205,22572
32348,27225,22433
32502,27249,22277
32648,27284,22122
32844,27297,21980
32832,27287,21850
32641,27271,21695
32468,27240,21540
32412,27221,21400
32288,27198,21225
32244,27199,21061
32228,27220,20916
32257,27247,20777
32332,27271,20641
32487,27289,20518
32568,27281,20410
32633,27262,20253
32581,27238,20124
32468,27206,20009
32444,27189,19884
32486,27201,19812
32608,27216,19705
32756,27239,19564
32776,27266,19421
32709,27287,19336
32712,27277,19189
32764,27256,19078
32805,27232,19072
32924,27196,18845
33020,27186,18756
33076,27185,18575
32960,27211,18472
32840,27229,18345
32792,27267,18204
32789,27275,18176
32792,27268,18112
32748,27253,17931
32662,27231,17718
32653,27201,17629
32772,27183,17463
32888,27186,17444
33020,27202,17172
33048,27228,17010
33060,27267,17002
33156,27279,16789
33076,27268,16605
32984,27241,16640
32888,27225,16359
32944,27196,16228
33005,27172,16083
33144,27186,16053
33276,27199,15960
33317,27223,15756
33312,27265,15525
33348,27269,15461
33324,27269,15241
33272,27247,15172
33256,27223,15160
33352,27188,15032
33440,27178,14782
33436,27176,14593
33336,27197,14520
33324,27224,14368
33413,27255,14397
33540,27270,14261
33564,27263,13962
33512,27241,13948
33384,27215,13777
33368,27185,13672
33388,27168,13668
33636,27180,13501
33776,27198,13288
33800,27214,13244
33732,27254,13125
33472,27269,12999
33228,27260,13016
33081,27239,12833
32960,27208,12666
32929,27183,12553
33016,27152,12412
33200,27169,12448
33380,27182,12377
33526,27208,12128
33572,27246,11993
33516,27256,11907
33368,27255,11829
33080,27237,11714
32868,27201,11727
32768,27176,11671
32660,27156,11532
32561,27169,11288
32612,27184,11270
32709,27213,11260
32708,27240,11095
32705,27257,10945
32636,27249,10955
32444,27231,10902
32272,27207,10860
32256,27177,10688
32397,27159,10627
32560,27167,10695
32556,27192,10506
32649,27210,10323
32716,27241,10352
32788,27252,10263
32788,27247,10356
32709,27222,10078
32568,27207,10071
32496,27176,10079
32524,27161,10119
32688,27167,9830
32792,27189,9847
32836,27208,9873
32888,27244,9888
32936,27256,9668
32916,27255,9697
32900,27230,9654
32796,27206,9563
32788,27175,9493
32636,27165,9461
32636,27159,9457
32785,27183,9490
32897,27210,9245
32914,27241,9284
32956,27251,9359
32936,27245,9154
32908,27229,9252
32960,27205,9147
32756,27167,9092
32608,27153,9205
32604,27169,9059
32686,27188,8896
32808,27206,9021
32948,27237,8905
33072,27252,8983
32956,27247,8868
32829,27223,8764
32776,27199,8820
32776,27172,8820
32708,27163,8908
32852,27165,8770
33265,27188,8727
33556,27212,8753
33564,27236,8882
33460,27253,8717
33244,27246,8780
32968,27222,8707
32912,27205,8749
32769,27166,8780
32586,27159,8848
32436,27164,8727
32472,27184,8708
32668,27212,8844
32766,27238,8737
32876,27251,8612
32982,27241,8727
32888,27225,8700
32672,27199,8797
32524,27169,8644
32500,27159,8687
32648,27161,8700
32812,27185,8849
33052,27211,8618
33260,27237,8707
33488,27255,8865
33476,27240,8660
33125,27223,8661
32804,27192,8769
32752,27165,8804
32889,27143,8896
33125,27156,8704
33192,27184,8873
33164,27204,8807
33049,27228,8881
33060,27246,8761
33016,27247,8862
32881,27220,9028
32760,27196,8819
32684,27169,8924
32745,27145,9100
32760,27155,8886
32816,27177,9060
32992,27199,9023
33044,27232,9198
32944,27239,9028
32788,27238,9183
32716,27220,9261
32808,27191,9109
32832,27158,9183
32784,27143,9261
32684,27151,9255
32660,27183,9407
32848,27200,9357
33056,27228,9365
33012,27241,9385
32644,27244,9536
32300,27210,9432
32136,27186,9510
32240,27165,9539
32438,27143,9616
32696,27149,9575
32845,27172,9740
32932,27199,9590
32953,27225,9639
32884,27243,9710
32726,27232,9860
32548,27211,9876
32412,27191,9747
32501,27163,9835
32640,27143,9839
32736,27154,9942
32941,27172,10040
33229,27200,9906
33380,27228,9884
33408,27239,10066
33383,27237,10019
33212,27207,10092
33028,27180,10132
32920,27152,10205
32933,27140,10177
33112,27143,10335
33276,27172,10168
33401,27195,10279
33400,27232,10446
33182,27242,10404
32940,27230,10322
32776,27206,10426
32540,27186,10577
32228,27159,10624
32096,27140,10494
32152,27143,10587
32192,27172,10783
32248,27193,10646
32484,27225,10732
32608,27235,10887
32656,27220,10825
32532,27205,10805
32404,27181,10980
32321,27142,10981
32368,27135,11168
32397,27137,11042
32468,27172,11144
32556,27186,11252
32600,27221,11164
32662,27228,11308
32652,27221,11454
32508,27197,11365
32256,27181,11388
32137,27137,11468
32164,27128,11680
32288,27140,11548
32464,27156,11680
32600,27177,11671
32668,27215,11900
32720,27225,11805
32780,27210,11894
32804,27193,11896
32825,27166,12096
32761,27140,11993
32809,27125,12132
32876,27134,12173
33036,27156,12346
33176,27183,12229
33336,27213,12421
33476,27217,12419
33508,27204,12642
33500,27184,12744
33632,27167,12645
33940,27125,12811
34284,27122,12813
34836,27125,12989
35540,27143,13156
36168,27178,13083
36732,27204,13186
37040,27221,13298
37084,27204,13463
37349,27188,13447
37428,27173,13536
36968,27143,13665
36144,27134,13860
34660,27153,13948
33048,27177,14014
32436,27202,14120
31773,27239,14367
30684,27250,14380
30028,27236,14429
29856,27222,14645
30176,27191,14840
30728,27143,14839
31108,27140,14941
31260,27150,15064
31421,27172,15132
31652,27189,15441
31844,27221,15421
31993,27228,15507
31872,27220,15651
31616,27194,15774
31520,27179,16026
31504,27141,16129
31556,27125,16159
31604,27135,16277
31694,27157,16378
31840,27175,16669
31952,27207,16702
32102,27217,16809
32202,27205,16900
32188,27182,17110
32164,27161,17316
31985,27125,17344
31872,27116,17451
31942,27126,17710
32068,27146,17820
32157,27169,17956
32312,27198,18119
32452,27201,18212
32352,27194,18344
32225,27178,18612
32064,27156,18678
31928,27116,18869
31808,27116,18965
31820,27113,19154
31968,27134,19374
32128,27167,19446
32280,27197,19576
32312,27199,19685
32224,27196,19909
32120,27166,19980
32173,27142,20116
32160,27108,20273
32225,27100,20357
32264,27111,20541
32321,27127,20622
32440,27159,20712
32580,27188,20826
32612,27196,20936
32576,27184,21051
32488,27160,21125
32288,27135,21255
32268,27101,21353
32296,27100,21400
32484,27100,21484
32700,27125,21573
32728,27159,21652
32768,27181,21732
32712,27185,21807
32664,27175,21896
32565,27156,21969
32421,27125,22042
32361,27098,22124
32496,27088,22186
32669,27098,22209
32728,27125,22324
32793,27141,22386
32836,27180,22462
32882,27183,22521
32816,27172,22576
32704,27153,22644
32676,27129,22703
32652,27092,22749
32660,27083,22804
32744,27095,22872
32824,27116,22929
32829,27138,22981
32797,27172,23022
32804,27177,23068
32824,27165,23133
32796,27140,23176
32764,27124,23237
32790,27078,23280
32788,27074,23292
32796,27090,23325
32752,27108,23401
32684,27136,23436
32696,27171,23483
32692,27176,23529
32556,27165,23538
32440,27139,23564
32361,27117,23615
32288,27078,23680
32389,27074,23700
32440,27084,23740
32440,27102,23788
32318,27133,23767
32276,27159,23847
32214,27168,23881
32141,27148,23900
32084,27140,23921
32032,27116,23982
31949,27076,24013
32004,27073,23995
32204,27078,24077
32304,27100,24107
32292,27131,24145
32192,27161,24126
32098,27170,24204
32008,27154,24222
31956,27129,24256
31933,27108,24232
31744,27076,24319
31674,27071,24354
31648,27077,24357
31736,27101,24380
31844,27127,24447
31921,27165,24468
31988,27165,24504
32032,27153,24541
32144,27127,24507
32124,27108,24553
32112,27072,24623
32220,27070,24637
32372,27084,24667
32420,27101,24634
32434,27124,24678
32472,27156,24766
32524,27159,24797
32468,27151,24804
32373,27129,24842
32396,27105,24873
32428,27072,24827
32364,27061,24944
32312,27085,24953
32356,27098,24989
32476,27126,25044
32620,27152,25069
32632,27161,25063
32508,27153,25065
32412,27127,25123
32402,27098,25212
32400,27070,25223
32392,27062,25276
32436,27078,25235
32432,27103,25328
32488,27129,25388
32496,27156,25444
32484,27165,25413
32480,27143,25533
32473,27124,25565
32584,27099,25584
32616,27077,25607
32652,27067,25674
32680,27072,25700
32684,27097,25689
32672,27125,25823
32604,27159,25845
32620,27157,25897
32596,27140,25870
32624,27117,25868
32644,27100,25973
32648,27068,26047
32572,27071,26049
32536,27073,26076
32580,27095,26029
32717,27119,26183
32789,27150,26196
32937,27153,26247
32984,27135,26221
32938,27117,26180
32792,27095,26286
32656,27063,26356
32684,27054,26340
32712,27064,26396
32740,27093,26285
32665,27121,26375
32632,27153,26403
32637,27151,26470
32636,27137,26451
32613,27113,26500
32574,27092,26397
32500,27059,26473
32480,27055,26537
32588,27067,26541
32656,27091,26537
32736,27119,26540
32789,27143,26480
32788,27143,26565
32748,27129,26629
32684,27108,26628
32596,27090,26655
32524,27055,26620
32516,27045,26569
32556,27060,26676
32536,27087,26728
32536,27111,26759
32628,27142,26717
32700,27143,26766
32637,27127,26828
32506,27109,26840
32404,27077,26903
32388,27055,26813
32460,27047,26817
32608,27064,26923
32625,27083,26996
32668,27103,27003
32760,27143,27039
32788,27143,26977
32732,27133,27109
32700,27100,27119
32700,27083,27188
32628,27045,27216
32561,27044,27099
32576,27059,27256
32644,27086,27305
32732,27109,27191
32733,27135,27351
32660,27143,27373
32632,27125,27311
32616,27106,27399
32486,27079,27356
32357,27047,27510
32220,27045,27541
32280,27055,27421
32345,27077,27611
32458,27102,27577
32526,27132,27517
32575,27140,27677
32446,27113,27730
32288,27095,27647
32252,27079,27752
32232,27044,27788
32228,27036,27718
32285,27051,27856
32292,27069,27837
32272,27103,27900
32300,27130,27820
32217,27125,27963
32156,27119,28012
32057,27093,27878
31937,27068,27973
31920,27039,28081
31990,27032,28056
32032,27046,28096
32096,27068,28007
32192,27095,28196
32296,27119,28227
32324,27122,28213
32376,27108,28237
32364,27078,28159
32288,27058,28295
32168,27029,28352
32064,27031,28212
32032,27036,28407
32108,27060,28377
32225,27093,28308
32404,27111,28495
32498,27116,28481
32474,27101,28380
32460,27074,28562
32384,27055,28549
32389,27021,28503
32440,27012,28645
32601,27033,28630
32844,27055,28690
33069,27079,28660
33188,27104,28580
33224,27113,28750
33248,27095,28758
33388,27071,28647
33620,27051,28770
33861,27015,28708
34188,27011,28847
34528,27025,28811
35070,27045,28805
35552,27079,28788
35876,27107,28880
35912,27107,28837
36060,27092,28876
36160,27077,28908
36020,27061,28869
35668,27036,28953
34504,27032,28978
32957,27052,29069
32448,27069,29031
31824,27097,29075
30577,27132,29039
29868,27133,29191
29940,27119,29189
30284,27095,29173
30681,27068,29156
30940,27029,29312
31172,27023,29296
31472,27036,29223
31768,27056,29407
31964,27081,29356
32076,27117,29298
32104,27108,29500
32097,27092,29476
32016,27073,29392
31968,27045,29607
31940,27015,29549
31980,27010,29522
32068,27028,29663
32172,27045,29735
32214,27074,29625
32224,27094,29794
32260,27101,29752
32214,27080,29701
32189,27055,29900
32072,27035,29886
31892,27002,29941
31844,26998,29932
31992,27015,30069
32204,27036,30149
32460,27068,30048
32696,27087,30199
32720,27092,30301
32569,27076,30225
32428,27047,30311
32304,27018,30305
32240,26997,30343
32228,26992,30509
32304,27005,30596
32392,27028,30476
32484,27052,30548
32610,27076,30687
32622,27079,30766
32528,27064,30669
32388,27036,30784
32332,27009,30804
32264,26993,30751
32316,26983,30820
32457,26992,30831
32576,27021,30958
32684,27049,30922
32773,27076,31005
32780,27076,30849
32740,27060,31029
32704,27031,30957
32628,27007,30913
32556,26977,31065
32508,26981,31095
32549,26992,30952
32580,27014,31006
32669,27044,31120
32760,27070,31174
32800,27066,31016
32712,27047,31188
32646,27028,31239
32640,27004,31091
32604,26981,31269
32652,26976,31218
32772,26983,31324
32908,27002,31186
33045,27037,31365
33164,27062,31298
33144,27058,31263
33017,27047,31456
32888,27015,31429
32869,26988,31341
32840,26969,31501
32816,26971,31528
32832,26979,31447
32888,26999,31525
32981,27029,31641
33076,27054,31505
33072,27054,31682
33052,27037,31700
33020,27015,31721
33052,26986,31651
33144,26957,31788
33222,26960,31623
33284,26972,31793
33304,26992,31671
33332,27019,31785
33321,27046,31863
33276,27047,31710
33284,27024,31893
33196,27007,31884
33096,26976,31765
32948,26958,31917
32877,26951,31961
32881,26962,31812
32896,26988,32001
32916,27015,31919
32904,27044,31991
32800,27041,32038
32696,27029,31980
32576,27005,31895
32500,26974,32075
32448,26956,32007
32384,26945,32131
32385,26967,31976
32472,26989,32154
32540,27020,32125
32572,27045,32025
32568,27039,32036
32552,27021,32212
32472,26999,32135
32332,26975,32164
32184,26951,32111
32168,26946,32272
32232,26969,32213
32332,26989,32277
32504,27015,32340
32572,27036,32285
32628,27037,32380
32652,27028,32217
32608,27001,32351
32440,26973,32276
32277,26951,32420
32276,26944,32453
32392,26957,32293
32504,26984,32361
32640,27015,32375
32698,27031,32485
32716,27031,32397
32680,27007,32412
32644,26991,32524
32608,26970,32448
32556,26946,32388
32576,26940,32551
32644,26964,32586
32752,26978,32433
32772,27012,32609
32740,27033,32652
32721,27036,32485
32712,27015,32580
32704,26991,32691
32669,26956,32539
32632,26940,32710
32568,26942,32632
32612,26962,32609
32716,26977,32732
32816,27009,32661
32852,27023,32599
32792,27033,32672
32728,27015,32821
32676,26989,32692
32692,26959,32839
32672,26935,32859
32732,26939,32726
32812,26954,32903
32828,26978,32837
32888,27007,32792
32904,27022,32950
32906,27028,32911
32871,27015,32839
32752,26985,33013
32646,26960,32988
32556,26937,33063
32528,26939,32908
32548,26951,33080
32632,26979,33056
32725,27005,33087
32857,27023,32969
32956,27026,33143
32960,27008,33145
32928,26988,33140
32881,26953,33039
32764,26929,33205
32632,26930,33164
32628,26948,33111
32684,26975,33236
32774,27004,33263
32892,27036,33115
32900,27020,33204
32880,27002,33141
32848,26983,33215
32790,26949,33165
32728,26929,33337
32800,26929,33201
32764,26948,33373
32856,26969,33283
32872,27001,33396
32860,27022,33253
32984,27020,33464
32996,27002,33271
32926,26978,33399
32888,26952,33324
32818,26934,33483
32872,26929,33399
32908,26956,33385
33028,26971,33513
33064,27007,33444
33040,27020,33397
32972,27021,33540
32940,27004,33597
32928,26980,33415
32886,26952,33583
32826,26929,33543
32752,26933,33559
32800,26951,33641
32924,26972,33553
33044,27007,33525
33089,27025,33661
32916,27021,33760
32780,27006,33546
32636,26982,33647
32592,26956,33797
32584,26936,33652
32676,26933,33813
32645,26955,33733
32600,26983,33828
32556,27013,33705
32572,27025,33796
32636,27023,33868
32660,27013,33797
32661,26983,33980
32605,26954,33951
32466,26935,34013
32376,26937,34044
32440,26958,33920
32480,26975,34067
32532,27007,33996
32561,27022,34161
32484,27025,34242
32436,27007,34080
32380,26981,34151
32356,26955,34309
32324,26929,34133
32344,26933,34303
32342,26951,34246
32404,26980,34372
32505,27008,34471
32586,27028,34284
32604,27028,34506
32576,27013,34478
32529,26980,34578
32444,26957,34405
32336,26928,34647
32284,26937,34645
32344,26959,34740
32452,26980,34581
32550,27007,34753
32692,27031,34740
32752,27029,34790
32740,27005,34690
32749,26981,34916
32724,26956,34857
32748,26942,35044
32922,26934,34896
33036,26956,34887
33056,26979,35132
33221,27011,35069
33468,27030,35262
33687,27024,35213
33832,27006,35188
33876,26985,35137
33880,26953,35396
34048,26935,35405
34460,26946,35528
34756,26965,35426
34828,26993,35400
35158,27031,35649
35452,27052,35704
35624,27055,35658
35508,27038,35831
34652,27015,35840
33508,26996,35917
33061,26972,36018
32132,26979,35949
30820,26993,35910
30376,27022,36173
30608,27045,36175
30980,27071,36358
31288,27061,36396
31504,27039,36296
31704,27015,36543
31872,26981,36527
31993,26964,36645
32068,26969,36810
32156,26993,36801
32204,27013,36788
32249,27037,36754
32304,27068,37044
32272,27061,37007
32268,27037,37173
32244,27015,37120
32212,26983,37071
32208,26969,37383
32257,26975,37372
32352,26981,37420
32428,27012,37653
32476,27047,37660
32536,27066,37543
32548,27056,37591
32548,27044,37881
32484,27021,37949
32380,26989,37981
32336,26974,38100
32349,26980,38276
32396,26994,38364
32424,27023,38463
32505,27055,38510
32496,27078,38441
32452,27059,38655
32380,27044,38661
32296,27028,38772
32236,27000,38919
32236,26973,39028
32276,26988,38839
32396,27004,39212
32588,27030,39341
32676,27068,39318
32668,27083,39470
32572,27076,39530
32540,27062,39709
32504,27039,39701
32484,27009,39759
32464,26989,39928
32492,26996,39895
32608,27015,40020
32780,27037,40054
32904,27071,40193
32996,27089,40253
32968,27081,40081
32908,27077,40373
32801,27047,40335
32740,27020,40608
32696,27001,40516
32773,27009,40360
32844,27026,40724
32918,27048,40732
32976,27084,40865
33084,27097,40904
33096,27095,41005
33052,27083,41009
32926,27059,41052
32824,27031,41213
32725,27013,41189
32728,27017,41488
32872,27038,41341
33060,27067,41186
33210,27100,41573
33308,27113,41769
33352,27109,41686
33303,27095,41848
33268,27076,41892
33204,27045,42073
33220,27020,42097
33252,27026,42169
33340,27053,42215
33396,27076,42364
33444,27108,42533
33456,27127,42468
33356,27121,42327
33326,27103,42777
33268,27077,42849
33180,27055,42785
33152,27047,43021
33156,27045,42940
33216,27068,43192
33316,27087,43181
33380,27132,43255
33388,27140,43135
33324,27142,43535
33188,27119,43538
33037,27092,43527
32932,27071,43741
32836,27052,43711
32820,27055,43845
32828,27073,43700
32852,27108,44079
32844,27142,44052
32772,27159,44156
32724,27153,44183
32676,27133,44371
32572,27109,44304
32412,27087,44423
32284,27068,44289
32272,27076,44660
32336,27095,44645
32428,27128,44668
32536,27164,44783
32504,27175,44612
32468,27172,44989
32448,27154,44925
32456,27132,45084
32405,27109,44993
32340,27081,44933
32308,27094,45303
32328,27118,45245
32372,27143,45399
32464,27181,45268
32548,27199,45516
32576,27197,45487
32558,27172,45599
32464,27155,45604
32376,27120,45522
32308,27109,45750
32332,27113,45796
32440,27142,45681
32556,27169,45902
32572,27199,45871
32468,27208,45662
32357,27209,45935
32228,27194,45997
32220,27172,45913
32256,27143,46087
32276,27127,46108
32292,27134,46096
32336,27157,46135
32424,27185,45892
32516,27217,46127
32620,27236,46207
32592,27234,46044
32544,27201,46236
32433,27192,46140
32396,27164,46196
32376,27143,45914
32372,27156,46236
32492,27183,46137
32608,27199,46032
32660,27239,46207
32672,27262,46084
32632,27255,46135
32596,27236,45879
32556,27214,46109
32504,27182,46109
32480,27172,46156
32532,27179,46076
32685,27201,46030
32740,27226,46069
32694,27254,46065
32593,27277,46118
32556,27264,46041
32580,27246,45932
32620,27228,46101
32640,27196,46087
32668,27191,45825
32724,27196,46020
32784,27215,46070
32740,27245,45863
32760,27277,46087
32776,27295,45956
32756,27295,45988
32756,27276,46021
32700,27259,45749
32680,27226,45924
32680,27208,45933
32692,27212,45695
32744,27239,45916
32820,27270,45890
32924,27297,45935
32992,27316,45919
33045,27308,45701
33009,27289,45904
32972,27264,45849
32912,27237,45769
32816,27225,45855
32840,27237,45735
32908,27263,45783
32969,27289,45560
33032,27313,45773
33128,27335,45652
33176,27337,45532
33092,27316,45671
32892,27294,45647
32768,27267,45471
32684,27258,45654
32736,27260,45518
32900,27285,45460
33053,27316,45584
33120,27344,45521
33136,27367,45252
33176,27357,45428
33113,27332,45319
32985,27319,45405
32876,27287,45365
32837,27273,45469
32852,27282,45341
32940,27304,45341
32984,27335,45436
32964,27369,45300
32937,27380,45311
32892,27369,45423
32826,27357,45303
32800,27333,45175
32746,27306,45392
32656,27296,45357
32641,27303,45256
32732,27321,45356
32816,27348,45383
32840,27380,45340
32796,27399,45188
32720,27391,45388
32632,27380,45268
32588,27353,45348
32514,27327,45108
32534,27315,45372
32567,27321,45316
32624,27335,45312
32777,27365,45208
32940,27404,45326
32980,27423,45244
32919,27406,45306
32792,27393,45062
32673,27369,45350
32544,27340,45261
32536,27328,45317
32576,27332,45095
32728,27364,45316
32821,27391,45257
32900,27422,45265
32941,27433,45148
32933,27434,44974
32800,27415,45244
32660,27385,45172
32580,27359,45200
32608,27349,44948
32761,27356,45212
32912,27375,45093
33088,27396,45063
33206,27443,45191
33160,27453,45052
32980,27444,45012
32948,27427,45151
33097,27399,45113
33272,27375,44831
33393,27358,45097
33588,27366,45002
33840,27397,44976
34150,27420,45045
34452,27463,45001
34610,27471,44892
34600,27474,45012
34856,27460,44924
35157,27445,44948
35416,27420,44716
35352,27412,44885
34776,27428,44783
33996,27446,44903
33724,27472,44956
32848,27508,44716
31464,27527,44928
30760,27521,44968
30600,27500,44782
30768,27479,44993
31184,27442,44871
31680,27431,44956
32132,27432,44773
32428,27452,45017
32548,27481,44998
32672,27514,44953
32716,27519,44959
32680,27520,44712
32592,27500,45005
32481,27479,44870
32432,27442,44972
32436,27436,44700
32540,27445,44956
32654,27465,44889
32800,27492,44924
32868,27524,44703
32877,27537,44900
32876,27537,44821
32788,27516,44889
32708,27485,44812
32712,27460,44653
32632,27455,44599
32584,27463,44796
32608,27484,44804
32732,27502,44614
32864,27543,44885
32956,27559,44757
32924,27548,44767
32800,27527,44593
32704,27508,44893
32644,27476,44844
32644,27469,44832
32716,27479,44711
32736,27503,44892
32828,27519,44798
32937,27558,44709
33045,27567,44884
32980,27565,44733
32892,27543,44775
32772,27517,44788
32669,27489,44717
32700,27480,44752
32873,27490,44767
32996,27518,44676
33056,27542,44425
33100,27574,44586
33100,27582,44573
33021,27573,44473
32992,27564,44292
32900,27533,44479
32858,27508,44256
32816,27492,44325
32740,27505,44100
32780,27529,44256
32920,27556,44052
33084,27589,44105
33208,27596,43940
33293,27589,43968
33272,27579,43844
33168,27550,43865
33050,27524,43534
33040,27509,43773
33096,27527,43663
33181,27551,43465
33317,27570,43588
33460,27607,43527
33529,27616,43307
33460,27616,43127
33370,27588,43385
33329,27570,43175
33248,27538,43266
33208,27527,43050
33192,27540,43104
33180,27569,43116
33244,27588,42964
33404,27623,42887
33532,27628,42631
33600,27623,42824
33618,27603,42654
33500,27585,42628
33440,27548,42681
33400,27547,42279
33380,27559,42388
33468,27577,42438
33489,27601,42383
33504,27639,42198
33524,27645,42306
33440,27644,42220
33340,27617,42037
33236,27596,42041
33164,27562,41671
33056,27551,41924
32980,27569,41944
32920,27593,41685
32868,27617,41716
32940,27655,41668
32964,27660,41719
32916,27655,41420
32808,27636,41479
32684,27610,41468
32644,27573,41247
32596,27581,40964
32566,27588,41191
32544,27615,41144
32589,27633,41071
32668,27674,40814
32756,27685,40989
32776,27671,40815
32716,27655,40900
32660,27628,40484
32596,27601,40732
32536,27589,40661
32560,27610,40521
32620,27624,40546
32744,27655,40566
32804,27686,40313
32908,27700,40367
32933,27694,40376
32860,27669,39924
32753,27650,40225
32677,27619,40004
32585,27607,40039
32588,27620,39868
32648,27650,39872
32772,27677,39551
32864,27706,39663
32840,27713,39615
32828,27705,39623
32780,27686,39623
32705,27665,39508
32616,27635,39444
32552,27633,39108
32540,27644,39303
32641,27668,39149
32728,27693,39173
32832,27716,39092
32864,27732,39089
32840,27724,39099
32736,27707,38708
32708,27681,38844
32668,27655,38748
32624,27643,38766
32668,27655,38766
32840,27679,38671
32956,27709,38636
32992,27740,38477
32900,27749,38492
32816,27747,38430
32738,27712,38328
32780,27697,38351
32848,27673,38297
32772,27655,38248
32624,27670,38268
32600,27701,38028
32612,27718,38010
32704,27755,38130
32894,27751,38001
32997,27751,37863
33012,27724,37924
33004,27710,37631
32972,27679,37806
32928,27670,37825
32928,27681,37629
33012,27709,37682
33048,27741,37710
33072,27765,37576
33056,27773,37481
32960,27764,37449
32840,27740,37224
32681,27726,37375
32540,27692,37380
32485,27687,37120
32584,27705,37277
32769,27726,37284
32896,27751,37020
32904,27778,37028
32892,27783,36955
32864,27780,37029
32804,27759,37041
32768,27740,36740
32696,27711,36964
32714,27703,36645
32808,27718,36756
32940,27740,36810
33068,27767,36724
33140,27799,36735
33145,27800,36532
33116,27791,36588
33064,27772,36597
32952,27751,36315
32925,27721,36450
32872,27717,36480
32876,27732,36191
32940,27751,36260
33036,27775,36327
33204,27815,36117
33196,27820,36103
33104,27801,36079
32944,27783,36158
32884,27759,36068
32836,27735,35984
32880,27724,36052
33004,27747,36040
33084,27762,35847
33084,27794,35911
33072,27821,35845
33079,27829,35887
33068,27820,35873
32996,27797,35623
32892,27773,35681
32768,27741,35621
32712,27740,35732
32664,27749,35751
32705,27777,35470
32728,27800,35573
32792,27834,35521
32804,27836,35591
32832,27828,35537
32808,27804,35404
32712,27783,35524
32601,27749,35485
32588,27749,35309
32638,27756,35425
32736,27783,35477
32800,27814,35245
32836,27844,35269
32793,27844,35357
32744,27831,35348
32726,27817,35207
32648,27789,35258
32584,27765,35071
32548,27759,35216
32620,27772,35260
32685,27796,35069
32764,27824,34999
32896,27854,35156
32956,27856,35065
32900,27849,35144
32820,27823,34909
32730,27804,35079
32700,27780,34946
32684,27767,35093
32718,27781,34924
32813,27804,34816
32872,27829,34964
32936,27863,34996
33080,27863,34782
33093,27852,34941
32992,27831,34885
32928,27800,34944
32816,27775,34743
32792,27768,34886
32984,27783,34791
33288,27808,34815
33576,27837,34661
33784,27868,34843
33888,27868,34789
34016,27857,34745
34288,27837,34676
34436,27811,34799
34276,27789,34695
34244,27796,34823
34590,27812,34638
35124,27837,34593
35592,27862,34764
35452,27901,34780
34516,27908,34693
33748,27895,34625
33172,27873,34772
31852,27854,34844
30884,27823,34645
30768,27821,34823
31008,27835,34820
31376,27850,34753
31760,27879,34872
32104,27911,34725
32332,27901,34876
32400,27895,34833
32484,27876,34837
32428,27845,34889
32340,27821,34719
32389,27815,34908
32457,27829,34823
32528,27852,34956
32604,27880,34909
32648,27902,34773
32588,27906,34958
32457,27900,34996
32352,27877,34805
32336,27845,34798
32364,27820,34956
32480,27820,34965
32648,27829,34865
32780,27852,34772
32912,27882,34968
32968,27909,34863
32913,27911,34927
32760,27897,35007
32584,27871,35032
32428,27845,34879
32428,27823,35004
32613,27819,34991
32692,27832,34853
