ECG,EDA,RR
32436,22128,28511
32301,22102,28474
32173,22076,28622
32212,22084,28554
32340,22094,28627
32468,22117,28524
32501,22148,28679
32484,22174,28652
32408,22169,28701
32357,22151,28676
32384,22124,28713
32340,22096,28711
32308,22079,28740
32384,22078,28739
32484,22107,28733
32540,22133,28764
32420,22167,28764
32312,22181,28796
32260,22178,28824
32233,22153,28807
32196,22132,28860
32096,22101,28710
32072,22084,28791
32124,22088,28749
32324,22117,28900
32464,22134,28909
32520,22165,28977
32473,22181,28894
32480,22180,28847
32416,22164,29047
32348,22143,29071
32364,22113,28956
32432,22097,29078
32560,22097,28980
32673,22117,29149
32748,22156,29185
32704,22181,29047
32712,22189,29220
32784,22195,29248
32753,22175,29288
32721,22136,29332
32656,22126,29179
32544,22107,29359
32628,22088,29344
32684,22109,29297
32789,22132,29420
32737,22169,29300
32712,22188,29429
32681,22181,29460
32628,22169,29551
32616,22143,29489
32640,22110,29455
32616,22095,29633
32596,22103,29514
32573,22118,29701
32652,22151,29720
32724,22180,29776
32864,22199,29620
32824,22199,29753
32744,22173,29831
32684,22142,29789
32621,22118,29783
32548,22098,29807
32512,22109,29924
32532,22125,29989
32581,22145,29884
32621,22178,30005
32712,22187,29945
32724,22185,30083
32688,22169,30023
32680,22148,30275
32653,22124,30233
32664,22121,30124
32648,22099,30255
32708,22117,30196
32820,22141,30321
32920,22175,30279
33020,22196,30356
33048,22190,30337
32956,22171,30509
32796,22146,30403
32600,22113,30495
32430,22109,30468
32440,22111,30599
32620,22126,30509
32772,22151,30636
32897,22191,30588
32856,22210,30683
32744,22206,30661
32744,22169,30788
32800,22144,30727
32820,22120,30923
32857,22097,30772
32748,22105,30871
32660,22133,30844
32608,22164,30948
32584,22177,30893
32696,22194,31102
32749,22192,30949
32789,22191,31096
32729,22153,31017
32608,22127,31119
32512,22108,31119
32576,22111,31116
32632,22125,31314
32784,22155,31401
32760,22195,31386
32676,22205,31382
32520,22207,31445
32432,22175,31509
32436,22149,31353
32444,22141,31537
32433,22100,31601
32440,22108,31406
32432,22128,31607
32420,22153,31661
32444,22179,31681
32464,22208,31751
32456,22201,31743
32440,22187,31836
32452,22162,31609
32516,22124,31729
32521,22105,31766
32468,22115,31892
32413,22147,31872
32432,22150,31956
32500,22185,32044
32632,22206,32012
32620,22208,32117
32544,22177,32071
32448,22154,32165
32280,22127,31936
32202,22109,32070
32278,22125,32004
32348,22132,32140
32423,22161,32132
32472,22188,32212
32488,22212,32205
32486,22208,32340
32468,22191,32351
32492,22166,32431
32500,22122,32495
32496,22105,32327
32528,22117,32412
32600,22131,32448
32628,22164,32599
32736,22200,32680
32868,22212,32480
32892,22208,32711
32720,22185,32620
32524,22156,32711
32386,22136,32775
32320,22116,32804
32388,22119,32760
32601,22138,32813
32784,22162,32749
32916,22198,32940
32989,22211,32916
32964,22210,32974
32908,22177,32987
32824,22149,33108
32700,22125,33174
32517,22113,33260
32538,22117,33324
32645,22145,33349
32692,22165,33433
32672,22189,33437
32610,22214,33485
32520,22208,33447
32424,22188,33605
32364,22162,33655
32324,22137,33476
32288,22116,33716
32332,22116,33625
32314,22131,33782
32257,22155,33744
32296,22192,33964
32388,22207,34103
32401,22205,34116
32406,22188,34213
32372,22152,34246
32381,22121,34300
32404,22111,34375
32480,22116,34514
32548,22133,34396
32530,22151,34327
32440,22185,34557
32408,22207,34593
32449,22205,34757
32436,22185,34896
32412,22161,34900
32332,22128,35060
32296,22104,35036
32401,22109,35149
32536,22135,35162
32652,22159,35300
32684,22192,35305
32812,22204,35416
32836,22201,35424
32713,22188,35556
32526,22150,35549
32344,22127,35580
32313,22111,35463
32448,22113,35625
32789,22136,35719
33146,22164,35832
33520,22203,35941
33888,22196,35943
34052,22195,35805
34076,22177,36103
34124,22157,36172
34264,22133,36280
34404,22099,36212
34560,22103,36221
34696,22129,36308
34862,22148,36504
35072,22183,36532
35188,22205,36519
35208,22203,36537
34988,22191,36615
34793,22169,36660
34556,22131,36562
34472,22116,36860
34204,22132,37015
32992,22149,37012
31959,22179,37049
31872,22214,37247
31360,22223,37165
30476,22214,36991
30136,22199,37424
30408,22162,37379
30808,22133,37378
31057,22114,37474
31298,22121,37351
31566,22137,37761
31873,22165,37692
32132,22175,37721
32292,22204,37814
32256,22204,37655
32200,22177,38047
32188,22156,37967
32212,22123,38009
32285,22113,38103
32288,22108,38172
32304,22124,38252
32293,22153,38368
32384,22185,38548
32532,22208,38501
32580,22189,38545
32573,22181,38620
32519,22146,38788
32444,22116,38657
32308,22110,38791
32240,22109,38932
32292,22116,38620
32472,22151,38978
32604,22183,39059
32636,22192,39199
32560,22193,39167
32512,22173,39204
32444,22148,39321
32312,22104,39172
32332,22089,39431
32341,22092,39655
32444,22118,39599
32644,22150,39780
32752,22183,39733
32828,22207,39911
32766,22183,39855
32704,22166,39854
32688,22141,39855
32640,22103,40033
32588,22091,40030
32660,22111,40032
32752,22117,40101
32888,22143,40125
32982,22169,39904
33036,22192,40398
33038,22180,40308
32956,22164,40268
32877,22133,40108
32777,22107,40378
32672,22094,40369
32633,22097,40420
32656,22123,40433
32776,22140,40501
32894,22174,40176
32996,22181,40660
33028,22175,40381
32976,22157,40497
32820,22138,40532
32673,22087,40612
32590,22083,40357
32612,22092,40592
32804,22119,40628
32990,22133,40788
33144,22173,40743
33184,22181,40908
33214,22181,40749
33172,22151,40703
33065,22133,40896
32972,22103,40828
32952,22092,40928
32976,22097,40879
33068,22101,41013
33220,22134,40910
33336,22161,41047
33380,22173,40869
33260,22164,40949
33100,22139,41091
33004,22121,40604
32976,22100,41095
32949,22081,40753
32961,22087,40948
33040,22117,40892
33097,22131,41063
33176,22165,40967
33266,22175,41231
33272,22171,40741
33208,22151,41004
33112,22131,41036
32952,22096,41111
32840,22084,41237
32800,22079,41151
32808,22107,41260
32832,22133,41148
32748,22162,41212
32652,22177,41025
32516,22172,41044
32396,22148,41206
32256,22124,41190
32213,22098,41219
32220,22076,41213
32278,22084,40839
32352,22103,41174
32464,22135,41351
32592,22153,41141
32604,22181,41104
32544,22172,40861
32520,22143,41206
32397,22116,40948
32324,22086,41220
32305,22065,41143
32388,22079,41153
32480,22103,41165
32548,22124,41214
32472,22161,41340
32500,22173,41223
32533,22172,41343
32480,22144,41161
32477,22117,41108
32532,22090,41208
32500,22084,41133
32436,22089,41165
32512,22092,41119
32700,22117,41045
32872,22158,41116
32896,22167,41247
32854,22157,41218
32724,22150,41216
32624,22125,41202
32584,22094,41160
32656,22073,41223
32720,22079,41303
32796,22114,41207
32940,22120,41264
33016,22151,41191
33044,22183,41136
33040,22165,41109
32936,22144,41073
32805,22127,41153
32740,22091,40951
32660,22065,41256
32601,22073,40903
32712,22100,41151
32792,22127,41231
32844,22159,41319
32872,22186,41194
32836,22158,41164
32804,22136,41285
32741,22121,41252
32704,22078,41351
32648,22070,41212
32596,22077,41153
32596,22095,41217
32676,22125,41134
32773,22157,41141
32880,22162,41132
32976,22155,41126
33008,22137,41201
32928,22121,41151
32684,22093,41172
32452,22062,41160
32392,22071,41157
32508,22098,41143
32692,22128,41289
32904,22150,40887
32928,22161,41298
32856,22156,40877
32769,22148,41309
32705,22115,41223
32688,22081,41388
32664,22060,41199
32732,22066,41247
32892,22094,40869
32916,22127,41137
32885,22151,41131
32948,22163,41074
32953,22162,40838
32913,22140,41205
32892,22100,40781
32834,22079,41292
32752,22072,41145
32688,22061,41049
32601,22092,41037
32701,22116,40836
32884,22148,41220
32992,22159,41072
32996,22159,41068
32989,22135,41037
32904,22113,41044
32828,22071,40948
32768,22061,40700
32784,22075,41095
32792,22099,40967
32832,22110,40896
32876,22150,40876
32924,22168,40933
32952,22142,40853
32956,22135,40827
32894,22111,40495
32796,22071,40948
32701,22063,40692
32640,22079,40814
32693,22083,40813
32792,22112,40653
32848,22149,40409
32864,22164,40669
32821,22150,40588
32745,22124,40597
32660,22107,40669
32570,22083,40785
32584,22057,40621
32549,22062,40711
32496,22092,40588
32500,22116,40708
32552,22151,40553
32650,22155,40590
32720,22145,40487
32798,22130,40469
32764,22111,40349
32678,22065,40244
32600,22055,40444
32616,22066,40149
32594,22088,40377
32652,22110,40342
32656,22145,40284
32644,22167,40160
32605,22142,39951
32552,22129,40364
32573,22107,40208
32545,22076,40252
32489,22049,40089
32548,22056,40029
32544,22089,40129
32602,22111,40052
32712,22148,40149
32830,22175,39996
32772,22139,39964
32712,22125,39895
32601,22101,39855
32584,22063,39809
32564,22052,39782
32565,22058,39771
32560,22084,39740
32628,22119,39720
32828,22150,39849
33013,22148,39344
33048,22135,39717
32960,22125,39620
32832,22103,39624
32757,22074,39423
32616,22052,39188
32592,22071,39584
32628,22083,39431
32720,22109,39407
32840,22139,39303
32868,22145,39269
32864,22146,39244
32897,22127,39197
32805,22109,39055
32793,22060,39125
32873,22046,39156
32900,22057,38955
32944,22091,38980
33096,22118,39037
33253,22140,38885
33388,22152,38772
33276,22148,38839
33077,22125,38765
32896,22101,38767
32750,22083,38589
32600,22047,38556
32622,22059,38582
32727,22085,38493
32876,22113,38516
32909,22154,38420
32837,22144,38477
32732,22147,38328
32580,22121,38364
32580,22100,38192
32576,22068,38032
32608,22060,37894
32672,22053,38071
32656,22076,37834
32632,22106,37919
32732,22143,37660
32818,22154,37778
32776,22149,37708
32600,22129,37745
32500,22100,37649
32428,22069,37545
32336,22060,37567
32312,22049,37588
32304,22079,37452
32388,22109,37423
32612,22137,37324
32728,22151,37317
32796,22135,37189
32869,22108,37216
32932,22096,37041
32924,22071,36897
32892,22038,36772
32888,22055,36716
32980,22092,36647
33084,22110,36554
33180,22137,36533
33192,22149,36452
33108,22148,36252
33132,22119,36085
33226,22095,36111
33300,22063,36104
33388,22052,35999
33644,22055,35964
33872,22076,35793
33984,22105,35672
34176,22147,35563
34536,22134,35481
34892,22135,35353
35040,22121,35223
35164,22101,35111
35068,22085,34956
34996,22044,34857
35076,22059,34652
35296,22092,34604
35392,22129,34408
35236,22137,34310
35056,22167,34045
34681,22160,34182
34396,22130,34023
33928,22116,33852
32604,22092,33760
31389,22081,33518
31192,22073,33400
30816,22109,33308
30248,22132,33257
30084,22150,33103
30417,22165,32989
30988,22156,32793
31298,22125,32562
31471,22103,32478
31632,22064,32322
31908,22063,32192
32232,22068,32012
32552,22095,31983
32837,22106,31869
33016,22151,31781
33132,22155,31438
33129,22143,31387
33063,22114,31292
32988,22103,31124
32820,22063,30988
32644,22052,30823
32572,22055,30690
32712,22078,30590
33012,22109,30380
33108,22148,30253
33092,22143,30081
33057,22140,29876
32896,22119,29776
32844,22107,29489
32864,22052,29446
32902,22058,29373
32956,22060,29213
33006,22079,29132
32866,22108,28985
32764,22148,28837
32716,22156,28625
32708,22135,28573
32724,22111,28382
32760,22091,28380
32801,22055,28135
32919,22046,28173
32956,22063,28032
33008,22085,27929
33121,22092,27700
33164,22132,27712
33136,22147,27500
33116,22126,27471
33144,22116,27296
33068,22089,27241
32812,22061,27121
32504,22059,26984
32440,22049,26814
32620,22070,26653
32912,22103,26570
33080,22140,26358
33040,22151,26281
32917,22135,26060
32896,22120,26085
33016,22085,25806
33236,22050,25783
33412,22060,25556
33484,22049,25561
33516,22072,25309
33376,22095,25340
33280,22132,25035
33189,22148,25039
33124,22140,24879
33156,22106,24786
33204,22078,24676
33376,22060,24432
33600,22044,24421
33612,22049,24300
33261,22084,24069
33024,22101,23994
33040,22141,23841
33120,22151,23723
33188,22127,23553
33384,22113,23506
33400,22087,23364
33400,22056,23100
33445,22034,23076
33529,22042,22829
33543,22078,22808
33472,22103,22600
33316,22141,22548
33229,22151,22319
33148,22119,22298
33284,22103,22164
33530,22076,22020
33696,22047,21887
33716,22033,21708
33657,22047,21605
33644,22081,21432
33608,22096,21324
33614,22140,21148
33573,22143,21045
33648,22144,20875
33584,22112,20772
33404,22074,20660
33256,22039,20468
33276,22038,20382
33416,22044,20225
33412,22072,20120
33213,22101,19968
33076,22138,19877
33046,22125,19722
32950,22125,19621
32804,22105,19485
32788,22086,19393
32924,22038,19260
32964,22037,19136
32912,22047,19023
32820,22069,18879
32636,22093,18796
32445,22126,18680
32336,22141,18585
32365,22146,18470
32488,22101,18366
32573,22085,18256
32616,22049,18172
32680,22044,18056
32860,22059,17980
32892,22068,17866
32900,22089,17793
32833,22124,17680
32752,22133,17587
32788,22126,17531
32821,22106,17433
32800,22082,17376
32688,22056,17268
32624,22053,17210
32548,22047,17119
32577,22076,17033
32688,22096,16950
32800,22148,16886
32860,22130,16807
32744,22130,16748
32570,22110,16751
32464,22100,16619
32576,22042,16599
32737,22034,16525
32988,22044,16461
33220,22071,16420
33216,22103,16360
33272,22140,16315
33334,22145,16318
33380,22135,16220
33176,22100,16244
32960,22075,16157
32672,22046,16167
32648,22030,16066
32752,22057,16088
32923,22068,15990
33092,22096,15937
33077,22135,15934
32916,22133,15940
32777,22122,15864
32710,22103,15815
32628,22083,15869
32496,22041,15793
32492,22044,15765
32544,22041,15701
32642,22065,15759
32720,22101,15702
32897,22131,15735
33108,22145,15670
33260,22119,15733
33317,22096,15658
33237,22084,15718
33172,22040,15673
33164,22052,15689
33188,22044,15639
33260,22083,15636
33356,22101,15690
33320,22141,15670
33157,22131,15732
32944,22124,15673
32856,22100,15750
32828,22079,15689
32781,22047,15741
32532,22041,15720
32356,22055,15822
32399,22062,15774
32621,22089,15857
32944,22138,15841
33316,22136,15902
33429,22123,15884
33421,22109,15995
33364,22071,15933
33328,22036,16045
33285,22039,16007
33192,22045,16076
33180,22065,16165
33116,22086,16154
33056,22124,16261
33120,22140,16258
33092,22120,16336
32988,22106,16401
32852,22076,16502
32700,22054,16507
32728,22032,16572
32884,22047,16677
32984,22066,16739
32996,22105,16831
32992,22132,16868
33012,22130,16960
33000,22117,17031
32916,22094,17131
32905,22074,17221
32928,22049,17325
32948,22028,17415
32944,22041,17526
32964,22075,17615
33057,22098,17713
33104,22137,17842
33125,22129,17955
33028,22119,18077
32900,22100,18178
32798,22079,18311
32660,22039,18417
32480,22030,18554
32418,22047,18669
32556,22076,18817
32696,22095,18944
32960,22129,19081
33180,22126,19232
33104,22117,19368
32816,22105,19534
32573,22077,19680
32492,22036,19859
32532,22039,20034
32673,22048,20205
32832,22085,20382
32960,22087,20521
32996,22120,20754
32952,22132,20911
32952,22130,21127
32884,22110,21260
32782,22060,21533
32644,22033,21732
32644,22023,21959
32632,22039,22172
32714,22064,22391
32886,22101,22600
33092,22127,22772
33180,22129,23017
33104,22115,23145
32968,22092,23492
32884,22076,23700
32828,22041,23986
32760,22036,24095
32792,22047,24474
32896,22071,24709
32940,22098,24860
32952,22127,25154
32964,22145,25324
33020,22113,25652
33036,22092,25906
32940,22079,26245
32909,22028,26502
32901,22023,26661
32952,22043,26900
33026,22069,27281
33128,22101,27525
33233,22125,27636
33264,22129,28064
33228,22117,28345
33160,22097,28448
33052,22071,28792
32929,22044,29082
32813,22032,29245
32780,22045,29553
32772,22063,29776
32820,22089,30143
32871,22120,30428
32896,22121,30719
32844,22109,30940
32645,22097,31089
32493,22065,31487
32351,22038,31750
32391,22026,31871
32600,22034,32280
32825,22064,32589
32860,22102,32784
32736,22109,33111
32636,22117,33272
32484,22111,33452
32380,22082,33636
32286,22056,33999
32240,22022,34308
32308,22023,34280
32415,22031,34749
32492,22046,34980
32624,22082,35169
32684,22110,35484
32724,22117,35703
32680,22104,35940
32616,22079,36141
32621,22053,36188
32625,22030,36487
32636,22014,36833
32700,22034,37052
32738,22052,37345
32800,22085,37244
32840,22108,37612
32957,22114,37871
33025,22101,38043
33072,22085,38360
33228,22060,38148
33356,22015,38727
33568,22012,38751
33653,22023,39092
33622,22060,39108
33744,22071,39246
34112,22113,39106
34422,22111,39572
34752,22103,39736
34984,22073,39968
35080,22049,40012
35256,22030,40301
35508,22014,40317
35652,22041,40484
35624,22050,40561
35777,22087,40797
35901,22119,40801
35772,22127,41057
35264,22127,41009
33936,22100,41174
32434,22078,41095
31965,22048,41348
31448,22039,41637
30496,22052,41580
30100,22074,41796
30392,22092,41495
30972,22127,41813
31422,22119,41644
31553,22106,42252
31584,22080,42247
31796,22061,42228
32048,22020,42299
32212,22012,42144
32336,22030,42706
32452,22061,42728
32496,22074,42725
32480,22103,42853
32452,22118,42844
32388,22098,42926
32320,22082,42806
32289,22038,43224
32248,22017,43301
32220,22015,43399
32296,22028,43103
32412,22060,43365
32540,22072,43236
32626,22108,43638
32708,22109,43737
32744,22087,43716
32688,22071,43879
32576,22040,43911
32377,22013,44004
32312,22001,44039
32304,22023,43837
32396,22046,44092
32505,22073,44183
32596,22098,44348
32672,22103,44397
32700,22090,44164
32696,22068,44378
32632,22042,44383
32516,22017,44502
32484,21993,44480
32592,22023,44685
32728,22037,44749
32785,22073,44830
32928,22094,44837
33048,22096,44924
33148,22087,44796
33116,22066,44741
32948,22045,44848
32788,22009,44806
32671,21996,44876
32698,22009,44743
32820,22038,44935
32936,22066,44908
33100,22106,45036
33044,22094,45002
33008,22079,44716
32848,22063,44985
32752,22031,44685
32676,22006,44935
32684,22006,44646
32782,22028,44878
32828,22053,44676
32832,22053,44836
32900,22107,44910
32980,22116,44877
33138,22078,44788
33202,22055,44839
33232,22029,44540
33192,22004,44693
33148,21997,44639
33181,22014,44783
33216,22035,44701
33294,22062,44375
33344,22089,44583
33348,22100,44423
33264,22096,44551
33189,22052,44524
33204,22023,44551
33196,21990,44489
33200,22005,44449
33202,22014,44181
33248,22038,44351
33388,22058,44326
33488,22103,44341
33541,22111,44269
33565,22079,44229
33392,22051,44151
33160,22031,43825
32920,21997,44001
32852,21999,43807
32929,22005,43848
33057,22031,43719
33253,22060,43884
33396,22096,43869
33384,22105,43744
33357,22068,43436
33212,22065,43712
33108,22023,43687
33004,22013,43492
32864,21981,43487
32804,21998,43277
32848,22023,43383
32820,22056,43036
32852,22109,43321
32796,22092,43184
32600,22087,43084
32493,22057,43139
32432,22033,43015
32280,22012,42905
32192,21988,42791
32228,22005,42980
32368,22045,42895
32496,22057,42879
32570,22092,42759
32560,22073,42725
32621,22081,42572
32572,22057,42492
32505,22036,42524
32436,21996,42391
32388,21991,42100
32430,22015,42435
32484,22036,41991
32524,22070,42381
32528,22085,42281
32494,22091,42137
32488,22081,42135
32516,22069,41759
32596,22034,42212
32568,21991,42020
32540,21997,42143
32532,22012,41991
32599,22039,42060
32584,22079,41525
32492,22083,41991
32442,22096,41815
32440,22091,41913
32368,22064,41740
32437,22009,41836
32508,22001,41657
32538,21996,41765
32588,22020,41580
32636,22060,41711
32680,22062,41257
32613,22096,41432
32492,22105,41541
32408,22093,41429
32404,22061,41424
32469,22030,41303
32436,22009,41095
32416,22001,41293
32440,22023,41209
32526,22036,41197
32632,22068,41144
32692,22108,41085
32709,22096,41164
32660,22084,41255
32558,22070,41095
32564,22036,41095
32608,22012,40980
32688,22002,40721
32805,22019,41106
32908,22047,40628
32904,22073,41039
32844,22101,40930
32728,22106,41012
32624,22092,40869
32556,22073,40892
32560,22056,40455
32544,22005,40933
32616,22011,40760
32700,22031,40876
32764,22047,40698
32761,22084,40800
32756,22113,40642
32754,22118,40693
32756,22090,40583
32740,22073,40687
32704,22052,40516
32592,22020,40583
32476,22012,40416
32449,22023,40495
32484,22057,40325
32533,22087,40377
32661,22105,39975
32742,22111,40108
32648,22098,40111
32590,22079,40092
32609,22053,39789
32572,22044,40135
32513,22017,39766
32514,22034,39917
32516,22069,39877
32464,22099,39828
32609,22125,39809
32648,22129,39807
32623,22121,39851
32464,22084,39753
32364,22062,39644
32264,22037,39548
32281,22034,39582
32376,22055,39472
32460,22069,39231
32428,22111,39647
32468,22132,39476
32576,22141,39548
32636,22117,39389
32652,22097,39388
32572,22058,39293
32364,22053,39279
32232,22046,39164
32324,22054,39208
32500,22086,39157
32636,22103,39126
32708,22141,39008
32680,22148,38743
32568,22131,39028
32400,22111,38963
32244,22068,39063
32172,22047,38892
32097,22055,38852
32148,22059,38728
32212,22091,38799
32217,22124,38798
32249,22143,38717
32326,22144,38761
32321,22132,38653
32308,22116,38660
32238,22092,38584
32130,22057,38583
32100,22055,38497
32160,22073,38617
32276,22109,38476
32384,22135,38519
32452,22156,38416
32428,22155,38380
32313,22144,38303
32160,22124,38087
32020,22102,38317
31936,22073,38247
31904,22073,38145
31980,22095,38187
32124,22120,37887
32240,22135,38247
32348,22169,38088
32368,22172,37895
32332,22152,38177
32264,22136,38046
32249,22118,38052
32188,22085,37892
32132,22089,37969
32120,22107,38078
32132,22119,37935
32208,22150,37989
32428,22187,37893
32684,22192,37911
32808,22171,37860
32788,22155,37789
32612,22127,37860
32398,22094,37785
32268,22102,37617
32236,22110,37895
32344,22134,37783
32505,22176,37713
32676,22193,37653
32644,22202,37463
32504,22189,37823
32422,22170,37719
32321,22135,37628
32280,22116,37574
32276,22113,37698
32254,22141,37770
32236,22158,37652
32252,22184,37609
32297,22217,37687
32300,22230,37677
32354,22197,37660
32304,22180,37548
32176,22156,37651
32036,22135,37676
31944,22127,37724
31925,22141,37675
32004,22182,37676
32112,22207,37668
32192,22232,37536
32212,22235,37678
32148,22213,37420
32062,22192,37812
31966,22163,37693
31776,22152,37455
31688,22143,37765
31696,22165,37751
31764,22181,37728
31966,22219,37573
32134,22251,37865
32157,22245,37748
32065,22235,37575
31956,22219,37940
31910,22176,37805
31874,22169,37559
31800,22160,37870
31824,22172,37749
31952,22213,37884
32104,22245,37824
32228,22263,37996
32236,22271,37924
32212,22247,37964
32128,22224,37914
32104,22205,37879
32030,22173,38016
32056,22175,37828
32252,22204,38044
32548,22220,38063
32816,22258,38028
33100,22289,38103
33272,22279,38031
33352,22263,38210
33492,22251,38108
33701,22209,37831
33904,22201,37959
34136,22189,38180
34412,22215,38279
34584,22245,38161
34608,22270,38045
34586,22308,38250
34500,22312,38229
34208,22295,38181
33893,22289,37943
33828,22263,38303
33760,22229,38163
33644,22241,38255
33008,22278,38295
31828,22288,38175
31257,22327,38244
30988,22340,38420
30060,22351,38232
29468,22327,38361
29608,22308,38172
30056,22279,38520
30456,22255,38396
30720,22258,38159
31100,22277,38487
31476,22298,38445
31756,22330,38492
31802,22363,38416
31820,22357,38645
31756,22351,38527
31700,22331,38341
31628,22294,38526
31588,22264,38698
31644,22269,38572
31744,22289,38495
31884,22321,38684
32032,22345,38661
32068,22380,38525
32104,22376,38807
32134,22357,38688
32028,22340,38657
31886,22314,38759
31818,22292,38692
31788,22290,38513
31812,22316,38836
31904,22336,38754
32004,22373,38716
32084,22399,38813
32086,22397,38856
32044,22386,38988
32088,22361,38901
32096,22341,38829
32040,22309,38967
31932,22310,38973
31900,22339,38905
31904,22357,39092
31936,22393,38977
32012,22413,38872
32100,22428,39165
32117,22407,39042
32021,22383,39119
31936,22351,39020
31844,22336,38813
31768,22335,39126
31780,22350,38996
31930,22382,39138
32044,22415,38928
32168,22444,38876
32298,22445,38797
32317,22421,38975
32300,22401,38821
32196,22386,38879
32108,22355,38829
32072,22355,38798
32101,22388,38700
32174,22402,38610
32216,22442,38663
32268,22471,38743
32280,22472,38599
32244,22446,38578
32212,22427,38469
32188,22398,38352
32124,22388,38276
32129,22381,38230
32220,22401,38215
32412,22441,38233
32521,22458,38201
32604,22484,38093
32648,22484,38043
32594,22471,38055
32508,22457,37999
32384,22428,37904
32326,22404,37788
32328,22407,37988
32380,22435,37741
32488,22457,37681
32572,22501,37751
32660,22504,37828
32688,22511,37684
32592,22507,37686
32533,22473,37600
32513,22445,37415
32493,22429,37573
32416,22429,37411
32424,22452,37383
32468,22484,37344
32560,22513,37288
32620,22530,37270
32684,22535,37191
32620,22525,37284
32516,22505,37311
32464,22469,37298
32453,22459,37208
32506,22454,36937
32552,22479,37295
32580,22505,37140
32596,22535,36987
32596,22564,37153
32516,22569,37105
32404,22553,37175
32280,22520,37076
32168,22501,36989
32096,22468,37127
32064,22484,37029
32105,22508,36997
32120,22528,37045
32110,22575,36999
32116,22594,36837
31964,22591,37084
31712,22577,36961
31564,22557,36905
31600,22527,36905
31636,22503,37009
31692,22513,36998
31801,22530,36966
31852,22564,36936
31920,22594,37062
32032,22618,36861
32112,22622,37159
32108,22610,37045
32040,22578,36863
32024,22564,37224
32008,22538,37124
31984,22535,37099
32004,22561,37137
32096,22593,37243
32132,22620,37169
32150,22644,37415
32125,22651,37293
32132,22644,37096
32112,22605,37459
32100,22580,37337
32122,22566,37492
32176,22563,37437
32288,22591,37594
32364,22617,37564
32457,22643,37368
32577,22678,37725
32580,22676,37724
32424,22660,37745
32244,22628,37529
32084,22609,37865
32004,22599,37841
32030,22597,37957
32096,22613,37916
32228,22652,38088
32341,22681,38068
32301,22693,38052
32228,22697,38180
32112,22684,38237
32096,22661,38357
32100,22636,38279
32116,22619,38084
32168,22623,38549
32184,22637,38500
32294,22668,38548
32392,22702,38517
32448,22733,38361
32504,22727,38848
32388,22709,38828
32256,22696,38820
32188,22661,38964
32124,22644,39046
32140,22646,39175
32228,22673,39055
32292,22693,38948
32340,22735,39444
32361,22759,39417
32352,22756,39471
32268,22733,39468
32240,22714,39682
32177,22700,39484
32136,22663,39911
32162,22672,39905
32232,22706,39967
32336,22727,39728
32480,22758,40257
32536,22772,40197
32508,22778,40262
32424,22769,40276
32284,22753,40404
32113,22711,40292
32008,22705,40644
32044,22703,40607
32092,22724,40693
32192,22754,40623
32364,22781,40812
32416,22804,40791
32244,22817,41038
32084,22789,40887
31976,22773,40727
31952,22741,41194
32025,22725,41156
32188,22726,41132
32296,22747,41208
32344,22795,41449
32292,22823,41079
32284,22834,41465
32208,22829,41468
32092,22819,41420
31957,22804,41442
31844,22760,41580
31840,22750,41437
31908,22758,41806
31933,22773,41692
32044,22796,41652
32148,22845,41789
32104,22865,41793
31997,22865,41879
31924,22848,41756
31886,22820,41876
31822,22790,41877
31768,22777,41949
31812,22786,41991
31912,22804,41791
32044,22833,42152
32180,22869,42061
32215,22884,41796
32136,22889,42231
32000,22877,42196
31924,22851,42133
31852,22826,42055
31808,22809,42215
31760,22808,42008
31828,22827,42305
31992,22863,42343
32100,22892,42127
32124,22909,42300
32054,22903,42199
31948,22903,42380
31833,22872,42300
31648,22848,42247
31540,22827,42213
31620,22831,42252
31700,22859,42311
31780,22889,42421
31880,22919,42055
31948,22942,42503
31965,22932,42312
31908,22919,42223
31868,22908,42564
31820,22861,42453
31772,22848,42150
31768,22865,42425
31844,22879,42503
31916,22905,42572
32012,22940,42292
32172,22959,42623
32216,22964,42604
32148,22940,42247
31996,22921,42519
31880,22892,42689
31848,22885,42479
31877,22883,42666
31908,22906,42417
31964,22933,42729
32084,22962,42621
32232,22990,42703
32308,22976,42646
32304,22965,42565
32257,22940,42372
32236,22919,42796
32180,22908,42725
32100,22908,42631
31933,22935,42724
31874,22953,42498
31884,22983,42711
31968,23015,42670
32128,23012,42807
32185,22994,42452
32020,22971,42820
31868,22935,42717
31744,22930,42813
31742,22922,42676
31788,22956,42692
31877,22978,42796
31964,23012,42436
32036,23031,42702
32008,23031,42632
31964,23009,42411
31980,22987,42629
31908,22967,42781
31752,22957,42617
31600,22941,42823
31544,22970,42772
31624,23001,42792
31713,23041,42744
31812,23047,42605
31848,23060,42652
31812,23034,42724
31712,23013,42768
31676,22977,42721
31704,22960,42660
31772,22967,42703
31914,22993,42681
32012,23023,42601
32232,23053,42628
32340,23087,42668
32312,23063,42663
32260,23060,42615
32208,23034,42511
32137,22998,42524
32164,22991,42653
32192,22991,42637
32208,23020,42525
32236,23036,42586
32224,23071,42652
32348,23093,42528
32584,23093,42503
32805,23074,42287
32940,23055,42651
33082,23025,42644
33212,22994,42577
33357,23000,42524
33520,23029,42284
33880,23060,42654
34168,23098,42308
34452,23111,42629
34692,23106,42631
34762,23085,42740
34788,23069,42327
34784,23039,42717
34700,23034,42653
34412,23044,42780
34205,23059,42727
34208,23099,42597
34208,23139,42572
34092,23145,42425
33200,23156,42796
31792,23135,42745
31192,23108,42793
30904,23086,42652
30112,23071,42449
29788,23072,42804
30062,23092,42472
30472,23110,42799
30864,23145,42880
31236,23167,42887
31592,23159,42861
31932,23149,42799
32200,23125,42876
32312,23079,42655
32376,23074,42999
32429,23077,42973
32544,23098,42799
32609,23135,42999
32686,23153,42669
32764,23180,42989
32752,23172,42732
32728,23159,43096
32648,23127,43076
32532,23100,43044
32400,23080,42756
32408,23093,43088
32420,23121,43156
32544,23151,43143
32704,23169,43086
32768,23193,43036
32780,23189,43108
32756,23174,43236
32718,23145,43241
32641,23124,43262
32570,23104,43157
32580,23112,43177
32656,23125,43347
32796,23164,43276
32960,23191,43253
33052,23221,43297
33116,23202,43325
33000,23184,43317
32936,23166,43380
32964,23134,43192
32961,23125,43541
32988,23132,43244
33004,23159,43497
33052,23175,43609
32984,23213,43520
32960,23224,43647
32992,23228,43585
33092,23207,43331
33124,23177,43581
33104,23151,43362
33051,23140,43623
32992,23144,43335
32992,23158,43655
33100,23190,43677
33224,23228,43609
33252,23253,43527
33241,23239,43468
33196,23223,43446
33168,23204,43444
33136,23174,43559
33112,23156,43490
33116,23169,43507
33200,23177,43289
33312,23213,43306
33376,23251,43052
33449,23269,43382
33460,23251,43346
33461,23237,43249
33424,23221,43271
33364,23188,43203
33285,23172,43236
33268,23187,43201
33404,23199,43180
33522,23221,43105
33580,23267,43055
33600,23271,42859
33572,23268,42933
33572,23253,43039
33493,23225,43045
33492,23204,42868
33488,23184,42643
33516,23191,42958
33580,23208,42806
33632,23249,42756
33720,23271,42860
33856,23291,42944
33792,23279,42557
33732,23265,42901
33652,23244,42900
33556,23223,42759
33424,23199,42925
33464,23207,42732
33553,23228,42540
33584,23255,42880
33525,23291,42825
33524,23312,42476
33476,23302,42773
33476,23289,42775
33534,23252,42726
33584,23233,42533
33488,23209,42629
33444,23223,42600
33468,23247,42336
33440,23278,42556
33330,23305,42537
33268,23320,42532
33232,23317,42616
33176,23303,42678
33072,23273,42607
32952,23237,42648
32844,23229,42553
32842,23237,42407
32936,23260,42361
33044,23295,42109
33080,23320,42500
33092,23331,42429
33064,23333,42503
33014,23315,42015
32944,23289,42246
32856,23264,42276
32768,23249,42309
32768,23253,42167
32873,23272,42239
33016,23300,42212
33136,23337,42068
33190,23352,42100
33168,23356,42132
33164,23341,41991
33108,23303,42178
32989,23276,41917
32804,23255,42036
32700,23273,41900
32765,23297,42092
32916,23321,41836
33044,23355,41524
33204,23377,41991
33284,23364,41724
33208,23349,41508
33080,23325,41932
32948,23305,41767
32824,23277,41727
32893,23287,41632
32988,23305,41700
33128,23344,41791
33369,23373,41668
33445,23394,41585
33423,23381,41583
33324,23361,41584
33240,23334,41660
33101,23307,41479
33044,23294,41191
33068,23298,41668
33110,23327,41532
33112,23356,41443
33124,23385,41552
33196,23404,41240
33248,23395,41572
33312,23377,41453
33373,23348,41497
33312,23329,41397
33124,23308,41333
33057,23320,41287
33120,23336,41335
33217,23364,41376
33300,23399,41030
33412,23429,41510
33477,23401,41293
33516,23391,41360
33492,23359,41288
33436,23335,41479
33352,23327,41223
33360,23326,41313
33461,23353,41365
33584,23372,41192
33664,23423,41284
33685,23428,41425
33700,23419,41271
33649,23409,41175
33512,23388,41148
33364,23348,40964
33264,23333,41209
33232,23342,41197
33220,23366,41084
33336,23397,41152
33420,23425,41067
33508,23431,41105
33564,23437,41024
33480,23417,41049
33364,23385,40768
33288,23352,41072
33232,23351,41039
33216,23357,41027
33228,23389,40914
33308,23412,40998
33368,23432,40926
33428,23452,40922
33452,23447,40855
33445,23423,40986
33428,23399,40912
33404,23367,40946
33324,23365,40760
33272,23375,40517
33216,23395,40981
33168,23419,40807
33152,23447,40583
33164,23466,40943
33209,23452,40753
33223,23432,40812
33248,23417,40735
33248,23380,40664
33258,23366,40674
33280,23381,40711
33424,23405,40711
33472,23428,40583
33420,23471,40584
33268,23477,40576
33132,23474,40313
33060,23438,40689
33056,23419,40591
33091,23391,40697
33120,23385,40582
33124,23384,40663
33143,23409,40540
33200,23444,40469
33236,23476,40437
33312,23487,40159
33325,23476,40576
33286,23463,40437
33190,23431,40479
33072,23399,40493
32976,23399,40422
32964,23392,40409
33020,23427,40375
33104,23455,40299
33248,23495,40252
33368,23498,40341
33372,23490,40427
33248,23470,40308
33148,23437,40375
33056,23413,40232
33074,23404,40185
33132,23413,40199
33180,23428,40268
33232,23463,40185
33236,23495,40288
33228,23497,40161
33210,23492,40245
33224,23474,40103
33236,23459,39943
33176,23418,40063
33068,23412,39743
33152,23422,40167
33272,23452,40036
33400,23462,39773
33520,23502,40120
33620,23526,39943
33546,23507,39930
33440,23487,39903
33348,23472,39807
33300,23432,39940
33348,23428,40069
33360,23425,39610
33412,23458,39814
33524,23484,39860
33588,23518,39897
33648,23537,39884
33616,23517,39860
33542,23503,39886
33465,23471,39789
33312,23451,39933
33236,23439,39860
33276,23447,39580
33332,23473,39980
33444,23503,39844
33522,23523,39668
33552,23537,39967
33452,23527,39764
33222,23508,39832
32996,23495,39745
32876,23457,39921
32844,23449,39693
32876,23455,39484
32992,23483,39882
33101,23511,39808
33252,23540,39852
33312,23552,39708
33320,23533,39599
33232,23519,39838
33058,23501,39788
32916,23457,39868
32920,23447,39805
32968,23475,39772
33040,23477,39734
33092,23517,39727
33148,23551,39738
33240,23567,39776
33280,23546,39736
33176,23529,39521
33028,23500,39943
32904,23473,39825
32852,23469,39876
32844,23465,39812
32928,23492,39815
33064,23524,39759
33185,23548,39783
33313,23569,39785
33332,23556,39791
33224,23529,39740
33124,23510,39876
33057,23476,39965
33088,23467,39673
33214,23478,39766
33317,23511,39772
33440,23528,40039
33672,23564,39908
33941,23569,40046
34120,23565,39924
34248,23545,39868
34248,23519,39844
34384,23487,39828
34720,23472,40017
35068,23484,39961
35252,23513,40056
35416,23525,39952
35592,23567,39996
35728,23580,39904
35816,23582,39806
35720,23556,39892
35344,23529,39839
35036,23503,40047
34864,23504,39960
34712,23519,40043
34508,23545,39925
33641,23577,39878
32276,23600,39867
31796,23609,39670
31536,23605,40028
30784,23585,39953
30588,23556,39965
30932,23527,39655
31392,23505,40029
31777,23514,39663
32133,23543,40125
32528,23567,40006
32849,23594,40103
33084,23604,40004
33168,23601,40111
33152,23576,39988
33060,23558,39933
32948,23514,39967
32860,23511,39974
32917,23526,40009
33080,23549,39971
33252,23578,39712
33336,23605,40150
33306,23604,40031
33193,23596,40143
33076,23582,39677
33004,23553,40077
33004,23525,40014
33014,23514,40021
33188,23534,39953
33332,23550,40058
33448,23589,39975
33628,23612,40012
33696,23620,39989
33552,23614,40003
33316,23591,40012
33120,23559,40133
33048,23532,39723
33120,23520,39984
33236,23534,40084
33342,23569,40084
33320,23587,40210
33304,23623,39782
33272,23636,40215
33252,23617,40100
33184,23589,40233
33109,23580,40116
33072,23539,40189
33140,23520,40103
33192,23533,40023
33300,23564,40167
33356,23594,40101
33446,23621,40164
33540,23632,40055
33572,23624,40135
33600,23602,40037
33526,23572,40039
33412,23545,40000
33368,23529,40068
33385,23545,39981
33384,23578,40060
33389,23601,39908
33416,23631,39981
33408,23643,39861
33464,23634,39879
33456,23611,39655
33436,23583,39776
33464,23545,39388
33428,23546,39636
33440,23556,39581
33493,23584,39582
33576,23601,39604
33688,23637,39559
33796,23644,39644
33808,23639,39396
33750,23614,39400
33664,23589,39410
33532,23567,39410
33436,23544,39431
33440,23569,39348
33580,23588,39340
33732,23622,39240
33916,23645,39172
33998,23653,39320
33972,23646,39205
33876,23616,39047
33720,23592,39234
33660,23567,39132
33732,23551,38951
33776,23568,39186
33828,23591,39132
33908,23623,39175
34020,23660,39045
34036,23662,39100
34016,23655,39036
33964,23628,38988
33924,23599,38919
33860,23569,38777
33852,23556,39077
33780,23575,38925
33765,23595,38909
33740,23628,38853
33704,23659,38781
33628,23671,38768
33564,23665,38775
33468,23625,38735
33308,23619,38613
33216,23571,38628
33184,23569,38568
33224,23580,38628
33304,23613,38460
33301,23622,38639
33260,23661,38329
33226,23682,38429
33196,23655,38612
33116,23637,38513
33004,23617,38543
32917,23575,38442
32884,23567,38477
32954,23588,38399
33028,23612,38386
33032,23650,38279
32980,23664,38247
32942,23672,38260
32920,23663,38185
32904,23652,38193
32900,23629,37945
32864,23597,38292
32820,23581,38158
32804,23590,38143
32864,23620,38093
32845,23650,38036
32876,23682,38004
32953,23690,37774
33006,23669,38031
32984,23646,37895
32892,23626,37911
32732,23598,37799
32620,23595,37845
32672,23613,37855
32840,23631,37868
33096,23657,37804
33280,23692,37784
33332,23692,37789
33284,23679,37821
33220,23655,37921
33112,23627,37825
33045,23604,37904
33028,23597,37793
33098,23611,37820
33176,23639,37767
33228,23662,37819
33272,23705,37767
33196,23705,37692
33152,23684,37711
33109,23663,37665
33084,23642,37622
33120,23615,37620
33182,23611,37609
33284,23632,37572
33352,23650,37637
33421,23679,37487
33492,23715,37572
33584,23719,37559
33568,23708,37599
33404,23677,37402
33276,23657,37588
33140,23617,37429
33156,23613,37595
33208,23637,37492
33336,23658,37767
33344,23687,37637
33384,23716,37532
33388,23722,37550
33348,23712,37636
33320,23695,37704
33220,23657,37589
33140,23631,37716
33080,23630,37593
33143,23633,37671
33228,23658,37288
33292,23686,37477
33344,23721,37449
33376,23732,37390
33228,23719,37440
33080,23701,37464
32864,23678,37511
32720,23644,37159
32796,23641,37300
33022,23644,37302
33204,23670,37337
33340,23704,37449
33388,23736,37117
33364,23743,37208
33192,23732,37269
33072,23703,37028
32996,23676,37237
32908,23641,37221
32880,23645,37117
32984,23652,37175
33092,23682,37181
33220,23706,36935
33284,23743,37079
33360,23742,37151
33312,23738,37044
33214,23712,37065
33220,23685,36868
33240,23655,36927
33174,23647,36871
33128,23665,36948
33168,23692,36988
33192,23718,36809
33276,23742,36709
33385,23754,36741
33392,23741,36836
33336,23716,36827
33248,23692,36903
33184,23663,36772
33148,23652,36743
33132,23669,36654
33156,23687,36727
33188,23719,36601
33196,23748,36661
33200,23756,36701
33129,23746,36764
33088,23727,36407
33032,23692,36540
32944,23661,36596
32836,23655,36612
32877,23672,36513
32932,23690,36535
33046,23724,36573
33088,23753,36665
33196,23761,36292
33104,23748,36439
32904,23728,36452
32684,23703,36515
32598,23660,36524
32644,23664,36401
32820,23676,36359
33064,23703,36336
33248,23727,36340
33240,23764,36329
33180,23767,36383
33120,23742,36376
33028,23717,36359
32972,23700,36385
32888,23679,36431
32868,23661,36359
32985,23675,36341
33132,23705,36325
33253,23733,36420
33300,23767,36297
33356,23780,36203
33408,23748,36190
33316,23724,36257
33241,23701,36271
33152,23672,36113
33070,23668,36231
33104,23685,36339
33180,23716,36216
33232,23744,36112
33220,23765,36125
33248,23776,36207
33190,23767,36204
33084,23735,36204
33026,23713,36265
32936,23681,36077
32960,23685,36079
33044,23692,36112
33185,23718,36185
33285,23737,36253
33320,23767,35933
33328,23775,36087
33285,23762,36076
33248,23748,36144
33229,23717,36124
33174,23687,36151
33160,23686,36071
33204,23695,36140
33104,23719,36094
33044,23741,36273
32997,23775,36165
33152,23780,36268
33220,23768,36189
33068,23748,36285
32800,23711,36196
32668,23687,36292
32684,23687,36198
32792,23702,36303
32960,23716,36221
33036,23748,36305
33006,23780,35968
33004,23789,36111
32888,23771,35975
32908,23748,36325
32840,23711,36245
32788,23697,36252
32764,23683,36252
32884,23695,36340
32988,23719,36268
33008,23751,36352
33016,23781,36263
33041,23783,36319
33029,23773,36081
32968,23751,36300
32864,23719,36069
32824,23687,36252
32788,23687,36169
32792,23702,36389
32900,23716,36299
32976,23757,36216
33084,23785,36335
33105,23798,36136
33056,23772,36250
33112,23748,36237
33088,23721,36359
33116,23695,36341
33232,23684,36381
33468,23701,36265
33776,23733,36351
34100,23749,36457
34260,23788,36359
34380,23785,36445
34592,23767,36359
34880,23747,36461
35128,23724,36370
35192,23701,36452
35204,23684,36184
35128,23698,36300
35204,23735,36364
35286,23772,36473
35220,23791,36359
34988,23801,36384
34964,23807,36292
34744,23773,36162
34356,23749,36452
33568,23725,36423
32185,23720,36508
31452,23734,36184
31486,23754,36340
30820,23784,36212
30292,23815,36581
30476,23813,36487
31012,23790,36536
31501,23768,36424
31848,23740,36435
32058,23714,36548
32260,23708,36436
32444,23723,36553
32596,23749,36538
32632,23773,36594
32656,23799,36592
32684,23805,36601
32744,23797,36540
32752,23765,36557
32761,23735,36487
32680,23711,36748
32596,23701,36688
32612,23719,36629
32688,23743,36704
32744,23773,36751
32789,23798,36735
32817,23809,36672
32820,23791,36761
32777,23766,36822
32672,23743,36812
32648,23696,36871
32673,23703,36832
32736,23719,36764
32802,23753,36868
32892,23766,36652
32961,23793,36955
33000,23802,36728
33020,23789,36913
33036,23767,36926
32940,23735,36964
32892,23703,36959
32869,23705,36950
32905,23719,36999
32940,23749,36996
32929,23779,37013
33008,23800,37093
33016,23804,37191
32885,23788,37164
32780,23765,37284
32784,23738,37175
32876,23708,37252
33056,23700,37202
33204,23718,37215
33204,23742,37083
33093,23780,37207
32948,23797,37183
33004,23812,37108
33052,23785,37084
32996,23761,37101
32996,23733,36887
33076,23708,37172
33131,23708,37108
33180,23719,37193
33248,23754,37084
33338,23770,37060
33416,23801,36999
33428,23803,36908
33396,23789,36942
33280,23765,36917
33148,23751,36909
33044,23701,36948
33044,23704,36887
33088,23721,36925
33176,23749,36836
33308,23781,36864
33420,23780,36781
33437,23794,36846
33456,23791,36724
33460,23761,36780
33420,23735,36697
33384,23710,36743
33412,23697,36658
33492,23719,36656
33516,23748,36573
33549,23772,36500
33548,23799,36516
33453,23792,36335
33412,23787,36574
33344,23767,36452
33297,23732,36380
33264,23713,36495
33204,23714,36486
33272,23712,36573
33414,23745,36449
33572,23773,36540
33656,23801,36432
33560,23803,36348
33300,23785,36372
33044,23755,36252
32828,23739,36389
32711,23697,36150
32684,23700,36313
32776,23722,36167
32876,23740,36370
33004,23777,36280
33136,23799,36212
33172,23803,36220
33124,23781,36024
32996,23760,36312
32860,23729,36201
32676,23708,36276
32480,23703,36159
32380,23724,36252
32352,23749,36125
32384,23775,36121
32481,23796,36110
32544,23796,36116
32564,23785,36084
32633,23759,36060
32665,23735,36055
32668,23713,36100
32604,23701,36027
32536,23721,35992
32624,23738,35737
32736,23772,35861
32868,23797,35864
32948,23794,35940
32929,23788,35927
32932,23767,35897
32912,23735,35823
32884,23701,35799
32864,23700,35887
32887,23717,35880
32960,23742,35925
33076,23775,35868
33160,23807,35892
33220,23804,35817
33192,23788,35727
33060,23762,35781
32976,23726,35708
32893,23705,35788
32828,23703,35762
32860,23716,35751
32972,23745,35540
33133,23777,35856
33230,23797,35780
33212,23805,35808
33145,23783,35727
33012,23769,35527
32916,23731,35725
32888,23706,35733
32932,23704,35677
32997,23723,35713
33148,23751,35678
33240,23772,35604
33257,23799,35580
33161,23808,35617
33076,23789,35432
33028,23760,35730
33032,23735,35480
33012,23708,35668
33004,23708,35745
33008,23722,35460
33048,23749,35551
33084,23780,35578
33140,23804,35609
33188,23806,35528
33196,23780,35591
33140,23759,35549
33104,23725,35607
33096,23710,35575
33144,23709,35620
33220,23724,35659
33266,23750,35358
33278,23778,35540
33325,23813,35527
33328,23795,35571
33332,23785,35575
33285,23761,35566
33160,23733,35630
33014,23709,35525
32945,23696,35548
32948,23717,35520
32988,23753,35518
33100,23779,35479
33144,23804,35487
33088,23810,35224
33024,23791,35335
32980,23754,35202
32952,23730,35429
32828,23705,35175
32746,23711,35476
32772,23720,35369
32896,23750,35410
33020,23782,35351
33112,23793,35293
33152,23796,35297
33192,23783,35311
33104,23753,35293
32999,23722,35309
32976,23708,35247
32993,23711,35224
33076,23717,35213
33084,23741,35260
33080,23778,34927
33076,23797,35084
33072,23803,34990
33060,23789,35067
33020,23750,35077
32940,23729,35060
32892,23705,34933
32848,23707,34934
32824,23719,34937
32812,23743,34961
32869,23775,34905
32984,23798,34940
33082,23803,35000
33141,23775,34885
33093,23757,34898
33056,23727,34870
33076,23710,34833
33070,23709,34696
33078,23723,34804
33124,23748,34806
33156,23776,34588
33208,23807,34620
33136,23800,34748
33045,23775,34703
32904,23766,34721
32852,23724,34668
32820,23709,34704
32832,23699,34621
32964,23716,34538
33052,23741,34556
33104,23780,34630
33173,23801,34545
33200,23799,34557
33172,23789,34498
33116,23751,34533
33116,23728,34461
33093,23714,34495
33028,23715,34197
32952,23725,34287
32968,23755,34332
33036,23769,34343
33132,23804,34380
33212,23799,34087
33088,23781,34165
32988,23761,34098
32858,23735,34148
32808,23705,34045
32853,23708,34100
33044,23725,34119
33196,23753,34065
33294,23778,33998
33328,23796,33980
33260,23798,33975
33252,23788,33929
33260,23758,33823
33196,23725,33730
33132,23709,33815
33140,23711,33799
33220,23725,33743
33232,23749,33653
33252,23781,33644
33285,23811,33522
33332,23812,33671
33329,23781,33591
33262,23760,33548
33144,23732,33372
33037,23718,33372
33008,23719,33316
33052,23734,33406
33076,23750,33367
33160,23787,33348
33276,23812,33276
33276,23804,33102
33180,23783,33173
33061,23753,33111
32856,23732,33212
32708,23707,33101
32694,23708,33183
32724,23721,33172
32804,23749,33117
32952,23793,33153
33032,23798,33068
33044,23807,32948
33012,23788,32897
32957,23761,33013
32869,23732,32900
32816,23711,32796
32768,23709,32907
32720,23730,32927
32630,23749,32909
32632,23775,32941
32736,23799,32870
32772,23805,32764
32716,23791,32828
32656,23757,32746
32624,23729,32697
32608,23711,32590
32628,23704,32821
32776,23724,32573
32968,23749,32759
33049,23787,32546
33016,23804,32609
32845,23805,32577
32684,23780,32646
32636,23758,32602
32636,23727,32687
32668,23708,32657
32712,23698,32510
32772,23724,32647
32828,23749,32665
32924,23781,32485
33084,23799,32612
33248,23806,32639
33432,23781,32404
33656,23756,32464
33828,23732,32420
33950,23711,32559
34036,23705,32557
34240,23721,32396
34565,23751,32517
34877,23775,32572
35080,23804,32309
35193,23803,32383
35180,23785,32338
35156,23751,32405
35060,23725,32436
34768,23714,32449
34332,23708,32397
34180,23735,32431
33988,23775,32383
33984,23806,32410
33712,23828,32351
32476,23822,32252
31430,23806,32375
31236,23781,32441
30632,23745,32247
30076,23727,32381
30189,23719,32358
30738,23743,32381
31300,23762,32447
31756,23789,32249
32064,23819,32388
32160,23821,32455
32248,23792,32263
32268,23773,32417
32234,23741,32456
32236,23708,32236
32336,23715,32311
32368,23725,32305
32320,23755,32384
32332,23783,32368
32472,23801,32270
32602,23804,32323
32672,23788,32280
32648,23765,32358
32568,23730,32263
32448,23716,32495
32416,23708,32452
32528,23721,32423
32640,23751,32456
32712,23777,32495
32804,23804,32445
32856,23804,32407
32869,23792,32380
32848,23764,32501
32760,23732,32474
32660,23700,32436
32620,23703,32367
32640,23724,32515
32712,23757,32560
32712,23783,32383
32764,23799,32558
32768,23803,32381
32696,23783,32491
32588,23760,32403
32533,23725,32541
32501,23707,32560
32604,23708,32332
32724,23717,32428
32816,23749,32360
32900,23787,32511
32924,23807,32381
32873,23800,32480
32789,23781,32453
32704,23759,32327
32600,23734,32263
32484,23713,32381
32480,23716,32385
32568,23716,32193
32716,23746,32204
32836,23775,32137
32852,23806,32149
32789,23799,32066
32636,23781,32137
32512,23757,32021
32452,23729,32102
32544,23708,32117
32660,23710,31885
32808,23732,31980
32936,23756,31981
33032,23775,31719
33152,23801,31800
33229,23796,31645
33252,23774,31733
33105,23751,31723
32876,23721,31636
32684,23708,31540
32606,23706,31539
32709,23724,31412
32912,23757,31421
33092,23780,31405
33248,23797,31295
33372,23790,31197
33348,23780,31182
33328,23754,30943
33201,23724,31024
33036,23705,30863
32940,23707,30892
32974,23733,30794
33124,23738,30588
33281,23773,30596
33396,23797,30487
33364,23798,30510
33200,23781,30409
32976,23750,30177
32868,23724,30237
32781,23701,30150
32716,23709,30044
32708,23731,29940
32788,23749,29690
32865,23779,29668
32944,23807,29572
32944,23792,29537
32800,23780,29364
32684,23746,29177
32469,23718,29223
32296,23696,29008
32284,23701,28895
32429,23716,28800
32538,23746,28733
32586,23786,28529
32629,23799,28544
32570,23794,28413
32432,23776,28178
32312,23752,28242
32276,23720,28081
32265,23700,27852
32344,23701,27923
32464,23727,27820
32609,23752,27592
32692,23784,27516
32732,23812,27373
32796,23799,27386
32743,23780,27249
32672,23752,27163
32628,23725,26996
32588,23703,26887
32560,23713,26689
32640,23725,26740
32736,23767,26557
32704,23789,26458
32657,23808,26345
32688,23807,26169
32712,23776,26183
32784,23756,26028
32752,23729,25975
32732,23708,25860
32696,23711,25623
32612,23733,25602
32614,23758,25375
32636,23789,25384
32628,23807,25183
32544,23809,25168
32477,23785,25022
32464,23762,24959
32613,23729,24812
32744,23719,24591
32848,23716,24609
33020,23735,24484
33213,23756,24280
33400,23792,24239
33488,23815,24129
33493,23811,23949
33474,23796,23896
33272,23773,23712
32920,23732,23690
32568,23710,23493
32468,23725,23477
32608,23740,23279
32766,23754,23227
32920,23791,23054
33004,23812,23005
33020,23808,22816
33044,23789,22810
33010,23764,22693
32948,23741,22577
32788,23716,22470
32684,23720,22323
32716,23747,22245
32872,23774,22066
32892,23790,22000
32816,23810,21889
32880,23822,21777
32800,23791,21669
32608,23771,21519
32484,23743,21428
32452,23716,21292
32564,23720,21197
32664,23749,21050
32780,23767,20940
32868,23796,20809
32960,23821,20697
32911,23825,20570
32729,23790,20460
32608,23777,20327
32608,23740,20207
32568,23718,20092
32636,23732,19967
32744,23743,19840
32876,23763,19719
32948,23807,19594
32929,23821,19469
32968,23824,19348
32992,23807,19220
32954,23780,19109
32830,23741,18990
32688,23722,18858
32592,23723,18754
32644,23745,18624
32760,23777,18530
32900,23810,18404
32928,23828,18282
32805,23814,18147
32668,23797,18051
32512,23772,17959
32376,23741,17827
32188,23721,17783
32188,23735,17618
32272,23751,17515
32496,23773,17467
32600,23811,17310
32653,23829,17217
32721,23822,17165
32728,23804,16989
32676,23780,16866
32676,23748,16860
32520,23737,16697
32472,23740,16580
32480,23754,16558
32472,23780,16439
32485,23815,16412
32509,23828,16228
32528,23831,16176
32508,23812,16044
32448,23788,15962
32512,23753,15807
32501,23741,15856
32424,23740,15694
32365,23761,15674
32524,23780,15500
32540,23815,15433
32497,23829,15404
32540,23829,15192
32568,23820,15105
32452,23786,15104
32168,23758,14953
32010,23747,14809
32066,23743,14889
32212,23759,14725
32455,23785,14577
32761,23820,14523
32972,23843,14393
32980,23833,14401
32801,23817,14295
32612,23788,14323
32460,23755,14163
32417,23743,14119
32572,23747,14010
32836,23758,13956
32936,23790,13960
32856,23828,13801
32764,23851,13806
32644,23839,13619
32612,23815,13609
32632,23804,13489
32580,23761,13531
32500,23747,13392
32416,23759,13375
32414,23775,13241
32436,23807,13229
32536,23822,13136
32672,23841,13031
32625,23842,13108
32584,23822,12923
32604,23797,12892
32608,23773,12838
32564,23746,12853
32661,23752,12730
32776,23772,12700
32889,23804,12798
33004,23828,12589
33010,23845,12549
32884,23839,12596
32654,23830,12517
32374,23801,12593
32273,23762,12484
32364,23748,12456
32476,23757,12368
32617,23776,12306
32652,23806,12282
32628,23837,12318
32589,23848,12221
32336,23847,12357
32128,23823,12260
31852,23802,12245
31692,23764,12140
31732,23753,12250
31833,23763,12204
32004,23788,12179
32056,23811,12112
32128,23837,12080
32189,23859,12252
32208,23842,12132
32140,23828,12188
32120,23803,12052
32096,23778,12080
32064,23760,12037
32112,23754,12142
32276,23784,12133
32356,23812,12160
32400,23839,12060
32268,23863,12042
32164,23859,12092
32176,23836,12038
32124,23805,12121
31980,23776,12047
31960,23764,12045
32024,23769,12105
32229,23789,12042
32544,23804,12110
32872,23839,12092
33132,23849,12087
33430,23853,12053
33564,23837,12138
33680,23809,12114
33880,23773,12077
34098,23758,12156
34424,23769,12099
34904,23789,12150
35368,23804,12265
35608,23844,12209
35664,23861,12303
35616,23860,12210
35424,23857,12296
35340,23822,12162
35382,23781,12167
35136,23775,12247
34724,23791,12191
33856,23816,12385
32429,23833,12250
31917,23868,12415
31548,23893,12342
30580,23887,12416
29935,23860,12344
29712,23836,12435
29908,23807,12396
30336,23780,12484
30740,23791,12540
30964,23810,12577
31192,23829,12537
31500,23872,12693
31716,23883,12631
31677,23871,12760
31532,23850,12676
31424,23836,12827
31266,23795,12820
31200,23781,12936
31194,23788,12820
31252,23806,12935
31372,23844,12889
31484,23860,12989
31560,23885,12985
31496,23868,13060
31568,23849,13051
31560,23831,13261
31468,23796,13140
31296,23783,13215
31216,23789,13277
31238,23810,13308
31441,23837,13328
31751,23869,13395
31967,23880,13417
31866,23873,13473
31708,23855,13559
31565,23832,13622
31500,23791,13793
31596,23783,13772
31607,23793,13902
31566,23812,13877
31621,23820,13918
31656,23863,13941
31712,23880,14026
31984,23882,14173
31992,23857,14148
31924,23825,14272
31726,23792,14237
31564,23783,14329
31544,23783,14265
31720,23805,14433
31980,23834,14383
32264,23868,14572
32320,23887,14474
32276,23876,14593
32140,23854,14590
31874,23831,14705
31744,23806,14699
31764,23789,14801
31912,23790,14721
32080,23809,14877
32108,23840,14756
32072,23879,14828
32093,23884,14833
31993,23872,14893
31904,23863,14887
32013,23833,14986
32092,23808,14957
32160,23787,15048
32048,23796,15036
31896,23821,15102
31880,23836,15141
31948,23883,15151
32157,23887,15289
32340,23878,15236
32443,23860,15262
32428,23837,15233
32308,23806,15381
32160,23788,15297
32040,23788,15327
32101,23818,15308
32248,23847,15301
32442,23881,15368
32536,23892,15324
32509,23877,15372
32440,23863,15473
32352,23837,15389
32160,23808,15472
31956,23791,15366
31765,23799,15420
31776,23815,15497
31848,23846,15429
32032,23871,15420
32220,23885,15491
32272,23885,15468
32265,23860,15553
32097,23841,15448
31908,23802,15525
31733,23791,15461
31655,23799,15451
31701,23820,15558
31685,23852,15459
31696,23879,15509
31668,23890,15530
31572,23885,15524
31386,23869,15470
31160,23834,15538
31016,23805,15513
30996,23793,15548
31112,23804,15663
31240,23829,15566
31264,23849,15588
31356,23880,15639
31461,23893,15612
31396,23886,15692
31292,23867,15644
31272,23841,15673
31340,23799,15673
31436,23790,15709
31620,23805,15706
31812,23823,15765
31908,23860,15749
31948,23885,15823
31968,23901,15805
31896,23892,15929
31788,23853,15837
31780,23844,15897
31684,23812,15964
31652,23799,15956
31732,23806,16067
31940,23829,15987
32076,23863,16085
32224,23889,16022
32238,23900,16091
32129,23892,16133
31992,23875,16178
31960,23851,16261
31952,23812,16198
31988,23797,16305
32156,23812,16400
32304,23829,16345
32344,23858,16440
32224,23898,16415
32158,23908,16489
32204,23891,16607
32197,23869,16610
32224,23845,16688
32292,23811,16657
32324,23811,16724
32407,23811,16817
32532,23837,16833
32532,23860,16919
32408,23896,16899
32312,23916,17020
32236,23894,17012
32113,23873,17144
32108,23848,17125
32140,23812,17243
32148,23800,17247
32200,23815,17324
32316,23833,17330
32460,23871,17435
32604,23892,17442
32680,23900,17554
32660,23904,17537
32480,23871,17585
32308,23847,17710
32220,23815,17700
32257,23806,17769
32328,23815,17775
32456,23839,17872
32544,23866,17886
32648,23900,17948
32760,23911,18043
32776,23896,18054
32696,23870,18159
32612,23857,18164
32469,23825,18221
32312,23804,18252
32178,23814,18303
32184,23839,18340
32170,23869,18397
32337,23897,18487
32433,23917,18504
32424,23897,18562
32436,23879,18597
32372,23850,18637
32296,23815,18662
32185,23820,18707
32124,23815,18789
32150,23845,18812
32280,23870,18866
32288,23892,18885
32242,23904,18934
32232,23897,19004
32192,23873,19035
32296,23848,19065
32428,23814,19121
32484,23797,19154
32388,23821,19220
32344,23844,19250
32328,23873,19283
32372,23903,19329
32404,23909,19374
32396,23893,19421
32356,23879,19468
32320,23845,19505
32260,23823,19567
32279,23809,19605
32332,23823,19660
32332,23846,19692
32436,23876,19737
32548,23901,19793
32556,23916,19830
32476,23893,19892
32456,23879,19935
32357,23852,19979
32278,23828,20030
32288,23805,20071
32244,23820,20132
32244,23845,20174
32240,23874,20225
32304,23897,20279
32364,23919,20332
32460,23900,20372
32448,23879,20420
32343,23846,20473
32227,23815,20508
32220,23812,20569
32284,23826,20609
32322,23846,20679
32440,23867,20720
32526,23895,20775
32430,23918,20829
32392,23909,20873
32356,23873,20902
32280,23850,20972
32240,23820,20997
32344,23809,21083
32544,23815,21126
32660,23836,21164
32660,23874,21218
32600,23909,21255
32526,23911,21343
32428,23906,21380
32316,23879,21391
32196,23856,21483
32096,23821,21493
32016,23815,21593
32060,23817,21659
31992,23837,21706
32036,23868,21770
32036,23904,21817
32072,23909,21879
32160,23901,21935
32164,23870,21961
32156,23852,22039
32076,23828,22036
31936,23807,22153
31896,23819,22148
31996,23837,22273
32076,23863,22313
32045,23906,22409
32141,23904,22463
32184,23894,22534
32173,23868,22570
32096,23845,22655
32040,23815,22722
31980,23807,22770
31960,23814,22831
32001,23836,22860
32168,23864,22943
32260,23893,22928
32329,23909,23077
32292,23895,23118
32132,23879,23154
32045,23844,23232
31973,23812,23214
31964,23796,23360
32020,23815,23333
32168,23837,23486
32324,23858,23452
32448,23884,23586
32620,23904,23566
32716,23890,23711
32836,23868,23714
33032,23838,23852
33356,23810,23820
33578,23789,23957
33618,23801,23987
33645,23835,24089
33780,23854,24150
34084,23888,24109
34414,23908,24257
34820,23877,24201
35133,23866,24358
35360,23833,24308
35380,23807,24493
35100,23801,24558
34980,23826,24544
34980,23837,24626
34908,23869,24660
34700,23912,24773
34172,23919,24721
32892,23905,24876
32037,23884,24903
31640,23865,25024
30588,23826,25084
29908,23817,25099
29884,23825,25198
30468,23845,25197
31164,23869,25347
31620,23905,25325
31776,23908,25455
31840,23898,25375
31908,23864,25579
31980,23852,25527
31940,23810,25672
31884,23808,25607
31920,23807,25828
32004,23840,25893
32008,23855,25836
32112,23887,25996
32132,23892,25946
32100,23892,26095
32068,23860,26119
32004,23834,26292
31860,23809,26280
31744,23790,26340
31800,23808,26365
31876,23828,26483
32007,23855,26582
32096,23895,26480
32124,23897,26653
32020,23882,26653
31865,23858,26871
31808,23833,26948
31748,23804,27022
31773,23784,27012
31808,23801,27143
31944,23826,27117
32092,23852,27246
32238,23885,27257
32404,23885,27427
32594,23870,27367
32636,23863,27512
32528,23830,27561
32420,23803,27745
32356,23780,27728
32408,23799,27824
32477,23817,27805
32576,23855,27909
32628,23876,27911
32676,23889,28065
32672,23873,28063
32716,23844,28188
32740,23825,28183
32657,23794,28252
32520,23784,28197
32452,23793,28350
32512,23815,28357
32612,23847,28452
32712,23870,28359
32857,23880,28460
32932,23860,28477
32940,23851,28617
32892,23815,28649
32832,23781,28562
32796,23776,28733
32844,23791,28745
32988,23819,28654
33088,23834,28824
33092,23874,28850
33105,23879,28881
33040,23877,28822
32949,23845,28957
32854,23815,28973
32813,23783,28855
32768,23780,28965
32844,23777,29073
32985,23805,28942
33220,23834,29050
33436,23861,29064
33492,23877,29037
33350,23856,29231
33272,23833,29141
33252,23811,29292
33172,23781,29284
33232,23759,29231
33333,23785,29251
33428,23806,29343
33505,23833,29440
33568,23863,29468
33592,23866,29469
33532,23855,29429
33508,23837,29540
33456,23805,29409
33345,23771,29593
33212,23760,29607
33116,23774,29461
33133,23796,29583
33102,23830,29671
33100,23854,29525
33048,23863,29600
32984,23858,29716
32948,23818,29559
32888,23797,29720
32788,23756,29751
32756,23757,29645
32796,23778,29827
32884,23789,29821
32860,23815,29710
32916,23857,29759
32889,23853,29703
32800,23847,29908
32628,23829,29860
32525,23793,29769
32496,23764,29918
32516,23757,29855
32652,23761,29820
32776,23789,29891
32912,23821,29855
33008,23847,30046
33037,23853,30028
32976,23847,29922
32864,23815,30117
32836,23796,30023
32812,23771,30133
32784,23761,30160
32864,23763,30169
33005,23791,30066
33160,23823,30269
33284,23852,30277
33384,23858,30167
33412,23844,30241
33364,23814,30212
33344,23788,30300
33276,23767,30265
33216,23754,30471
33300,23756,30500
33448,23789,30524
33448,23815,30530
33456,23848,30445
33460,23860,30596
33380,23836,30580
33254,23819,30724
33244,23783,30756
33413,23748,30685
33464,23743,30741
33484,23767,30711
33476,23781,30937
33496,23811,30973
33559,23841,31012
33664,23844,31043
33700,23844,30920
33644,23808,31097
33692,23791,31007
33724,23746,31194
33708,23743,31098
33696,23755,31214
33684,23785,31199
33702,23810,31364
33792,23849,31282
33872,23847,31436
33896,23834,31399
33852,23815,31589
33720,23782,31673
33596,23740,31718
33512,23740,31740
33556,23756,31812
33580,23768,31804
33556,23808,31910
33596,23830,31839
33672,23839,31940
33532,23828,31944
33412,23807,32204
33396,23780,32135
33381,23755,32184
33400,23741,32263
33437,23754,32377
33556,23768,32327
33592,23810,32401
33676,23829,32421
33709,23841,32647
33624,23820,32700
33453,23798,32613
33268,23778,32870
33060,23740,32840
32972,23735,32775
32904,23757,32943
32960,23765,32975
33352,23791,33012
33412,23820,33111
33276,23836,33298
33037,23819,33436
32876,23796,33463
32972,23769,33604
33045,23733,33649
33136,23727,33812
33228,23735,33844
33232,23769,34006
33140,23791,34043
33124,23829,34220
33092,23833,34268
33076,23815,34359
33044,23785,34428
33008,23763,34505
32956,23729,34527
32984,23725,34917
33080,23732,34759
33188,23767,35144
33312,23794,35268
33432,23824,35349
33440,23815,35537
33376,23809,35457
33252,23785,35929
33144,23764,35989
33077,23718,36057
33017,23722,36245
33000,23742,36234
33066,23757,36649
33132,23781,36781
33165,23817,36895
33088,23818,37104
33029,23809,37164
32920,23780,37612
32880,23751,37679
33028,23734,37778
32929,23719,38012
32980,23723,38260
33000,23762,38335
33124,23791,38436
33165,23812,38597
33078,23812,38892
32992,23807,39145
33020,23780,39196
33096,23740,39444
33040,23715,39486
32956,23715,39687
32904,23725,39780
32832,23756,39924
32817,23776,40029
32869,23809,40039
32864,23815,40289
32775,23789,40127
32772,23775,40701
32736,23743,40711
32624,23725,40977
32540,23705,40933
32588,23713,41111
32644,23751,41192
32664,23782,41381
32740,23799,41400
32721,23807,41621
32672,23785,41625
32608,23762,41628
32521,23742,41836
32448,23711,41578
32413,23704,42023
32440,23711,41780
32560,23734,42165
32694,23761,42031
32758,23799,42330
32724,23799,42409
32692,23783,42509
32645,23756,42711
32572,23725,42846
32596,23695,42861
32600,23693,42968
32597,23711,42980
32660,23729,43111
32712,23764,43159
32692,23788,43220
32684,23788,43279
32788,23781,43260
32908,23749,43399
32984,23721,43394
33040,23698,43153
32996,23692,43439
33000,23708,43408
33092,23732,43628
33264,23753,43620
33564,23772,43429
33940,23778,43724
34156,23760,43748
34352,23738,43829
34496,23714,43805
34560,23694,43848
34633,23688,43764
34724,23707,43580
34692,23740,43908
34668,23764,43901
34932,23799,44007
35172,23799,43877
35232,23783,43887
34852,23759,43908
33756,23741,43963
32816,23703,43967
32493,23702,44034
31490,23717,43980
30584,23745,44173
30433,23767,44146
30864,23789,43895
31332,23781,44082
31648,23769,44000
31852,23743,44135
32060,23717,43990
32224,23685,44225
32296,23677,44035
32392,23692,44290
32508,23715,44076
32621,23744,44271
32700,23772,44207
32668,23777,44359
32560,23764,44154
32440,23716,44436
32388,23701,44498
32372,23678,44476
32356,23679,44536
32344,23680,44373
32400,23717,44428
32528,23740,44385
32668,23773,44522
32740,23757,44399
32704,23751,44488
32684,23726,44401
32663,23698,44636
32558,23675,44625
32636,23657,44748
32821,23683,44718
32918,23706,44452
32976,23738,44740
32948,23748,44614
32876,23765,44788
32784,23748,44582
32692,23719,44775
32708,23687,44647
32776,23661,44820
32848,23652,44815
32860,23675,44949
32862,23701,44964
32944,23723,44980
33107,23744,44919
33176,23749,44903
33204,23739,45052
33200,23708,45016
33116,23685,44732
33001,23653,44935
32912,23650,44757
32877,23671,44890
32940,23694,44837
33068,23719,44989
33196,23745,44933
33216,23749,44935
33248,23735,44873
33168,23709,44837
33076,23677,44792
32933,23647,44789
32860,23647,44665
32948,23660,44645
33089,23686,44389
33220,23713,44639
33264,23741,44668
33176,23743,44571
33088,23729,44528
33116,23700,44444
33172,23668,44551
33208,23649,44231
33228,23647,44445
33276,23653,44485
33360,23681,44290
33416,23713,44423
33468,23737,44343
33416,23735,44080
33336,23721,44295
33256,23692,44088
33244,23668,44295
33208,23630,44343
33256,23631,44292
33241,23652,44204
33252,23671,44334
33320,23708,44208
33388,23730,44228
33557,23729,44094
33641,23712,44148
33564,23687,43911
33360,23659,44167
33216,23629,44111
33101,23628,44127
33056,23638,44090
33144,23665,44039
33332,23694,43950
33476,23727,43994
33492,23725,43854
33460,23711,43948
33268,23673,43840
33088,23649,43804
32964,23626,43647
32925,23619,43501
32982,23647,43612
33048,23670,43492
33030,23686,43594
32992,23712,43589
32932,23712,43559
32860,23701,43358
32736,23679,43333
32692,23639,43140
32592,23623,43276
32512,23621,43167
32472,23637,43356
32514,23663,43367
32540,23692,43360
32553,23717,43354
32612,23716,43352
32662,23701,43297
32740,23665,43244
32848,23637,43028
32848,23623,43295
32820,23607,43324
32820,23624,43228
32775,23669,43150
32848,23682,43278
32916,23711,43240
32956,23704,43260
33004,23703,43292
33060,23673,42993
33016,23637,43300
32936,23619,43244
32888,23608,42924
32916,23625,43232
33076,23657,43269
33189,23685,43101
33300,23710,43260
33336,23711,43143
33312,23687,42871
33240,23660,43217
33104,23644,43064
32916,23606,42860
32796,23612,43181
32705,23625,43214
32720,23648,43028
32864,23679,43149
33100,23698,43181
33276,23707,43101
33301,23694,43126
33180,23660,42852
32992,23626,43188
32812,23599,43143
32752,23601,43158
32896,23623,43143
33044,23648,43033
33160,23676,43070
33256,23703,42977
33300,23693,42966
33244,23683,43052
33086,23662,42985
32984,23630,43150
32864,23604,43167
32832,23597,43104
32824,23617,43141
32900,23642,43041
33008,23675,43213
33117,23687,43088
33149,23689,43196
33084,23681,43233
32964,23647,43143
32868,23622,43252
32792,23593,43088
32736,23595,43228
32816,23617,43263
32957,23630,43260
33087,23671,43167
33148,23696,43181
33184,23687,43303
33100,23666,43326
32992,23643,43192
32828,23620,43044
32792,23589,43198
32793,23595,43333
32948,23608,43095
32996,23639,43301
33020,23659,43287
33012,23687,43322
33068,23695,43263
33108,23667,43116
33088,23646,43333
32992,23615,43271
32895,23596,43127
32852,23583,43301
32872,23607,43293
32992,23631,42960
33052,23663,43302
33016,23690,43308
32912,23676,43231
32728,23659,43265
32568,23632,43293
32492,23609,43279
32560,23583,43252
32752,23591,43268
32924,23594,43108
33020,23620,43144
33104,23659,42965
33146,23681,43164
33132,23681,43015
33112,23663,43124
33040,23631,43189
32965,23597,43238
32904,23582,43231
32952,23572,43237
33032,23597,43188
33088,23628,43213
33144,23649,43156
33152,23670,43206
33133,23683,43210
33069,23647,43188
33045,23628,42840
33048,23607,43160
32980,23580,42848
32928,23569,43192
32933,23589,43212
32960,23625,43199
33030,23640,43183
33084,23671,43186
32964,23671,42972
32865,23655,43143
32712,23626,43156
32477,23588,43183
32340,23564,43113
32340,23567,43070
32544,23582,43143
32688,23612,43055
32754,23643,43029
32804,23670,42978
32820,23661,43153
32828,23639,43156
32820,23612,42773
32796,23593,43108
32720,23569,43100
32648,23564,43143
32612,23574,43124
32572,23599,43060
32572,23645,43076
32665,23660,43015
32700,23659,43061
32712,23631,42824
32676,23613,43097
32604,23587,43044
32525,23553,42736
32442,23549,43073
32480,23573,43046
32520,23606,43052
32684,23627,43022
32928,23637,42868
33004,23647,42920
32956,23633,42712
32740,23605,42971
32580,23572,42713
32458,23553,43084
32532,23555,42856
32684,23574,43028
32872,23586,42924
32973,23619,43029
32992,23643,43060
32944,23639,43087
32856,23629,43114
32781,23592,43102
32804,23570,43112
32892,23547,42752
33040,23546,43092
33209,23553,43125
33412,23583,42793
33728,23612,42972
33976,23639,42983
34048,23635,42975
34012,23623,42971
33972,23599,43164
33980,23544,43172
34088,23530,43164
34164,23545,43065
34120,23572,43173
34260,23598,43172
34592,23638,42852
34928,23645,43006
35084,23647,43052
34656,23644,43094
33616,23604,43070
32893,23577,43180
32348,23551,42885
31200,23556,43092
30620,23574,43204
30644,23599,43244
30921,23625,43249
31336,23650,42930
31776,23645,43191
32144,23624,43301
32356,23592,43329
32436,23558,43328
32440,23535,43348
32384,23535,43293
32420,23567,43244
32496,23583,43181
32600,23613,43236
32668,23637,43189
32598,23630,43361
32460,23610,43289
32328,23585,43367
32197,23543,43228
32196,23532,43239
32284,23529,43215
32492,23555,43188
32632,23578,43029
32705,23605,43180
32804,23615,43284
32828,23615,43349
32748,23602,43197
32688,23579,43203
32656,23543,43014
32684,23522,43364
32764,23519,43377
32836,23551,43389
32844,23566,43399
32900,23603,43396
32942,23612,43369
32912,23618,43063
32840,23598,43399
32800,23559,43365
32725,23533,43249
32596,23527,43396
32488,23519,43356
32476,23538,43364
32522,23559,43252
32548,23593,43317
32652,23619,43301
32700,23615,43311
32680,23588,43344
32724,23559,43053
32712,23535,43335
32656,23517,43336
32628,23517,43348
32612,23525,43120
32656,23554,43289
32792,23588,43309
32901,23615,43287
32933,23602,43268
32904,23585,43239
32848,23559,43161
32766,23529,43074
32768,23505,42804
32766,23515,42948
32764,23535,42750
32758,23546,42887
32805,23583,42847
32808,23602,42887
32812,23604,42579
32876,23592,42740
32828,23556,42572
32744,23522,42665
32684,23509,42652
32564,23514,42643
32576,23538,42368
32641,23553,42717
32720,23583,42537
32832,23602,42641
32932,23596,42621
32892,23588,42578
32712,23557,42612
32610,23535,42463
32517,23515,42348
32572,23515,42479
32628,23531,42148
32679,23559,42344
32752,23588,42356
32838,23615,42191
32848,23592,42247
32764,23582,42288
32640,23559,42246
32541,23527,42266
32453,23508,42162
32448,23503,42157
32506,23524,42002
32628,23548,41757
32644,23594,41896
32676,23608,41978
32602,23596,41876
32366,23577,41828
32068,23555,41777
31879,23524,41781
31848,23506,41703
32004,23511,41709
32264,23535,41749
32320,23551,41668
32261,23586,41572
32250,23604,41574
32193,23604,41617
32048,23580,41519
31988,23559,41552
31852,23527,41452
31722,23504,41498
31716,23516,41572
31761,23531,41447
31904,23557,41413
32016,23595,41363
32112,23610,41311
32116,23612,41329
32044,23587,41388
31898,23552,41006
31680,23538,41215
31568,23516,41253
31564,23510,41163
31661,23533,41103
31860,23559,41073
31996,23600,41047
32084,23613,41061
32016,23618,41088
31909,23597,41193
31892,23572,40792
31764,23542,40985
31704,23522,41048
31709,23519,40967
31784,23539,41055
31900,23572,40919
31992,23608,41008
32016,23621,40508
31984,23621,40752
31896,23599,40767
31812,23575,40775
31741,23547,40732
31648,23526,40748
31593,23533,40647
31644,23553,40629
31696,23587,40648
31772,23616,40718
31796,23622,40656
31764,23617,40684
31692,23607,40655
31544,23583,40751
31432,23553,40623
31368,23530,40661
31342,23533,40588
31320,23559,40551
31412,23588,40233
31460,23622,40420
31480,23644,40551
31492,23629,40524
31464,23617,40455
31440,23593,40652
31328,23559,40495
31220,23546,40209
31156,23541,40632
31240,23569,40137
31320,23594,40561
31391,23630,40164
31444,23649,40564
31524,23647,40423
31496,23621,40368
31381,23602,40304
31204,23568,40427
31024,23559,40449
30948,23553,40365
30984,23578,40293
31150,23607,40500
31280,23634,40341
31348,23661,40252
31212,23655,40437
31012,23633,40229
30916,23611,40197
30856,23591,40126
30836,23559,40233
30916,23571,40284
31036,23595,39847
31072,23619,40079
31052,23655,39844
31056,23661,40248
30930,23665,40096
30737,23646,40183
30672,23628,40028
30616,23597,39988
30509,23572,39973
30596,23589,39972
30684,23605,39929
30760,23633,39912
30804,23665,39805
30884,23679,39622
30812,23685,39845
30756,23663,39976
30720,23639,39823
30628,23602,39928
30516,23595,39788
30500,23601,39783
30484,23624,39423
30512,23653,39781
30582,23681,39636
30680,23702,39359
30693,23697,39740
30648,23684,39532
30564,23655,39301
30512,23625,39713
30480,23609,39589
30468,23621,39611
30496,23639,39455
30512,23671,39364
30492,23709,39500
30640,23721,39456
30705,23713,39557
30624,23698,39423
30436,23681,39463
30220,23653,39348
30056,23631,39397
30037,23640,39308
30064,23661,39236
30144,23695,39196
30228,23724,39264
30348,23747,39367
30432,23744,39228
30425,23717,39287
30268,23700,39175
30064,23673,39156
29898,23655,39072
29840,23660,38887
29880,23686,39157
29974,23710,39047
30028,23750,39039
30048,23768,38748
29949,23758,39110
29849,23741,38975
29752,23718,38816
29590,23693,38828
29520,23674,38885
29568,23676,38931
29616,23705,38788
29697,23732,38535
29728,23766,38901
29760,23784,38773
29760,23776,38692
29684,23763,38704
29612,23741,38748
29520,23711,38633
29536,23697,38719
29552,23698,38663
29556,23732,38636
29548,23757,38524
29540,23788,38441
29576,23805,38629
29552,23807,38565
29464,23781,38672
29400,23760,38557
29378,23735,38468
29284,23719,38500
29220,23729,38231
29224,23749,38625
29256,23781,38455
29352,23815,38223
29524,23831,38535
29696,23823,38335
29826,23808,38456
29888,23781,38399
29952,23752,38311
29996,23741,38401
30016,23746,38423
30164,23775,38260
30424,23795,38375
30560,23839,38241
30560,23854,38463
30580,23847,38318
30670,23830,38197
30881,23815,38404
31093,23791,38279
31112,23778,38033
30968,23791,38271
31176,23812,38174
31588,23849,37989
32022,23895,38284
32024,23915,38217
31172,23909,38108
30104,23889,38373
29700,23877,38239
28804,23837,38044
27797,23829,38330
27520,23829,38254
27848,23852,38330
28271,23884,38279
28744,23913,38257
29112,23935,38212
29330,23924,38015
29425,23905,38327
29408,23886,38255
29432,23853,38200
29428,23847,38194
29492,23847,38012
29578,23874,38356
29668,23901,38252
29662,23932,38000
29629,23949,38417
29508,23948,38317
29420,23927,38384
29440,23909,38324
29452,23873,38407
29500,23863,38309
29492,23872,38374
29568,23899,38203
29736,23925,38113
29804,23964,38340
29840,23975,38319
29868,23973,38244
29904,23956,38381
29892,23938,38343
29848,23900,38468
29828,23895,38369
29770,23907,38456
29840,23927,38391
29922,23953,38455
30008,23993,38152
30138,24004,38310
30196,24002,38357
30201,23980,38328
30212,23958,38287
30189,23933,38437
30200,23921,38556
30216,23938,38196
30356,23959,38585
30496,23987,38484
30568,24022,38595
30636,24039,38475
30637,24034,38367
30576,24015,38380
30504,23997,38505
30460,23969,38271
30392,23954,38361
30376,23969,38341
30384,23996,38388
30476,24020,38357
30600,24062,38330
30756,24071,38352
30788,24071,38276
30772,24055,38299
30760,24022,38233
30752,24005,38309
30828,23992,38140
30904,24008,38233
31017,24032,37985
31060,24063,38023
31180,24097,38124
31244,24108,37716
31208,24111,37913
31156,24092,37639
31111,24065,37933
31164,24037,37836
31224,24032,37924
31340,24038,37789
31477,24071,37847
31620,24100,37748
31808,24129,37776
31984,24149,37701
32044,24146,37668
31916,24132,37653
31812,24107,37732
31772,24081,37383
31824,24071,37500
31836,24081,37508
31868,24114,37580
31956,24140,37558
32026,24183,37372
32056,24199,37527
32080,24191,37540
32140,24179,37364
32104,24156,37383
32100,24120,37319
32128,24121,37526
32161,24130,37349
32262,24162,37415
32360,24197,37476
32500,24231,37397
32544,24245,37369
32440,24244,37350
32284,24229,37365
32248,24208,37329
32254,24186,37377
32312,24180,37021
32386,24188,37146
32468,24215,37311
32504,24252,37112
32436,24295,37198
32436,24308,37283
32420,24309,36900
32400,24288,37124
32476,24267,37119
32542,24239,37173
32644,24239,37081
32810,24253,37077
32950,24269,37008
33072,24302,36959
33188,24351,36975
33356,24364,37068
33505,24364,36959
33500,24338,36935
33488,24324,36868
33488,24294,36847
33556,24293,36871
33588,24300,36926
33760,24335,36806
33896,24369,36815
34073,24396,36679
34230,24415,36752
34228,24414,36728
34212,24394,36722
34241,24378,36704
34335,24351,36639
34368,24335,36661
34608,24353,36548
34876,24377,36624
34969,24407,36337
35004,24442,36561
34993,24455,36540
34968,24455,36564
34976,24439,36625
35084,24420,36274
35108,24391,36492
35158,24391,36359
35212,24393,36413
35412,24425,36285
35652,24468,36577
35792,24485,36441
35942,24509,36220
36021,24491,36465
36063,24477,36428
36056,24455,36401
36004,24437,36360
35989,24429,36298
36064,24430,36280
36148,24466,36220
36344,24492,36279
36484,24528,36215
36628,24529,36372
36709,24535,36094
36760,24529,36383
36845,24501,36088
36868,24479,36321
36956,24455,36317
37126,24478,36412
37292,24498,36317
37392,24532,36380
37504,24561,36033
37568,24581,36359
37536,24583,36263
37540,24546,36197
37568,24543,36116
37612,24511,35964
37698,24498,36268
37840,24519,36059
37920,24532,35951
37996,24559,36085
38052,24603,35875
38128,24615,36167
38224,24617,36076
38316,24582,36024
38349,24572,36048
38311,24544,36008
38280,24551,36033
38432,24539,35957
38628,24573,36015
38788,24610,35935
38768,24640,35838
38746,24666,35865
38704,24639,35884
38704,24619,35846
38776,24605,35814
38872,24580,35790
38972,24556,35716
39120,24571,35672
39208,24607,35516
39252,24639,35724
39248,24667,35708
39216,24688,35574
39108,24690,35721
39020,24655,35649
38920,24650,35580
38808,24613,35597
38672,24599,35462
38596,24617,35510
38644,24646,35309
38748,24683,35591
38876,24693,35357
38872,24719,35484
38880,24711,35463
38860,24701,35391
38888,24661,35394
38888,24633,35207
38912,24645,35452
38976,24633,35392
39164,24668,35249
39316,24705,35272
39464,24741,35215
39472,24739,35236
39476,24741,35316
39389,24725,35359
39252,24688,35277
39150,24664,35236
39152,24671,35204
39264,24673,35276
39456,24705,35020
39680,24735,35240
39956,24759,35189
40045,24785,35213
40036,24772,35150
39904,24757,35152
39789,24754,34981
39752,24695,35079
39768,24694,35063
39876,24721,35061
40028,24727,35079
40108,24758,35028
40124,24803,35021
40104,24817,35015
39985,24798,35072
39844,24781,34760
39726,24749,34980
39716,24740,34781
39700,24710,34917
39684,24733,34707
39652,24766,34940
39656,24802,34692
39704,24815,34951
39748,24839,34873
39616,24828,34791
39473,24801,34845
39280,24786,34789
39104,24764,34796
38912,24761,34694
38824,24765,34725
38836,24796,34805
38856,24812,34788
38849,24852,34767
38808,24870,34660
38708,24848,34788
38688,24844,34763
38788,24820,34804
38844,24776,34769
38848,24783,34633
38896,24783,34637
38916,24812,34626
38956,24839,34626
39012,24892,34512
39032,24885,34749
38956,24879,34721
38768,24878,34618
38636,24836,34621
38508,24813,34512
38320,24807,34744
38256,24805,34548
38224,24839,34708
38240,24879,34509
38204,24902,34677
38132,24932,34520
38100,24913,34694
38032,24877,34508
37952,24861,34689
37741,24839,34724
37505,24821,34623
37398,24839,34702
37488,24875,34637
37638,24892,34759
37760,24934,34821
37792,24935,34757
37728,24933,34756
37752,24914,34772
37848,24893,34844
37824,24876,34593
37744,24877,34712
37980,24879,34566
38256,24927,34789
38509,24944,34812
38376,24981,34815
37364,25003,34724
36181,24991,34685
35604,24960,34823
34620,24949,34676
33556,24917,34959
33196,24891,34908
33482,24920,34917
33920,24943,34905
34336,24965,34848
34840,25004,34956
35208,24996,34989
35345,24989,35010
35332,24975,35087
35264,24941,35036
35216,24910,35047
35172,24909,35047
35196,24926,35136
35244,24948,34863
35364,24981,35132
35453,25009,35124
35468,25013,35137
35472,25010,35141
35456,24991,35008
35404,24957,35201
35412,24929,34961
35376,24932,35207
35280,24936,35222
35196,24967,35220
35184,24990,35157
35220,25030,35029
35332,25028,35308
35512,25028,35256
35604,25004,35093
35624,24968,35380
35480,24950,35364
35364,24951,35359
35336,24957,35385
35334,24991,35335
35376,25012,35335
35488,25042,35452
35712,25037,35455
35813,25039,35460
35737,25029,35328
35540,24987,35540
35252,24962,35517
35156,24956,35381
35233,24982,35581
35438,24999,35558
35605,25026,35588
35780,25054,35540
35832,25068,35528
35736,25045,35540
35617,25035,35497
35548,25007,35556
35532,24978,35591
35672,24977,35537
35728,24980,35560
35776,25008,35516
35792,25036,35509
35836,25084,35478
35860,25083,35504
35744,25067,35404
35564,25047,35457
35484,25018,35381
35480,24989,35413
35524,24983,35124
35624,25001,35212
35704,25020,35180
35800,25055,35221
35872,25083,35221
35860,25091,34925
35740,25083,35204
35520,25060,35111
35304,25024,35109
35192,25010,35041
35200,24997,35071
35308,25004,34981
35468,25034,34780
35556,25060,34913
35668,25095,34932
35677,25116,34874
35620,25093,34882
35520,25071,34872
35428,25041,34878
35312,25005,34818
35256,25010,34819
35256,25026,34719
35328,25049,34805
35388,25067,34684
35406,25100,34773
35372,25109,34698
35400,25093,34727
35254,25084,34634
35136,25046,34717
35013,25021,34612
34892,25021,34610
34892,25024,34511
34868,25057,34733
34848,25090,34476
34796,25110,34716
34704,25125,34645
34588,25108,34502
34516,25090,34503
34472,25061,34476
34364,25031,34520
34276,25021,34377
34216,25039,34604
34172,25068,34534
34204,25095,34453
34233,25127,34498
34284,25135,34417
34276,25125,34397
34136,25094,34250
34013,25065,34420
33976,25039,34205
33917,25036,34439
33824,25047,34375
33718,25076,34284
33712,25108,34222
33828,25143,34230
33893,25142,34148
33924,25129,34348
33892,25105,34112
33756,25079,34310
33628,25057,34256
33536,25049,34277
33440,25065,34197
33508,25089,34017
33605,25121,34247
33712,25148,34183
33828,25156,34048
33861,25134,34037
33788,25114,33957
33640,25095,34176
33481,25068,34092
33332,25060,33892
33320,25073,34145
33325,25093,34065
33412,25130,33988
33516,25159,34040
33636,25167,33921
33700,25145,34095
33660,25124,34000
33516,25097,33900
33368,25075,33980
33268,25064,33839
33328,25087,33910
33432,25101,33863
33676,25135,33962
33860,25161,33834
33868,25167,34016
33784,25155,33972
33688,25139,33965
33592,25107,33860
33520,25087,33763
33520,25069,33884
33568,25081,33957
33544,25111,33923
33428,25149,33960
33296,25176,33999
33240,25181,33868
33184,25161,33961
33208,25140,33945
33205,25119,33877
33152,25084,33765
33092,25087,34021
33104,25095,33913
32998,25119,33853
32860,25148,33764
32764,25182,34001
32764,25183,33945
32768,25169,33843
32704,25150,33815
32640,25124,33716
32632,25093,33964
32640,25087,33901
32689,25101,33927
32732,25124,33678
32809,25154,33775
32884,25185,33710
32834,25195,33741
32735,25172,33684
32672,25151,33805
32648,25129,33653
32592,25095,33748
32545,25081,33604
32656,25111,33816
32792,25135,33764
32852,25163,33716
32944,25188,33681
32948,25188,33577
32856,25179,33606
32743,25156,33543
32540,25132,33705
32400,25105,33485
32416,25095,33569
32544,25108,33523
32556,25138,33605
32544,25164,33553
32484,25195,33612
32404,25199,33504
32336,25183,33444
32308,25156,33468
32229,25133,33460
32124,25100,33527
32024,25100,33508
31988,25118,33509
32036,25141,33389
32154,25165,33432
32280,25194,33334
32388,25205,33361
32333,25185,33309
32157,25162,33341
32037,25130,33287
31992,25095,33317
32040,25100,33244
32072,25126,33400
32172,25141,33367
32220,25171,33185
32220,25197,33273
32328,25207,33332
32380,25190,33340
32380,25163,33133
32416,25135,33265
32468,25103,33253
32538,25103,33225
32644,25114,33209
32712,25143,33158
32684,25172,33149
32720,25199,33028
32686,25203,33036
32644,25181,32933
32568,25164,33110
32484,25132,33028
32384,25108,32827
32308,25104,32987
32341,25119,32972
32480,25138,32998
32549,25164,32932
32704,25202,32932
32810,25205,32873
32821,25184,32732
32767,25158,32820
32660,25135,32724
32505,25103,32781
32448,25100,32613
32496,25127,32647
32556,25135,32557
32556,25173,32655
32528,25199,32537
32500,25207,32698
32436,25183,32669
32378,25157,32569
32308,25131,32608
32141,25108,32510
31972,25095,32588
32004,25121,32438
32128,25141,32532
32208,25165,32404
32240,25199,32442
32141,25197,32357
31920,25181,32448
31740,25159,32359
31728,25127,32550
31745,25095,32496
31740,25095,32537
31732,25108,32492
31692,25141,32513
31748,25164,32332
31828,25188,32456
31870,25188,32381
31828,25180,32492
31752,25154,32436
31696,25125,32292
31582,25095,32324
31464,25084,32431
31508,25103,32457
31624,25133,32408
31793,25162,32262
31920,25191,32444
31949,25188,32412
31952,25169,32396
31876,25140,32389
31792,25115,32421
31676,25081,32389
31597,25091,32325
31648,25105,32297
31773,25124,32205
31924,25153,32254
32100,25178,32189
32284,25183,32389
32428,25159,32317
32452,25143,32196
32430,25119,32349
32576,25084,32324
32813,25079,32217
33000,25095,32302
33124,25117,32211
33322,25153,32293
33488,25181,32151
33588,25180,32271
33416,25172,32304
33052,25145,32307
32869,25121,32319
32944,25094,32285
33124,25102,32112
33292,25112,32327
32708,25141,32285
31470,25175,32319
31060,25199,32297
30724,25207,32240
29605,25184,32287
28841,25156,32263
28672,25132,32324
28916,25102,32361
29328,25092,32327
29752,25109,32258
30124,25135,32340
30440,25156,32200
30616,25185,32263
30668,25183,32214
30592,25164,32373
30460,25140,32215
30348,25103,32386
30320,25084,32352
30316,25077,32212
30382,25095,32280
30540,25119,32213
30688,25148,32263
30719,25175,32198
30672,25172,32326
30584,25157,32390
30616,25127,32404
30712,25095,32204
30756,25079,32297
30736,25066,32231
30732,25085,32302
30748,25111,32211
30745,25143,32333
30784,25161,32228
30812,25158,32400
30788,25148,32263
30762,25121,32341
30732,25090,32240
30665,25060,32394
30660,25068,32270
30692,25083,32365
30748,25100,32304
30836,25133,32360
30996,25157,32301
31172,25157,32506
31160,25133,32322
31004,25110,32496
30725,25081,32463
30548,25055,32464
30485,25053,32460
30534,25068,32403
30672,25087,32439
30740,25124,32357
30784,25149,32421
30756,25151,32421
30728,25133,32389
30660,25109,32196
30564,25076,32303
30444,25050,32140
30364,25045,32319
30477,25060,32102
30649,25089,32240
30728,25113,32037
30855,25142,32220
30934,25146,32151
30936,25121,32141
30869,25095,31973
30796,25068,32084
30728,25041,31843
30696,25040,31917
30656,25063,31804
30690,25081,31816
30836,25101,31742
30936,25133,31785
30976,25137,31687
30944,25113,31773
30900,25087,31767
30836,25061,31751
30837,25034,31704
30884,25028,31540
30914,25047,31582
30948,25071,31489
30946,25101,31612
30937,25127,31621
30929,25125,31535
30908,25105,31412
30896,25083,31479
30856,25050,31373
30644,25028,31548
30476,25025,31503
30438,25042,31433
30509,25067,31304
30588,25095,31404
30677,25116,31251
30732,25117,31372
30680,25093,31392
30545,25075,31172
30432,25045,31284
30334,25017,31216
30372,25015,31238
30392,25033,31181
30464,25056,31021
30468,25088,31140
30357,25116,31004
30208,25114,31009
30016,25095,30871
29852,25065,30889
29772,25028,30780
29756,25008,30790
29716,25012,30697
29653,25031,30818
29615,25051,30627
29604,25080,30629
29668,25110,30560
29740,25102,30577
29740,25085,30376
29636,25061,30480
29492,25036,30332
29396,25011,30218
29378,25009,30313
29536,25023,30164
29752,25049,30021
29976,25079,30096
30013,25103,30029
29900,25108,29836
29748,25080,29766
29577,25060,29641
29432,25028,29685
29296,25004,29548
29285,25004,29521
29216,25023,29317
29048,25049,29310
28940,25075,29137
28870,25103,29145
28824,25095,28980
28716,25076,28944
28572,25059,28748
28444,25027,28583
28356,25005,28607
28304,25005,28458
28292,25018,28396
28368,25041,28183
28472,25073,28167
28560,25095,27959
28540,25095,27978
28408,25071,27740
28261,25052,27765
28064,25026,27599
27896,24996,27502
27852,24996,27477
28008,25010,27352
28244,25042,27157
28405,25068,27108
28384,25092,26993
28292,25087,26767
28248,25063,26722
28312,25044,26513
28376,25009,26486
28316,24990,26323
28224,24995,26188
28148,25007,26088
28196,25028,26001
28312,25068,25851
28592,25085,25671
28837,25082,25565
28992,25055,25394
28908,25037,25304
28620,25007,25110
28364,24980,25017
28184,24991,24745
28061,25006,24692
28094,25029,24462
28248,25060,24413
28340,25085,24261
28336,25073,24069
28378,25060,23950
28321,25034,23788
28156,25000,23600
28038,24983,23429
28130,24974,23316
28324,24996,23143
28512,25016,22983
28644,25053,22823
28704,25071,22641
28628,25077,22500
28436,25053,22326
28160,25028,22177
27961,24997,22004
27860,24973,21848
27801,24976,21653
27861,24992,21531
27892,25020,21360
27932,25045,21209
28020,25068,21063
27994,25067,20887
27808,25039,20743
27504,25025,20572
27208,24988,20420
27060,24975,20268
27031,24960,20097
27144,24989,19938
27440,25012,19796
27648,25039,19620
27610,25061,19500
27432,25063,19320
27336,25051,19190
27396,25019,18992
27524,24987,18824
27742,24960,18679
27954,24956,18521
28112,24983,18374
28232,24999,18218
28248,25036,18055
28316,25055,17980
28172,25057,17780
27925,25035,17686
27664,25004,17481
27556,24981,17368
27552,24960,17173
27706,24954,17076
28088,24976,16825
28420,24996,16720
28697,25025,16661
28868,25050,16460
28878,25051,16351
28720,25024,16108
28544,24997,15992
28396,24971,15828
28312,24951,15744
28372,24945,15548
28484,24966,15529
28652,24991,15303
28816,25021,15268
28968,25037,15081
29004,25037,15022
29048,25021,14815
29116,24991,14748
29076,24963,14466
28968,24937,14508
28908,24941,14281
29064,24960,14262
29164,24987,13994
29144,25011,13916
29168,25036,13735
29148,25030,13709
29140,25011,13481
29100,24981,13358
29096,24949,13413
29009,24935,13197
29156,24928,13175
29264,24956,12953
29408,24974,12918
29480,25010,12733
29445,25024,12670
29296,25026,12646
29428,25007,12496
29600,24976,12524
29532,24944,12247
29220,24930,12174
29116,24924,12217
29172,24946,12086
29344,24967,12066
29690,24995,11841
30033,25019,11790
30180,25016,11888
30076,24989,11684
30116,24967,11712
30228,24939,11536
30078,24913,11620
29836,24917,11458
29776,24933,11492
29794,24953,11263
29864,24990,11264
29980,25008,11167
29968,25005,11132
29820,24988,11084
29712,24957,11036
29708,24923,10977
29852,24905,10945
30008,24912,10865
30084,24925,10891
30056,24956,10776
30112,24980,10903
30056,24998,10759
29948,24988,10806
29908,24976,10694
29860,24948,10684
29768,24913,10588
29804,24895,10603
29944,24901,10516
30040,24919,10562
30180,24941,10333
30376,24967,10403
30620,24988,10252
30696,24980,10251
30724,24963,10292
30800,24941,10220
31008,24902,10311
31208,24877,10175
31424,24885,10173
31572,24903,10126
31828,24927,10115
32168,24964,10176
32620,24979,10060
32918,24972,10126
33112,24954,9940
33287,24921,9911
33541,24895,9910
33844,24876,9836
34008,24875,9929
33902,24898,9800
34044,24935,9920
34214,24956,9789
34040,24987,9881
33580,24987,9766
32445,24967,9821
31016,24948,9917
30616,24908,9864
30088,24894,9924
29088,24899,9840
28554,24913,9918
28677,24935,9824
29140,24968,9929
29696,24981,9776
30026,24975,9923
30152,24959,9824
30289,24924,9947
30324,24893,9883
30341,24876,9976
30340,24876,9900
30420,24893,9892
30608,24918,9924
30792,24951,10005
30988,24963,9933
30965,24965,10020
30896,24934,9944
30752,24913,9990
30612,24876,9877
30436,24861,9879
30440,24866,9957
30542,24879,9943
30572,24902,10057
30704,24935,9977
30796,24941,9936
30876,24948,9949
30640,24932,9958
30376,24894,10133
30333,24870,9982
30616,24838,9972
30936,24845,10175
31286,24868,10098
31380,24892,10194
31328,24927,10078
31260,24935,10151
31144,24935,10164
31173,24913,10226
31228,24887,10288
31236,24848,10359
31300,24834,10302
31316,24829,10383
31296,24859,10324
31264,24879,10315
31332,24909,10474
31524,24929,10403
31684,24921,10420
31708,24892,10434
31688,24870,10525
31664,24839,10500
31560,24815,10635
31536,24824,10528
31520,24845,10576
31464,24870,10580
31472,24901,10545
31564,24922,10725
31622,24911,10555
31672,24888,10587
31740,24861,10709
31932,24831,10654
32078,24809,10614
32072,24812,10646
32044,24829,10719
31948,24865,10626
32072,24892,10748
32340,24908,10577
32568,24900,10678
32664,24881,10561
32638,24847,10624
32650,24820,10666
32592,24794,10628
32476,24794,10693
32489,24824,10641
32512,24837,10610
32540,24881,10788
32484,24895,10647
32508,24885,10738
32441,24864,10730
32349,24837,10801
32372,24809,10680
32333,24796,10804
32309,24785,10692
32460,24807,10856
32484,24823,10690
32492,24861,10801
32556,24885,10702
32644,24883,10742
32586,24853,10727
32352,24821,10770
32140,24797,10749
31984,24772,10787
31961,24783,10948
32060,24801,10834
32126,24820,10902
32104,24859,10853
32036,24868,11028
31948,24861,10892
32048,24839,10900
32250,24815,11067
32260,24780,11063
31881,24763,11038
31544,24780,11157
31336,24790,11178
31304,24815,11265
31428,24849,11169
31636,24860,11205
31784,24856,11394
31812,24829,11321
31928,24812,11424
31928,24775,11520
31880,24751,11548
31860,24762,11702
31752,24783,11622
31760,24807,11695
31840,24839,11823
31900,24853,11921
31914,24847,11963
31870,24818,12124
31824,24804,12151
31870,24761,12252
31920,24745,12368
31992,24759,12496
32176,24778,12599
32384,24793,12718
32614,24835,12906
32872,24844,12988
33045,24834,13249
33036,24816,13345
32864,24791,13509
32760,24759,13561
32716,24741,13738
32768,24742,13996
32921,24770,14010
33128,24789,14181
33184,24831,14421
33164,24838,14534
33128,24829,14805
33013,24806,14893
32900,24781,15093
32712,24746,15317
32620,24724,15440
32588,24728,15768
32708,24754,15878
32916,24782,16198
33102,24821,16346
33124,24826,16629
33005,24814,16779
33008,24794,17080
33036,24766,17224
32996,24741,17445
32976,24732,17687
33008,24726,17909
33060,24748,18178
33080,24773,18435
33080,24799,18673
33061,24813,18935
32998,24813,19221
32912,24791,19460
32824,24759,19740
32704,24732,19959
32568,24716,20233
32508,24721,20508
32604,24737,20750
32772,24760,21014
32908,24797,21269
33036,24812,21527
33164,24796,21785
33212,24777,22040
33132,24751,22301
32961,24721,22556
32796,24707,22804
32784,24719,23057
32760,24737,23252
32840,24757,23535
32970,24787,23717
33157,24797,24011
33232,24796,24222
33196,24767,24495
32972,24744,24719
32772,24717,24876
32636,24703,25161
32625,24700,25266
32708,24725,25588
32758,24746,25716
32740,24780,26000
32668,24796,26172
32528,24786,26420
32432,24769,26574
32436,24732,26822
32336,24700,26965
32288,24689,27206
32300,24692,27346
32292,24724,27521
32374,24740,27712
32504,24775,27822
32628,24781,28095
32584,24775,28188
32480,24759,28487
32429,24725,28545
32408,24693,28741
32340,24677,28807
32262,24684,29108
32101,24705,29117
32072,24735,29389
32100,24745,29496
32160,24774,29721
32304,24771,29844
32433,24741,29861
32492,24717,30052
32476,24681,30119
32464,24672,30367
32468,24677,30391
32552,24692,30689
32596,24724,30793
32648,24754,30823
32640,24767,31005
32516,24757,31005
32308,24732,31164
32164,24707,31218
32132,24675,31469
32128,24657,31608
32184,24677,31697
32276,24690,31796
32320,24711,31756
32368,24745,32060
32357,24753,32141
32300,24751,32187
32224,24727,32318
32160,24702,32345
32096,24670,32442
32076,24648,32465
32112,24667,32753
32173,24681,32815
32284,24708,32900
32368,24734,32821
32465,24744,33111
32432,24739,32985
32312,24718,33313
32133,24687,33365
32032,24656,33422
31920,24645,33527
31925,24649,33544
32080,24677,33685
32292,24695,33668
32512,24723,33838
32601,24733,33780
32546,24727,33999
32457,24703,33980
32304,24676,34219
32096,24642,34308
31964,24628,34349
31940,24634,34501
32012,24659,34645
32124,24687,34677
32228,24711,34818
32292,24724,34855
32208,24721,34921
32048,24693,35012
31901,24662,35132
31852,24631,35163
31916,24614,35164
32084,24624,35319
32196,24650,35369
32192,24671,35492
32232,24699,35543
32188,24725,35622
32212,24710,35601
32284,24679,35751
32340,24657,35844
32260,24621,35988
32152,24615,35989
32124,24613,36000
32288,24637,36063
32501,24663,36060
32708,24686,36224
32888,24693,36296
33028,24687,36231
33156,24674,36473
33248,24636,36436
33236,24602,36309
33320,24588,36484
33552,24601,36629
33820,24619,36525
34149,24645,36565
34462,24685,36591
34614,24694,36543
34693,24671,36861
34852,24653,36814
34828,24631,36929
34740,24599,36756
34862,24599,36855
35008,24621,36809
34900,24628,36904
34688,24661,36876
33796,24697,36914
32356,24707,36868
31724,24695,37082
31340,24668,36809
30352,24641,36989
29784,24614,37023
29924,24595,37117
30540,24602,37111
31074,24621,37167
31360,24642,37265
31444,24673,37180
31534,24674,37231
31648,24669,36963
31680,24652,37190
31780,24620,37140
31840,24591,37214
31752,24575,37142
31716,24575,37127
31756,24605,36996
31792,24625,37201
31740,24653,37060
31768,24666,37145
31732,24658,37260
31664,24634,37255
31712,24609,37344
31740,24568,36981
31694,24553,37193
31746,24571,37124
31854,24583,37093
32004,24612,36948
32220,24647,37215
32376,24648,37065
32388,24641,37132
32312,24615,37064
32249,24586,37151
32160,24553,37142
32004,24546,37044
31892,24561,36992
31900,24572,36845
31974,24603,37170
32040,24639,37061
32096,24644,36934
32096,24627,36925
32109,24601,36893
32153,24572,36948
32136,24545,36916
32039,24529,36889
32028,24532,36783
32068,24565,36806
32133,24597,36543
32144,24623,36780
32172,24625,36652
32144,24609,36546
32202,24583,36541
32236,24567,36457
32212,24522,36440
32269,24516,36189
32388,24523,36261
32544,24548,36231
32597,24572,36239
32600,24597,35940
32584,24606,35952
32560,24596,35813
32508,24577,35809
32568,24546,35516
32668,24519,35744
32628,24505,35378
32540,24516,35588
32604,24535,35428
32770,24558,35258
32892,24601,35215
33027,24593,35056
33124,24583,35064
33156,24565,35044
33124,24533,34688
33024,24503,34717
32884,24495,34508
32834,24502,34695
32804,24526,34541
32884,24543,34268
32948,24581,34404
32980,24591,34281
32964,24575,34172
32820,24552,34091
32748,24527,34020
32676,24489,33905
32754,24475,33866
32908,24488,33715
33056,24518,33647
33084,24541,33539
33100,24565,33431
33084,24576,33308
32996,24561,33190
32836,24531,33124
32646,24508,32846
32542,24474,32833
32412,24464,32687
32365,24477,32636
32372,24495,32482
32366,24519,32447
32372,24553,32279
32344,24561,32213
32344,24549,32077
32256,24519,32165
32252,24495,32029
32256,24471,31769
32255,24455,31736
32288,24469,31567
32232,24486,31513
32165,24513,31360
32144,24543,31428
32016,24549,31257
31892,24539,31064
31832,24508,31145
31836,24484,31012
31784,24448,30816
31688,24437,30849
31704,24454,30736
31748,24470,30681
31808,24502,30548
31892,24535,30503
32108,24535,30263
32192,24533,30228
32196,24498,30109
32120,24474,30125
31966,24445,29969
31776,24431,30012
31692,24444,29927
31644,24472,29821
31793,24489,29763
32022,24519,29625
32092,24532,29566
31889,24519,29385
31704,24499,29377
31648,24466,29226
31716,24431,29234
31896,24425,29103
32196,24438,29191
32384,24457,29062
32540,24479,29071
32684,24518,28996
32789,24518,28831
32800,24504,28865
32648,24482,28732
32470,24455,28792
32296,24421,28596
32210,24417,28695
32240,24425,28638
32396,24449,28588
32580,24475,28380
32673,24503,28391
32696,24508,28276
32600,24500,28292
32465,24466,28303
32420,24445,28172
32408,24412,28196
32412,24399,28222
32436,24416,28204
32472,24436,28164
32492,24460,28129
32574,24489,27937
32656,24503,28022
32752,24477,27934
32744,24463,27972
32684,24429,27911
32560,24399,27847
32480,24391,27916
32440,24396,27910
32436,24426,27737
32527,24455,27821
32586,24475,27853
32677,24498,27660
32680,24475,27756
32620,24449,27620
32533,24427,27684
32372,24383,27636
32244,24383,27725
32244,24393,27689
32272,24410,27582
32264,24445,27602
32360,24477,27495
32456,24487,27573
32492,24456,27579
32400,24434,27468
32272,24409,27519
32140,24371,27335
32121,24368,27413
32178,24380,27473
32320,24410,27316
32449,24423,27380
32488,24460,27279
32500,24469,27390
32370,24447,27363
32212,24429,27244
32096,24392,27306
32056,24364,27264
32108,24345,27284
32276,24359,27124
32420,24405,27189
32460,24421,27105
32456,24452,27208
32425,24445,27200
32400,24443,27178
32328,24409,27077
32310,24383,27150
32278,24359,27134
32248,24347,26978
32317,24364,27045
32512,24389,27020
32704,24408,27015
32872,24439,27079
32949,24436,27052
32988,24430,27049
32912,24400,26887
32896,24378,27031
32836,24341,27030
32796,24327,26895
32796,24354,26960
32784,24377,26889
32768,24405,26981
32888,24429,26851
33024,24418,26996
33044,24417,26991
32958,24389,27001
32940,24363,26973
32972,24334,27001
33036,24326,26962
33228,24343,27004
33381,24366,26931
33468,24397,26964
33488,24414,26852
33412,24421,26948
33262,24406,26853
33120,24383,26995
33036,24345,26982
32992,24320,26900
32928,24320,27007
32908,24320,26931
32976,24344,26996
33104,24378,26895
33332,24397,26941
33564,24404,26874
33600,24386,26946
33432,24364,26958
33088,24340,27005
32772,24309,26868
32668,24301,26996
32768,24311,26944
32960,24329,27012
33232,24367,26983
33448,24388,27015
33416,24399,27021
33320,24385,27019
33212,24348,27009
33108,24323,26913
33092,24303,26961
33068,24281,26948
33068,24303,27028
33024,24320,27047
32956,24357,27017
32888,24377,27049
32956,24380,26978
33016,24367,27056
32972,24341,27019
32884,24314,27080
32744,24287,26999
32700,24277,27092
32808,24296,27051
32980,24317,27113
33222,24340,26964
33444,24365,27071
33613,24368,26981
33756,24354,27126
33916,24332,27028
33900,24301,27111
33752,24261,27076
33843,24256,27173
34141,24281,27117
34500,24297,27196
34849,24327,27104
35160,24358,27175
35352,24359,27064
35420,24357,27241
35352,24316,27225
35180,24293,27137
35065,24265,27198
35397,24264,27143
35708,24292,27241
35712,24303,27260
35188,24330,27279
33988,24374,27279
33270,24378,27243
33074,24353,27150
32092,24327,27236
31152,24302,27148
30945,24265,27294
31196,24261,27209
31604,24271,27295
31852,24298,27285
31960,24324,27361
32176,24353,27336
32348,24352,27449
32496,24332,27460
32516,24305,27462
32536,24277,27495
32460,24239,27468
32414,24234,27506
32492,24252,27472
32584,24277,27543
32648,24301,27538
32644,24333,27522
32549,24329,27621
32464,24317,27551
32352,24286,27667
32288,24267,27589
32325,24238,27654
32350,24225,27686
32380,24238,27679
32388,24267,27718
32452,24288,27746
32485,24312,27672
32436,24321,27732
32320,24301,27714
32256,24277,27806
32202,24252,27854
32142,24214,27860
32144,24208,27910
32277,24231,27932
32368,24256,27832
32429,24273,27971
32500,24297,27860
32584,24300,27957
32636,24293,27988
32574,24261,28039
32428,24239,28015
32340,24201,27950
32429,24199,28101
32592,24214,28137
32641,24243,28067
32616,24271,28112
32572,24289,28016
32596,24284,28087
32648,24285,28006
32638,24251,28106
32484,24224,27989
32296,24192,28133
32160,24191,28036
32192,24199,28096
32358,24224,27964
32520,24255,28104
32684,24284,27999
32817,24276,28045
32804,24263,27963
32660,24233,28034
32564,24208,27967
32528,24176,28062
32636,24179,27959
32740,24193,28048
32776,24212,28022
32900,24252,27846
33044,24278,27952
33202,24269,28007
33276,24249,27947
33224,24224,27980
33082,24199,27836
32928,24172,27912
32864,24174,27864
32964,24175,27953
33164,24200,27924
33264,24229,27812
33272,24255,27881
33210,24259,27736
33204,24243,27799
33372,24210,27738
33376,24181,27792
33232,24162,27747
33022,24154,27856
32984,24165,27844
33108,24194,27729
33160,24221,27788
33180,24250,27655
33148,24244,27789
33084,24225,27651
32964,24199,27731
32820,24175,27813
32705,24151,27645
32616,24135,27734
32629,24156,27716
32600,24178,27757
32596,24212,27781
32636,24232,27696
32646,24229,27797
32596,24219,27813
32480,24191,27794
32409,24163,27709
32336,24133,27757
32368,24121,27749
32312,24148,27854
32249,24173,27861
32204,24202,27757
32296,24218,27816
32400,24226,27782
32436,24199,27943
32496,24180,27953
32480,24142,27842
32448,24127,28022
32456,24117,27996
32604,24135,27913
32761,24158,28077
33008,24193,28140
33174,24212,28063
33176,24211,28142
33100,24195,28234
33012,24164,28167
32870,24141,28382
32688,24127,28429
32608,24113,28496
32604,24125,28539
32680,24148,28616
32840,24182,28665
33056,24203,28729
33236,24205,28785
33256,24182,28699
33221,24166,28853
33100,24138,28919
32876,24108,29115
32640,24108,29191
32534,24116,29142
32596,24148,29276
32777,24175,29287
33045,24189,29541
33224,24202,29613
33229,24183,29541
33212,24155,29713
33183,24132,29774
33156,24095,30033
33168,24094,30126
33204,24118,30185
33262,24135,30348
33372,24164,30468
33456,24189,30557
33488,24184,30690
33440,24169,30770
33320,24144,30836
33189,24118,30978
33116,24085,30953
33164,24084,31111
33276,24101,31172
33360,24133,31388
33428,24157,31401
33476,24178,31621
33524,24182,31809
33472,24155,31890
33348,24133,32078
33174,24108,32177
33036,24071,32301
33012,24068,32403
33117,24093,32399
33192,24122,32580
33228,24145,32608
33266,24167,32859
33236,24172,32911
33220,24151,33104
33124,24124,33196
32976,24101,33319
32868,24061,33385
32809,24068,33309
32800,24085,33508
32778,24104,33582
32820,24132,33796
32864,24165,33919
32916,24160,33906
32940,24120,33964
32976,24109,34127
32928,24085,34191
32788,24066,34348
32736,24062,34366
32756,24068,34453
32804,24096,34474
32832,24139,34641
32912,24155,34708
32968,24157,34916
32944,24133,35004
32857,24109,35144
32708,24071,35185
32544,24049,35268
32482,24041,35335
32448,24068,35384
32514,24095,35517
32640,24127,35650
32800,24143,35692
32852,24137,35719
32916,24132,35809
32996,24096,35822
33032,24067,35959
33045,24043,35957
33120,24034,36153
33197,24063,36245
33248,24087,36364
33308,24115,36389
33264,24136,36535
33212,24130,36452
33132,24113,36710
33020,24095,36705
32964,24057,36701
32926,24033,36739
32836,24031,36677
32796,24049,37041
32804,24081,37052
32952,24108,37207
33040,24127,37193
33113,24123,37247
33152,24111,37311
33064,24076,37182
32940,24052,37607
32856,24029,37577
32792,24019,37556
32736,24044,37666
32756,24071,37791
32758,24092,37879
32864,24124,37796
32924,24114,37991
32868,24098,37972
32708,24071,38188
32488,24046,38139
32241,24013,37989
32084,24019,38430
32109,24037,38326
32248,24068,38367
32452,24089,38605
32636,24108,38535
32704,24103,38332
32656,24079,38727
32548,24061,38493
32440,24033,38831
32336,24003,38573
32208,24009,39015
32212,24021,39005
32308,24045,39104
32460,24078,39105
32566,24103,39108
32596,24100,39119
32564,24078,39009
32522,24053,39468
32440,24012,39364
32344,23996,39279
32316,24000,39652
32504,24015,39599
32737,24037,39694
32884,24071,39687
32968,24092,39684
32932,24084,39860
32924,24062,39589
32889,24042,40036
32816,24013,40028
32704,23992,40108
32660,23985,40008
32696,24006,40095
32800,24033,40270
32972,24050,40302
33092,24071,40289
33148,24084,40479
33200,24062,40468
33376,24030,40535
33440,23999,40296
33505,23974,40781
33600,23972,40687
33740,23996,40659
33916,24023,40812
34080,24047,40839
34316,24064,40948
34560,24071,40802
34780,24052,40900
34836,24029,40996
34750,24008,40996
34500,23984,41121
34600,23981,41255
34940,24000,41220
35200,24029,41344
35168,24065,41324
34372,24090,41399
33220,24089,41400
32704,24071,41584
31972,24038,41495
30688,24007,41479
30120,23982,41479
30356,23985,41625
30852,23997,41679
31388,24018,41628
31876,24055,41796
32286,24071,41549
32620,24068,41959
32768,24047,41607
32772,24020,42103
32632,23989,42056
32481,23967,42208
32432,23971,42156
32416,23980,42257
32532,23998,42239
32720,24028,42167
32856,24057,42212
32712,24049,42277
32504,24027,42351
32424,24007,42117
32432,23982,42500
32563,23945,42219
32621,23952,42660
32724,23974,42655
32813,23999,42780
32900,24026,42791
32968,24055,42782
32968,24043,42900
32848,24028,42919
32712,23987,43003
32612,23961,43099
32537,23938,43132
32564,23945,43132
32608,23968,43235
32676,23983,43292
32764,24017,43365
32788,24039,43394
32757,24027,43423
32760,24017,43356
32716,23987,43524
32596,23959,43628
32500,23927,43645
32420,23937,43702
32396,23955,43609
32500,23981,43722
32548,24007,43607
32652,24023,43839
32669,24023,43932
32632,24004,43947
32584,23987,43976
32521,23950,43964
32448,23923,43696
32404,23924,43909
32396,23950,43892
32423,23975,44060
32500,24002,43992
32616,24015,44092
32688,24014,44032
32664,23998,44113
32600,23973,44077
32513,23937,44156
32432,23915,44069
32448,23916,43961
32560,23934,44084
32688,23965,44026
32832,23992,43999
32912,24015,43869
32884,24008,44038
32856,23999,43828
32972,23959,44133
33020,23933,44156
32996,23911,44141
32980,23909,44184
32989,23929,44108
33052,23953,43865
33172,23985,44032
33349,24007,43942
33392,24004,44180
33280,23980,44172
33160,23961,44209
33048,23921,44164
32860,23903,43911
32848,23904,44091
32968,23924,44073
33166,23949,44180
33312,23991,43973
33472,23999,44222
33624,23991,44271
33664,23981,44133
33560,23947,44225
33382,23919,43976
33284,23895,44236
33204,23893,44292
33284,23915,44277
33456,23943,44313
33577,23975,44256
33608,23994,44295
33492,23989,44145
33432,23973,44068
33389,23949,44148
33352,23905,44068
33248,23887,44132
33116,23893,44008
33048,23913,44118
33124,23938,44095
33300,23972,44244
33412,23993,44111
33348,23977,44100
33238,23959,43928
33173,23942,44082
33185,23896,43879
33212,23885,44064
33224,23892,44157
33184,23913,44135
33188,23935,44156
33296,23964,44112
33324,23989,44120
33204,23978,44089
33048,23963,44076
32980,23935,44056
32925,23898,43760
32920,23885,43973
33024,23898,43911
33072,23901,44025
33148,23929,43956
33100,23970,43965
33000,23988,43812
32968,23983,43845
32976,23952,43800
32940,23933,43849
32910,23897,43781
32901,23879,43797
32916,23880,43609
32945,23898,43765
33080,23927,43764
33212,23960,43877
33252,23980,43820
33268,23976,43857
33228,23959,43812
33120,23933,43797
32996,23903,43748
32920,23878,43468
32900,23887,43751
32940,23907,43463
33012,23928,43684
33109,23957,43573
33208,23970,43580
33205,23976,43399
33180,23951,43559
33100,23932,43381
33016,23890,43629
32949,23873,43654
32997,23879,43628
33080,23909,43629
33244,23932,43612
33388,23957,43596
33388,23983,43433
33230,23967,43442
33158,23943,43421
33144,23921,43441
33224,23898,43509
33332,23877,43550
33405,23879,43478
33384,23904,43236
33344,23916,43431
33472,23959,43236
33580,23973,43345
33600,23973,43301
33456,23949,43320
33328,23919,43317
33272,23898,43398
33228,23873,43387
33216,23879,43423
33268,23901,43380
33470,23932,43345
33652,23949,43348
33752,23965,43293
33633,23966,43324
33424,23950,43279
33268,23927,43199
33172,23887,43074
33220,23875,43041
33260,23876,43191
33332,23892,43143
33376,23923,42749
33372,23965,42972
33408,23971,42713
33396,23970,43024
33300,23954,42652
33173,23932,42804
33036,23899,42796
32936,23864,42804
32929,23870,42744
32985,23892,42836
32996,23920,42860
33080,23959,42432
33210,23975,42781
33245,23967,42684
33204,23943,42749
33156,23913,42652
33092,23880,42567
33024,23866,42471
33028,23876,42437
33080,23896,42200
33120,23925,42558
33184,23943,42145
33304,23969,42566
33325,23971,42484
33240,23940,42519
32976,23916,42363
32756,23887,42256
32708,23871,42263
32764,23884,42364
32944,23886,42341
33192,23922,42321
33282,23956,42384
33228,23967,42271
33208,23969,42282
33116,23940,41855
33144,23916,42078
33376,23878,42085
33501,23872,42149
33600,23869,42048
33582,23900,42073
33424,23930,42109
33348,23956,42212
33396,23975,42026
33436,23973,42050
33440,23943,41908
33428,23919,41629
33416,23884,42095
33380,23870,41989
33324,23881,41965
33340,23903,41933
33400,23927,42025
33460,23962,41884
33494,23975,41928
33465,23972,41848
33336,23940,41745
33172,23918,41926
33028,23891,41772
32968,23865,41528
32949,23872,41599
33012,23898,41471
33052,23920,41756
33088,23959,41670
33153,23975,41757
33122,23961,41252
32992,23948,41765
32840,23921,41621
32708,23884,41589
32624,23871,41500
32640,23871,41471
32672,23894,41436
32784,23920,41263
32872,23956,41496
32932,23971,41417
32940,23970,41492
32840,23941,41127
32712,23925,41527
32656,23887,41360
32568,23873,41388
32512,23876,41152
32480,23900,41500
32516,23929,41220
32624,23954,41543
32764,23975,41300
32892,23969,41046
32984,23937,41551
32864,23917,41360
32760,23893,41081
32708,23868,41516
32768,23874,41381
32944,23902,41300
33116,23919,41495
33200,23954,41364
33333,23972,41276
33445,23967,41415
33580,23940,41348
33772,23911,41272
33824,23885,41248
33812,23861,41358
33916,23878,41362
34177,23900,41350
34425,23929,41468
34652,23953,41343
34838,23975,41311
35016,23976,41207
35180,23935,40964
35236,23919,41438
35048,23897,41300
34748,23891,41359
34800,23886,41311
35012,23917,41348
35236,23944,41213
35112,23986,41273
34228,24002,41405
33072,23993,41068
32622,23973,41332
31824,23941,41301
30737,23911,41351
30341,23894,41223
30580,23905,41328
30988,23920,41264
31405,23949,41428
31864,23976,41335
32220,23983,41261
32400,23986,41245
32540,23955,41004
32572,23932,41437
32432,23903,41281
32396,23881,41060
32440,23890,41461
32432,23916,41256
32496,23943,41356
32548,23978,41351
32688,23982,41424
32814,23982,41351
32846,23966,41313
32748,23936,41223
32568,23897,41064
32453,23887,41464
32560,23887,41335
32688,23917,41094
32793,23952,41444
32864,23970,41327
32924,23988,41449
32844,23983,41325
32644,23957,41360
32432,23925,41273
32284,23901,41351
32224,23882,41323
32364,23903,41256
32540,23927,41309
32612,23943,41108
32612,23973,41420
32616,23996,41253
32637,23979,41346
32628,23959,41373
32600,23936,41292
32548,23901,41168
32532,23881,41322
32528,23890,41308
32560,23922,41135
32660,23946,41407
32740,23975,41268
32826,23992,41111
32848,23988,41267
32804,23955,41196
32740,23936,41252
32700,23901,41113
32604,23890,41023
32556,23893,40937
32540,23924,40775
32644,23946,41061
32844,23973,40895
32988,23990,40524
33008,23991,40961
32892,23966,40765
32840,23937,40657
32868,23900,40812
32936,23888,40631
32989,23900,40396
33000,23919,40680
33052,23948,40500
33160,23976,40321
33232,23993,40529
33325,23984,40340
33424,23956,40301
33488,23929,40278
33488,23900,40352
33440,23885,39868
33461,23894,40221
33492,23923,39878
33608,23948,39968
33704,23983,39989
33737,23993,39910
33676,23984,39844
33568,23956,40033
33500,23924,39607
33448,23905,40044
33456,23895,39892
33528,23905,39917
33628,23916,39831
33676,23943,39904
33636,23980,39799
33552,23994,39862
33524,23978,39689
33380,23967,39625
33264,23935,39566
33166,23911,39348
33120,23885,39728
33156,23903,39590
33240,23929,39628
33260,23935,39551
33396,23983,39600
33416,24000,39455
33360,23985,39364
33292,23957,39332
33188,23940,39124
33134,23908,39279
33080,23896,39107
32968,23902,39255
32984,23924,39111
32996,23947,39157
33032,23985,39260
33052,23990,38887
33004,23983,39052
32952,23975,39102
32872,23935,38982
32780,23904,39060
32769,23903,38632
32866,23906,38863
33056,23919,38896
33152,23956,38780
33224,23991,38839
33324,23999,38708
33280,23988,38705
33180,23964,38588
32993,23943,38565
32800,23911,38524
32676,23892,38461
32696,23909,38404
32824,23939,38414
32996,23957,38248
33120,23988,38206
33262,24009,38149
33284,23994,37989
33180,23977,38255
32996,23941,38150
32848,23920,38188
32809,23911,37965
32764,23909,38012
32804,23939,38060
32997,23972,37839
33196,23994,37908
33344,24015,37801
33304,23993,37734
33216,23979,37511
33116,23946,37863
32960,23908,37717
32916,23903,37697
32940,23910,37605
32992,23947,37440
32980,23961,37661
33024,23999,37542
33084,24002,37373
33108,23988,37429
33065,23970,37205
33044,23944,37492
32972,23919,37369
32924,23904,37277
32917,23917,37412
32980,23952,37261
33012,23967,37149
33001,24008,37225
32952,24015,37165
32908,24004,37204
32812,23973,37121
32822,23948,37196
32825,23919,37081
32820,23911,37149
32820,23925,37029
32884,23941,36905
32968,23965,36944
33004,24011,36887
33032,24015,36863
33024,23999,36869
32872,23982,36900
32672,23951,36805
32580,23920,36836
32488,23909,36749
32592,23932,36687
32660,23945,36603
32620,23978,36615
32608,24016,36604
32540,24015,36589
32440,24002,36540
32396,23981,36509
32404,23950,36447
32332,23924,36348
32224,23925,36376
32240,23932,36340
32301,23961,36303
32376,23977,36301
32544,24011,36319
32652,24025,36230
32668,24007,36119
32628,23988,36226
32540,23957,36133
32568,23924,35939
32636,23920,36170
32656,23935,35980
32670,23957,36015
32656,23993,36007
32616,24010,35845
32593,24025,35933
32584,24008,35709
32544,23985,35940
32460,23964,35836
32420,23933,35887
32407,23916,35780
32477,23928,35761
32636,23957,35684
32752,23988,35604
32820,24021,35557
32801,24017,35541
32712,24005,35565
32548,23981,35495
32413,23965,35511
32312,23936,35408
32279,23925,35487
32316,23937,35276
32404,23956,35542
32424,23980,35463
32473,24021,35415
32498,24026,35393
32356,24009,35308
32224,23985,35333
32109,23957,35167
31992,23932,35452
31921,23931,35359
32002,23927,35391
32130,23956,35327
32224,23985,35284
32308,24009,35297
32417,24020,35268
32484,24006,35263
32468,23989,35143
32452,23964,35237
32420,23932,35228
32460,23921,35273
32568,23938,34997
32660,23969,35221
32684,23983,35184
32764,24021,35111
32772,24021,35057
32788,24009,35124
32848,23994,35172
32856,23959,35093
32813,23935,35040
32897,23924,35135
32948,23935,35065
32982,23960,35079
32918,23988,34896
32882,24022,35126
32896,24023,34866
32912,24008,35140
32988,23990,35052
33096,23961,34932
33156,23928,34902
33080,23927,34764
33004,23933,35053
32976,23964,34932
33040,23993,34726
33190,24028,34991
33258,24031,34917
33316,24016,34719
33268,23988,34957
33188,23965,34869
33036,23929,34767
33036,23926,34849
33136,23943,34736
33124,23960,34796
33125,23991,34641
33133,24021,34924
33116,24023,34820
33044,24017,34619
33010,23988,34808
32992,23966,34844
32936,23927,34884
32844,23929,34844
32821,23941,34819
32864,23957,34743
32952,23992,34844
33032,24022,34809
33037,24031,34792
33012,24019,34878
32989,23995,34887
32876,23953,34836
32788,23930,34893
32704,23924,34815
32696,23938,34884
32756,23959,34585
32896,23984,34880
32960,24023,34822
32970,24029,34852
33018,24007,34800
33004,23996,34709
32900,23951,34852
32799,23929,34822
32668,23923,34848
32728,23937,34807
32928,23964,34713
33140,23981,34717
33172,24020,34576
33052,24025,34750
32856,24009,34733
32682,23980,34612
32744,23964,34727
32964,23924,34610
33248,23924,34732
33548,23933,34604
33816,23954,34876
34076,23982,34595
34236,24013,34713
34328,24021,34591
34500,24012,34879
34700,23984,34577
34924,23951,34700
35040,23939,34684
35108,23925,34708
35188,23928,34587
35300,23967,34839
35324,23997,34708
35140,24023,34668
34884,24025,34823
34860,24022,34721
34688,24016,34783
34428,23974,34823
33762,23948,34889
32441,23945,34834
31606,23960,34781
31449,23981,34823
30696,24017,34625
30109,24041,34845
30264,24044,34804
30768,24024,34769
31188,23992,34799
31556,23969,34736
31920,23934,34808
32253,23934,34823
32553,23944,34911
32752,23967,34946
32890,23989,35028
32984,24028,34973
33024,24029,35014
33024,24006,34988
32992,23983,35016
32964,23965,34796
32848,23927,34951
32844,23927,35022
32900,23943,35077
32956,23957,35111
32904,23986,35100
32904,24023,35188
32856,24029,34884
32792,24011,35044
32840,23975,34908
32924,23952,35210
32934,23926,34947
32948,23918,35200
32976,23936,35215
33012,23959,35292
33104,23997,35237
33208,24017,35199
33217,24030,35316
33184,24006,35361
33200,23983,35335
33192,23951,35184
33152,23925,35309
33131,23911,35172
33156,23941,35476
33132,23959,35415
33092,23975,35354
33116,24012,35393
33156,24019,35388
33168,24011,35429
33128,23973,35503
33028,23956,35580
32936,23924,35524
32812,23919,35602
32684,23924,35549
32836,23957,35383
32996,23983,35523
33028,24013,35522
32972,24010,35572
32912,24001,35511
32864,23969,35401
32832,23948,35379
32792,23911,35236
32852,23917,35536
32928,23932,35447
33024,23963,35365
33100,23978,35372
33188,24008,35280
33260,24016,35319
33282,23990,35252
33268,23973,35231
33220,23943,35078
33200,23911,35385
33141,23904,35279
33180,23927,35333
33244,23953,35244
33304,23982,35324
33392,24004,35221
33496,24017,35108
33512,23989,35123
33464,23977,34996
33377,23935,35291
33320,23911,35212
33317,23910,35125
33333,23927,35096
33400,23945,34972
33512,23983,35276
33552,24011,35212
33568,24006,35258
33608,23983,35208
33660,23970,35148
33568,23935,35182
33404,23913,35048
33288,23908,35132
33317,23916,34975
33540,23948,35279
33820,23976,35192
33932,23999,35163
33940,23998,35095
33848,23983,35029
33728,23957,35156
33564,23935,35164
33372,23885,35236
33200,23904,35159
33156,23919,35052
33220,23944,35191
33356,23972,34933
33396,23991,35111
33312,23997,35061
33148,23989,35198
32944,23961,34878
32837,23924,35158
32784,23899,35097
32824,23893,34957
32892,23919,35027
32928,23940,34816
32901,23969,35092
32912,23992,35020
32956,23997,34985
32924,23973,34935
32900,23949,34821
32878,23932,35040
32846,23895,34960
32862,23905,34817
32944,23916,34868
33054,23944,34704
33164,23966,34841
33244,23989,34756
33240,23992,34748
33200,23983,34700
33096,23957,34797
32968,23924,34797
32853,23894,34821
32876,23896,34596
33008,23919,34780
33088,23932,34750
33124,23966,34681
33344,23999,34617
33460,23989,34469
33588,23983,34732
33624,23959,34644
33504,23935,34629
33136,23894,34645
32844,23895,34628
32808,23908,34679
32985,23943,34599
33296,23972,34671
33576,23985,34575
33672,23996,34447
33592,23980,34447
33445,23943,34429
33316,23914,34478
33216,23897,34380
33156,23893,34404
33076,23916,34332
33028,23934,34384
33072,23963,34396
33216,23984,34271
33311,23991,34373
33388,23975,34324
33432,23949,34380
33405,23925,34311
33256,23893,34420
33174,23891,34399
33172,23914,34421
33229,23930,34486
33264,23969,34172
33352,23989,34292
33421,23981,34268
33500,23965,34363
33512,23936,34351
33540,23904,34367
33588,23887,34218
33516,23885,34292
33444,23908,34340
33464,23927,34300
33465,23957,34167
33464,23985,34231
33456,23982,34127
33360,23965,34164
33234,23943,33998
33120,23921,34220
33013,23893,33964
32936,23879,34076
