ECG,EDA,RR
31908,23282,25861
31980,23319,25839
31916,23357,25661
31945,23379,25588
31912,23348,25401
31872,23303,25409
31776,23268,25274
31734,23231,25208
31764,23237,25024
31786,23238,24975
31844,23281,24777
31829,23318,24827
31824,23361,24732
31808,23381,24596
31848,23361,24532
31860,23314,24344
31828,23268,24320
31748,23244,24180
31724,23232,24160
31788,23247,24112
31860,23281,23898
31940,23329,23973
31924,23353,23868
31876,23364,23772
31880,23368,23612
31904,23326,23676
31908,23275,23598
31880,23241,23553
31876,23227,23447
31828,23239,23300
31840,23273,23380
31864,23315,23281
31940,23361,23232
31973,23365,23224
31956,23369,23041
31961,23312,23041
31877,23271,23086
31840,23242,23026
31760,23233,22948
31892,23247,22839
31928,23280,22886
31896,23314,22823
31817,23359,22769
31816,23364,22764
31952,23365,22748
31992,23324,22603
32016,23268,22642
32068,23236,22641
32068,23217,22496
32020,23264,22545
31892,23296,22529
31752,23336,22399
31760,23372,22479
31996,23374,22420
32136,23351,22322
32192,23308,22276
32300,23274,22324
32276,23253,22303
32254,23237,22186
32220,23253,22265
32165,23282,22217
32172,23335,22165
32140,23367,22082
32122,23372,22154
32174,23343,22137
32188,23324,22033
32156,23292,22084
32124,23244,22081
32102,23226,21986
32074,23253,22062
31992,23280,22022
31908,23324,21952
31700,23376,22022
31618,23377,22004
31900,23349,21920
32288,23310,21992
32376,23297,21976
32268,23242,21900
32104,23228,21975
31992,23244,21969
32040,23276,21904
32152,23334,21972
32254,23367,21977
32052,23367,21896
31840,23349,21988
31872,23323,21984
32020,23273,21912
31996,23234,21996
32072,23224,21994
32172,23243,22029
32268,23302,21975
32296,23331,22024
32176,23365,22062
32056,23380,21997
32124,23358,22100
32224,23317,22113
32192,23295,22068
32072,23244,22131
31988,23236,22176
32060,23252,22123
32157,23295,22218
32180,23327,22244
32188,23363,22212
32169,23390,22288
32041,23372,22335
31920,23326,22284
31960,23292,22288
32064,23249,22408
32046,23232,22433
32058,23248,22388
32048,23281,22516
31993,23324,22512
32000,23369,22552
31985,23371,22561
31949,23354,22519
32028,23316,22651
32052,23286,22689
32068,23244,22689
32069,23227,22722
32048,23243,22770
32028,23289,22741
32052,23325,22725
32120,23365,22772
32156,23393,22903
32156,23368,22888
32168,23333,22929
32220,23296,22972
32248,23255,22953
32192,23255,22905
32144,23268,23060
32108,23309,23061
32085,23343,23043
32158,23369,23138
32204,23384,23149
32200,23356,23068
32240,23316,23236
32264,23301,23240
32281,23252,23146
32246,23238,23284
32184,23249,23353
32224,23284,23269
32284,23350,23380
32324,23374,23327
32324,23383,23452
32332,23377,23509
32313,23333,23429
32288,23284,23548
32304,23246,23599
32344,23237,23583
32392,23244,23614
32420,23310,23698
32494,23340,23774
32508,23396,23780
32548,23397,23728
32556,23371,23896
32576,23329,23928
32633,23284,23968
32681,23236,23935
32680,23234,24080
32656,23279,24159
32601,23294,24251
32548,23334,24157
32592,23368,24293
32638,23397,24364
32632,23374,24465
32677,23331,24489
32748,23283,24583
32706,23268,24465
32625,23246,24641
32672,23253,24668
32712,23318,24668
32717,23344,24759
32680,23386,24799
32660,23380,24871
32672,23377,24924
32684,23329,24847
32644,23283,25010
32540,23263,25034
32500,23263,24992
32513,23268,25001
32492,23300,25085
32480,23346,25157
32508,23376,25095
32508,23385,25085
32472,23368,25260
32406,23329,25228
32392,23286,25304
32504,23240,25228
32548,23236,25188
32500,23263,25358
32440,23321,25345
32337,23365,25390
32356,23379,25266
32356,23383,25314
32376,23361,25400
32368,23328,25405
32340,23309,25248
32308,23260,25324
32280,23255,25397
32264,23262,25239
32233,23318,25346
32304,23356,25228
32372,23384,25268
32385,23396,25260
32404,23372,25321
32416,23325,25225
32436,23310,25271
32432,23263,25152
32349,23248,25196
32268,23266,25165
32340,23310,25221
32320,23348,25095
32228,23388,25128
32365,23392,25136
32512,23372,25100
32580,23336,25114
32476,23297,25048
32324,23255,24952
32336,23243,25081
32408,23264,25012
32544,23310,25066
32576,23346,25087
32290,23392,24977
31820,23404,24898
31485,23377,25047
31552,23349,24997
31808,23314,25038
32072,23272,24965
32480,23268,24941
32801,23292,24998
33160,23309,25041
33836,23346,25073
34880,23393,24967
35972,23399,24928
36964,23380,25027
37940,23338,25079
38964,23294,24992
40252,23268,24997
41316,23252,25056
42200,23294,25078
42168,23340,25149
40848,23366,25068
38776,23431,25046
36964,23446,25077
35821,23409,25193
35116,23344,25162
34445,23301,25164
34100,23260,25218
33740,23250,25199
33356,23296,25106
33020,23335,25288
32754,23360,25297
32516,23405,25321
32372,23404,25253
32189,23386,25305
31940,23344,25386
31936,23296,25251
32028,23266,25437
31976,23260,25388
31932,23276,25479
31904,23320,25347
31812,23356,25517
31748,23392,25540
31728,23400,25457
31732,23403,25514
31756,23357,25541
31760,23317,25624
31797,23273,25475
31788,23265,25656
31848,23290,25636
31880,23316,25589
31876,23356,25657
31872,23393,25641
31873,23400,25718
31888,23402,25584
31905,23343,25621
31884,23301,25744
31896,23261,25737
31881,23256,25722
31852,23281,25655
31804,23316,25791
31864,23380,25816
31917,23420,25732
31956,23422,25725
32017,23404,25836
32056,23364,25876
32128,23322,25796
32060,23276,25876
32032,23274,25916
32012,23285,25969
32024,23333,25801
32020,23367,26001
31996,23421,26022
31960,23427,25872
32056,23402,25996
32176,23360,26103
32221,23318,25952
32220,23280,26152
32172,23275,26140
32116,23303,26223
32064,23332,26119
32184,23364,26276
32284,23412,26257
32320,23419,26356
32348,23399,26264
32392,23357,26455
32420,23321,26421
32412,23274,26460
32424,23274,26415
32400,23285,26582
32382,23328,26688
32394,23389,26704
32431,23426,26776
32506,23425,26727
32512,23398,26841
32528,23364,26940
32528,23333,26989
32528,23268,27095
32548,23290,26999
32588,23319,27142
32600,23348,27241
32637,23385,27224
32684,23420,27247
32712,23429,27460
32748,23401,27472
32760,23362,27621
32720,23320,27513
32752,23285,27668
32749,23275,27734
32768,23295,27902
32840,23359,27815
32852,23385,27981
32837,23423,28117
32881,23424,28049
32916,23396,28184
32944,23361,28350
32885,23320,28389
32948,23308,28415
33044,23296,28464
33094,23312,28565
33100,23345,28757
33124,23386,28679
33180,23423,28948
33232,23423,28988
33286,23402,28973
33264,23389,29157
33236,23336,29184
33272,23292,29385
33360,23292,29309
33440,23313,29575
33468,23351,29577
33512,23391,29781
33600,23420,29722
33692,23431,29996
33781,23427,30076
33856,23389,30010
33884,23330,30316
33848,23288,30380
33812,23286,30507
33840,23308,30468
33828,23340,30658
33844,23404,30660
33856,23437,30976
33880,23445,31079
33941,23422,31130
34033,23380,31120
34088,23346,31452
34081,23293,31524
34060,23295,31668
34064,23309,31614
34100,23362,31757
34148,23402,32052
34120,23436,32092
34112,23438,32292
34100,23421,32214
34141,23365,32485
34006,23326,32704
33941,23295,32687
33876,23291,32904
33828,23310,32869
33776,23372,33137
33680,23418,33378
33548,23454,33381
33456,23457,33644
33393,23431,33590
33276,23380,33959
33173,23346,34040
33092,23301,34232
33004,23292,34271
32925,23336,34468
32834,23364,34695
32724,23404,34628
32628,23444,34897
32576,23444,35164
32564,23420,35384
32512,23373,35406
32416,23339,35648
32356,23301,35580
32348,23325,36008
32292,23332,36170
32260,23371,36356
32224,23419,36533
32232,23431,36716
32148,23436,36901
32252,23425,36840
32256,23405,37317
32248,23352,37348
32232,23311,37499
32168,23293,37846
32108,23340,37940
32062,23372,38268
32020,23406,38432
32012,23446,38689
32016,23455,38844
32024,23425,38977
32036,23381,39190
32032,23348,39476
32076,23325,39728
32132,23316,39765
32105,23332,39864
32088,23374,40336
32140,23412,40413
32202,23444,40677
32268,23460,40855
32276,23430,40949
32288,23390,41286
32232,23350,41412
32176,23337,41799
32052,23329,41871
31980,23348,41782
31984,23388,42306
32080,23431,42524
32104,23449,42773
32156,23449,42916
32224,23429,42941
32273,23404,43164
32316,23361,43444
32388,23323,43709
32418,23321,43888
32356,23354,43724
32236,23392,44036
32168,23423,44393
32188,23464,44460
32260,23464,44728
32288,23437,44972
32329,23401,45132
32356,23374,45085
32356,23328,45132
32392,23324,45421
32440,23343,45716
32456,23377,45822
32480,23411,46120
32500,23442,45920
32508,23487,46261
32476,23452,46566
32488,23409,46716
32512,23368,46778
32512,23328,47040
32496,23321,46785
32496,23353,47065
32524,23385,47409
32521,23428,47576
32536,23468,47684
32616,23461,47848
32608,23442,47968
32568,23421,47972
32592,23382,48135
32565,23344,48352
32528,23344,48365
32592,23365,48581
32652,23404,48452
32632,23429,48793
32592,23474,48792
32636,23474,49005
32676,23460,49074
32692,23425,48816
32712,23393,49212
32796,23332,49344
32856,23332,49472
32788,23353,49520
32732,23389,49645
32672,23437,49504
32684,23468,49794
32652,23478,49764
32592,23452,49942
32548,23427,50024
32472,23376,50052
32392,23346,49744
32420,23343,49920
32520,23379,50141
32608,23425,50212
32718,23444,50138
32892,23473,50340
32940,23484,50517
32932,23461,50549
32856,23415,50572
32808,23388,50655
32764,23357,50744
32749,23344,50372
32692,23377,50756
32752,23409,50832
32752,23455,50933
32784,23492,50948
32882,23496,50951
32944,23481,51068
32924,23424,51117
32916,23388,51085
32924,23357,50884
32942,23353,51196
32936,23381,51245
32880,23419,51176
32896,23457,51332
32944,23503,51232
32968,23500,51388
32952,23473,51344
32912,23430,51420
32901,23389,51428
32924,23348,51404
32920,23377,51529
32897,23398,51348
32877,23430,51535
32856,23458,51578
32780,23504,51552
32812,23503,51628
32832,23488,51653
32857,23451,51207
32826,23408,51672
32788,23367,51585
32808,23365,51719
32837,23392,51638
32864,23431,51652
32824,23466,51289
32828,23504,51772
32808,23503,51695
32885,23479,51800
32912,23440,51510
32893,23400,51804
32888,23365,51718
32912,23364,51809
32893,23410,51815
32900,23445,51728
32892,23492,51855
32864,23505,51781
32848,23518,51876
32812,23493,51772
32792,23449,51796
32809,23406,51796
32852,23372,51856
32844,23369,51778
32844,23421,51877
32840,23460,51678
32862,23499,51829
32807,23537,51897
32937,23540,51805
32972,23512,51892
32936,23476,51424
32876,23441,51844
32836,23394,51764
32884,23397,51901
32945,23421,51573
32984,23439,51773
33032,23480,51901
33052,23518,51864
33052,23535,51701
33080,23519,51884
33049,23477,51877
32940,23436,51888
32856,23401,51816
32878,23399,51910
32812,23431,51797
32760,23463,51916
32712,23496,51894
32724,23530,51804
32778,23532,51900
32836,23504,51460
32924,23470,51916
32872,23421,51888
32704,23385,51952
32672,23412,51864
32804,23437,51952
32932,23449,51956
33020,23492,51876
33112,23536,51975
33172,23538,52006
33180,23525,51975
33176,23480,51900
33188,23437,52020
33204,23402,52012
33200,23399,51956
33192,23422,51941
33201,23460,52053
33208,23504,52044
33168,23540,51600
33040,23540,52007
33010,23505,51988
33056,23468,52077
33108,23453,52000
33128,23417,52116
33152,23420,52032
33180,23441,52158
33152,23459,51702
33216,23501,52092
33240,23535,52196
33216,23540,52124
33180,23509,52208
33104,23468,52174
33124,23433,52156
33148,23405,52256
33133,23394,52192
33056,23423,52172
32952,23462,52288
32888,23502,52039
32880,23536,52332
32884,23564,52315
32908,23533,52020
32948,23503,52364
32936,23455,52381
32953,23416,52289
32868,23412,52436
32789,23431,52416
32792,23468,52288
32896,23509,52473
33028,23543,52404
33096,23572,52424
33112,23548,52460
33052,23504,52448
33008,23461,52540
32984,23429,52544
33032,23431,52476
33068,23452,52556
33088,23490,52609
33084,23528,52485
33128,23567,52628
33200,23562,52572
33204,23535,52553
33173,23492,52615
33064,23460,52614
33028,23424,52640
33112,23420,52372
33204,23447,52655
33160,23492,52641
33156,23524,52615
33161,23572,52652
33172,23567,52581
33172,23533,52581
33128,23499,52636
33162,23452,52288
33216,23419,52647
33156,23413,52516
33014,23461,52644
33024,23501,52301
33060,23543,52628
33136,23576,52476
33220,23574,52576
33188,23540,52445
33124,23500,52580
32904,23461,52517
32624,23424,52257
32346,23420,52504
32272,23471,52516
32336,23503,52319
32464,23542,52484
32724,23588,52408
33104,23597,52416
33704,23536,52436
34392,23502,52420
35360,23469,52350
36436,23446,52120
37398,23453,52249
38100,23486,52308
39020,23528,52201
40020,23580,52250
40944,23617,51988
41764,23618,52168
41288,23588,52088
39740,23540,52142
37720,23492,51886
36440,23458,52068
35621,23460,51920
35145,23489,51984
34732,23525,51908
34312,23552,51832
33940,23580,51845
33822,23580,51759
33990,23553,51684
34224,23504,51716
33932,23474,51335
33280,23447,51493
32736,23436,51506
32278,23466,51501
31896,23508,51358
31529,23548,51373
31716,23588,51324
32364,23589,50832
32860,23571,51104
32896,23510,51079
32800,23468,51073
32736,23431,50940
32760,23434,50873
32717,23482,50797
32692,23517,50735
32612,23557,50676
32592,23589,50588
32508,23597,50384
32432,23562,50466
32400,23529,50335
32344,23493,50235
32312,23452,49764
32310,23452,50036
32288,23485,50005
32280,23520,49927
32232,23559,49784
32198,23586,49609
32192,23586,49632
32160,23559,49445
32097,23522,49426
32056,23487,49188
32041,23452,49268
32092,23454,49126
32228,23477,48992
32284,23516,48964
32321,23559,48727
32416,23599,48768
32552,23608,48628
32650,23583,48528
32644,23544,48501
32620,23482,48204
32577,23444,48302
32568,23444,48124
32512,23481,48133
32508,23508,47748
32565,23558,47940
32629,23590,47805
32636,23607,47609
32652,23587,47630
32640,23534,47596
32578,23492,47445
32502,23457,47308
32536,23455,47008
32580,23503,47169
32556,23524,47173
32485,23564,46906
32532,23602,46959
32668,23598,46878
32800,23578,46463
32856,23530,46732
32880,23494,46622
32820,23465,46268
32808,23466,46479
32772,23497,46288
32788,23537,46343
32796,23586,45999
32836,23620,46120
32798,23620,46092
32792,23574,46008
32816,23533,45860
32800,23518,45757
32720,23477,45772
32732,23482,45588
32920,23488,45636
32988,23527,45501
33044,23597,45216
33152,23604,45399
33056,23606,45228
32992,23580,45293
32916,23540,45063
32960,23497,45015
33000,23463,44732
33184,23495,44942
33228,23509,44902
33244,23550,44629
33256,23590,44757
33264,23629,44576
33260,23580,44649
33288,23604,44316
33352,23565,44449
33396,23524,44432
33454,23488,44136
33516,23493,44252
33552,23519,44148
33552,23557,43822
33541,23599,43992
33544,23628,44006
33544,23618,43796
33592,23596,43732
33624,23555,43428
33644,23513,43601
33624,23477,43455
33608,23485,43364
33696,23502,43320
33712,23543,43094
33692,23585,43376
33748,23614,43239
33844,23616,43228
33925,23601,43015
33968,23565,43052
33968,23510,42659
33968,23478,42985
34020,23483,42900
34028,23504,42708
34057,23556,42799
34068,23589,42732
34068,23625,42718
34084,23641,42596
34092,23622,42428
34088,23581,42452
34052,23532,42428
33944,23497,42341
33820,23495,42156
33788,23525,42260
33804,23564,42012
33688,23604,42246
33518,23634,42028
33504,23639,42024
33496,23609,42004
33500,23572,42052
33472,23539,41780
33344,23499,41815
33192,23500,41700
33064,23533,41817
32960,23565,41701
32868,23612,41636
32728,23645,41637
32608,23649,41379
32492,23617,41469
32366,23584,41647
32284,23546,41324
32180,23509,41398
31880,23506,41389
31648,23532,41274
31690,23572,41328
31918,23614,41286
32088,23652,41172
32096,23653,41296
32064,23630,41316
32020,23594,41023
31908,23553,41133
31800,23503,41068
31720,23505,40984
31692,23545,41156
31756,23589,40872
31780,23621,40983
31848,23655,40728
31878,23644,41029
31858,23620,40756
31848,23588,40877
31840,23537,40753
31816,23513,40860
31768,23511,40636
31758,23543,40728
31748,23582,40728
31776,23620,40711
31772,23649,40565
31804,23648,40677
31796,23618,40281
31812,23604,40566
31800,23533,40636
31812,23501,40581
31756,23513,40549
31716,23540,40175
31680,23599,40468
31736,23639,40572
31808,23666,40469
31800,23663,40327
31758,23629,40536
31796,23596,40332
31840,23556,40392
31872,23520,40271
31873,23514,40343
31914,23561,40432
31980,23597,40144
32016,23636,40297
32044,23671,40220
32084,23666,40236
32100,23634,40189
32076,23599,39855
32028,23554,40326
32012,23525,40048
31937,23524,39812
31968,23548,40249
31984,23609,40087
31984,23631,40088
32016,23657,40016
31940,23660,40191
32074,23632,40028
32016,23596,40041
31980,23557,40103
31994,23541,39943
32016,23544,39663
32020,23574,40092
32064,23615,39860
32140,23653,39973
32192,23685,39798
32232,23682,40034
32256,23663,39884
32304,23614,39815
32300,23565,39868
32264,23534,39868
32260,23540,39776
32276,23566,39917
32301,23605,39740
32324,23648,39799
32328,23668,39821
32360,23673,39743
32384,23652,39749
32384,23607,39431
32336,23572,39664
32285,23563,39829
32268,23564,39702
32285,23578,39671
32320,23614,39589
32332,23653,39421
32404,23677,39769
32432,23676,39624
32452,23655,39677
32472,23614,39624
32520,23574,39528
32520,23541,39460
32460,23559,39238
32421,23582,39696
32432,23617,39578
32456,23661,39476
32497,23698,39566
32416,23697,39516
32392,23669,39636
32448,23623,39502
32488,23577,39425
32500,23540,39588
32484,23577,39453
32428,23593,39360
32396,23636,39464
32428,23660,39425
32440,23692,39447
32408,23687,39374
32405,23657,39295
32324,23622,39369
32320,23584,39309
32360,23548,39214
32441,23556,39268
32452,23583,39192
32480,23626,39204
32588,23668,39136
32569,23695,39124
32508,23694,39128
32500,23628,39193
32444,23643,39047
32428,23604,38951
32412,23559,38890
32425,23564,38964
32420,23601,38840
32468,23628,38919
32492,23668,38836
32460,23712,38884
32436,23708,38751
32436,23679,38625
32468,23631,38524
32472,23590,38498
32485,23576,38524
32468,23580,38220
32460,23607,38500
32430,23638,38308
32456,23676,38303
32460,23721,38286
32516,23719,38300
32588,23685,38265
32564,23641,38176
32536,23609,38167
32469,23574,38031
32332,23572,38164
32328,23602,37989
32368,23657,37884
32320,23694,37840
32243,23716,37883
32016,23716,37620
31976,23690,37820
32173,23652,37613
32413,23600,37556
32484,23590,37527
32272,23596,37586
32128,23616,37617
32344,23653,37484
32676,23692,37376
32764,23723,37508
32800,23719,37380
32804,23716,37248
32776,23668,37244
32688,23622,37260
32724,23589,37297
32728,23583,37164
32664,23617,36937
32588,23661,37196
32480,23701,37023
32465,23733,37041
32594,23730,36922
32716,23701,37044
32780,23665,36893
32716,23629,36615
32600,23588,36929
32568,23589,36788
32624,23614,36541
32768,23653,36754
32916,23705,36677
32952,23733,36707
32936,23755,36674
32912,23724,36544
32848,23672,36471
32844,23638,36663
32840,23589,36543
32836,23594,36439
32852,23620,36457
32810,23689,36456
32797,23736,36168
32802,23737,36420
32780,23764,36300
32756,23733,36365
32749,23685,36322
32696,23636,36271
32629,23601,36192
32528,23604,36257
32452,23652,35990
32336,23695,36266
32356,23729,36056
32461,23762,36159
32588,23752,36172
32662,23726,36004
32696,23690,35877
32614,23646,36079
32472,23618,36020
32368,23607,35934
32432,23660,35916
32633,23697,35847
32780,23746,35985
32756,23773,35847
32745,23769,35935
32720,23748,35820
32676,23700,35812
32589,23652,35616
32428,23624,35915
32100,23629,35789
32040,23656,35556
32284,23692,35812
32772,23740,35687
32968,23775,35749
32992,23767,35796
32989,23732,35639
32972,23699,35700
32900,23660,35583
32824,23628,35656
32729,23621,35645
32696,23656,35508
32708,23717,35669
32692,23754,35576
32728,23784,35364
32700,23773,35472
32688,23747,35525
32664,23705,35505
32620,23669,35476
32620,23639,35444
32608,23633,35516
32564,23668,35328
32544,23713,35420
32492,23761,35268
32384,23788,35369
32248,23781,35407
32096,23748,35327
31968,23708,35335
31844,23671,35213
31656,23636,35284
31512,23646,35293
31660,23670,35305
32108,23709,35229
32728,23749,35233
33576,23780,35200
34444,23802,35088
35312,23780,35193
36220,23741,35065
37232,23672,35231
38312,23640,35092
39400,23640,35125
40644,23681,35108
41920,23731,34943
42936,23782,35128
43120,23806,35062
41824,23820,34964
39496,23777,34864
37356,23735,34941
35968,23707,34873
35188,23677,34951
34560,23677,34949
34196,23696,34813
33852,23735,34709
33488,23773,34944
33136,23796,34911
32809,23796,34804
32544,23768,34751
32352,23748,34617
32177,23697,34901
32094,23666,34829
32064,23677,34577
31992,23708,34742
31877,23743,34808
31812,23786,34796
31800,23820,34558
31800,23797,34773
31788,23780,34655
31688,23743,34757
31644,23687,34565
31648,23665,34758
31688,23668,34689
31624,23711,34689
31620,23750,34556
31677,23789,34591
31656,23812,34622
31582,23802,34554
31608,23775,34549
31717,23732,34528
31764,23695,34310
31792,23672,34404
31820,23674,34528
31784,23699,34396
31804,23749,34452
31708,23789,34434
31676,23820,34404
31764,23808,34288
31913,23780,34386
32048,23730,34431
32112,23712,34377
32148,23684,34248
32096,23693,34329
32060,23710,34322
32068,23748,34255
32052,23792,34327
32064,23820,34230
32080,23820,34029
32108,23781,34268
32120,23748,34101
32096,23711,34229
32052,23684,34145
32004,23684,34245
31940,23716,34154
31900,23758,33975
31997,23802,34100
32232,23835,34063
32380,23842,34142
32312,23797,34076
32253,23753,33991
32252,23712,34109
32212,23693,33860
32184,23694,34136
32184,23725,33959
32276,23766,34053
32324,23809,33900
32320,23841,34071
32320,23824,33892
32432,23797,34000
32485,23764,33852
32500,23726,33992
32476,23688,33959
32388,23689,33756
32292,23725,33961
32208,23757,33909
32256,23806,33721
32400,23847,33958
32580,23845,33854
32652,23819,33669
32664,23780,33837
32584,23737,33740
32466,23696,33845
32460,23703,33712
32452,23733,33780
32292,23766,33799
32156,23814,33645
32222,23845,33806
32480,23857,33754
32746,23825,33721
32910,23780,33680
32984,23732,33501
32940,23711,33556
32948,23719,33687
32932,23744,33671
32897,23788,33504
32752,23822,33572
32624,23844,33625
32664,23856,33493
32888,23818,33540
33092,23777,33564
33152,23742,33412
33140,23702,33588
33192,23717,33400
33192,23748,33510
33120,23788,33360
33032,23833,33478
32976,23862,33368
33076,23855,33402
33293,23825,33252
33398,23776,33463
33472,23733,33377
33560,23708,33220
33516,23732,33295
33520,23759,33308
33568,23789,33273
33592,23846,33157
33624,23853,33256
33668,23860,33230
33656,23825,33216
33596,23791,33208
33636,23749,33111
33692,23721,32974
33772,23717,33080
33796,23746,33076
33820,23788,33093
33828,23855,32990
33772,23884,32948
33765,23876,33023
33724,23841,33040
33696,23788,32968
33612,23742,32833
33588,23714,32829
33612,23720,32933
33636,23780,32857
33580,23815,32824
33528,23846,32694
33417,23874,32860
33264,23868,32733
33148,23849,32809
32976,23810,32655
32748,23760,32747
32548,23725,32748
32472,23740,32550
32452,23765,32712
32380,23793,32719
32257,23866,32654
32128,23866,32556
31892,23864,32658
31608,23839,32595
31448,23811,32528
31644,23766,32456
31908,23738,32664
32012,23742,32582
31964,23775,32429
31900,23814,32508
31874,23854,32563
31840,23877,32588
31776,23875,32528
31709,23855,32420
31652,23810,32501
31584,23767,32348
31592,23737,32468
31544,23749,32292
31500,23785,32505
31544,23823,32460
31516,23864,32445
31436,23881,32428
31392,23876,32306
31388,23857,32293
31528,23815,32415
31596,23775,32196
31560,23743,32412
31508,23748,32345
31524,23780,32169
31568,23813,32388
31740,23853,32254
31836,23880,32336
31880,23895,32173
31848,23866,32352
31876,23815,32273
31916,23775,32125
31904,23745,32231
31888,23752,32165
31816,23781,32273
31797,23820,32109
31799,23864,32182
31812,23887,32244
31788,23900,32124
31768,23873,32197
31837,23828,32174
31788,23789,32195
31732,23756,32031
31756,23765,32133
31753,23792,32132
31868,23831,32132
31884,23883,32164
31728,23911,32069
31672,23903,32159
31780,23876,32036
31900,23825,32140
32008,23788,32109
32112,23747,32021
32100,23748,31955
32040,23799,32085
32084,23837,32079
32104,23881,32128
32128,23901,32150
32260,23908,32109
32296,23878,31940
32120,23841,32020
32012,23796,32069
32084,23772,31980
32416,23780,31958
32600,23804,32116
32624,23851,31987
32564,23895,32122
32552,23924,31951
32524,23914,31973
32400,23887,32156
32336,23846,32080
32340,23793,31972
32380,23781,31962
32464,23780,32126
32496,23804,32132
32500,23843,32153
32500,23877,32148
32525,23908,32110
32508,23910,32048
32477,23879,32148
32478,23837,32156
32456,23795,32129
32452,23764,32017
32416,23789,32055
32468,23820,32181
32456,23855,32060
32448,23898,32090
32460,23922,32190
32496,23919,32041
32524,23876,32098
32504,23837,32036
32472,23823,32240
32434,23775,32216
32448,23777,32109
32484,23815,32164
32536,23848,32238
32504,23888,32135
32468,23943,32120
32460,23938,32244
32524,23900,32101
32590,23852,32167
32616,23814,32092
32608,23783,32307
32576,23782,32158
32540,23815,32270
32544,23855,32134
32516,23896,32204
32460,23948,32140
32360,23934,32191
32348,23905,32284
32384,23870,32098
32528,23818,32314
32548,23789,32312
32576,23793,32108
32560,23832,32344
32536,23868,32224
32488,23906,32325
32485,23938,32166
32540,23919,32340
32620,23892,32261
32629,23857,32327
32564,23821,32160
32492,23782,32332
32492,23790,32293
32480,23822,32159
32429,23866,32313
32300,23932,32169
32092,23954,32303
32004,23937,32281
32228,23912,32123
32480,23877,32285
32680,23825,32255
32696,23803,32143
32628,23801,32164
32596,23829,32131
32620,23890,32322
32644,23930,32287
32613,23948,32256
32664,23939,32257
32744,23903,32072
32712,23881,32244
32736,23847,32168
32684,23804,32256
32668,23809,32119
32688,23841,32260
32677,23876,32256
32732,23940,32222
32796,23956,32130
32776,23949,32252
32764,23916,32050
32740,23873,32253
32724,23831,32145
32677,23807,32069
32596,23828,32279
32496,23860,32189
32440,23903,32240
32464,23936,32063
32570,23960,32277
32520,23952,32167
32528,23925,32252
32652,23882,32089
32840,23842,32222
32840,23807,32202
32784,23812,32061
32684,23864,32242
32744,23908,32220
32821,23948,32136
32840,23980,32245
32720,23967,32261
32408,23943,32108
32289,23894,32312
32386,23860,32286
32640,23828,32240
32748,23831,32278
32745,23863,32135
32800,23900,32286
32824,23940,32222
32760,23963,32292
32728,23973,32227
32688,23941,32328
32560,23907,32174
32484,23865,32276
32444,23834,32141
32504,23828,32108
32594,23854,32167
32564,23892,32329
32480,23958,32312
32524,23975,32164
32609,23965,32341
32776,23935,32228
32784,23897,32300
32792,23854,32126
32688,23824,32364
32660,23829,32220
32672,23866,32317
32696,23908,32185
32712,23951,32384
32712,23985,32352
32684,23973,32202
32613,23946,32248
32520,23895,32370
32460,23857,32214
32492,23844,32263
32512,23849,32184
32580,23874,32356
32664,23916,32277
32688,23956,32192
32732,23998,32436
32732,23988,32391
32800,23950,32248
32888,23899,32284
32929,23885,32297
32900,23855,32421
32868,23842,32404
32844,23877,32232
32864,23925,32420
32856,23952,32428
32744,23977,32292
32685,23972,32495
32700,23943,32365
32789,23911,32437
32920,23865,32473
32988,23849,32281
33008,23863,32332
33000,23882,32535
32944,23920,32455
32812,23959,32501
32789,23997,32300
32772,23990,32383
32704,23960,32484
32680,23916,32558
32732,23884,32465
32836,23846,32444
32788,23857,32493
32688,23884,32540
32556,23941,32558
32460,23981,32364
32541,23985,32423
32748,23982,32524
32824,23949,32623
32820,23916,32592
32820,23884,32617
32788,23859,32532
32736,23860,32519
32732,23903,32617
32693,23943,32420
32680,23984,32484
32648,24006,32566
32620,23999,32628
32644,23972,32657
32630,23929,32464
32576,23896,32526
32620,23867,32540
32632,23860,32541
32616,23897,32560
32588,23943,32663
32578,23980,32694
32652,24010,32513
32648,23999,32729
32636,23967,32658
32592,23921,32565
32584,23881,32620
32580,23855,32783
32636,23860,32775
32705,23901,32620
32752,23940,32801
32828,23988,32775
32828,24008,32797
32780,24003,32668
32660,23960,32751
32496,23931,32784
32416,23891,32828
32569,23864,32640
32704,23872,32791
32690,23898,32892
32645,23952,32791
32484,23999,32662
32258,24018,32751
32042,24002,32768
31856,23966,32836
31741,23930,32873
31712,23888,32726
31896,23875,32728
32288,23885,32892
32880,23925,32935
33585,23968,32761
34248,24011,32876
35120,24023,32796
36268,24016,32828
37644,23983,32880
38956,23934,32725
40440,23888,32876
42024,23865,32845
43456,23868,32884
44372,23908,32724
43924,23954,32793
41988,23997,32741
39516,24071,32855
37684,24052,32707
36388,24021,32892
35468,23973,32727
34764,23924,32840
34193,23878,32620
33688,23885,32671
33192,23920,32790
32736,23964,32689
32474,24014,32768
32256,24028,32799
31992,24020,32772
31824,23995,32632
31844,23949,32812
31945,23913,32770
31960,23887,32623
31924,23888,32636
31860,23916,32597
31749,23974,32633
31676,24004,32549
31636,24034,32760
31484,24022,32671
31344,23993,32513
31388,23957,32677
31500,23908,32620
31500,23893,32454
31568,23889,32668
31696,23924,32575
31768,23963,32376
31744,24013,32610
31760,24050,32496
31735,24034,32512
31612,24000,32362
31520,23966,32472
31432,23924,32396
31546,23893,32452
31621,23893,32224
31682,23900,32335
31524,23980,32391
31392,24023,32332
31436,24048,32168
31620,24037,32375
31765,24009,32246
31856,23977,32303
31972,23913,32131
32080,23891,32263
32164,23892,32201
32140,23927,32228
32040,23973,32077
32040,24032,32216
32120,24055,32186
32132,24044,31988
32052,24021,32152
32020,23974,32148
32040,23928,32097
32165,23897,32132
32260,23909,32004
32288,23943,32041
32272,23983,32093
32256,24023,31900
32204,24044,32020
32176,24042,32028
32228,24007,32058
32224,23967,31860
32216,23926,31893
32180,23905,31975
32121,23916,31945
32096,23951,31968
32100,23988,31993
32148,24038,31823
32308,24054,32007
32428,24052,31916
32388,24007,31762
32360,23976,31833
32440,23940,31812
32476,23908,31900
32432,23920,31759
32360,23946,31865
32408,23996,31845
32548,24044,31782
32596,24065,31844
32548,24064,31641
32581,24023,31745
32604,23985,31765
32568,23938,31783
32576,23925,31588
32576,23933,31589
32608,23948,31773
32632,23993,31652
32644,24036,31705
32684,24066,31501
32700,24057,31536
32716,24033,31684
32628,23989,31533
32464,23950,31638
32333,23924,31457
32390,23929,31606
32616,23964,31493
32864,24002,31568
32916,24049,31431
32960,24057,31487
33001,24050,31360
33064,24023,31352
33100,23979,31519
33048,23940,31487
33053,23925,31308
33120,23927,31476
33128,23980,31436
33050,24025,31252
33093,24067,31440
33200,24076,31380
33408,24071,31248
33560,24044,31197
33500,23988,31204
33364,23949,31197
33268,23924,31350
33301,23940,31296
33424,23963,31306
33612,24002,31136
33708,24068,31310
33661,24071,31156
33644,24064,31192
33716,24035,31234
33844,23994,31044
33892,23955,31092
33868,23925,31192
33820,23936,31167
33764,23973,30984
33556,24018,31012
33380,24057,31045
33324,24085,31089
33428,24071,31112
33625,24041,30926
33724,24005,31048
33756,23969,31092
33840,23943,30940
33784,23951,31052
33652,23984,30916
33556,24021,31042
33444,24063,30988
33289,24084,30839
32984,24074,30820
32784,24036,30976
32737,24004,30864
32706,23960,30935
32608,23940,30935
32584,23959,30922
32556,23990,30747
32543,24033,30727
32548,24076,30765
32444,24088,30840
32324,24080,30900
32236,24047,30792
32253,24012,30733
32320,23964,30838
32320,23944,30682
32256,23950,30716
32174,23993,30740
32132,24026,30786
32088,24071,30803
32056,24093,30649
31988,24088,30623
31969,24060,30622
31896,24016,30612
31860,23981,30780
31988,23956,30721
32109,23960,30644
32072,23989,30736
32020,24036,30614
32008,24077,30574
31992,24096,30650
32060,24088,30679
32173,24071,30728
32128,24035,30557
32004,23991,30724
31936,23969,30660
31996,23980,30613
32153,24004,30617
32224,24036,30676
32229,24081,30532
32236,24103,30702
32181,24103,30657
32120,24078,30551
31996,24024,30564
31840,23997,30577
31812,23979,30673
31960,23982,30527
32128,24018,30512
32292,24060,30688
32358,24108,30648
32348,24121,30508
32367,24117,30678
32348,24085,30544
32336,24044,30658
32292,23996,30556
32244,23970,30572
32284,23984,30653
32252,24014,30493
32304,24057,30645
32284,24094,30630
32256,24120,30496
32172,24106,30633
31992,24071,30653
31888,24039,30490
31968,23994,30576
32256,23966,30540
32444,23978,30652
32504,24016,30492
32556,24062,30676
32560,24104,30566
32580,24125,30655
32576,24109,30668
32536,24103,30639
32496,24057,30664
32468,24020,30505
32408,23996,30692
32336,24007,30645
32352,24041,30676
32464,24079,30552
32549,24116,30596
32504,24134,30697
32512,24121,30536
32612,24092,30740
32724,24046,30607
32724,24008,30705
32632,23984,30733
32588,24005,30580
32592,24029,30748
32680,24087,30635
32708,24129,30740
32674,24143,30580
32560,24132,30781
32496,24101,30720
32560,24062,30624
32680,24036,30669
32752,24002,30701
32716,24009,30598
32688,24039,30800
32688,24078,30670
32668,24120,30626
32665,24148,30799
32624,24132,30757
32608,24102,30639
32608,24064,30702
32504,24020,30710
32420,24001,30800
32468,24007,30779
32532,24040,30684
32620,24082,30815
32653,24135,30639
32564,24138,30823
32440,24141,30737
32352,24108,30820
32453,24069,30684
32720,24036,30684
32908,24017,30864
32948,24029,30828
32892,24061,30693
32712,24102,30858
32624,24138,30788
32700,24156,30889
32688,24150,30784
32598,24111,30828
32628,24081,30916
32732,24044,30756
32813,24016,30816
32768,24029,30801
32760,24062,30916
32762,24100,30934
32748,24133,30980
32736,24175,30828
32688,24160,30961
32732,24120,31016
32729,24077,30874
32656,24045,31024
32604,24004,30936
32582,24025,30919
32596,24056,30914
32552,24100,31102
32484,24153,31068
32432,24164,30947
32552,24152,30972
32740,24117,31162
32804,24085,31053
32712,24044,30989
32648,24013,31183
32568,24031,31120
32540,24071,31156
32597,24122,31207
32608,24157,31066
32684,24184,31068
32772,24178,31090
32720,24124,31157
32680,24089,31287
32688,24045,31181
32784,24049,31300
32748,24036,31133
32744,24070,31159
32712,24117,31356
32728,24159,31272
32808,24194,31361
32844,24188,31205
32840,24154,31356
32824,24116,31316
32778,24069,31389
32712,24038,31430
32616,24044,31271
32604,24076,31474
32696,24122,31335
32814,24164,31476
32848,24188,31312
32832,24175,31524
32824,24141,31436
32708,24121,31529
32656,24076,31367
32676,24060,31580
32652,24063,31534
32664,24100,31404
32745,24141,31535
32840,24186,31463
32852,24199,31599
32992,24192,31441
33052,24153,31504
32976,24131,31628
32868,24088,31492
32772,24061,31623
32680,24072,31665
32705,24104,31657
32864,24140,31648
32976,24189,31542
33040,24199,31562
33052,24194,31588
32960,24182,31729
32816,24134,31582
32680,24081,31649
32664,24070,31744
32800,24076,31694
33008,24108,31646
33084,24143,31780
33052,24212,31608
33000,24234,31822
32992,24220,31765
32950,24180,31650
32868,24130,31815
32844,24089,31792
32828,24063,31632
32836,24079,31860
32861,24135,31815
32868,24172,31700
32837,24207,31823
32830,24226,31878
32800,24214,31736
32860,24192,31751
32856,24150,31889
32856,24102,31845
32828,24089,31772
32844,24090,31749
32836,24127,31899
32812,24188,31805
32848,24222,31741
32886,24232,31961
32892,24223,31932
32864,24184,31786
32784,24148,31980
32657,24098,31945
32600,24105,31800
32728,24112,31970
32944,24143,31966
33092,24180,31798
33125,24220,31967
33136,24239,31980
33104,24227,32004
33064,24192,31935
33036,24174,32050
33004,24129,31990
32833,24098,31874
32692,24114,31870
32596,24156,31940
32656,24198,31964
32800,24241,32036
32964,24249,31853
33032,24244,32007
32988,24205,31994
32892,24160,32039
32764,24116,31870
32676,24103,31948
32724,24109,32101
32838,24156,32024
32982,24194,31990
33048,24236,32068
33072,24265,32084
33028,24254,31908
33005,24212,32112
32974,24189,32073
32984,24144,31895
33056,24121,32000
33132,24132,32068
33172,24172,32089
33096,24200,31941
33028,24257,31987
32960,24272,31911
32984,24256,32135
32996,24216,32045
32968,24180,31921
32872,24137,31973
32735,24130,32093
32644,24150,32078
32668,24189,32100
32836,24229,31920
32972,24268,32058
32982,24278,32133
32996,24269,32105
32952,24232,31940
32892,24186,31982
32828,24172,32112
32856,24144,32132
32917,24154,31964
32948,24180,32121
32984,24216,32103
33032,24261,32134
33024,24279,31972
33036,24269,31984
33061,24237,31996
33073,24211,32160
32985,24158,32124
32932,24133,32123
32985,24156,31963
33062,24181,31988
33068,24225,32189
33102,24296,32128
33184,24292,31987
33220,24276,32064
33226,24247,32088
33230,24205,32160
33092,24176,32007
32952,24156,32172
32900,24167,32164
32968,24205,32001
32976,24244,32081
32992,24285,32091
33004,24311,32181
33084,24293,32073
33158,24261,32101
33084,24228,32021
32968,24173,32178
32861,24172,32191
32876,24189,32098
32961,24218,32136
32908,24260,32204
32836,24298,32087
32800,24318,32220
32892,24297,32223
33008,24270,32052
33088,24233,32234
33012,24190,32097
32980,24172,32213
32968,24185,32064
32928,24223,32170
32916,24257,32279
32920,24300,32211
32912,24318,32101
32800,24311,32112
32712,24272,32303
32652,24232,32207
32716,24199,32198
32776,24180,32279
32813,24192,32095
32952,24236,32135
33196,24273,32284
33292,24316,32289
33196,24345,32292
33094,24324,32101
33080,24292,32297
33076,24249,32181
33028,24221,32120
32984,24188,32332
32944,24212,32309
32944,24236,32169
32956,24284,32196
33000,24320,32305
32980,24345,32128
32940,24327,32289
32880,24319,32196
32788,24276,32309
32704,24230,32149
32632,24213,32332
32656,24231,32200
32464,24257,32322
32216,24292,32321
32008,24336,32303
31952,24352,32140
31956,24344,32334
32008,24308,32230
32240,24268,32342
32588,24223,32236
33004,24209,32212
33696,24224,32343
34497,24261,32199
35524,24297,32344
36760,24351,32298
38102,24380,32348
39280,24366,32148
40580,24336,32342
41944,24293,32229
43209,24274,32328
43884,24260,32182
43196,24298,32200
41192,24276,32388
38800,24317,32285
37180,24362,32351
36124,24394,32364
35364,24374,32168
34741,24336,32225
34288,24300,32401
33848,24253,32334
33422,24240,32196
33016,24256,32228
32700,24287,32420
32436,24334,32334
32232,24380,32311
32037,24396,32412
31941,24381,32236
31984,24351,32366
32044,24307,32480
32016,24277,32373
31976,24257,32340
31892,24255,32431
31793,24293,32478
31724,24340,32292
31677,24392,32464
31628,24396,32459
31536,24380,32499
31476,24356,32314
31544,24315,32502
31748,24272,32380
31788,24265,32487
31736,24279,32393
31664,24310,32367
31604,24349,32473
31596,24393,32320
31528,24411,32495
31460,24405,32352
31589,24378,32479
31896,24335,32278
32132,24295,32481
32116,24280,32359
32032,24292,32473
32012,24324,32293
32056,24360,32445
32048,24407,32402
32000,24429,32319
31992,24412,32479
32048,24373,32464
31968,24351,32328
31936,24304,32364
31940,24278,32480
32032,24306,32320
32084,24338,32394
32128,24381,32484
32200,24423,32416
32196,24439,32380
32196,24426,32320
32252,24392,32526
32185,24356,32516
32098,24310,32328
32044,24292,32528
32057,24305,32420
32000,24346,32540
32048,24392,32404
32208,24433,32424
32364,24455,32518
32400,24441,32556
32400,24406,32388
32432,24366,32596
32444,24322,32541
32392,24310,32404
32344,24326,32548
32332,24365,32560
32364,24400,32371
32388,24449,32483
32409,24470,32533
32416,24455,32532
32356,24419,32396
32320,24385,32525
32336,24347,32521
32388,24321,32383
32324,24336,32556
32200,24367,32488
32212,24414,32315
32420,24449,32413
32552,24478,32505
32576,24474,32476
32484,24447,32308
32420,24400,32465
32444,24340,32396
32440,24325,32412
32484,24346,32260
32538,24376,32460
32506,24423,32380
32468,24484,32287
32420,24499,32270
32264,24484,32176
32069,24443,32333
32120,24397,32157
32424,24357,32320
32708,24345,32292
32892,24373,32188
32968,24404,32180
32964,24444,32117
32992,24479,32144
33060,24517,32085
33069,24501,32135
33064,24461,32127
33068,24419,32204
33045,24381,32070
33060,24357,32062
33096,24387,31971
33129,24425,32190
33196,24456,32099
33220,24496,31951
33244,24519,32052
33268,24502,32116
33270,24468,31938
33280,24427,31972
33320,24404,31955
33376,24377,32089
33421,24397,31948
33429,24436,32040
33428,24476,31879
33469,24525,32064
33528,24531,31996
33596,24510,31855
33636,24484,31980
33636,24445,31990
33600,24399,31831
33568,24391,31849
33532,24413,31842
33444,24444,31948
33396,24489,31876
33500,24528,31942
33678,24548,31770
33668,24542,31952
33568,24501,31896
33412,24452,31746
33352,24419,31914
33364,24413,31879
33428,24421,31716
33416,24458,31856
33312,24494,31748
33076,24539,31660
32884,24556,31871
32856,24545,31821
32920,24503,31655
32748,24461,31686
32488,24437,31650
32408,24421,31754
32468,24433,31680
32552,24475,31794
32572,24518,31610
32480,24556,31661
32245,24559,31692
32132,24563,31767
32124,24524,31795
32124,24484,31760
32064,24438,31719
32040,24420,31689
31928,24432,31588
31808,24484,31631
31692,24526,31556
31680,24565,31659
31688,24573,31729
31725,24565,31748
31812,24533,31689
31808,24492,31535
31768,24445,31716
31700,24436,31585
31672,24453,31676
31653,24488,31560
31684,24530,31536
31660,24575,31556
31660,24598,31556
31688,24583,31697
31700,24553,31614
31704,24514,31671
31688,24468,31542
31680,24463,31578
31668,24476,31655
31700,24513,31631
31736,24548,31620
31780,24589,31487
31816,24608,31635
31856,24585,31604
31872,24551,31454
31844,24512,31605
31832,24478,31544
31808,24458,31616
31796,24490,31444
31792,24529,31615
31804,24567,31469
31832,24596,31576
31849,24617,31404
31888,24604,31444
31886,24568,31578
31864,24524,31434
31884,24494,31389
31896,24479,31565
31864,24498,31528
31789,24521,31380
31764,24567,31554
31888,24623,31516
31976,24642,31348
31828,24620,31396
31692,24583,31512
31756,24551,31356
32004,24497,31399
32036,24487,31312
31948,24520,31505
31940,24548,31476
32076,24589,31343
32112,24633,31372
32228,24655,31432
32412,24636,31439
32484,24597,31268
32320,24553,31456
32138,24525,31326
32124,24508,31396
32328,24517,31254
32556,24554,31407
32616,24593,31279
32552,24648,31348
32432,24660,31381
32390,24661,31198
32420,24624,31367
32493,24569,31239
32564,24533,31344
32568,24524,31180
32492,24548,31359
32492,24583,31317
32506,24617,31153
32492,24660,31249
32484,24679,31294
32516,24660,31223
32520,24628,31175
32536,24592,31254
32548,24551,31089
32524,24530,31259
32516,24551,31220
32504,24573,31072
32464,24640,31162
32448,24686,31216
32480,24696,31044
32516,24685,31072
32484,24661,31032
32460,24616,31185
32436,24573,31170
32380,24551,31047
32440,24566,31077
32412,24608,31148
32380,24645,30999
32380,24688,31034
32309,24702,31077
32380,24706,31158
32553,24668,30991
32672,24624,31164
32592,24582,31102
32400,24560,31156
32388,24583,30980
32484,24621,31181
32652,24650,31127
32692,24714,30996
32553,24731,31176
32264,24709,31125
32128,24681,31172
32344,24632,31012
32680,24591,31141
32796,24574,31066
32800,24591,31196
32784,24648,31037
32740,24692,31111
32720,24716,31153
32644,24730,31148
32548,24720,31220
32464,24694,31064
32528,24666,31232
32720,24615,31204
32824,24586,31219
32764,24622,31108
32616,24664,31117
32488,24696,31323
32520,24735,31200
32600,24750,31310
32636,24742,31332
32552,24703,31174
32372,24658,31364
32328,24620,31325
32480,24625,31200
32656,24634,31312
32704,24668,31285
32752,24711,31404
32776,24750,31258
32760,24763,31448
32740,24749,31332
32708,24710,31451
32676,24686,31303
32640,24646,31460
32640,24633,31372
32624,24647,31509
32596,24681,31349
32616,24721,31533
32600,24765,31466
32612,24785,31548
32652,24764,31564
32708,24727,31420
32708,24691,31618
32680,24648,31517
32660,24632,31623
32620,24645,31481
32604,24700,31673
32605,24740,31626
32612,24789,31572
32660,24800,31696
32660,24776,31543
32700,24745,31740
32702,24706,31656
32680,24662,31622
32645,24662,31639
32636,24678,31704
32692,24706,31780
32772,24745,31624
32750,24781,31825
32654,24799,31693
32549,24790,31821
32564,24765,31689
32676,24726,31732
32849,24676,31873
32960,24654,31716
32960,24679,31832
32928,24711,31904
32888,24759,31748
32832,24811,31890
32844,24833,31933
32836,24805,31772
32836,24769,31966
32820,24738,31944
32793,24687,31797
32792,24677,31970
32789,24685,31956
32744,24740,31816
32760,24779,32015
32761,24823,32007
32764,24832,31839
32754,24820,31964
32732,24791,31972
32768,24743,32044
32760,24704,31872
32740,24686,31943
32724,24711,32044
32748,24745,32087
32760,24785,31940
32736,24844,32116
32788,24849,32092
32828,24828,31927
32780,24809,32028
32768,24751,31972
32740,24717,32160
32732,24701,32133
32714,24711,31992
32712,24772,32069
32668,24805,32159
32684,24849,32116
32724,24858,32167
32728,24847,32020
32752,24805,32089
32700,24761,32196
32621,24725,32077
32481,24708,32140
32444,24746,32030
32608,24775,32201
32789,24822,32101
32856,24869,32232
32848,24880,32084
32820,24862,32223
32732,24833,32245
32588,24777,32136
32484,24738,32182
32566,24740,32124
32692,24745,32229
32746,24788,32229
32724,24834,32276
32656,24880,32169
32688,24896,32324
32764,24873,32263
32776,24838,32120
32740,24800,32260
32709,24756,32249
32692,24751,32288
32688,24759,32165
32728,24793,32188
32712,24827,32300
32696,24888,32332
32741,24903,32306
32800,24895,32281
32768,24857,32330
32808,24808,32168
32800,24772,32256
32780,24762,32385
32784,24772,32271
32796,24814,32391
32820,24861,32199
32844,24904,32240
32844,24915,32380
32828,24901,32292
32832,24867,32416
32805,24815,32253
32820,24791,32391
32764,24777,32309
32773,24776,32441
32788,24812,32262
32805,24860,32364
32832,24927,32448
32824,24919,32446
32812,24921,32286
32828,24877,32536
32800,24839,32412
32724,24799,32505
32640,24786,32357
32608,24797,32477
32600,24839,32440
32650,24876,32544
32688,24928,32405
32680,24937,32532
32676,24924,32569
32672,24888,32396
32704,24841,32630
32692,24808,32595
32621,24782,32446
32572,24823,32623
32527,24849,32527
32496,24895,32646
32529,24934,32517
32572,24949,32556
32608,24928,32506
32680,24888,32694
32736,24856,32608
32789,24820,32712
32818,24821,32538
32814,24839,32664
32804,24877,32639
32804,24918,32613
32880,24949,32781
32956,24972,32772
33008,24949,32792
33032,24917,32636
33020,24873,32876
32956,24831,32838
32936,24837,32715
32888,24855,32820
32869,24893,32892
32876,24928,32774
32856,24960,32887
32852,24986,32943
32884,24966,32810
32900,24922,32997
32864,24885,32976
32721,24861,32819
32700,24839,33060
32808,24860,33004
32912,24905,33044
32948,24941,32929
32908,24981,33087
32748,24996,33079
32644,24981,33112
32356,24945,32984
32020,24901,33189
31861,24876,33039
32280,24850,33189
32868,24871,33015
33185,24919,33216
33260,24952,33117
33176,24996,33245
33104,25016,33176
33032,24996,33260
33028,24956,33280
33044,24912,33125
33124,24876,33279
33113,24858,33364
32992,24876,33329
32916,24921,33368
32880,24957,33247
32872,25005,33312
32892,25022,33404
32976,25001,33265
33064,24986,33320
33048,24937,33444
33036,24901,33316
33000,24877,33337
32974,24909,33481
32968,24948,33364
32964,24986,33396
32980,25022,33520
33012,25040,33356
33000,25022,33578
32960,24974,33450
32901,24938,33582
32928,24925,33443
32956,24908,33632
32940,24916,33617
32916,24951,33592
32920,24992,33535
32958,25039,33660
33016,25055,33518
33038,25032,33589
33092,25004,33719
32996,24967,33667
32832,24925,33721
32716,24919,33640
32681,24928,33639
32452,24964,33772
32244,25006,33566
32100,25053,33772
32036,25065,33671
32008,25044,33597
32268,25020,33736
32668,24978,33725
33200,24936,33657
33900,24927,33799
34660,24959,33911
35589,25000,33848
36744,25002,33712
37976,25100,33828
39156,25113,33821
40365,25064,33735
41616,25031,34004
42744,24983,33880
43468,24950,33976
42996,24940,34013
41084,24960,33885
38676,25000,33996
36964,25044,34110
35956,25086,33956
35328,25099,34082
34852,25073,34032
34468,25056,34069
34084,25008,33925
33668,24967,34152
33228,24957,34137
32783,24972,34161
32432,25007,34054
32304,25050,34116
32352,25104,34229
32384,25117,34100
32368,25093,34168
32252,25056,34236
32152,25023,34282
32040,24976,34172
31852,24966,34329
31748,24985,34384
31697,25027,34303
31794,25064,34151
31938,25105,34317
32020,25125,34328
32000,25101,34228
32001,25061,34448
32040,25036,34284
32020,24989,34381
31952,24973,34401
31892,24994,34408
31820,25047,34300
31820,25084,34372
31924,25124,34463
31984,25138,34311
32064,25124,34433
32052,25088,34214
31988,25051,34401
31978,25007,34328
31960,24996,34461
31936,25012,34357
31932,25058,34504
31944,25093,34351
31972,25140,34480
31996,25154,34350
31996,25137,34541
32002,25094,34404
32004,25061,34496
32048,25025,34352
32033,25007,34441
31996,25024,34486
31996,25069,34495
32024,25111,34289
32064,25147,34397
32156,25164,34588
32088,25157,34432
32042,25112,34324
32116,25072,34450
32160,25033,34620
32128,25025,34524
32072,25037,34358
32068,25076,34617
32110,25129,34582
32185,25171,34596
32224,25180,34420
32248,25164,34513
32280,25128,34688
32296,25093,34613
32328,25044,34658
32344,25034,34532
32384,25052,34708
32400,25100,34660
32396,25133,34478
32424,25178,34672
32420,25205,34645
32384,25181,34477
32364,25141,34676
32348,25095,34612
32357,25068,34711
32424,25052,34510
32416,25065,34788
32405,25113,34717
32456,25151,34761
32540,25189,34761
32576,25204,34734
32644,25189,34557
32656,25158,34796
32664,25121,34663
32664,25089,34788
32648,25062,34652
32624,25086,34856
32656,25121,34777
32720,25167,34812
32734,25207,34744
32724,25220,34733
32732,25201,34803
32740,25164,34567
32824,25124,34661
32888,25092,34729
32908,25095,34798
32928,25116,34660
32940,25153,34761
32956,25188,34772
32933,25234,34626
32988,25250,34809
32988,25222,34732
32992,25183,34620
33012,25140,34636
33012,25107,34729
33072,25106,34576
33120,25119,34608
33212,25156,34471
33276,25197,34597
33398,25240,34719
33480,25252,34581
33540,25236,34478
33521,25196,34647
33504,25172,34606
33524,25128,34399
33504,25104,34625
33500,25121,34496
33556,25162,34496
33566,25214,34628
33608,25258,34452
33640,25264,34551
33644,25248,34407
33660,25211,34452
33692,25186,34520
33716,25143,34368
33748,25132,34548
33754,25154,34464
33784,25188,34252
33778,25228,34332
33756,25278,34481
33793,25292,34395
33824,25262,34204
33820,25228,34436
33776,25194,34266
33692,25154,34167
33604,25146,34373
33528,25161,34217
33480,25197,34341
33376,25241,34177
33248,25297,34333
33160,25304,34167
33044,25288,34281
32888,25253,34084
32752,25219,34268
32652,25178,34212
32568,25159,34199
32421,25180,34223
32232,25217,34214
32117,25248,34025
32140,25300,34198
32168,25317,34016
32041,25292,34145
31956,25257,34140
31944,25220,34149
31982,25181,34017
31920,25170,34022
31892,25199,34184
31868,25237,34012
31756,25276,34145
31628,25319,33989
31596,25329,34048
31676,25317,34161
31780,25273,34084
31812,25231,34128
31824,25193,33994
31830,25184,34128
31852,25204,34028
31796,25246,34098
31788,25289,34125
31732,25334,33961
31732,25346,34117
31753,25330,34012
31816,25288,34111
31780,25255,33919
31761,25213,34060
31764,25200,34081
31800,25221,34101
31829,25265,34108
31884,25309,34110
31880,25351,33948
31852,25357,33984
31808,25341,34073
31836,25300,34097
31856,25263,34180
31880,25218,34181
31872,25217,34186
31968,25247,34100
31976,25285,34047
31992,25327,34100
32016,25361,34144
31980,25374,33989
32000,25357,34092
32050,25318,34164
32084,25282,34212
32058,25240,34160
32032,25236,34042
32008,25253,34165
32048,25290,34022
32144,25340,34201
32134,25383,34165
32148,25397,34076
32152,25372,34156
32156,25341,34220
32160,25295,34224
32194,25264,34084
32236,25257,34101
32236,25268,34127
32160,25316,34151
32172,25355,34129
32164,25396,34048
32170,25409,34077
32224,25389,34293
32280,25344,34330
32296,25321,34286
32300,25287,34191
32284,25272,34189
32328,25294,34292
32332,25327,34316
32343,25369,34332
32304,25414,34327
32390,25421,34341
32428,25410,34349
32460,25369,34212
32476,25324,34281
32484,25300,34424
32424,25288,34388
32400,25308,34329
32472,25344,34357
32588,25389,34366
32624,25432,34381
32528,25438,34412
32384,25428,34215
32224,25390,34204
32148,25345,34211
32248,25309,34309
32484,25296,34495
32680,25329,34428
32710,25361,34394
32680,25400,34468
32696,25444,34488
32672,25453,34485
32696,25435,34504
32668,25404,34527
32662,25353,34340
32620,25325,34340
32552,25317,34537
32376,25341,34436
32305,25369,34567
32397,25422,34345
32598,25456,34616
32696,25464,34567
32677,25454,34388
32692,25413,34577
32697,25380,34623
32660,25340,34567
32668,25324,34656
32692,25351,34439
32696,25388,34496
32684,25441,34562
32700,25484,34696
32744,25487,34585
32736,25470,34725
32700,25431,34516
32712,25388,34685
32692,25362,34636
32636,25354,34557
32608,25373,34708
32592,25415,34741
32642,25447,34594
32644,25502,34884
32640,25508,34837
32636,25486,34716
32640,25452,34873
32660,25407,34823
32644,25364,34905
32600,25365,34834
32532,25395,34985
32520,25433,34944
32560,25478,34988
32604,25516,34884
32656,25527,35079
32680,25504,35014
32752,25472,35066
32780,25425,35040
32756,25385,34991
32740,25390,34895
32767,25412,35114
32780,25452,35114
32752,25494,34996
32740,25532,35269
32737,25541,35244
32720,25527,35212
32688,25493,35216
32748,25456,35313
32800,25417,35207
32668,25401,35420
32568,25429,35260
32668,25469,35337
32840,25513,35430
32960,25553,35364
33028,25553,35368
33052,25537,35486
33048,25500,35522
32988,25460,35373
32960,25432,35620
32932,25428,35503
32904,25447,35564
32860,25494,35642
32888,25528,35423
32956,25572,35655
32996,25573,35636
32960,25563,35711
32929,25526,35762
32908,25481,35568
32872,25452,35600
32836,25436,35686
32832,25462,35797
32828,25502,35936
32740,25542,35770
32573,25584,35912
32484,25593,35949
32596,25580,35711
32788,25541,35876
32952,25503,36077
33008,25471,35922
32912,25453,36061
32836,25484,36156
32926,25522,36078
33124,25561,36133
33228,25604,36068
33222,25617,36239
33116,25586,36178
33025,25552,35996
33001,25498,36159
32956,25476,36351
32956,25483,36242
32956,25499,36344
33004,25535,36380
33000,25575,36343
32944,25621,36424
32976,25628,36197
32996,25624,36389
32992,25584,36572
32948,25543,36512
32952,25502,36297
32968,25493,36555
32933,25510,36636
32904,25559,36519
32912,25599,36656
32932,25636,36583
32928,25650,36676
32916,25621,36730
32852,25607,36637
32872,25564,36775
32860,25530,36879
32881,25520,36725
32964,25537,36836
32960,25572,36861
32952,25615,36868
32964,25661,36816
32925,25666,36949
32876,25649,36745
32864,25612,37013
32861,25573,36901
32824,25534,37038
32734,25528,36944
32756,25564,37148
32904,25599,37033
33040,25637,36871
33036,25682,37205
33060,25689,37127
33084,25677,37053
33068,25630,37068
32988,25606,37196
32932,25567,37198
32960,25558,37201
32992,25574,37255
32972,25624,37273
32961,25655,37292
32904,25697,37294
32896,25708,37353
32902,25693,37257
32932,25655,37364
32857,25607,37400
32776,25576,37300
32764,25536,37517
32716,25600,37420
32756,25636,37216
32684,25670,37546
32652,25725,37486
32644,25732,37481
32624,25701,37481
32576,25668,37352
32560,25639,37586
32616,25592,37572
32576,25588,37500
32605,25609,37676
32688,25644,37589
32832,25701,37518
32964,25737,37612
33086,25744,37668
33144,25729,37604
33080,25684,37647
33024,25646,37729
32992,25607,37636
32956,25604,37789
32932,25636,37761
32896,25669,37673
32870,25708,37869
32840,25758,37740
32864,25765,37810
32868,25741,37748
32832,25700,37913
32834,25676,37868
32892,25632,37712
32982,25626,37956
33004,25647,37876
32968,25695,37812
32976,25728,37838
32980,25780,37943
32952,25777,37912
32884,25755,37858
32797,25735,37996
32760,25688,37955
32712,25659,37974
32692,25655,38040
32648,25671,37832
32648,25705,38135
32708,25748,38003
32672,25788,38088
32673,25796,37831
32740,25775,38023
32781,25740,38090
32724,25714,38207
32672,25671,38144
32636,25658,37887
32613,25693,38240
32680,25724,38133
32732,25769,38192
32752,25815,38205
32752,25820,38313
32714,25799,38213
32712,25764,38164
32777,25732,38192
32764,25686,37997
32760,25689,38349
32728,25700,38228
32704,25737,38316
32776,25785,38324
32820,25831,38210
32788,25837,38063
32780,25813,38336
32800,25776,38436
32772,25736,38254
32652,25705,38084
32577,25699,38485
32632,25723,38277
32772,25757,38424
32900,25800,38316
32956,25844,38437
32976,25852,38460
32964,25831,38402
32921,25796,38460
32908,25756,38356
32893,25725,38556
32780,25724,38345
32660,25742,38469
32524,25780,38485
32416,25819,38407
32288,25864,38574
32032,25873,38367
31897,25850,38500
31968,25812,38208
32236,25780,38424
32648,25729,38510
33040,25733,38393
33572,25754,38510
34372,25801,38368
35392,25842,38548
36432,25900,38567
37312,25894,38404
38225,25878,38540
39308,25825,38292
40252,25790,38609
41236,25786,38404
42033,25767,38521
42132,25782,38444
41161,25808,38589
39180,25853,38542
37208,25920,38407
35756,25906,38582
35092,25888,38528
34704,25844,38407
34476,25804,38567
34280,25764,38407
33928,25768,38511
33614,25790,38484
33272,25825,38385
32940,25859,38521
32660,25905,38444
32432,25911,38599
32284,25892,38404
32200,25855,38512
32100,25823,38567
32040,25776,38431
31984,25765,38389
31940,25797,38532
31820,25826,38521
31792,25870,38502
31784,25912,38360
31804,25927,38481
31765,25905,38501
31752,25863,38440
31716,25832,38388
31624,25793,38416
31596,25786,38273
31632,25809,38486
31764,25852,38381
31748,25884,38279
31688,25938,38321
31664,25941,38330
31700,25925,38182
31789,25880,38368
31816,25845,38228
31784,25807,38237
31804,25797,38085
31804,25824,38231
31684,25861,38065
31660,25901,38143
31732,25955,38032
31884,25959,38158
31996,25932,38054
32064,25901,37913
32064,25863,38068
31992,25822,37869
31956,25811,37936
32001,25833,37956
31996,25876,37828
31992,25913,37796
32025,25960,37844
32101,25964,37548
32212,25947,37796
32228,25909,37808
32180,25872,37656
32136,25829,37708
32108,25825,37730
32101,25849,37508
32168,25895,37680
32220,25928,37687
32304,25972,37684
32341,25984,37606
32388,25972,37508
32372,25928,37560
32356,25880,37542
32316,25852,37349
32268,25841,37516
32265,25866,37509
32280,25909,37408
32292,25948,37231
32376,25990,37280
32429,26001,37337
32476,25978,37348
32532,25942,37361
32576,25906,37178
32556,25861,37120
32528,25855,37086
32536,25887,37119
32512,25926,37137
32496,25957,37103
32456,26000,36911
32430,26020,37117
32492,25991,37046
32636,25961,36856
32668,25917,36944
32656,25880,36804
32684,25870,36900
32744,25894,36722
32788,25936,36800
32816,25977,36775
32831,26028,36654
32869,26028,36764
32932,26006,36647
32940,25972,36629
32912,25932,36342
32932,25900,36524
32936,25897,36500
32948,25915,36492
32964,25951,36516
32996,25991,36381
33056,26044,36215
33096,26056,36389
33132,26034,36269
33100,25982,36042
33101,25957,36040
33102,25908,36153
33148,25903,36206
33221,25930,36064
33245,25968,36040
33120,26017,35768
33096,26058,35868
33224,26061,35966
33392,26044,35767
33424,26006,35844
33580,25971,35748
33752,25928,35716
33840,25921,35719
33865,25946,35538
33932,25986,35644
34016,26028,35478
34040,26071,35537
34024,26077,35492
34056,26053,35317
34092,26023,35476
34136,25987,35236
34124,25943,35324
34028,25946,35052
34034,25973,35010
34057,26001,35053
34108,26044,35172
34088,26086,35116
34148,26092,35028
34144,26076,35001
34149,26032,34833
34092,25999,34980
34048,25962,34884
34012,25956,34601
33956,25982,34713
33796,26020,34655
33632,26060,34705
33476,26101,34455
33332,26106,34613
33204,26092,34476
33088,26060,34522
33020,26025,34262
32893,25984,34328
32709,25983,34425
32538,25995,34297
32440,26037,34311
32317,26080,34108
32284,26119,34085
32240,26128,34188
32176,26104,34188
32100,26068,33981
32032,26030,34064
31952,25997,33880
31830,25987,33957
31648,26012,33943
31516,26057,33808
31536,26096,33752
31680,26136,33828
31756,26151,33621
31757,26128,33596
31732,26085,33612
31668,26052,33568
31608,26012,33644
31588,26009,33420
31564,26029,33573
31604,26071,33553
31616,26114,33389
31608,26156,33472
31588,26161,33460
31576,26142,33244
31612,26101,33240
31608,26075,33148
31509,26018,33164
31440,26023,33135
31496,26050,33244
31640,26086,33229
31720,26132,33092
31748,26175,33151
31736,26179,32960
31768,26159,32949
31704,26118,33061
31608,26082,33046
31633,26041,32972
31740,26037,32799
31796,26067,32897
31860,26110,32927
31868,26148,32878
31864,26189,32858
31880,26192,32644
31920,26169,32694
31964,26134,32800
31948,26097,32712
31964,26060,32604
31976,26053,32657
31952,26084,32676
31936,26116,32477
31908,26167,32429
31988,26210,32430
32128,26206,32567
32112,26191,32546
32096,26153,32422
32041,26112,32488
31994,26080,32308
31892,26069,32404
31772,26099,32332
31820,26140,32224
32068,26180,32305
32248,26221,32220
32360,26228,32325
32432,26205,32231
32404,26166,32148
32364,26126,32207
32328,26089,32218
32296,26089,32036
32316,26109,32188
32332,26154,32041
32340,26193,32100
32353,26240,31911
32392,26247,32077
32396,26217,31989
32420,26181,32013
32400,26143,31812
32385,26108,31885
32420,26100,31904
32416,26129,31832
32382,26170,31894
32285,26210,31700
32325,26252,31725
32384,26252,31809
32413,26238,31794
32468,26198,31609
32540,26160,31588
32549,26126,31726
32548,26119,31612
32528,26151,31676
32548,26188,31492
32573,26221,31652
32576,26270,31566
32560,26276,31568
32600,26249,31595
32592,26216,31404
32512,26173,31568
32396,26141,31423
32400,26137,31513
32508,26171,31337
32544,26205,31321
32548,26246,31416
32601,26285,31445
32624,26287,31444
32606,26272,31398
32608,26227,31407
32588,26193,31264
32588,26164,31233
32548,26153,31390
32532,26179,31340
32592,26217,31359
32586,26265,31191
32460,26294,31189
32225,26305,31300
32092,26286,31209
32256,26251,31312
32494,26212,31148
32566,26177,31294
32688,26168,31196
32812,26199,31281
32808,26236,31105
32724,26270,31274
32748,26310,31231
32820,26283,31229
32776,26305,31092
32732,26260,31080
32700,26225,31228
32706,26184,31179
32676,26189,31203
32660,26207,31095
32646,26252,31052
32648,26292,31117
32657,26319,31228
32640,26338,31108
32672,26310,31174
32680,26283,31200
32656,26245,31036
32652,26205,31060
32648,26209,31140
32594,26228,31156
32576,26275,31176
32608,26311,31172
32640,26340,31183
32641,26348,31056
32696,26333,31151
32760,26296,31012
32788,26257,30982
32788,26215,30978
32785,26213,30984
32764,26244,30985
32688,26279,30980
32676,26324,31005
32684,26367,31143
32736,26369,31028
32728,26349,31129
32720,26313,31057
32696,26272,30976
32716,26231,31105
32776,26228,31076
32788,26257,31056
32768,26298,31114
32789,26340,31124
32829,26383,31021
32868,26390,31023
32896,26357,31081
32938,26321,31114
32924,26285,30948
32844,26261,31109
32784,26247,31064
32800,26276,31101
32776,26321,30956
32728,26358,30929
32644,26391,30911
32576,26404,31068
32664,26368,31040
32804,26340,31084
32841,26296,30926
32820,26266,31056
32812,26267,30988
32801,26294,31076
32750,26332,30900
32654,26372,31080
32657,26416,30958
32720,26420,31061
32849,26392,30929
32869,26359,31057
32836,26325,30932
32812,26292,31046
32761,26287,30868
32760,26304,31039
32780,26341,30934
32748,26390,31015
32752,26432,30897
32756,26439,30839
32732,26414,30850
32717,26375,31005
32720,26333,30895
32756,26303,30985
32782,26299,30835
32816,26321,30812
32816,26365,30999
32789,26408,30868
32788,26449,30976
32800,26457,30844
32832,26430,30804
32844,26384,30960
32809,26350,30846
32764,26315,30920
32752,26311,30913
32780,26333,30940
32784,26376,30866
32804,26418,30770
32828,26457,30926
32848,26469,30933
32817,26440,30823
32720,26402,30892
32640,26371,30919
32732,26333,30749
32812,26335,30756
32784,26357,30906
32840,26397,30813
32932,26443,30905
32832,26486,30748
32778,26480,30844
32864,26456,30824
32944,26426,30856
32888,26384,30884
32808,26344,30768
32780,26348,30723
32788,26373,30889
32784,26412,30788
32772,26457,30856
32785,26482,30718
32789,26501,30768
32772,26478,30814
32704,26433,30869
32640,26396,30741
32612,26360,30704
32661,26356,30804
32728,26391,30793
32692,26429,30752
32732,26469,30820
32905,26510,30828
33095,26505,30837
33152,26483,30745
33092,26441,30672
33032,26405,30833
32998,26374,30807
33072,26375,30742
33104,26401,30802
33068,26448,30828
33076,26485,30654
33052,26520,30644
33000,26524,30805
32980,26497,30771
33008,26454,30809
33020,26427,30652
33036,26380,30740
33016,26388,30694
32996,26417,30800
32981,26457,30637
32976,26496,30804
32929,26533,30684
32886,26542,30769
32864,26516,30785
32856,26472,30648
32900,26434,30620
32948,26405,30709
32928,26397,30792
32876,26434,30695
32809,26468,30785
32840,26511,30644
32884,26544,30628
32906,26551,30708
32940,26530,30786
32912,26486,30808
32860,26455,30780
32856,26420,30746
32850,26422,30701
32820,26445,30778
32832,26484,30801
32804,26526,30652
32812,26564,30642
32804,26566,30641
32756,26536,30678
32732,26497,30789
32800,26462,30806
32806,26436,30796
32656,26432,30814
32520,26457,30788
32560,26498,30709
32784,26549,30788
32954,26575,30792
33044,26573,30804
33088,26550,30684
33044,26511,30808
32812,26478,30805
32656,26441,30807
32696,26439,30686
32918,26472,30670
33036,26513,30640
33012,26555,30641
32972,26599,30624
32972,26586,30647
32976,26560,30774
32944,26521,30796
32912,26479,30732
32820,26458,30751
32676,26462,30729
32473,26492,30759
32216,26529,30779
31976,26558,30782
31860,26598,30743
31852,26613,30717
31873,26585,30716
32164,26549,30704
32600,26503,30766
33072,26480,30684
33745,26479,30733
34612,26502,30767
35640,26545,30748
36764,26592,30716
37956,26641,30757
39104,26610,30745
40400,26590,30777
41804,26563,30664
43072,26528,30650
43936,26508,30756
43552,26518,30588
41756,26561,30581
39324,26556,30752
37533,26597,30736
36296,26636,30640
35424,26631,30718
34768,26618,30743
34264,26578,30741
33849,26533,30741
33428,26495,30741
32980,26500,30740
32596,26527,30727
32348,26565,30721
32208,26612,30716
32084,26647,30736
31973,26647,30762
31936,26614,30777
31904,26580,30661
31852,26532,30625
31748,26515,30629
31648,26508,30639
31572,26532,30621
31532,26580,30647
31572,26620,30692
31576,26648,30653
31540,26657,30623
31470,26628,30632
31544,26588,30772
31436,26541,30753
31365,26517,30668
31393,26509,30700
31536,26546,30661
31613,26588,30649
31620,26636,30657
31600,26661,30700
31616,26662,30696
31700,26639,30692
31736,26601,30692
31752,26559,30726
31700,26526,30598
31620,26525,30580
31620,26556,30708
31656,26594,30709
31681,26644,30693
31708,26672,30698
31840,26679,30697
31980,26645,30697
31973,26609,30711
31944,26569,30711
31940,26540,30710
31938,26537,30605
31924,26569,30577
31936,26600,30561
31896,26653,30544
31888,26684,30549
31980,26687,30673
32064,26661,30724
32108,26624,30736
32108,26587,30766
32120,26551,30770
32078,26552,30761
32056,26583,30673
32056,26623,30737
32111,26660,30756
32112,26699,30780
32132,26698,30793
32176,26668,30809
32192,26631,30780
32188,26588,30719
32184,26564,30796
32172,26562,30816
32132,26591,30836
32120,26631,30674
32180,26671,30749
32240,26704,30849
32359,26709,30736
32416,26673,30847
32421,26636,30845
32444,26596,30693
32448,26579,30681
32440,26572,30690
32404,26599,30815
32396,26640,30851
32368,26681,30740
32350,26709,30797
32300,26719,30845
32348,26693,30844
32336,26646,30687
32276,26608,30745
32360,26575,30766
32644,26575,30758
32768,26607,30782
32776,26652,30781
32794,26692,30812
32748,26724,30816
32736,26721,30812
32712,26690,30786
32680,26659,30692
32684,26621,30727
32704,26583,30773
32733,26582,30764
32756,26612,30768
32804,26661,30759
32852,26697,30580
32901,26733,30620
32920,26725,30741
32924,26702,30628
32968,26664,30696
33000,26625,30717
33036,26589,30720
33004,26598,30558
33061,26628,30664
33205,26665,30668
33249,26708,30583
33305,26742,30585
33345,26736,30580
33433,26709,30629
33472,26679,30636
33496,26636,30503
33516,26601,30480
33552,26604,30625
33586,26630,30529
33524,26671,30525
33440,26719,30500
33412,26748,30481
33552,26746,30529
33772,26719,30548
33904,26680,30454
33936,26638,30519
33914,26617,30537
33897,26606,30534
33908,26639,30365
33928,26683,30341
33924,26727,30417
33916,26758,30388
33880,26756,30437
33856,26727,30466
33792,26685,30319
33688,26652,30284
33600,26616,30432
33542,26627,30372
33528,26652,30343
33292,26695,30396
33112,26725,30400
33112,26759,30408
33108,26765,30401
33012,26737,30280
32993,26693,30212
32952,26656,30324
32892,26617,30369
32792,26626,30271
32704,26657,30337
32572,26693,30348
32453,26733,30194
32364,26767,30158
32340,26763,30156
32280,26735,30156
32216,26697,30210
32108,26660,30288
32024,26628,30292
31980,26631,30205
31933,26668,30252
31904,26700,30258
31908,26743,30279
31852,26774,30284
31831,26771,30284
31848,26742,30141
31894,26704,30127
31884,26662,30124
31893,26633,30173
31828,26641,30156
31788,26668,30161
31784,26712,30145
31828,26746,30129
31872,26777,30236
31904,26774,30249
31904,26746,30214
31858,26704,30160
31788,26669,30212
31840,26636,30231
31882,26645,30241
31857,26671,30144
31900,26716,30096
31916,26756,30084
31904,26785,30063
31884,26786,30071
31864,26752,30072
31876,26717,30076
31888,26683,30082
31904,26650,30064
31936,26652,30184
31938,26684,30094
31992,26724,30140
31988,26768,30244
31924,26797,30180
31888,26795,30188
31937,26759,30236
31997,26724,30248
31969,26686,30129
31820,26655,30100
31800,26660,30082
32008,26686,30071
32214,26730,30093
32336,26781,30183
32388,26809,30191
32424,26804,30162
32388,26766,30230
32320,26725,30233
32184,26691,30142
32093,26661,30094
32093,26665,30066
32188,26696,30229
32240,26735,30206
32264,26772,30239
32344,26780,30254
32480,26801,30111
32492,26781,30086
32517,26736,30087
32493,26698,30197
32456,26668,30249
32468,26674,30164
32492,26701,30256
32508,26741,30156
32508,26786,30117
32509,26815,30119
32536,26805,30140
32524,26778,30272
32562,26741,30276
32584,26709,30145
32576,26677,30129
32552,26679,30293
32532,26708,30193
32556,26754,30214
32588,26789,30292
32628,26820,30304
32628,26815,30192
32620,26788,30160
32600,26748,30134
32564,26707,30176
32580,26677,30316
32556,26681,30228
32605,26716,30337
32612,26746,30228
32548,26793,30184
32544,26821,30177
32592,26815,30191
32661,26790,30353
32680,26753,30254
32716,26713,30343
32729,26689,30248
32712,26678,30220
32704,26716,30205
32749,26758,30257
32745,26797,30364
32744,26837,30344
32736,26824,30396
32721,26793,30232
32716,26759,30421
32740,26710,30316
32688,26685,30428
32634,26695,30244
32604,26724,30437
32624,26764,30373
32548,26800,30348
32388,26834,30356
32356,26830,30390
32444,26796,30468
32608,26755,30361
32780,26717,30336
32848,26688,30326
32928,26693,30495
32928,26727,30472
32848,26769,30502
32784,26812,30534
32696,26834,30528
32588,26835,30541
32584,26793,30571
32657,26759,30586
32733,26720,30591
32733,26697,30586
32660,26700,30606
32634,26729,30632
32600,26770,30656
32640,26817,30528
32669,26845,30504
32705,26838,30520
32636,26803,30576
32592,26758,30679
32564,26727,30604
32592,26693,30684
32625,26702,30757
32636,26730,30764
32644,26772,30788
32668,26822,30774
32680,26839,30736
32684,26837,30801
32676,26804,30821
32668,26764,30860
32688,26727,30884
32676,26700,30780
32696,26709,30748
32668,26736,30876
32612,26773,30917
32588,26816,30855
32593,26844,30895
32628,26844,30878
32678,26812,30892
32669,26777,30913
32656,26720,30933
32621,26708,30989
32624,26713,30949
32652,26748,30980
32628,26785,30974
32640,26821,31042
32656,26854,31111
32677,26840,31127
32704,26817,31140
32689,26772,30996
32649,26730,31004
32592,26704,31020
32580,26713,31068
32592,26744,31116
32592,26785,31229
32609,26830,31237
32744,26858,31150
32792,26846,31172
32808,26810,31232
32796,26779,31255
32720,26734,31279
32644,26713,31311
32584,26719,31318
32524,26739,31340
32512,26791,31355
32617,26832,31364
32774,26853,31373
32666,26848,31385
32580,26820,31244
32592,26772,31255
32697,26734,31263
32756,26712,31261
32792,26718,31288
32772,26750,31319
32788,26791,31345
32740,26837,31478
32692,26853,31488
32728,26852,31341
32772,26818,31353
32740,26783,31364
32756,26748,31384
32757,26714,31396
32732,26724,31384
32600,26756,31392
32548,26794,31563
32608,26836,31574
32770,26863,31584
32862,26861,31584
32872,26823,31592
32800,26791,31600
32672,26747,31520
32720,26721,31608
32828,26728,31601
32828,26752,31482
32804,26791,31460
32820,26836,31476
32805,26865,31511
32792,26852,31640
32764,26828,31552
32704,26788,31501
32608,26742,31497
32588,26715,31511
32613,26724,31524
32648,26759,31526
32680,26800,31529
32720,26840,31529
32708,26859,31633
32697,26860,31677
32686,26829,31696
32684,26791,31692
32632,26748,31671
32569,26725,31632
32462,26730,31644
32489,26761,31705
32612,26808,31740
32677,26844,31582
32736,26871,31597
32772,26863,31660
32728,26831,31772
32689,26789,31651
32724,26740,31688
32740,26724,31715
32721,26729,31761
32702,26768,31782
32678,26805,31622
32680,26853,31616
32692,26872,31799
32700,26872,31762
32692,26837,31748
32764,26796,31777
32780,26749,31788
32768,26734,31830
32780,26732,31676
32816,26765,31684
32876,26802,31687
32964,26856,31770
33013,26885,31874
32976,26871,31884
32960,26834,31849
32952,26797,31781
32940,26761,31854
32916,26735,31904
32876,26743,31736
32880,26774,31819
32892,26819,31853
32952,26860,31885
33056,26885,31934
33088,26870,31783
33113,26840,31796
33108,26800,31982
33080,26758,31856
33013,26734,31968
32976,26745,31983
32944,26777,31824
32901,26820,31958
32856,26862,32015
32856,26887,32007
32808,26872,31957
32760,26842,31940
32740,26800,31994
32716,26765,31941
32693,26746,31956
32612,26746,31964
32453,26774,32048
32388,26817,32071
32480,26856,32095
32669,26885,31933
32832,26876,31959
32876,26851,32113
32869,26800,32135
32868,26765,32166
32824,26736,32070
32814,26744,32116
32784,26785,32140
32724,26823,32170
32800,26862,32010
32816,26886,32024
32704,26876,32036
32604,26840,32032
32640,26800,32113
32816,26771,32182
32960,26740,32112
32996,26754,32109
33065,26781,32164
33044,26821,32199
33020,26860,32165
32972,26887,32157
32945,26887,32212
32940,26849,32169
32900,26812,32172
32868,26767,32168
32856,26745,32200
32872,26750,32172
32853,26788,32309
32880,26832,32292
32884,26863,32301
32856,26894,32294
32821,26884,32310
32720,26847,32221
32544,26809,32263
32344,26769,32230
32176,26752,32220
31994,26756,32220
31892,26784,32233
31816,26831,32326
31905,26863,32236
32256,26894,32300
32728,26887,32333
33369,26853,32346
34136,26812,32356
34948,26772,32361
35888,26756,32183
36936,26759,32192
38036,26799,32193
39160,26845,32197
40560,26903,32208
41960,26892,32204
43160,26881,32228
43568,26849,32365
42580,26816,32379
40448,26782,32292
38156,26771,32372
36536,26770,32379
35600,26813,32196
34968,26844,32216
34452,26884,32356
34020,26902,32380
33652,26893,32359
33328,26863,32396
32988,26831,32228
32660,26783,32252
32400,26758,32288
32192,26764,32432
32024,26800,32364
31956,26837,32392
31996,26873,32301
31984,26900,32258
31896,26887,32452
31708,26860,32338
31640,26829,32423
31580,26786,32456
31584,26758,32302
31612,26767,32281
31708,26796,32284
31800,26832,32460
31832,26876,32289
31810,26897,32281
31840,26886,32380
31808,26860,32377
31809,26827,32384
31788,26783,32392
31744,26767,32432
31754,26764,32432
31740,26796,32364
31738,26832,32295
31764,26887,32298
31856,26897,32357
31912,26887,32384
31908,26854,32380
31880,26826,32213
31876,26784,32210
31840,26759,32228
31804,26765,32348
31836,26797,32333
31940,26833,32320
32032,26876,32292
32052,26901,32253
32072,26893,32350
32020,26865,32359
32014,26821,32366
32024,26779,32376
32056,26759,32224
32142,26772,32216
32200,26782,32206
32196,26829,32204
32128,26878,32228
32120,26897,32237
32156,26892,32332
32264,26857,32308
32296,26829,32364
32313,26784,32351
32304,26770,32422
32276,26772,32335
32292,26801,32360
32272,26833,32312
32288,26884,32421
32326,26909,32394
32360,26887,32453
32376,26860,32452
32372,26828,32452
32357,26784,32456
32301,26767,32449
32312,26772,32384
32352,26800,32381
32302,26832,32332
32236,26885,32340
32265,26900,32316
32420,26894,32317
32568,26869,32391
32592,26829,32421
32558,26791,32413
32572,26764,32276
32576,26773,32236
32544,26801,32246
32448,26837,32352
32476,26880,32391
32588,26904,32276
32697,26897,32350
32800,26862,32369
32800,26833,32183
32733,26781,32336
32681,26766,32299
32692,26769,32220
32740,26796,32268
32792,26837,32303
32840,26886,32284
32860,26900,32117
32860,26895,32127
32796,26863,32192
32748,26828,32240
32740,26785,32161
32860,26764,32092
32988,26772,32153
33040,26805,32180
33060,26833,31997
33017,26887,32017
33020,26897,32108
33096,26896,32072
33226,26860,32093
33252,26834,32058
33252,26788,32065
33293,26764,32046
33280,26778,31876
33176,26801,31853
33196,26832,31926
33336,26878,31981
33548,26903,31955
33676,26896,31922
33768,26869,31880
33796,26825,31924
33760,26789,31735
33716,26772,31900
33724,26777,31766
33716,26807,31835
33764,26841,31671
33796,26887,31669
33832,26909,31817
33880,26901,31750
33912,26863,31780
33897,26822,31596
33904,26780,31576
33872,26757,31644
33864,26769,31713
33880,26805,31649
33880,26837,31664
33860,26885,31605
33812,26909,31540
33704,26896,31591
33592,26860,31590
33356,26826,31604
33084,26776,31423
32928,26764,31412
33006,26775,31480
33172,26804,31474
33156,26841,31520
33052,26887,31440
32944,26900,31512
32828,26895,31338
32780,26861,31450
32692,26831,31388
32569,26777,31463
32464,26762,31305
32312,26778,31281
32160,26809,31268
32112,26837,31343
32116,26885,31353
32100,26904,31373
32032,26892,31254
31864,26860,31359
31777,26834,31357
31844,26776,31372
31896,26767,31229
31840,26772,31193
31816,26804,31308
31745,26832,31360
31720,26884,31257
31780,26905,31328
31776,26886,31172
31804,26857,31150
31788,26824,31326
31772,26757,31204
31772,26759,31276
31784,26773,31300
31780,26804,31145
31768,26836,31171
31788,26880,31288
31800,26901,31272
31780,26893,31252
31768,26853,31111
31748,26825,31221
31768,26783,31160
31816,26761,31241
31836,26766,31117
31824,26804,31073
31840,26832,31231
31900,26887,31129
31937,26898,31196
31952,26883,31231
31936,26861,31066
31920,26831,31197
31908,26780,31175
31920,26759,31184
31908,26773,31074
31932,26801,31169
31920,26837,31111
31936,26879,31175
32016,26900,31198
32022,26887,31197
32012,26857,31085
31928,26821,31038
31901,26775,31209
31944,26759,31175
32088,26769,31205
32168,26799,31034
32231,26832,31203
32280,26880,31100
32316,26896,31197
32284,26885,31049
32268,26857,31156
32240,26820,31181
32136,26770,31108
31969,26751,31112
31960,26767,31157
32172,26797,31180
32348,26829,31207
32420,26878,31060
32509,26903,31042
32489,26885,31188
32452,26856,31226
32360,26818,31221
32288,26777,31156
32240,26753,31141
32276,26764,31194
32412,26797,31236
32560,26831,31074
32616,26887,31053
32632,26896,31239
32614,26884,31152
32576,26852,31192
32548,26821,31244
32544,26766,31086
32508,26759,31071
32540,26768,31253
32544,26796,31175
32564,26828,31143
32544,26883,31128
32540,26887,31279
32512,26876,31204
32540,26846,31266
32576,26812,31109
32576,26767,31278
32549,26756,31224
32556,26768,31248
32548,26799,31136
32576,26836,31109
32568,26875,31298
32557,26898,31183
32552,26884,31284
32592,26852,31143
32604,26816,31200
32580,26772,31305
32638,26751,31297
32704,26761,31173
32652,26790,31168
32683,26828,31329
32620,26876,31238
32636,26884,31319
32668,26882,31334
32677,26848,31364
32664,26813,31220
32648,26769,31204
32588,26748,31401
32536,26765,31284
32540,26790,31389
32532,26820,31420
32413,26877,31312
32320,26885,31269
32420,26877,31334
32614,26848,31399
32720,26804,31445
32740,26760,31343
32776,26752,31412
32728,26765,31453
32692,26789,31516
32672,26836,31428
32768,26868,31468
32872,26887,31496
32844,26877,31548
32816,26846,31564
32800,26809,31406
32821,26764,31415
32837,26749,31477
32820,26754,31615
32792,26791,31548
32816,26828,31572
32856,26877,31557
32856,26885,31616
32862,26873,31668
32805,26843,31695
32760,26811,31536
32760,26762,31636
32756,26749,31748
32736,26762,31718
32652,26789,31656
32648,26823,31734
32741,26869,31793
32764,26884,31821
32784,26875,31678
32840,26841,31812
32828,26812,31881
32793,26761,31844
32770,26745,31901
32740,26758,31925
32740,26790,31840
32748,26820,31798
32805,26874,31820
32805,26881,31862
32808,26870,32028
32828,26840,32004
32848,26808,31964
32842,26759,32077
32846,26745,31935
32812,26752,31961
32772,26789,31960
32816,26828,31980
32860,26868,32064
32808,26885,32021
32708,26868,32033
32736,26842,32064
32920,26800,32191
32976,26759,32190
32926,26744,32284
32829,26756,32280
32788,26781,32288
32744,26830,32199
32828,26865,32300
32905,26870,32335
32964,26864,32349
32964,26840,32356
32932,26797,32380
32876,26759,32345
32856,26736,32321
32792,26752,32337
32604,26781,32446
32535,26823,32472
32528,26864,32497
32580,26875,32512
32728,26866,32534
32920,26836,32537
32968,26793,32394
32950,26754,32407
32952,26744,32428
32852,26756,32565
32740,26774,32519
32744,26820,32577
32888,26865,32580
32968,26876,32579
32980,26869,32610
32964,26822,32686
32952,26796,32587
32892,26750,32722
32892,26732,32764
32900,26756,32717
32888,26777,32652
32832,26825,32681
32862,26860,32714
32856,26870,32812
32876,26857,32836
32864,26831,32852
32840,26789,32866
32832,26757,32844
32876,26732,32862
32882,26753,32864
32896,26780,32908
32928,26816,32903
32920,26854,32875
32893,26868,32844
32912,26852,32852
32940,26828,32948
32928,26789,32944
32873,26746,32981
32896,26735,33040
32936,26751,32949
32988,26777,32968
33048,26814,33045
33124,26854,33085
33180,26869,33098
33144,26855,33085
33129,26828,33125
33062,26786,33137
33012,26747,33092
32960,26727,33092
32932,26740,33156
32968,26775,33144
33044,26812,33188
33032,26849,33192
33028,26862,33119
33000,26857,33085
32849,26829,33093
32783,26777,33167
32872,26745,33232
33012,26719,33204
33000,26735,33241
33032,26769,33240
33108,26800,33316
33104,26851,33204
33054,26874,33201
32964,26852,33248
32908,26817,33316
32924,26781,33348
32984,26736,33191
33040,26713,33197
33096,26733,33204
33184,26768,33234
33216,26801,33409
33264,26852,33244
33248,26861,33256
33180,26840,33284
33156,26815,33460
33244,26773,33469
33332,26732,33492
33344,26719,33516
33340,26739,33462
33308,26760,33346
33292,26797,33369
33276,26836,33413
33312,26852,33437
33332,26841,33509
33352,26804,33592
33360,26772,33620
33332,26727,33592
33316,26716,33655
33316,26724,33556
33280,26759,33608
33252,26797,33600
33216,26843,33589
33184,26840,33685
33120,26839,33732
33096,26799,33749
33036,26762,33774
33080,26719,33604
33204,26704,33644
33264,26725,33685
33240,26758,33797
33168,26794,33837
33148,26828,33877
33206,26847,33882
33200,26829,33902
33132,26790,33728
33137,26759,33775
33196,26721,33810
33236,26705,33884
33181,26717,33929
32984,26751,33853
32912,26785,33860
32988,26830,33864
33192,26838,33888
33324,26823,33904
33328,26801,33930
33292,26759,33953
33172,26715,34092
33084,26696,34076
33041,26719,34063
33089,26742,33995
33116,26782,34076
33148,26821,34156
33144,26840,34084
33176,26823,34052
33192,26792,34055
33180,26750,34160
33172,26709,34260
33160,26700,34132
33116,26708,34213
33104,26745,34247
33068,26790,34276
32940,26829,34120
32856,26839,34104
32880,26821,34199
33060,26796,34248
33084,26751,34211
32981,26711,34311
32830,26692,34238
32600,26709,34322
32368,26745,34344
32216,26740,34332
32225,26820,34277
32284,26834,34326
32536,26818,34340
32936,26791,34380
33456,26746,34440
34206,26694,34336
34948,26695,34425
35776,26709,34516
36780,26753,34440
37928,26797,34508
39048,26815,34501
40192,26840,34513
41388,26840,34380
42436,26775,34356
43028,26755,34373
42456,26711,34365
40576,26713,34388
38228,26708,34596
36436,26749,34584
35392,26789,34568
34833,26829,34597
34533,26828,34577
34332,26819,34524
34036,26788,34556
33672,26744,34607
33310,26706,34653
32908,26688,34677
32637,26694,34726
32440,26734,34695
32284,26773,34778
32216,26817,34778
32108,26823,34788
32036,26804,34809
32004,26773,34808
31972,26733,34673
31920,26685,34656
31824,26678,34626
31736,26695,34648
31684,26727,34644
31688,26759,34873
31680,26800,34876
31656,26818,34857
31600,26803,34834
31628,26760,34884
31756,26729,34744
31884,26692,34704
31902,26679,34907
31898,26688,34919
31864,26725,34894
31840,26759,34892
31828,26801,34856
31884,26812,34820
31908,26788,34909
31845,26762,34967
31796,26724,34983
31844,26677,34920
31908,26670,34957
31960,26686,34941
32028,26720,34980
32064,26752,35012
32036,26797,35020
31972,26805,35022
31900,26784,35012
31844,26755,35028
31916,26721,35010
31988,26682,34992
32000,26671,35047
32041,26679,35054
32164,26711,35015
32184,26751,34950
32168,26796,34973
32137,26800,35079
32072,26783,35053
32008,26750,35079
32020,26714,35047
32040,26673,35100
32132,26663,35126
32224,26672,35136
32252,26709,35142
32232,26745,35044
32252,26784,35084
32325,26788,35169
32428,26769,35191
32504,26740,35160
32510,26709,35049
32500,26663,35015
32476,26648,35039
32424,26672,35037
32348,26700,35041
32292,26740,35045
32281,26774,35151
32280,26788,35160
32276,26769,35061
32272,26736,35044
32300,26693,35024
32336,26653,35040
32412,26645,35089
32504,26668,35092
32500,26695,35053
32472,26729,35020
32404,26779,35244
32368,26788,35237
32460,26757,35223
32505,26735,35165
32568,26699,35140
32617,26653,35152
32644,26642,35124
32652,26663,35124
32644,26692,35184
32640,26732,35215
32708,26767,35233
32684,26783,35236
32617,26759,35012
32556,26725,34996
32724,26692,35073
32925,26649,35113
32980,26632,35178
32884,26663,35132
32816,26685,35126
32896,26724,35045
33084,26768,35049
33200,26775,34948
33228,26752,35159
33268,26724,35132
33252,26683,35047
33228,26645,35033
33132,26637,35015
33088,26659,35012
33152,26684,35167
33248,26724,35000
33268,26761,34976
33284,26768,34956
33424,26751,35126
33632,26720,35111
33724,26679,35109
33780,26644,35092
33780,26630,35052
33801,26642,34959
33828,26681,34869
33844,26720,34874
33826,26760,34809
33850,26759,34788
33828,26741,34832
33840,26710,34907
33872,26673,34933
33900,26631,34985
33864,26629,34980
33808,26639,34941
33776,26673,34959
33764,26717,34845
33740,26756,34746
33796,26752,34733
33768,26734,34883
33744,26708,34864
33676,26666,34832
33592,26626,34724
33509,26618,34776
33400,26631,34874
33344,26670,34796
33192,26717,34679
33024,26744,34668
32872,26751,34618
32728,26733,34591
32652,26699,34796
32576,26667,34784
32476,26622,34768
32364,26612,34660
32176,26620,34648
32004,26663,34741
31852,26698,34801
31781,26744,34610
31780,26754,34600
31816,26729,34541
31793,26697,34565
31712,26644,34745
31644,26612,34624
31600,26604,34753
31580,26626,34769
31500,26661,34590
31456,26700,34588
31420,26737,34656
31473,26736,34716
31468,26725,34735
31432,26687,34752
31480,26647,34748
31604,26613,34736
31636,26599,34751
31636,26623,34653
31612,26651,34572
31608,26692,34562
31540,26732,34529
31437,26737,34504
31437,26717,34716
31536,26686,34677
31588,26645,34702
31628,26605,34719
31656,26599,34704
31678,26621,34705
31552,26645,34676
31472,26692,34584
31493,26727,34668
31588,26735,34750
31716,26720,34744
31776,26677,34720
31760,26644,34660
31772,26604,34589
31740,26594,34628
31752,26613,34665
31712,26649,34620
31664,26691,34599
31668,26726,34586
31700,26735,34645
31692,26713,34652
31708,26678,34597
31688,26631,34754
31764,26596,34647
31764,26593,34662
31728,26606,34562
31768,26639,34567
31844,26676,34577
31928,26721,34567
32036,26720,34565
32084,26701,34528
32112,26670,34517
32100,26631,34727
32032,26590,34549
31996,26588,34524
32012,26606,34550
32008,26639,34732
32004,26672,34743
31996,26716,34729
32004,26724,34735
32018,26694,34735
31964,26663,34735
31944,26623,34750
32056,26585,34756
32204,26583,34608
32228,26600,34591
32217,26631,34607
32164,26677,34605
32140,26716,34545
32108,26716,34548
32048,26692,34756
32088,26652,34763
32244,26612,34733
32352,26579,34701
32360,26564,34642
32344,26596,34647
32340,26631,34645
32320,26676,34662
32328,26712,34785
32324,26716,34803
32236,26688,34772
32141,26652,34793
32144,26610,34772
32272,26575,34772
32376,26567,34685
32444,26596,34613
32516,26630,34584
32484,26668,34556
32381,26711,34736
32228,26706,34743
32237,26689,34712
32336,26644,34653
32440,26606,34665
32440,26565,34652
32433,26560,34622
32424,26585,34700
32436,26628,34773
32404,26645,34743
32376,26702,34631
32344,26704,34606
32312,26680,34600
32324,26638,34550
32312,26605,34592
32308,26562,34785
32364,26556,34784
32356,26584,34788
32368,26625,34784
32364,26656,34759
32372,26692,34725
32428,26701,34823
32440,26678,34812
32432,26636,34846
32392,26594,34852
32380,26555,34866
32284,26552,34855
32240,26580,34761
32316,26616,34752
32432,26663,34828
32436,26694,34806
32452,26695,34926
32412,26671,34789
32420,26626,34783
32408,26589,34785
32408,26548,34788
32393,26543,34790
32367,26569,34719
32420,26601,34949
32429,26655,34764
32488,26681,34985
32596,26695,34980
32654,26664,34784
32668,26626,34870
32612,26583,34884
32556,26554,34872
32612,26551,35028
32580,26566,35060
32552,26613,34870
32544,26652,34912
32548,26684,34961
32564,26687,35100
32544,26661,35173
32504,26631,35180
32464,26581,35189
32300,26537,35182
32226,26535,35192
32332,26566,35224
32432,26577,35236
32484,26636,35221
32580,26678,35220
32684,26686,35197
32708,26656,35176
32725,26615,35220
32720,26567,35252
32692,26530,35220
32644,26537,35166
32596,26564,35193
32516,26597,35168
32581,26644,35198
32665,26676,35288
32716,26669,35404
32746,26648,35346
32752,26612,35353
32724,26565,35361
32668,26535,35392
32620,26535,35375
32636,26560,35397
32669,26599,35421
32680,26644,35436
32652,26665,35436
32664,26672,35431
32692,26641,35458
32660,26604,35461
32608,26566,35456
32572,26525,35238
32680,26531,35245
32685,26552,35477
32685,26592,35490
32704,26637,35492
32720,26660,35492
32712,26665,35496
32680,26645,35436
32648,26601,35453
32628,26559,35500
32612,26522,35493
32640,26519,35506
32613,26550,35429
32620,26588,35396
32604,26626,35556
32688,26660,35500
32850,26663,35438
32888,26630,35429
32852,26592,35384
32800,26562,35552
32804,26526,35387
32813,26521,35376
32824,26546,35464
32824,26576,35493
32824,26621,35487
32832,26660,35488
32808,26660,35492
32796,26631,35468
32768,26590,35480
32704,26550,35472
32644,26516,35230
32625,26514,35316
32601,26539,35431
32600,26572,35490
32672,26618,35320
32736,26657,35366
32736,26649,35361
32740,26624,35294
32741,26584,35318
32764,26536,35360
32640,26511,35348
32440,26504,35376
32400,26535,35353
32504,26573,35161
32692,26610,35237
32800,26650,35268
32868,26649,35272
32816,26623,35261
32808,26580,35281
32892,26535,35316
32925,26509,35168
32948,26497,35297
32964,26527,35273
32985,26568,35120
33048,26606,35232
33060,26640,35214
33048,26631,35111
32920,26609,35133
32784,26567,35156
32798,26533,34934
32956,26496,34961
33052,26494,35134
33028,26518,35084
32992,26565,34980
33004,26601,35055
33072,26631,35047
33133,26628,35044
33177,26604,34809
33156,26562,34892
33052,26516,35047
33045,26490,34981
33008,26485,34848
32976,26509,34961
32932,26549,34941
32864,26586,34784
32805,26625,34928
32796,26625,34860
32805,26596,34764
32724,26554,34742
32616,26516,34740
32680,26484,34724
32772,26481,34740
32816,26503,34810
32840,26546,34648
32865,26586,34645
32862,26613,34756
32844,26623,34798
32836,26588,34625
32873,26544,34638
32872,26503,34631
32828,26473,34710
32772,26478,34508
32729,26496,34533
32708,26546,34548
32701,26578,34637
32728,26612,34677
32764,26615,34588
32780,26582,34583
32789,26541,34487
32768,26502,34580
32736,26469,34576
32704,26471,34575
32637,26493,34567
32604,26533,34328
32658,26574,34336
32672,26607,34332
32576,26599,34440
32540,26578,34511
32608,26541,34449
32744,26500,34422
32848,26464,34441
32840,26466,34452
32821,26489,34225
32815,26527,34226
32868,26562,34234
32828,26603,34242
32672,26600,34290
32580,26571,34380
32708,26529,34391
32748,26485,34300
32576,26465,34269
32324,26463,34281
32120,26480,34302
32025,26520,34269
32100,26558,34268
32189,26596,34038
32516,26599,34072
32960,26562,34247
33600,26527,34081
34352,26491,34165
35216,26466,34165
36096,26468,33936
37064,26505,33976
38084,26514,34148
39152,26558,34020
40140,26588,33976
41184,26583,34033
42168,26560,34024
42624,26534,34028
41842,26496,34004
39880,26461,33988
37684,26460,33962
36102,26486,33756
35312,26532,33732
34780,26576,33722
34484,26592,33706
34257,26587,33693
33896,26561,33708
33568,26521,33709
33240,26481,33831
32920,26445,33860
32700,26447,33857
32516,26479,33833
32444,26512,33829
32372,26550,33708
32168,26580,33758
32054,26573,33756
32064,26551,33748
32144,26508,33743
32112,26466,33738
32108,26430,33577
32052,26436,33624
31993,26464,33689
31968,26503,33687
31988,26540,33710
31948,26575,33644
31868,26572,33668
31784,26551,33636
31828,26505,33629
31944,26463,33607
31916,26432,33581
31888,26437,33556
31896,26464,33487
31888,26496,33513
31972,26547,33292
32056,26575,33319
32110,26572,33452
32108,26543,33440
32080,26503,33280
32021,26461,33250
31984,26425,33345
32016,26429,33137
32064,26452,33208
32004,26501,33205
31950,26536,33127
31984,26568,33212
32132,26567,33263
32228,26534,33125
32205,26498,33180
32164,26450,33191
32140,26429,33031
32188,26423,33081
32284,26452,33174
32296,26492,33109
32328,26530,32998
32348,26552,33108
32312,26552,32911
32236,26528,32884
32240,26493,32876
32296,26441,33001
32256,26412,32925
32176,26416,32993
32176,26448,33009
32228,26481,32847
32332,26524,32996
32388,26560,32945
32396,26556,32824
32372,26519,32941
32368,26481,32916
32448,26446,32901
32528,26417,32692
32580,26404,32848
32500,26439,32741
32392,26479,32840
32412,26527,32676
32516,26549,32812
32636,26549,32780
32640,26522,32792
32672,26477,32630
32617,26438,32720
32612,26415,32542
32672,26405,32536
32653,26432,32604
32609,26476,32577
32616,26512,32642
32668,26551,32630
32680,26535,32612
32684,26516,32594
32666,26469,32405
32632,26429,32381
32629,26397,32436
32660,26405,32441
32676,26432,32352
32656,26471,32404
32652,26511,32352
32648,26543,32422
32740,26535,32404
32800,26504,32216
32882,26470,32288
32900,26425,32327
32920,26396,32317
32889,26385,32116
32940,26424,32113
33000,26460,32207
33028,26503,32137
32968,26524,32073
32948,26533,32170
33000,26501,31974
33202,26463,32085
33340,26408,32117
33376,26383,32038
33370,26389,31933
33389,26412,31991
33392,26457,31990
33464,26494,31882
33488,26519,31768
33504,26520,31925
33520,26489,31869
33566,26455,31844
33604,26404,31800
33620,26374,31713
33653,26377,31684
33624,26410,31740
33656,26448,31588
33725,26490,31517
33769,26524,31655
33864,26514,31648
33884,26482,31586
33884,26440,31478
33820,26392,31445
33884,26375,31498
33944,26375,31327
33912,26410,31308
33880,26444,31436
33656,26481,31391
33564,26517,31348
33664,26512,31239
33845,26478,31269
33792,26433,31264
33692,26393,31245
33612,26369,31188
33496,26375,31159
33316,26397,31072
33192,26433,31111
33044,26477,31112
32932,26503,30969
32852,26501,30893
32752,26473,31065
32656,26427,30913
32512,26384,30964
32334,26356,30969
32124,26357,30804
32020,26388,30780
32060,26430,30732
32096,26465,30856
32040,26496,30864
32016,26493,30744
31964,26461,30764
31896,26424,30792
31816,26373,30632
31728,26351,30593
31648,26351,30681
31616,26378,30649
31620,26421,30625
31644,26461,30672
31652,26482,30510
31608,26487,30572
31556,26455,30528
31560,26412,30596
31536,26368,30599
31397,26340,30421
31280,26343,30452
31304,26373,30549
31504,26412,30425
31701,26463,30487
31744,26484,30364
31764,26482,30303
31765,26441,30428
31792,26405,30392
31805,26356,30349
31788,26332,30365
31800,26332,30360
31744,26367,30272
31760,26413,30200
31792,26445,30372
31812,26480,30304
31841,26471,30337
31840,26440,30164
31848,26399,30188
31824,26357,30208
31614,26321,30280
31428,26329,30094
31550,26367,30214
31868,26396,30162
32076,26438,30194
32144,26469,30118
32156,26463,30053
32068,26428,30175
32016,26399,30116
32040,26349,30153
32124,26324,30172
32116,26325,29987
32146,26353,30128
32192,26393,30116
32236,26434,30147
32233,26460,29984
32233,26456,30076
32209,26429,30114
32160,26384,30101
32093,26337,30045
32124,26308,30107
32220,26324,29953
32293,26340,29930
32300,26388,30029
32348,26429,30092
32352,26461,30016
32404,26448,30085
32436,26416,29905
32420,26375,29977
32364,26336,30060
32284,26305,29916
32336,26311,29960
32400,26343,30007
32448,26375,30036
32508,26423,29924
32516,26444,29900
32532,26442,29908
32532,26409,29989
32432,26369,29930
32348,26333,29964
32368,26298,29960
32448,26308,29932
32464,26332,30019
32492,26372,29980
32541,26415,30016
32636,26442,30005
32629,26434,29987
32594,26404,29945
32580,26365,30004
32588,26319,29986
32556,26288,29894
32496,26293,29887
32440,26327,29897
32276,26364,29930
32256,26407,29972
32436,26437,29976
32748,26431,29825
32888,26407,29816
32828,26354,29922
32780,26315,29938
32736,26290,29958
32660,26296,29941
32608,26323,29844
32569,26364,29805
32612,26399,29973
32640,26438,29932
32628,26421,29916
32568,26391,29982
32544,26350,29821
32554,26313,29847
32596,26277,29932
32588,26277,29996
32552,26323,29822
32532,26356,29968
32512,26397,29933
32468,26425,30004
32376,26417,29856
32342,26380,29981
32360,26341,30025
32420,26301,29940
32528,26268,30036
32552,26277,29916
32549,26303,29964
32536,26346,30029
32540,26388,30071
32521,26419,29921
32576,26407,29944
32556,26370,30021
32513,26342,30072
32472,26298,30085
32384,26263,30032
32308,26274,30044
32352,26308,30081
32448,26337,30164
32528,26373,30177
32628,26405,30028
32616,26401,30103
32632,26367,30185
32661,26321,30160
32622,26285,30198
32636,26261,30257
32656,26261,30116
32660,26292,30128
32644,26333,30306
32648,26372,30229
32668,26393,30192
32646,26396,30176
32520,26361,30204
32416,26318,30376
32436,26281,30277
32516,26256,30342
32564,26261,30393
32584,26286,30423
32544,26325,30433
32548,26372,30308
32608,26402,30286
32725,26391,30340
32836,26356,30381
32848,26318,30512
32824,26269,30424
32832,26244,30464
32776,26258,30520
32772,26273,30520
32796,26310,30573
32808,26358,30596
32778,26385,30441
32768,26389,30605
32768,26348,30546
32760,26310,30594
32716,26267,30652
32700,26232,30676
32720,26248,30531
32732,26271,30612
32760,26308,30724
32776,26353,30622
32768,26382,30721
32748,26367,30753
32736,26345,30597
32720,26301,30773
32704,26258,30676
32692,26229,30783
32692,26236,30801
32688,26263,30660
32688,26311,30649
32640,26345,30846
32632,26372,30757
32680,26365,30836
32652,26333,30745
32662,26284,30788
32766,26252,30911
32828,26224,30820
32838,26227,30902
32828,26255,30924
32844,26300,30772
32877,26340,30781
32896,26373,30777
32885,26360,30956
32892,26331,30926
32934,26292,30983
32864,26248,30858
32828,26221,30838
32837,26228,30854
32868,26247,30965
32888,26289,31024
32908,26331,30992
32904,26349,30935
32788,26352,31042
32776,26324,30904
32812,26279,30892
32928,26245,30976
32988,26215,31034
32988,26218,31054
32956,26252,30948
32860,26285,30929
32869,26329,30980
32868,26356,31103
32900,26343,31005
32944,26269,30972
32932,26262,30945
32944,26220,31120
32828,26209,31004
32680,26212,31038
32688,26242,31121
32824,26279,31136
32932,26328,30981
32945,26344,31071
32960,26340,31099
32918,26309,31047
32892,26269,31108
32864,26222,31149
32820,26193,31156
32776,26207,30999
32746,26240,31133
32704,26272,31127
32676,26315,31069
32696,26340,31164
32737,26336,31028
32741,26304,31004
32720,26257,31102
32728,26215,31194
32732,26184,31109
32708,26190,31189
32720,26228,31036
32860,26268,31034
32944,26315,31046
33040,26335,31037
33128,26325,31044
33152,26296,31045
33144,26247,31048
33080,26215,31145
33064,26181,31239
33040,26197,31125
32992,26224,31140
32949,26264,31228
32924,26304,31076
32912,26324,31196
32984,26313,31159
33004,26281,31161
32976,26245,31184
32948,26205,31262
32944,26183,31277
32992,26185,31268
32992,26215,31109
32987,26253,31186
32976,26299,31213
32916,26318,31246
32840,26308,31194
32780,26277,31148
32752,26229,31160
32732,26192,31263
32692,26166,31325
32692,26180,31231
32692,26204,31345
32696,26246,31205
32720,26286,31186
32700,26309,31204
32690,26294,31383
32656,26263,31318
32544,26228,31258
32560,26185,31238
32660,26153,31324
32792,26166,31373
32793,26197,31312
32804,26228,31409
32858,26272,31273
32876,26297,31373
32852,26302,31444
32820,26269,31436
32813,26222,31432
32760,26180,31472
32736,26153,31316
32688,26162,31336
32604,26197,31458
32568,26237,31515
32624,26277,31480
32832,26298,31416
32924,26260,31509
32996,26257,31375
33008,26209,31359
32900,26167,31432
32806,26148,31546
32828,26144,31457
32884,26169,31512
32828,26221,31548
32772,26260,31389
32796,26296,31391
32873,26273,31396
32904,26241,31396
32809,26207,31428
32652,26167,31506
32444,26140,31572
32245,26141,31564
32066,26168,31527
31936,26213,31430
31856,26255,31536
31792,26279,31468
31984,26268,31581
32448,26241,31423
32996,26199,31488
33720,26150,31597
34512,26126,31489
35329,26140,31576
36324,26160,31471
37484,26202,31433
38628,26245,31460
39832,26264,31607
41136,26306,31492
42324,26207,31568
43232,26183,31606
43056,26197,31434
41408,26161,31528
39048,26158,31548
37180,26180,31577
35904,26213,31614
35076,26258,31433
34476,26284,31560
34104,26273,31512
33760,26224,31616
33352,26186,31461
32924,26153,31452
32512,26124,31583
32332,26127,31632
32308,26156,31632
32288,26191,31640
32184,26234,31564
32089,26267,31528
31936,26254,31544
31778,26213,31548
31732,26176,31616
31792,26133,31661
31816,26108,31683
31804,26084,31677
31812,26151,31511
31756,26196,31509
31684,26232,31512
31684,26251,31680
31734,26244,31676
31769,26208,31674
31760,26159,31574
31800,26129,31588
31796,26103,31638
31782,26111,31676
31812,26129,31501
31808,26180,31575
31800,26220,31549
31804,26244,31652
31788,26236,31655
31822,26201,31482
31836,26164,31589
31820,26127,31660
31800,26092,31546
31772,26104,31602
31748,26132,31655
31788,26176,31486
31828,26217,31487
31928,26235,31509
32000,26231,31588
32016,26201,31552
32008,26157,31496
31984,26117,31508
32000,26099,31500
31984,26097,31548
32013,26132,31677
32024,26168,31604
32032,26213,31684
32048,26233,31524
32052,26230,31534
32092,26190,31562
32064,26148,31685
32102,26102,31654
32128,26089,31720
32224,26092,31722
32252,26131,31725
32256,26164,31666
32296,26213,31714
32160,26227,31744
32148,26220,31749
32248,26185,31624
32377,26143,31628
32420,26101,31615
32472,26076,31615
32486,26089,31613
32508,26118,31720
32440,26132,31703
32436,26196,31661
32516,26223,31692
32572,26212,31682
32600,26180,31702
32512,26145,31800
32408,26095,31662
32428,26076,31738
32500,26085,31783
32556,26116,31601
32508,26156,31637
32456,26196,31668
32501,26220,31732
32476,26204,31596
32416,26170,31584
32412,26133,31572
32568,26093,31561
32688,26071,31556
32680,26076,31550
32668,26102,31533
32660,26149,31527
32660,26186,31508
32680,26212,31501
32712,26205,31573
32712,26169,31628
32728,26126,31593
32748,26087,31599
32708,26063,31612
32684,26065,31437
32760,26100,31591
32857,26140,31448
32897,26177,31550
32960,26205,31377
33005,26196,31356
32976,26157,31517
32972,26119,31430
33028,26076,31468
33072,26055,31324
33136,26061,31276
33188,26089,31433
33228,26132,31394
33289,26181,31408
33368,26194,31280
33372,26185,31207
33328,26149,31192
33340,26112,31261
33396,26066,31246
33356,26052,31248
33400,26054,31184
33524,26091,31125
33668,26126,31104
33784,26166,31096
33828,26196,31261
33876,26178,31118
33868,26148,31194
33836,26104,31040
33780,26069,31036
33793,26052,31150
33798,26049,31149
33704,26092,31089
33612,26126,31124
33544,26164,30943
33640,26191,31105
33760,26177,30999
33748,26140,30919
33672,26101,30930
33592,26064,31040
33494,26040,31000
33268,26048,31018
32984,26082,30841
32892,26119,30980
33020,26156,30980
33040,26180,30864
32968,26167,30916
32908,26132,30951
32800,26100,30772
32664,26060,30929
32528,26036,30904
32408,26034,30780
32336,26083,30736
32268,26110,30892
32192,26149,30829
32168,26175,30708
32100,26164,30689
32024,26137,30852
31948,26092,30790
31880,26047,30695
31858,26028,30788
31812,26044,30724
31720,26069,30820
31704,26106,30660
31756,26148,30648
31780,26164,30700
31772,26158,30791
31685,26119,30684
31628,26085,30774
31685,26043,30608
31754,26024,30605
31716,26027,30700
31700,26059,30736
31717,26102,30596
31736,26142,30718
31728,26165,30693
31713,26155,30644
31724,26084,30727
31724,26076,30564
31720,26036,30645
31684,26017,30732
31548,26026,30644
31440,26055,30721
31484,26095,30559
31640,26140,30697
31812,26159,30674
31844,26145,30542
31820,26114,30572
31793,26065,30621
31840,26037,30691
31874,26007,30540
31868,26016,30688
31892,26055,30580
31942,26084,30662
31944,26127,30661
31968,26148,30498
32017,26140,30583
31988,26103,30654
31928,26058,30543
31792,26023,30624
31716,25999,30488
31904,26008,30551
32136,26037,30646
32188,26076,30649
32244,26116,30556
32281,26148,30612
32236,26133,30624
32231,26096,30465
32248,26052,30500
32268,26010,30596
32248,25984,30636
32244,26005,30516
32252,26036,30613
32212,26071,30620
32244,26104,30500
32270,26141,30524
32261,26124,30610
32204,26090,30468
32180,26046,30559
32201,25998,30505
32260,25977,30594
32324,25990,30494
32216,26024,30454
32132,26061,30544
32180,26103,30532
32436,26126,30573
32596,26109,30477
32564,26076,30501
32496,26028,30528
32512,26000,30612
32485,25980,30479
32457,25989,30549
32440,26015,30516
32448,26062,30620
32520,26100,30505
32556,26116,30460
32484,26100,30559
32333,26066,30515
32224,26024,30492
32304,25988,30463
32457,25959,30646
32592,25978,30582
32620,26007,30640
32580,26053,30485
32572,26084,30662
32650,26100,30541
32704,26100,30656
32676,26064,30502
32676,26023,30649
32680,25986,30661
32613,25959,30511
32570,25975,30604
32576,26005,30599
32572,26044,30681
32568,26084,30693
32552,26104,30557
32577,26084,30557
32564,26061,30551
32528,26020,30634
32536,25972,30741
32537,25930,30636
32564,25956,30717
32568,25991,30761
32608,26031,30612
32632,26078,30644
32664,26090,30808
32517,26080,30688
32444,26049,30768
32560,26006,30826
32664,25965,30675
32678,25945,30771
32652,25949,30806
32624,25991,30847
32597,26029,30880
32608,26072,30726
32620,26087,30740
32668,26069,30757
32688,26042,30762
32652,25996,30894
32656,25958,30924
32668,25933,30946
32604,25948,30881
32492,25982,30930
32500,26020,31012
32628,26056,30878
32692,26080,30956
32732,26068,31006
32769,26039,31041
32833,25999,31108
32832,25956,31120
32816,25930,31101
32716,25942,31125
32596,25974,31084
32504,26014,31195
32564,26055,31048
32693,26072,31239
32752,26064,31132
32713,26028,31204
32672,25989,31276
32628,25944,31156
32552,25926,31149
32548,25933,31292
32596,25967,31268
32604,26012,31388
32612,26052,31239
32714,26074,31329
32796,26060,31431
32816,26029,31400
32824,25985,31488
32797,25944,31416
32760,25921,31548
32684,25932,31437
32640,25961,31567
32668,25998,31444
32773,26040,31453
32832,26031,31541
32858,26045,31636
32872,26013,31644
32852,25979,31617
32824,25928,31696
32792,25908,31563
32800,25925,31751
32788,25954,31653
32820,26005,31640
32832,26037,31833
32872,26058,31824
32884,26036,31680
32857,26012,31860
32852,25979,31892
32816,25927,31751
32752,25910,31849
32796,25919,31912
32780,25957,31793
32788,25992,31987
32696,26031,31972
32632,26052,31852
32768,26034,32020
32924,25998,32036
32940,25964,31885
32920,25912,32066
32888,25888,32017
32860,25907,32090
32860,25936,32141
32908,25980,32164
32901,26021,32002
32900,26036,32125
32876,26030,32087
32860,25991,32228
32864,25951,32064
32896,25926,32196
32848,25876,32289
32848,25911,32180
32850,25946,32288
32868,25980,32135
32786,26023,32209
32710,26044,32366
32776,26026,32317
32936,25990,32367
32992,25958,32209
32976,25913,32408
32920,25894,32333
32896,25911,32416
32864,25934,32266
32812,25972,32408
32766,26010,32468
32716,26038,32357
32828,26025,32479
33044,25980,32332
33208,25944,32526
33216,25903,32391
33164,25885,32528
33080,25902,32372
33040,25922,32580
33001,25966,32509
32996,26011,32577
32974,26024,32592
32864,26019,32420
32796,25977,32453
32828,25941,32577
32916,25896,32656
32945,25876,32613
32936,25892,32668
32928,25929,32684
32932,25968,32700
32936,25999,32700
32912,26023,32564
32909,26001,32556
32940,25971,32561
32924,25925,32598
32832,25892,32656
32764,25863,32788
32764,25872,32685
32788,25908,32805
32776,25948,32814
32796,25988,32652
32797,26009,32663
32809,25993,32708
32812,25968,32700
32800,25934,32725
32876,25887,32744
32900,25863,32756
32924,25879,32775
32992,25914,32820
33054,25957,32940
33088,25991,33004
33104,26004,32888
33133,25998,32951
33204,25970,33004
33224,25919,32925
33125,25882,33008
33036,25849,33045
32956,25863,33084
32936,25895,32920
32980,25937,32916
33078,25988,32978
33148,26006,33149
33168,25989,33116
33182,25953,33093
33172,25908,33191
33164,25869,33021
33133,25849,33124
33097,25862,33253
33040,25893,33253
33040,25936,33252
33068,25978,33084
33045,25993,33303
32996,25991,33204
32924,25949,33336
32828,25903,33206
32788,25862,33352
32712,25842,33257
32612,25857,33397
32592,25892,33222
32608,25928,33364
32696,25972,33448
32796,25986,33433
32908,25970,33481
32944,25938,33325
32902,25902,33438
32968,25849,33553
33100,25851,33431
33200,25860,33572
33124,25897,33385
32960,25936,33618
32772,25968,33495
32688,25988,33618
32796,25969,33641
32996,25934,33509
33044,25897,33708
32972,25857,33573
32880,25842,33709
32848,25857,33545
32920,25887,33588
32944,25929,33722
32988,25966,33680
33032,25980,33764
33025,25969,33592
32988,25938,33780
32900,25892,33844
32888,25856,33788
32836,25825,33844
32832,25847,33860
32820,25881,33679
32844,25919,33712
32820,25965,33760
32800,25982,33957
32832,25969,33821
32856,25930,33937
32752,25892,33810
32600,25844,33826
32413,25837,33916
32260,25841,34023
32096,25876,33980
32032,25916,34024
32016,25963,33835
32064,25976,33901
32324,25961,33920
32740,25932,33932
33338,25884,33949
34108,25850,34141
34908,25836,34124
35788,25855,34028
36792,25868,34090
37880,25911,34148
38976,25950,34181
40112,25960,33990
41304,25949,34052
42276,25914,34207
42888,25881,34230
42412,25840,34145
40676,25816,34156
38376,25833,34241
36640,25868,34063
35552,25905,34165
34852,25967,34318
34448,25977,34252
34272,25957,34210
33968,25918,34206
33640,25880,34230
33256,25837,34388
32748,25817,34308
32328,25831,34420
32113,25860,34425
32144,25897,34453
32109,25938,34261
32064,25956,34359
32096,25948,34493
32140,25913,34537
32124,25862,34545
32000,25817,34509
31886,25807,34630
31848,25822,34476
31852,25857,34597
31808,25893,34616
31821,25933,34503
31856,25955,34688
31864,25936,34613
31808,25900,34671
31764,25868,34480
31700,25812,34567
31632,25797,34750
31645,25815,34628
31672,25850,34610
31773,25887,34692
31872,25920,34741
31928,25936,34598
31900,25928,34727
31820,25892,34801
31708,25855,34848
31692,25813,34757
31720,25792,34608
31788,25808,34844
31821,25834,34719
31884,25884,34852
32012,25925,34709
32068,25929,34882
32100,25930,34772
32168,25884,34904
32152,25838,34717
32092,25800,34764
32092,25764,34916
32068,25800,34973
32008,25831,35005
32004,25872,34839
32072,25913,34960
32217,25925,34761
32252,25912,35063
32252,25877,34986
32272,25837,34965
32212,25797,35045
31913,25782,34925
31664,25792,35105
31828,25828,34964
32220,25864,35079
32404,25911,35102
32472,25922,34980
32532,25912,35181
32584,25868,35110
32628,25828,35146
32628,25790,34972
32600,25777,35068
32604,25788,35215
32604,25821,35237
32512,25863,35101
32492,25901,35199
32414,25913,34993
32340,25904,35079
32340,25869,35276
32476,25831,35109
32580,25794,35212
32624,25754,35230
32629,25784,35266
32644,25822,35029
32724,25865,35142
32736,25901,35149
32692,25919,35292
32672,25906,35316
32648,25863,35271
32624,25827,35284
32628,25778,35068
32672,25766,35328
32704,25775,35180
32800,25810,35300
32869,25852,35079
32888,25898,35172
32848,25910,35285
32804,25901,35374
32848,25860,35214
32992,25819,35329
33080,25785,35105
33068,25759,35236
33080,25764,35364
33092,25804,35327
33132,25844,35198
33152,25881,35261
33136,25892,35260
33144,25895,35312
33169,25848,35079
33180,25812,35202
33220,25771,35332
33280,25748,35324
33352,25767,35175
33445,25804,35276
33352,25846,35290
33340,25880,35280
33472,25892,35264
33592,25877,35038
33676,25838,35126
33781,25804,35266
33764,25766,35274
33718,25750,35229
33760,25760,35237
33788,25791,35112
33761,25835,35127
33812,25871,35094
34008,25893,35236
34074,25873,35212
34096,25839,35207
34125,25802,35016
34012,25765,35053
33892,25745,35236
33840,25750,35097
33944,25782,35136
34020,25821,35177
34029,25862,34932
34048,25902,35012
33968,25863,35048
33828,25826,35124
33736,25789,35164
33656,25750,35004
33628,25738,35118
33536,25751,34878
33400,25780,34951
33268,25821,35004
33132,25869,35128
33068,25879,34964
32972,25862,35076
32832,25827,34856
32752,25790,34940
32672,25747,35092
32548,25725,34999
32432,25746,35050
32276,25776,34908
32176,25821,35024
32164,25856,35076
32164,25868,34985
32072,25852,34917
32012,25813,34944
31937,25783,35037
31858,25740,34908
31768,25718,34992
31760,25730,35079
31718,25772,35084
31704,25808,34938
31744,25848,35020
31797,25862,35048
31817,25847,34831
31800,25813,35013
31702,25764,34980
31624,25729,35008
31576,25711,35037
31564,25720,35042
31668,25762,35044
31736,25798,35052
31748,25845,35045
31764,25854,34854
31756,25840,34914
31864,25808,35032
31912,25764,35101
31809,25727,34951
31808,25709,35056
31860,25731,34990
31876,25750,35040
31782,25795,35053
31760,25836,34837
31856,25848,35076
32008,25832,35036
32104,25792,35092
32104,25758,34956
31993,25719,35127
31956,25694,35062
31964,25712,34992
31926,25749,35109
31861,25778,34977
31889,25825,35132
31985,25840,35076
32168,25823,35116
32256,25786,34943
32288,25750,35144
32280,25707,35146
32236,25689,35025
32160,25705,35145
32088,25740,34972
31984,25777,35185
32000,25821,35117
32096,25828,35146
32181,25817,35164
32208,25785,34988
32276,25744,35150
32312,25699,35142
32300,25681,35188
32284,25700,35063
32224,25733,35189
32268,25774,35173
32282,25812,35184
32332,25831,35236
32408,25813,35068
32552,25780,35118
32548,25735,35164
32500,25694,35264
32478,25670,35260
32413,25685,35038
32388,25732,35288
32416,25777,35264
32464,25812,35207
32404,25828,35308
32272,25806,35228
32296,25769,35289
32396,25718,35332
32452,25684,35206
32488,25666,35335
32548,25686,35361
32672,25729,35335
32720,25765,35372
32728,25804,35257
32676,25816,35392
32686,25805,35398
32746,25765,35204
32784,25718,35364
32796,25678,35476
32724,25663,35335
32624,25676,35409
32592,25716,35449
32608,25757,35469
32652,25789,35326
32632,25816,35374
32492,25796,35383
32424,25760,35498
32420,25712,35556
32448,25672,35433
32504,25657,35477
32700,25676,35469
32841,25716,35564
32876,25758,35332
32837,25793,35447
32808,25803,35468
32752,25794,35565
32692,25759,35675
32710,25720,35556
32696,25676,35599
32696,25661,35662
32680,25669,35469
32692,25711,35549
32700,25746,35720
32664,25791,35737
32660,25801,35613
32660,25785,35696
32630,25747,35756
32608,25704,35629
32704,25666,35717
32737,25650,35847
32748,25664,35718
32740,25700,35798
32684,25732,35820
32668,25781,35801
32688,25784,35892
32720,25768,35764
32712,25750,35884
32644,25703,35921
32549,25659,35804
32492,25641,35944
32548,25655,35940
32631,25693,35884
32628,25728,35999
32696,25766,35794
32728,25787,35901
32816,25764,36002
32885,25727,36071
32860,25700,36053
32740,25642,36148
32705,25636,36023
32744,25644,36084
32764,25685,36116
32720,25730,36145
32684,25771,36168
32632,25780,36037
32612,25757,36084
32600,25727,36275
32668,25683,36103
32832,25636,36213
32896,25629,36256
32848,25638,36016
32816,25691,36276
32792,25726,36326
32769,25764,36185
32764,25776,36287
32736,25762,36216
32680,25728,36268
32536,25684,36241
32552,25640,36336
32568,25630,36389
32632,25640,36408
32672,25685,36172
32669,25724,36308
32800,25766,36500
32852,25772,36329
32864,25750,36420
32880,25714,36453
32924,25677,36487
32912,25630,36349
32882,25615,36571
32836,25633,36409
32785,25678,36276
32768,25709,36484
32797,25751,36549
32808,25767,36496
32848,25735,36568
32888,25701,36453
32876,25679,36633
32804,25631,36473
32708,25622,36613
32697,25628,36516
32765,25663,36694
32740,25711,36592
32668,25744,36377
32736,25764,36644
32860,25741,36668
32848,25706,36540
32816,25660,36644
32784,25623,36685
32804,25616,36678
32770,25620,36691
32712,25659,36607
32668,25699,36676
32720,25732,36777
32812,25750,36657
32925,25734,36620
32924,25695,36693
32860,25652,36736
32800,25583,36520
32740,25613,36749
32712,25621,36812
32736,25656,36711
32749,25689,36708
32744,25743,36756
32738,25748,36508
32748,25732,36500
32744,25700,36665
32630,25652,36829
32572,25606,36717
32672,25590,36615
32752,25615,36660
32782,25641,36759
32766,25684,36761
32796,25740,36776
32792,25750,36636
32808,25735,36708
32824,25681,36711
32725,25644,36717
32592,25598,36711
32472,25583,36724
32464,25606,36732
32542,25643,36708
32676,25682,36604
32716,25723,36613
32632,25733,36711
32648,25716,36709
32748,25679,36726
32892,25644,36652
32992,25602,36708
33086,25593,36712
33140,25599,36700
33156,25636,36608
33188,25674,36576
33232,25714,36609
33248,25732,36611
33244,25713,36359
33173,25680,36324
33140,25645,36304
33084,25604,36444
32976,25595,36460
32932,25606,36493
32928,25629,36564
32948,25671,36434
33016,25699,36484
33056,25724,36465
33084,25699,36274
32964,25670,36388
32884,25623,36460
32896,25583,36440
32944,25567,36296
32916,25604,36380
32908,25641,36117
32885,25665,36257
32852,25703,36340
32772,25721,36399
32764,25701,36253
32808,25663,36263
32836,25631,36293
32876,25603,36037
32896,25565,36009
32836,25588,36038
32800,25625,36112
32858,25653,36095
32900,25701,36090
32916,25705,36090
32933,25685,36212
32921,25656,36214
32884,25617,36110
32848,25577,36100
32804,25560,36108
32780,25577,35872
32789,25617,35961
32780,25649,36022
32724,25694,36092
32732,25708,36076
32796,25687,35896
32824,25650,35963
32756,25607,35976
32720,25573,35796
32788,25554,35828
32840,25569,35925
32796,25615,35940
32832,25654,35774
32748,25697,35836
32644,25708,35867
32620,25689,35600
32718,25649,35693
32836,25607,35764
32940,25570,35847
32970,25554,35689
32960,25573,35726
32928,25607,35724
32900,25641,35584
32890,25684,35752
32816,25693,35621
32732,25684,35644
32624,25639,35503
32532,25607,35639
32404,25554,35655
32204,25544,35493
32084,25564,35541
32040,25600,35484
32220,25640,35400
32528,25676,35499
32964,25700,35330
33656,25672,35472
34455,25634,35436
35352,25584,35300
36260,25548,35444
37140,25572,35360
38016,25577,35158
38968,25620,35365
39904,25650,35273
40996,25689,35221
41998,25692,35256
42352,25669,35001
41500,25624,35109
39472,25586,35140
37328,25582,35106
35776,25552,35117
35028,25561,35112
34612,25596,34940
34284,25639,35013
34056,25672,35089
33772,25677,35084
33477,25661,34942
33181,25627,34893
32869,25593,34974
32628,25546,34837
32404,25532,34993
32240,25546,34864
32128,25581,34916
32036,25621,34840
31958,25660,34823
31916,25678,34661
31884,25647,34845
31840,25618,34728
31812,25578,34815
31789,25534,34572
31764,25521,34789
31708,25543,34756
31672,25572,34524
31660,25615,34632
31612,25650,34689
31604,25662,34629
31680,25647,34652
31736,25607,34516
31724,25567,34660
31712,25511,34457
31708,25513,34545
31736,25534,34516
31774,25572,34492
31792,25612,34254
31828,25653,34304
31804,25656,34368
31836,25637,34425
31876,25607,34252
31870,25568,34300
31829,25521,34304
31816,25512,34052
31764,25532,34055
31692,25564,34070
31620,25602,34138
31612,25637,34188
31652,25657,34028
31736,25638,34106
31756,25592,34092
31900,25551,33964
32064,25516,34055
32156,25506,34016
32116,25521,34007
32112,25559,33828
32130,25600,33975
32140,25645,33968
32160,25643,33872
32160,25631,33904
32168,25593,33732
32164,25552,33884
32132,25508,33726
32108,25500,33816
32108,25521,33582
32164,25556,33652
32214,25593,33756
32252,25635,33761
32232,25642,33736
32248,25623,33573
32248,25578,33656
32252,25545,33640
32264,25509,33433
32244,25492,33456
32260,25509,33604
32288,25551,33441
32388,25582,33522
32452,25626,33344
32484,25628,33335
32532,25622,33430
32577,25595,33396
32596,25541,33423
32508,25510,33202
32445,25484,33232
32424,25511,33341
32489,25544,33373
32564,25581,33273
32640,25628,33285
32741,25630,33270
32791,25607,33233
32792,25574,33026
32808,25532,33068
32860,25487,33199
32864,25477,33181
32828,25500,33056
32836,25546,33065
32864,25580,32880
32840,25622,32895
32869,25627,33040
32956,25606,32967
33000,25581,32760
32949,25536,32771
32904,25499,32760
32968,25477,32809
33036,25500,32740
33036,25535,32812
33084,25577,32629
33192,25614,32746
33216,25625,32612
33272,25600,32493
33216,25559,32653
33206,25526,32615
33260,25481,32431
33424,25479,32576
33544,25498,32485
33604,25532,32301
33654,25575,32412
33712,25606,32316
33697,25613,32241
33688,25588,32228
33704,25556,32348
33792,25535,32273
33832,25489,32281
33808,25476,32077
33846,25496,32209
33884,25532,32053
33944,25564,32127
34000,25610,32119
34024,25617,31909
34032,25603,31868
33948,25567,31865
33804,25508,31823
33761,25479,31838
33872,25456,31960
34060,25476,31848
34092,25530,31866
34092,25562,31668
34069,25604,31800
34012,25607,31673
33924,25589,31716
33804,25552,31718
33641,25511,31526
33469,25464,31617
33312,25466,31640
33188,25476,31482
33004,25517,31540
32896,25556,31533
32768,25589,31378
32645,25600,31493
32496,25578,31413
32376,25542,31425
32304,25508,31234
32236,25468,31276
32142,25448,31348
32040,25477,31208
31944,25514,31172
31878,25553,31160
31852,25590,31181
31796,25604,31208
31740,25577,31036
31697,25539,31023
31636,25503,30976
31584,25462,30958
31552,25452,30936
31528,25468,30896
31508,25504,30880
31520,25548,30878
31544,25588,30924
31552,25599,30904
31481,25577,30901
31392,25530,30921
31337,25492,30949
31360,25448,30864
31425,25444,30778
31445,25464,30784
31542,25497,30820
31592,25538,30820
31636,25581,30828
31700,25591,30668
31688,25570,30628
31572,25533,30623
31524,25482,30605
31528,25450,30588
31680,25446,30580
31870,25457,30553
31892,25501,30541
31901,25529,30524
31908,25569,30614
31918,25585,30656
31900,25559,30599
31880,25524,30557
31880,25481,30501
31896,25452,30566
31908,25432,30589
31908,25452,30406
31912,25495,30404
31948,25532,30488
31980,25572,30509
32004,25582,30484
32028,25562,30513
32013,25520,30349
32004,25476,30326
32056,25436,30327
32048,25429,30404
32008,25447,30436
32002,25484,30469
32076,25524,30386
32132,25567,30353
32128,25576,30383
32181,25557,30332
32192,25512,30361
32212,25470,30364
32236,25441,30407
32224,25427,30400
32216,25449,30404
32248,25487,30248
32292,25520,30241
32344,25565,30390
32344,25564,30284
32324,25542,30360
32330,25508,30242
32324,25469,30220
32327,25436,30322
32344,25408,30265
32388,25439,30338
32396,25476,30356
32418,25513,30345
32424,25555,30341
32448,25569,30348
32492,25541,30336
32504,25507,30333
32484,25468,30212
32456,25441,30325
32452,25417,30316
32480,25444,30244
32485,25479,30222
32504,25509,30242
32552,25557,30220
32604,25566,30300
32604,25541,30150
32548,25501,30150
32520,25463,30296
32480,25421,30237
32472,25409,30176
