ECG,EDA,RR
33724,53511,31281
33740,53540,31268
33736,53575,31219
33700,53616,31340
33624,53671,31339
33512,53661,31224
33356,53636,31276
33248,53607,31391
33152,53599,31377
33016,53510,31268
32966,53564,31442
32896,53592,31404
32772,53623,31356
32705,53628,31418
32704,53748,31434
32704,53652,31383
32644,53708,31416
32628,53663,31461
32664,53631,31472
32628,53621,31357
32636,53542,31556
32628,53653,31488
32576,53679,31471
32484,53728,31490
32424,53759,31495
32388,53767,31380
32368,53761,31597
32399,53734,31495
32420,53703,31388
32400,53612,31595
32420,53617,31524
32440,53661,31511
32472,53671,31355
32528,53760,31548
32601,53736,31513
32588,53759,31488
32652,53702,31412
32800,53687,31512
32885,53712,31495
32840,53735,31435
32816,53740,31513
32876,53760,31492
32852,53767,31368
32848,53877,31476
32888,53916,31340
32873,53908,31546
32924,53788,31440
33060,53847,31441
33152,53804,31235
33220,53728,31476
33316,53815,31404
33346,53825,31205
33272,53825,31379
33166,53927,31340
33104,53956,31149
33041,53940,31397
33006,53871,31292
33052,53922,31162
33132,53855,31337
33204,53767,31228
33300,53861,31101
33421,53894,31226
33532,53935,31165
33608,53997,31063
33708,54023,31023
33736,54020,31089
33780,53924,31000
33768,53983,30860
33740,53940,31023
33668,53916,31017
33688,53916,30842
33736,53941,31013
33712,54014,30964
33728,54068,30837
33808,53999,30854
33833,54100,30961
33860,54085,30905
33840,54045,30683
33840,53988,30968
33776,54005,30845
33664,54007,30865
33544,54023,30724
33384,54068,30921
33345,54141,30820
33385,54136,30809
33372,54057,30823
33352,54141,30823
33380,54096,30776
33436,54064,30894
33396,54044,30834
33393,54071,30852
33356,54109,30653
33304,54039,30917
33201,54086,30885
33145,54151,30801
33100,54214,30887
33104,54188,30914
33110,54150,30793
33120,54148,30912
33040,54133,30921
33080,54047,30951
33149,54055,30820
33264,54119,30997
33372,54237,30983
33472,54244,30873
33432,54278,31045
33348,54255,31013
33236,54228,31036
33198,54193,30908
33172,54190,30917
33181,54092,31056
33276,54096,31063
33316,54132,30902
33268,54247,31100
33248,54309,31052
33180,54332,30928
33156,54228,30836
33196,54181,31111
33210,54244,31027
33200,54229,31044
33228,54234,30967
33252,54180,30861
33216,54303,30927
33212,54343,31009
33253,54364,31007
33244,54407,30962
33245,54380,30775
33270,54324,31054
33273,54240,30957
33292,54279,30951
33360,54279,30852
33420,54309,30746
33360,54356,30897
33256,54391,30893
33232,54429,30705
33264,54423,30868
33228,54429,30855
33252,54383,30820
33316,54348,30821
33308,54247,30676
33212,54335,30869
33180,54361,30780
33140,54396,30743
33309,54455,30788
33492,54471,30766
33552,54504,30749
33532,54486,30721
33500,54356,30580
33404,54407,30698
33296,54381,30709
33276,54380,30724
33276,54436,30708
33284,54471,30513
33276,54517,30753
33324,54500,30727
33280,54564,30732
33344,54535,30621
33312,54525,30541
33372,54428,30696
33328,54449,30780
33340,54440,30816
33569,54481,30724
33656,54525,30748
33624,54525,30727
33612,54532,30561
33508,54604,30669
33341,54586,30748
33244,54561,30761
33222,54528,30565
33252,54484,30800
33427,54516,30757
33504,54460,30778
33484,54580,30760
33524,54615,30551
33561,54653,30827
33508,54668,30727
33456,54656,30727
33332,54631,30704
33273,54580,30693
33352,54557,30696
33477,54573,30536
33488,54554,30586
33440,54629,30644
33392,54671,30624
33276,54711,30404
33104,54644,30609
33113,54663,30535
33129,54669,30532
33120,54613,30505
33168,54631,30400
33160,54524,30241
33168,54636,30359
33176,54685,30385
33220,54743,30376
33236,54703,30276
33240,54772,30137
33218,54685,30194
33240,54651,30293
33241,54687,30192
33236,54655,30174
33300,54682,30143
33332,54628,30087
33304,54716,29861
33224,54780,30132
33220,54776,30021
33184,54736,30004
33216,54791,29833
33308,54784,29901
33356,54759,29885
33304,54723,29768
33364,54612,29861
33304,54628,29796
33094,54766,29799
33081,54791,29751
33076,54855,29660
32944,54868,29583
32902,54836,29500
32873,54837,29420
32860,54787,29668
32812,54773,29633
32852,54663,29570
32936,54773,29500
33072,54764,29650
33180,54868,29529
33185,54911,29518
33104,54895,29476
33109,54903,29340
33150,54791,29492
33184,54733,29426
33128,54791,29437
33045,54788,29328
32996,54815,29375
33029,54863,29335
33072,54892,29317
33076,54935,29301
33024,54958,29319
33116,54868,29038
33352,54887,29254
33568,54856,29223
33844,54830,29313
34303,54830,29220
34806,54844,29008
35360,54906,29184
35980,54959,29149
36640,54996,29103
37126,55006,29066
37532,54997,29129
38032,54948,29121
38572,54927,28954
38952,54892,29063
39188,54791,29104
39544,54914,29060
40052,54957,29045
40328,55015,28816
40204,55061,29108
39572,55061,29006
38384,55036,28974
37128,55015,28988
35646,54983,29007
34053,54959,28806
32384,54940,29023
31004,54980,28940
30264,55036,28940
30076,55028,28774
30392,54994,28876
30768,55007,28831
31166,55084,28828
31572,55042,28732
31932,55020,28613
32116,54997,28706
32176,54919,28833
32180,54941,28733
32180,55039,28736
32164,55076,28695
32229,55132,28575
32192,55143,28805
32028,55124,28706
31917,54972,28718
31855,55036,28621
31849,55004,28679
31893,55020,28765
31920,55046,28680
31944,55078,28673
32008,55011,28612
32064,55143,28396
32065,55148,28529
32072,55143,28677
32056,55109,28595
32053,55015,28572
32104,55029,28544
32100,55008,28559
32176,55068,28479
32196,55044,28430
32172,55031,28621
32196,55172,28521
32108,55175,28516
31972,55125,28365
31908,55141,28492
31876,55111,28505
31940,55071,28365
32084,54972,28249
32202,54973,28454
32200,55012,28397
32184,55140,28231
32260,55175,28333
32260,55193,28360
32216,55189,28348
32224,55101,28327
32284,55047,28156
32288,55081,28364
32292,55068,28268
32256,55086,28284
32200,55092,28007
32160,55100,28206
32180,55213,28284
32180,55239,28298
32238,55100,28244
32312,55168,28200
32337,55132,28157
32452,55100,28295
32676,55087,28224
32760,55099,28199
32893,55172,28110
32924,55199,28015
32925,55233,28317
32836,55247,28220
32736,55245,28261
32704,55193,28229
32716,55151,28105
32576,55139,28290
32604,55097,28276
32748,55142,28313
32768,55172,28301
32764,55231,28208
32912,55157,28064
32876,55264,28313
32780,55236,28383
32709,55215,28376
32668,55127,28390
32656,55092,28335
32836,55135,28158
32948,55165,28189
33001,55189,28208
32952,55231,28540
32945,55208,28449
32796,55281,28508
32633,55220,28468
32412,55156,28365
32396,55175,28473
32388,55175,28613
32444,55093,28556
32524,55071,28540
32488,55205,28423
32508,55188,28541
32608,55303,28648
32646,55192,28649
32608,55278,28632
32609,55263,28649
32608,55143,28620
32593,55079,28496
32664,55172,28502
32740,55185,28465
32652,55208,28709
32570,55279,28788
32556,55300,28740
32504,55324,28537
32460,55289,28622
32436,55285,28616
32396,55222,28604
32236,55204,28573
32044,55175,28598
31854,55174,28604
31736,55245,28778
31600,55172,28890
31596,55303,28916
31572,55288,28847
31472,55271,28857
31384,55279,28799
31392,55224,28679
31260,55212,28860
31300,55161,28887
31288,55220,28879
31264,55189,28869
31268,55287,28913
31372,55340,28901
31448,55247,28852
31441,55303,28733
31412,55294,28896
31348,55263,28908
31248,55157,28904
31246,55204,28825
31196,55175,28775
31072,55268,29039
31000,55188,28977
30936,55332,28985
30728,55351,28819
30630,55336,28739
30628,55196,29026
30680,55236,29111
30724,55231,29077
30752,55149,29044
30788,55237,29056
30784,55265,29033
30824,55303,28887
30916,55295,29042
31036,55244,29180
31072,55335,29117
30956,55289,29183
30969,55164,29181
30904,55213,29190
30880,55220,29118
30936,55141,29146
30928,55266,29215
30916,55303,29241
30956,55246,29327
30999,55356,29319
30980,55348,29337
31077,55292,29353
31162,55273,29317
31180,55220,29318
31253,55228,29340
31224,55133,29356
31210,55266,29241
31196,55333,29222
31180,55249,29484
31108,55357,29407
31024,55364,29454
31024,55303,29462
31100,55273,29474
31180,55220,29359
31276,55229,29397
31308,55228,29540
31240,55231,29604
31156,55303,29543
31124,55333,29592
31056,55383,29588
31008,55349,29540
30998,55284,29538
31060,55273,29459
31149,55125,29668
31244,55212,29664
31256,55248,29668
31108,55167,29533
30940,55303,29752
30900,55351,29728
30824,55368,29775
30885,55334,29785
30916,55329,29682
30868,55175,29805
30745,55220,29876
30640,55148,29844
30624,55239,29868
30653,55266,29812
30810,55303,29836
31048,55332,29913
31136,55364,29948
31128,55229,29832
31168,55303,29952
31248,55252,29997
31180,55228,30032
31092,55108,29940
31096,55228,29888
31084,55264,30117
31000,55292,30084
31104,55348,30109
31168,55356,30074
31148,55223,29946
31084,55300,30119
30996,55245,30137
30836,55229,30172
30752,55090,30137
30692,55212,30060
30694,55148,30052
30648,55289,30001
30692,55265,29980
30701,55336,30168
30756,55340,30305
30820,55287,30300
30832,55246,30265
30837,55213,30271
30820,55197,30157
30804,55217,30093
30828,55141,30335
30832,55275,30298
30852,55333,30332
30776,55329,30316
30701,55303,30200
30605,55268,30164
30545,55133,30297
30505,55196,30414
30436,55156,30397
30532,55196,30401
30653,55244,30413
30688,55268,30407
30584,55293,30272
30560,55335,30426
30468,55302,30508
30381,55256,30460
30428,55231,30486
30324,55132,30488
30380,55175,30400
30464,55204,30316
30512,55221,30343
30576,55237,30311
30640,55303,30564
30617,55222,30589
30614,55288,30558
30652,55250,30599
30646,55223,30503
30493,55063,30416
30392,55159,30632
30424,55196,30655
30349,55119,30636
30334,55239,30689
30386,55301,30660
30510,55303,30532
30592,55228,30586
30604,55148,30694
30596,55189,30808
30536,55143,30744
30496,55165,30788
30528,55111,30651
30502,55193,30716
30488,55244,30896
30586,55280,30825
30613,55288,30852
30544,55269,30712
30476,55237,30799
30445,55089,30912
30432,55151,30892
30454,55116,30836
30578,55151,30785
30576,55175,30909
30512,55205,30945
30598,55175,30828
30720,55276,30968
30872,55172,30938
30960,55204,30980
31023,55165,30908
31032,55151,31040
31080,55012,30996
31064,55116,31023
31076,55172,30935
30924,55151,31069
30812,55247,31057
30734,55245,31019
30606,55175,31108
30508,55125,31124
30468,55140,31081
30503,55100,31097
30636,55100,31083
30712,55093,31133
30644,55143,31178
30620,55175,31028
30628,55231,31272
30624,55207,31215
30568,55110,31056
30503,55169,31239
30440,55133,31261
30401,55079,31195
30476,55102,31250
30550,55098,31272
30604,55044,31329
30661,55156,31198
30765,55188,31426
30808,55199,31383
30892,55205,31230
30948,55159,31439
30976,54998,31428
30904,55071,31286
30776,55036,31492
30772,55095,31469
30796,55021,31349
30736,55143,31552
30688,55191,31521
30556,55188,31548
30416,55101,31495
30424,55148,31660
30544,55028,31596
30628,55047,31635
30812,55044,31455
31068,55047,31584
31372,55071,31701
31800,55127,31710
32392,55175,31508
32964,55169,31814
33558,55141,31751
34112,55135,31712
34624,54974,31828
35156,55037,31797
35628,55023,31677
35992,55047,31839
36296,54995,31836
36676,55117,31852
37224,55148,31839
37456,55197,31773
37332,55175,31872
36840,55128,31944
35644,55093,31932
34180,55056,31948
32628,54986,31973
31009,54985,31949
29400,55084,31937
28108,55119,32048
27386,55161,32026
27244,55047,31966
27557,55140,31829
28068,55072,32105
28564,55084,32032
28917,55020,31983
29260,54991,31888
29533,54997,31994
29685,54996,32044
29832,55085,32033
29912,55148,32065
29945,55030,32023
29912,55135,31881
29880,55047,32180
29984,55047,32149
30056,54997,32148
30009,54982,32117
30000,55015,32017
29949,54998,32200
29916,55046,32252
29888,55116,32244
29824,55007,32263
29816,55098,32172
29836,55063,32207
29924,54913,32357
29975,54865,32312
30088,54957,32183
30246,54988,32263
30308,54908,32340
30412,55024,32369
30496,55077,32352
30548,55079,32396
30608,55053,32348
30560,55047,32377
30506,54973,32439
30460,54893,32447
30464,54831,32393
30588,54941,32436
30688,54972,32460
30696,54965,32287
30705,55047,32438
30688,54961,32437
30652,55038,32332
30624,54991,32311
30684,54966,32505
30632,54855,32415
30632,54911,32413
30609,54893,32215
30600,54965,32446
30561,54861,32449
30516,55023,32369
30452,55039,32374
30544,54911,32223
30668,54976,32313
30716,54965,32432
30732,54919,32334
30728,54783,32292
30757,54905,32228
30756,54919,32309
30744,54919,32309
30765,55013,32101
30800,54911,32343
30812,54997,32296
30892,54953,32289
30972,54941,32230
31054,54821,32204
31150,54753,32302
31273,54879,32300
31297,54908,32294
31240,54956,32263
31289,54964,32313
31396,54907,32204
31497,54968,32389
31504,54932,32325
31552,54903,32148
31548,54871,32310
31504,54852,32254
31489,54868,32420
31464,54900,32272
31468,54932,32357
31592,54919,32333
31672,54879,32244
31664,54957,32300
31614,54919,32335
31528,54887,32332
31628,54760,32146
31760,54837,32332
31832,54844,32279
31892,54791,32326
31816,54889,32365
31692,54941,32356
31516,54964,32169
31360,54839,32389
31228,54904,32332
31140,54868,32299
31072,54780,32381
30988,54821,32317
30998,54812,32348
31016,54855,32132
31100,54847,32404
31216,54928,32313
31328,54885,32333
31320,54917,32306
31352,54844,32149
31318,54728,32263
31296,54813,32352
31296,54785,32319
31244,54820,32196
31184,54727,32393
31196,54831,32292
31220,54908,32141
31160,54908,32263
31144,54843,32263
31188,54880,32159
31116,54791,32175
31108,54727,32268
31136,54772,32255
31166,54791,32252
31160,54759,32115
31168,54854,32196
31216,54852,32317
31244,54913,32235
31252,54868,32071
31340,54847,32221
31384,54711,32233
31308,54785,32040
31317,54759,32294
31348,54783,32204
31296,54752,32217
31216,54828,32090
31252,54876,32192
31268,54844,32181
31282,54885,32016
31285,54768,32263
31239,54791,32197
31154,54753,32084
31104,54775,32201
31108,54700,32101
31205,54730,32263
31224,54815,32188
31260,54870,32182
31244,54837,32087
31177,54864,32196
31112,54817,32188
31064,54813,32260
31136,54769,32210
31188,54637,32182
31248,54740,32206
31208,54753,32193
31136,54839,32229
31300,54781,32180
31493,54868,32204
31593,54805,32174
31665,54749,32056
31776,54783,32085
31772,54741,32157
31700,54736,32158
31696,54728,32033
31772,54751,32212
31928,54809,32151
32008,54844,32145
32084,54852,32180
32080,54839,32161
32172,54749,32129
32292,54708,32114
32388,54744,32165
32476,54717,32101
32597,54663,32260
32588,54765,32172
32541,54693,32124
32456,54823,32125
32286,54829,32222
32128,54807,32165
32005,54791,32180
31996,54759,32121
31972,54719,32175
31948,54738,32183
32028,54724,32199
32060,54663,32191
32002,54749,32096
31940,54829,32208
32080,54832,32201
32140,54839,32022
32148,54736,32237
32216,54751,32213
32233,54679,32159
32356,54708,32225
32452,54725,32211
32456,54767,32245
32508,54679,32240
32544,54820,32149
32556,54855,32261
32556,54829,32268
32532,54808,32101
32596,54749,32332
32709,54696,32278
32836,54645,32104
32864,54711,32305
32724,54758,32274
32644,54685,32236
32680,54829,32357
32656,54847,32297
32584,54847,32308
32548,54708,32225
32504,54756,32157
32372,54695,32237
32308,54701,32443
32361,54649,32328
32461,54759,32321
32570,54781,32188
32680,54824,32340
32688,54840,32303
32566,54828,32357
32462,54820,32342
32456,54768,32359
32452,54727,32367
32480,54727,32293
32576,54648,32231
32632,54756,32405
32588,54781,32380
32705,54852,32299
32764,54871,32341
32844,54783,32379
32840,54807,32381
32821,54764,32350
32756,54648,32375
32676,54704,32379
32720,54749,32210
32748,54708,32431
32816,54791,32376
32958,54838,32367
33148,54829,32364
33264,54860,32471
33340,54825,32378
33340,54791,32317
33324,54757,32295
33312,54684,32418
33344,54676,32391
33344,54786,32382
33360,54765,32283
33372,54855,32293
33362,54895,32383
33296,54780,32369
33244,54844,32249
33332,54776,32408
33365,54788,32407
33364,54663,32404
33372,54769,32327
33420,54822,32260
33453,54765,32372
33444,54895,32420
33444,54917,32396
33340,54917,32216
33308,54892,32474
33416,54856,32423
33504,54817,32213
33532,54740,32404
33624,54791,32487
33708,54785,32464
33704,54871,32413
33688,54919,32437
33628,54941,32442
33461,54873,32452
33364,54827,32452
33308,54866,32461
33324,54839,32460
33348,54817,32462
33400,54839,32435
33468,54791,32359
33512,54884,32328
33628,54956,32391
33792,54974,32548
33884,54975,32476
33996,54844,32479
34096,54895,32487
34168,54884,32507
34164,54755,32380
34148,54855,32309
34124,54902,32612
34092,54909,32506
34104,54975,32493
34032,54983,32466
33884,55015,32615
33799,54972,32535
33817,54948,32550
33920,54892,32472
33936,54863,32375
33868,54919,32608
33748,54926,32562
33612,54957,32591
33557,55036,32445
33592,54948,32578
33565,55038,32640
33496,55031,32623
33416,54932,32470
33324,54943,32615
33324,54919,32509
33436,54948,32644
33492,54975,32661
33432,54956,32557
33389,55069,32464
33456,55101,32716
33520,55079,32668
33652,55057,32695
33944,55031,32686
34337,54911,32694
34716,54911,32588
35180,54981,32623
35628,55023,32727
36020,55044,32716
36624,55103,32569
37208,55148,32768
37788,55047,32745
38456,55103,32743
39008,55064,32560
39409,55007,32651
39416,55023,32797
39528,55044,32755
39789,55047,32755
40000,55128,32588
39960,55213,32696
39512,55154,32802
38572,55215,32791
37232,55175,32761
35592,55159,32684
33992,55133,32884
32292,55132,32799
31112,55029,32839
30496,55140,32652
30368,55175,32882
30684,55252,32799
31152,55157,32805
31572,55260,32653
32030,55221,32768
32504,55175,32772
32916,55175,32775
33182,55110,32684
33421,55132,32559
33496,55188,32870
33572,55228,32756
33700,55301,32783
33728,55303,32685
33616,55303,32647
33584,55279,32647
33568,55243,32869
33612,55222,32868
33604,55198,32887
33592,55199,32836
33592,55249,32713
33664,55268,32934
33836,55269,32949
34008,55264,32885
34069,55342,32913
34022,55335,32836
34080,55253,32909
34121,55252,33004
34018,55252,32932
33880,55159,32964
33740,55269,32958
33620,55268,32974
33668,55356,32857
33668,55416,32789
33704,55397,32929
33744,55367,32984
33772,55281,32988
33817,55303,32925
33921,55188,32948
34056,55283,32913
34140,55332,32719
34164,55367,32965
34136,55415,32881
34156,55460,32775
34072,55372,32780
34108,55375,32917
34248,55389,32833
34280,55349,32799
34244,55359,32735
34232,55269,32580
34152,55366,32820
34149,55427,32700
34172,55380,32705
34176,55490,32508
34102,55519,32727
34080,55383,32642
34164,55431,32432
34220,55392,32647
34204,55340,32585
34268,55391,32437
34252,55365,32490
34272,55388,32559
34360,55513,32524
34620,55556,32365
34732,55491,32357
34780,55511,32537
34785,55500,32487
34760,55372,32319
34720,55421,32242
34767,55434,32519
34800,55431,32449
34832,55508,32444
34860,55569,32262
34840,55495,32455
34804,55584,32532
34772,55508,32467
34676,55535,32453
34516,55485,32330
34436,55468,32388
34476,55485,32538
34536,55532,32452
34540,55575,32285
34494,55556,32508
34424,55641,32465
34420,55638,32489
34416,55622,32420
34380,55581,32316
34348,55519,32345
34276,55526,32590
34236,55525,32519
34188,55568,32556
34272,55559,32483
34404,55559,32546
34528,55679,32644
34552,55687,32593
34448,55559,32623
34455,55612,32479
34428,55597,32716
34301,55484,32677
34212,55572,32696
34224,55623,32549
34192,55559,32780
34144,55679,32772
34152,55727,32596
34068,55728,32836
34013,55727,32812
34060,55616,32839
34037,55623,32810
33984,55602,32685
34076,55623,32964
34096,55559,32927
34012,55665,32964
33925,55740,32914
33874,55760,32941
33836,55784,33020
33828,55748,33057
33828,55679,32923
33797,55660,33081
33664,55653,33133
33556,55687,33144
33508,55685,33169
33456,55655,33177
33340,55802,33125
33294,55716,33287
33244,55808,33263
33228,55804,33217
33264,55716,33232
33292,55719,33348
33276,55700,33350
33292,55687,33375
33228,55725,33317
33113,55776,33406
33096,55815,33508
33160,55772,33492
33240,55863,33360
33328,55831,33428
33392,55804,33612
33453,55766,33573
33514,55680,33609
33532,55684,33560
33560,55776,33501
33544,55815,33799
33576,55845,33732
33632,55791,33599
33660,55884,33671
33600,55801,33687
33616,55815,33821
33632,55810,33892
33644,55776,33893
33748,55757,33881
33844,55791,33896
33780,55844,33909
33732,55919,33934
33676,55881,33948
33568,55919,33969
33516,55853,33846
33485,55815,33807
33420,55815,34081
33380,55815,34095
33380,55799,34062
33352,55837,34094
33348,55856,34015
33336,55941,34055
33312,55933,34183
33356,55956,34189
33452,55943,34183
33564,55800,34068
33480,55865,34214
33412,55853,34317
33376,55744,34289
33329,55865,34298
33344,55905,34265
33428,55890,34164
33596,55988,34308
33641,55999,34362
33648,55935,34484
33733,55917,34415
33764,55911,34452
33704,55791,34378
33628,55871,34405
33488,55900,34605
33292,55933,34521
33328,55993,34541
33388,55956,34567
33376,56007,34473
33344,55988,34693
33340,55970,34615
33380,55911,34625
33428,55880,34661
33592,55908,34549
33660,55860,34784
33604,55956,34708
33536,56016,34740
33520,56039,34656
33440,55980,34589
33441,56023,34871
33488,55972,34884
33560,55932,34823
33584,55919,34857
33637,55801,34735
33752,55941,34948
33805,55981,34918
33812,55927,34917
33728,56041,34905
33604,56039,34836
33500,56033,34764
33376,55999,34959
33244,55836,34997
33172,55913,35004
33202,55855,35016
33284,55952,35039
33326,55886,35058
33392,56029,35073
33396,56033,34990
33324,56065,34920
33377,56000,34985
33432,55999,35188
33436,55956,35130
33453,55951,35156
33552,55933,35176
33648,55980,35089
33708,56005,35124
33776,55983,35077
33676,55989,35053
33512,56071,35039
33438,56071,35051
33380,56019,35149
33300,55924,35366
33268,55846,35381
33262,55943,35368
33340,55999,35335
33356,55919,35349
33428,56053,35207
33492,56101,35494
33516,56068,35385
33440,56068,35261
33320,55975,35444
33280,55983,35434
33312,55943,35445
33433,55969,35388
33536,55940,35495
33594,56024,35503
33708,56049,35452
33768,56119,35385
33709,56103,35599
33621,56084,35610
33624,55981,35619
33696,55989,35503
33700,55933,35689
33752,55893,35647
33832,55996,35662
33866,56039,35612
33844,56004,35705
33808,56103,35719
33860,56104,35628
33852,56071,35588
33788,55993,35724
33768,55943,35805
33684,55975,35814
33580,55991,35684
33468,55895,35824
33420,56033,35864
33488,56071,35860
33564,56045,35888
33572,56096,35924
33544,56012,35925
33484,55951,35821
33376,55967,35928
33236,55925,35991
33222,55960,36009
33308,55933,35887
33404,55932,36176
33409,56032,36092
33432,56018,36069
33432,56093,36044
33556,56084,35945
33672,56032,36198
33756,55980,36159
33728,55989,36002
33710,55957,36324
33780,55967,36201
33788,56023,36219
33828,56071,36132
33812,56031,36291
33724,56101,36285
33676,56064,36231
33688,56004,36304
33632,55991,36293
33508,55967,36359
33420,55960,36445
33424,55932,36372
33377,56016,36348
33268,56057,36460
33274,56092,36469
33312,55997,36444
33400,56057,36348
33624,56023,36539
33884,55956,36484
34128,55959,36474
34576,55943,36541
35104,55901,36485
35784,55999,36629
36452,56053,36572
37004,56084,36482
37516,56076,36515
38036,56052,36757
38521,56044,36644
38896,55957,36660
39216,55967,36508
39788,55981,36810
40376,55927,36711
40668,56045,36717
40556,56084,36660
39916,56119,36774
38712,56127,36752
37140,56071,36764
35336,56071,36868
33428,56032,36856
31892,55988,36885
31064,55996,36886
30676,56007,36830
30672,56045,36775
30984,56020,37060
31373,56069,36977
31672,56036,36968
32084,55983,36852
32485,56036,36945
32864,56006,36980
33048,55909,36999
33110,55943,36837
33128,55924,37133
33125,56000,37070
33184,56060,37033
33228,56005,37073
33212,56069,36937
33150,56065,37116
33153,55932,37245
33164,55965,37135
33180,55951,37156
33304,55815,37127
33440,55951,37108
33493,55999,37335
33492,55908,37230
33544,56052,37233
33559,56068,37199
33564,55975,37212
33520,55980,37324
33448,55943,37333
33332,55815,37213
33264,55911,37447
33156,55909,37394
33080,55890,37269
33048,55992,37333
33140,56039,37493
33182,56028,37551
33332,56021,37496
33445,55903,37459
33484,55924,37444
33368,55892,37336
33260,55871,37405
33182,55909,37407
33044,55932,37383
32908,55935,37359
32796,55997,37376
32620,55927,37461
32608,55960,37584
32796,55937,37653
33061,55886,37653
33296,55853,37653
33444,55840,37591
33480,55884,37564
33472,55909,37544
33524,55895,37537
33724,55969,37564
33913,55991,37524
33952,55943,37469
33998,55912,37708
34136,55841,37599
34176,55759,37588
34224,55815,37605
34223,55861,37614
34124,55879,37632
34030,55815,37665
34116,55940,37679
34176,55972,37698
34172,55884,37653
34166,55871,37880
34168,55741,37796
34102,55800,37791
34088,55783,37728
34041,55815,37872
34036,55843,37862
34036,55911,37872
34156,55924,38036
34240,55931,37929
34260,55847,37801
34268,55815,38100
34223,55751,37976
34192,55782,38009
34185,55756,38005
34159,55733,37940
34010,55815,38185
33876,55871,38107
33752,55792,38137
33696,55895,38047
33692,55879,38177
33760,55815,38305
33724,55788,38188
33644,55664,38199
33676,55742,38223
33648,55783,38241
33680,55799,38407
33660,55815,38269
33640,55871,38285
33592,55877,38224
33572,55829,38297
33592,55812,38466
33624,55764,38460
33516,55635,38525
33460,55721,38544
33444,55738,38565
33460,55768,38559
33528,55815,38492
33592,55839,38406
33616,55769,38343
33636,55806,38381
33696,55791,38441
33760,55728,38492
33768,55700,38495
33752,55607,38499
33712,55711,38489
33661,55751,38503
33649,55679,38501
33676,55812,38407
33689,55815,38453
33692,55768,38532
33628,55740,38617
33628,55716,38593
33712,55669,38535
33820,55677,38617
33776,55661,38644
33648,55716,38529
33536,55684,38486
33512,55772,38474
33424,55788,38481
33344,55772,38528
33424,55716,38602
33492,55655,38596
33532,55623,38524
33573,55628,38460
33548,55632,38477
33440,55607,38457
33208,55720,38447
33084,55764,38468
32956,55751,38450
32960,55717,38415
33032,55709,38423
33165,55534,38449
33272,55611,38437
33380,55527,38344
33472,55607,38406
33548,55583,38531
33600,55683,38391
33648,55708,38373
33709,55742,38397
33716,55597,38305
33792,55655,38279
33844,55628,38249
33756,55584,38205
33680,55559,38324
33620,55588,38437
33652,55632,38324
33728,55683,38257
33756,55604,38271
33600,55681,38144
33384,55636,38169
33188,55623,38116
33052,55592,38160
32948,55455,38141
32968,55535,38112
33032,55527,38172
33208,55581,38149
33325,55631,38151
33412,55549,38140
33420,55649,38127
33444,55605,38097
33464,55588,38102
33545,55551,38105
33664,55523,37965
33736,55515,37961
33814,55447,37952
33881,55543,37945
33866,55505,37997
33992,55635,38033
34112,55616,38023
34112,55596,38017
34136,55495,38004
34192,55515,37972
34264,55407,37980
34372,55463,37964
34436,55471,37948
34416,55509,37920
34353,55493,37910
34352,55492,37894
34360,55580,37877
34288,55568,37878
34180,55516,37868
34080,55502,37871
33876,55446,37962
33756,55445,37980
33664,55420,37847
33489,55476,37791
33300,55529,37768
33165,55554,37772
33112,55549,37796
33176,55463,37848
33276,55487,37764
33368,55397,37713
33400,55409,37685
33512,55357,37678
33532,55303,37646
33436,55404,37663
33340,55383,37700
33288,55495,37688
33265,55428,37719
33264,55484,37684
33268,55469,37604
33284,55340,37552
33256,55368,37511
33282,55383,37484
33340,55372,37471
33456,55407,37444
33520,55469,37447
33537,55408,37446
33520,55455,37420
33440,55431,37363
33473,55421,37317
33500,55361,37263
33560,55362,37213
33648,55333,37180
33724,55337,37240
33773,55333,37173
33799,55398,37186
33748,55457,37144
33656,55447,37116
33576,55416,37085
33424,55328,37084
33300,55340,37127
33253,55292,37204
33216,55260,37141
33256,55303,37314
33300,55340,37214
33372,55388,37160
33468,55341,37110
33572,55417,37074
33620,55385,37081
33654,55364,37108
33705,55303,37133
33696,55205,37124
33768,55156,37145
33840,55278,37064
33928,55327,36941
33972,55351,37045
33948,55303,36937
33848,55287,36885
33700,55366,36801
33541,55337,36803
33446,55271,36804
33308,55205,36880
33252,55229,36807
33200,55175,36751
33156,55265,36780
33148,55303,36844
33172,55341,36751
33181,55364,36740
33208,55231,36700
33273,55289,36612
33420,55263,36580
33544,55149,36517
33620,55197,36589
33580,55215,36613
33516,55151,36712
33392,55291,36608
33316,55322,36583
33232,55303,36573
33016,55293,36565
32816,55215,36560
32764,55209,36465
32740,55175,36448
32792,55173,36357
32768,55175,36416
32804,55214,36326
32934,55247,36315
33016,55256,36306
33008,55175,36316
33010,55255,36359
33140,55233,36401
33340,55175,36407
33568,55151,36388
34000,55032,36335
34472,55151,36282
34984,55175,36224
35508,55164,36197
36064,55257,36205
36580,55208,36140
37040,55237,36161
37692,55188,36256
38456,55156,36356
39160,55133,36276
39684,55127,36213
40116,55047,36196
40660,55167,36174
41191,55207,36036
41400,55264,36055
41212,55188,36063
40360,55244,36141
39092,55228,36216
37420,55148,36112
35360,55140,36064
33292,55120,36069
31768,55081,36060
30716,55176,36040
30108,55095,35924
30032,55224,35861
30240,55255,35877
30576,55168,35943
31060,55175,36068
31508,55127,35948
31896,55112,35896
32188,55095,35884
32364,55047,35844
32432,55116,35847
32486,55068,35684
32548,55204,35681
32562,55213,35638
32528,55135,35648
32494,55127,35631
32424,55012,35670
32364,55063,35732
32321,54957,35740
32244,55028,35732
32228,55001,35733
32248,55128,35726
32350,55095,35704
32409,55077,35685
32484,55148,35684
32639,55085,35708
32672,55069,35703
32568,55012,35671
32526,55037,35666
32529,55036,35652
32612,54990,35665
32728,55020,35655
32872,55124,35667
32828,55160,35719
32746,55028,35655
32740,55087,35633
32840,55047,35660
32904,54959,35583
32992,54984,35548
33120,54965,35520
33176,54990,35526
33277,55047,35526
33448,55047,35468
33540,55116,35436
33517,55101,35404
33436,54991,35356
33344,55004,35335
33244,54996,35328
33212,54871,35268
33284,54975,35221
33292,55023,35184
33248,55047,35052
33164,55081,35020
33008,55100,35104
32880,55033,35121
32908,55047,35076
33049,54991,35069
33077,54965,35036
33020,54959,34935
32980,54959,34823
33032,54980,35040
33064,55015,34983
33124,55078,34904
33164,55023,34908
33156,55047,34865
33084,54944,34808
33004,54900,34709
32900,54941,34647
32815,54932,34620
32804,54876,34642
32832,54964,34679
32824,55021,34589
32804,54991,34568
32772,55047,34685
32740,55016,34740
32864,54981,34717
32988,54959,34665
33062,54887,34606
33210,54901,34614
33304,54919,34518
33310,54942,34772
33292,54985,34736
33228,54999,34673
33097,55029,34668
32996,55029,34676
32956,54908,34671
32949,54933,34684
32964,54901,34702
33012,54877,34700
33089,54884,34708
33104,54820,34705
33108,54951,34700
33108,54959,34717
33052,55021,34714
33008,54995,34710
32868,54956,34721
32860,54940,34728
32868,54774,34760
32885,54845,34780
32928,54828,34813
32945,54903,34817
32944,54953,34889
32968,54976,34652
32952,55007,34644
32901,54942,34750
32821,54932,34780
32809,54919,34789
32837,54857,34791
32908,54860,34815
32964,54863,34881
33016,54909,34873
33026,54928,34901
33064,54989,34730
33056,54991,34645
33047,54968,34695
32917,54933,34740
32784,54908,34766
32744,54845,34820
32805,54854,34821
32816,54765,34813
32720,54870,34800
32620,54943,34804
32596,54876,34784
32568,54967,34817
32504,54975,34792
32420,54919,34791
32438,54868,34783
32375,54772,34783
32360,54829,34804
32236,54863,34801
32172,54877,34841
32116,54823,34863
32180,54865,34860
32288,54919,34847
32288,54909,34836
32292,54877,34757
32288,54768,34796
32236,54837,34823
32180,54828,34820
32118,54833,34719
32128,54861,34686
32145,54916,34685
32156,54933,34680
32248,54862,34631
32288,54839,34574
32280,54893,34484
32240,54864,34460
32208,54815,34455
32192,54759,34477
32080,54820,34431
31969,54847,34409
31872,54873,34388
31784,54949,34422
31788,54927,34471
31780,54877,34369
31813,54831,34332
31876,54845,34325
31916,54809,34575
31976,54791,34479
32072,54745,34460
32100,54852,34452
32086,54868,34405
32085,54911,34284
32120,54912,34321
32082,54913,34244
32100,54772,34500
32208,54829,34400
32196,54784,34392
32182,54791,34311
32140,54777,34197
32084,54828,34166
31981,54854,34176
31940,54911,34151
31904,54919,34273
31933,54845,34428
31952,54833,34321
31964,54820,34288
31994,54772,34281
31988,54781,34154
31924,54669,34108
31880,54791,34125
31972,54855,34268
32156,54805,34240
32279,54908,34207
32396,54879,34204
32508,54852,34191
32565,54813,34192
32504,54770,34100
32496,54773,33994
32488,54773,34025
32464,54807,34108
32469,54828,34212
32496,54871,34100
32352,54858,34076
32100,54863,34060
31956,54863,34047
31913,54687,33961
31936,54751,33848
31921,54752,34097
31892,54677,33980
31973,54781,33977
32108,54840,33834
32216,54768,33927
32280,54877,33948
32288,54847,33933
32389,54839,33729
32494,54717,34016
32429,54750,33905
32180,54750,33885
32078,54660,33711
32044,54761,33828
31968,54823,33904
31940,54754,33844
31928,54877,33792
31836,54852,33649
31860,54820,33781
31944,54768,33900
31873,54749,33817
31788,54613,33812
31784,54728,33654
31752,54773,33722
31780,54791,33901
31928,54789,33868
32048,54804,33799
32028,54839,33649
32126,54791,33676
32161,54774,33880
32189,54729,33761
32164,54708,33740
32056,54730,33612
31956,54745,33716
31892,54789,33772
31893,54847,33764
31872,54857,33559
31852,54816,33759
31892,54741,33689
31948,54761,33572
31960,54724,33741
31968,54653,33701
32052,54663,33632
32080,54738,33701
32076,54780,33525
32044,54791,33783
31944,54840,33673
31800,54725,33652
31788,54781,33606
31844,54693,33657
31848,54609,33657
31965,54687,33604
32173,54711,33477
32188,54693,33727
32096,54663,33639
31956,54791,33439
31857,54808,33722
31716,54815,33615
31576,54681,33412
31496,54738,33717
31376,54633,33604
31332,54687,33489
31480,54676,33580
31692,54725,33588
31840,54759,33504
31993,54730,33569
32115,54813,33591
32220,54709,33605
32256,54661,33420
32285,54708,33697
32298,54660,33605
32213,54655,33612
32113,54695,33534
32048,54695,33495
32064,54727,33672
32168,54777,33644
32148,54671,33537
32116,54776,33712
32148,54724,33648
32236,54695,33509
32480,54600,33763
32653,54631,33669
32912,54600,33583
33196,54679,33663
33560,54716,33727
34060,54663,33696
34560,54768,33639
35012,54724,33577
35589,54738,33719
36384,54596,33612
37212,54645,33860
37858,54599,33744
38375,54629,33708
38888,54633,33713
39648,54710,33766
40418,54764,33620
40760,54785,33868
40712,54724,33779
40176,54745,33732
39072,54663,33676
37428,54676,33830
35604,54645,33820
33712,54657,33777
31926,54701,33648
30616,54679,33844
29792,54661,33861
29324,54781,33838
29280,54773,33807
29500,54620,33661
29877,54693,33716
30240,54589,33865
30592,54631,33906
30884,54535,33860
31196,54655,33834
31429,54716,33842
31664,54744,33669
31856,54751,33895
31948,54752,33852
32036,54604,33825
31948,54656,33815
31849,54640,33877
31728,54599,33865
31617,54604,33833
31524,54649,33732
31460,54663,34005
31413,54653,33895
31316,54736,33796
31349,54629,33996
31544,54684,33921
31637,54639,33844
31621,54613,33897
31604,54511,33958
31676,54587,33937
31704,54613,33928
31708,54663,33964
31726,54676,33888
31788,54692,34008
31876,54695,33988
31968,54663,33933
32058,54631,34113
32184,54582,33984
32236,54518,34103
32304,54561,33999
32248,54584,33834
32216,54621,34031
32276,54681,33977
32288,54708,33780
32148,54616,33956
32008,54631,33959
31960,54590,33796
31944,54557,34015
32012,54437,33936
32104,54535,33941
32132,54567,33764
32180,54602,33740
32288,54588,34004
32441,54656,33913
32484,54661,33788
32617,54608,33839
32756,54511,33927
32716,54462,33892
32732,54511,33781
32831,54516,33952
32852,54535,33902
32798,54576,33917
32808,54623,33732
32764,54654,34013
32636,54532,33912
32572,54598,33766
32401,54534,34037
32313,54519,33956
32404,54404,33815
32576,54496,34096
32812,54495,33996
33064,54559,34022
33240,54597,33917
33316,54600,34113
33252,54598,34110
33040,54585,34044
32872,54529,34212
32664,54468,34183
32500,54482,34064
32412,54423,34238
32420,54500,34191
32372,54553,34206
32276,54473,34363
32164,54588,34320
32272,54583,34436
32332,54535,34439
32352,54522,34290
32472,54468,34580
32600,54405,34529
32716,54463,34407
32705,54470,34708
32564,54511,34647
32532,54463,34607
32528,54566,34564
32476,54567,34884
32544,54527,34855
32572,54492,34841
32472,54352,34703
32356,54421,34902
32261,54420,34956
32236,54463,34850
32202,54413,34999
32212,54528,35023
32228,54461,34950
32172,54545,35108
32128,54519,34977
32212,54473,35148
32268,54329,35020
32285,54279,35236
32232,54407,35114
32088,54429,35334
31924,54468,35185
31860,54500,35311
31893,54524,35279
31940,54535,35309
32032,54383,35425
32108,54440,35392
32124,54343,35335
31937,54383,35479
31748,54380,35459
31597,54431,35481
31512,54445,35487
31517,54453,35376
31526,54407,35581
31489,54484,35561
31448,54487,35581
31484,54319,35422
31540,54364,35663
31584,54356,35617
31622,54369,35500
31592,54373,35524
31652,54431,35636
31736,54471,35761
31897,54380,35767
31936,54468,35673
31900,54432,35692
31856,54384,35679
31726,54375,35697
31592,54324,35724
31560,54264,35619
31480,54301,35847
31448,54407,35734
31436,54444,35646
31412,54460,35784
31452,54444,35752
31578,54404,35652
31628,54331,35890
31644,54334,35775
31744,54310,35772
31804,54335,35748
31782,54319,35604
31852,54372,35845
31884,54407,35735
31798,54439,35693
31596,54374,35568
31520,54407,35857
31504,54328,35751
31509,54324,35680
31577,54279,35681
31724,54266,35695
31860,54350,35687
31860,54351,35671
31828,54380,35591
31840,54389,35544
31820,54421,35652
31822,54279,35639
31860,54342,35488
31860,54279,35748
31801,54255,35605
31876,54278,35504
31892,54199,35446
31904,54327,35696
31877,54377,35581
31700,54407,35580
31612,54265,35401
31528,54343,35652
31476,54293,35532
31496,54277,35417
31616,54244,35645
31884,54149,35504
32000,54191,35589
32152,54254,35508
32220,54339,35333
32216,54369,35615
32012,54248,35485
31772,54269,35553
31533,54272,35441
31367,54207,35300
31325,54196,35548
31420,54111,35428
31556,54240,35264
31589,54292,35500
31629,54319,35380
31660,54336,35273
31780,54269,35212
31804,54279,35472
31796,54268,35348
31848,54228,35301
31886,54189,35325
31944,54183,35301
31864,54197,35159
31492,54222,35375
31164,54279,35287
31084,54302,35194
31129,54311,35284
31264,54180,35321
31516,54225,35266
31768,54196,35143
31901,54071,35281
32000,54071,35221
31960,54185,35223
31744,54188,35116
31536,54276,35237
31424,54278,35311
31284,54279,35206
31296,54263,35096
31469,54116,35260
31648,54156,35191
31760,54127,35154
31929,54080,35252
32044,54180,35167
32058,54092,35120
32024,54229,35221
31964,54248,35166
31824,54252,35034
31588,54215,35156
31382,54191,35145
31409,54132,35063
31489,54001,35087
31660,54014,35132
31736,54141,35057
31656,54172,35112
31686,54167,35126
31769,54249,35103
31820,54188,34948
31896,54119,35132
31880,54151,35123
31848,54095,34983
31664,54097,35076
31592,54087,35180
31524,54113,35061
31420,54109,35044
31348,54113,34934
31388,54189,35196
31424,54215,35061
31424,54071,35052
31429,54121,34876
31524,54087,35143
31536,54041,35012
31528,54007,34932
31488,54080,35100
31480,54116,35029
31495,54158,34897
31456,54205,35022
31385,54065,34975
31456,54127,35096
31536,54086,35002
31580,54045,34866
31620,54016,34989
31640,54023,34893
31625,54065,35069
31644,54103,34968
31696,54143,34831
31704,54158,34985
31532,54048,34931
31400,54106,35012
31260,54072,34952
31084,54023,34889
30904,54023,34820
30844,53917,35069
30980,54013,34920
31136,54055,34806
31180,54117,35048
31248,54004,34915
31200,54096,34823
31136,54073,35002
31172,54051,34891
31392,53935,34820
31668,53969,34823
32124,53961,34855
32697,53965,34700
33349,54037,34879
34028,53975,34846
34624,54087,34703
35310,54076,34823
36230,54020,34718
37108,54023,34764
37964,53936,34759
38533,53948,34724
39160,53964,34567
39824,53984,34816
40248,54020,34673
40416,54100,34641
40184,54071,34564
39200,54119,34629
37742,54069,34614
35764,54055,34512
33656,53895,34532
31416,53965,34607
29720,53964,34545
28800,54000,34372
28408,53933,34476
28474,54055,34463
28824,54079,34410
29156,54087,34239
29520,54040,34506
29914,53997,34343
30228,53871,34208
30444,53950,34373
30764,53839,34264
30929,53948,34301
30908,53991,34209
30848,54012,34023
30724,54053,34167
30572,54023,34081
30412,54003,34008
30336,53964,34055
30336,53927,34025
30336,53853,33876
30365,53893,34000
30236,53913,33961
30142,53909,33852
30102,53983,33725
30124,53956,33983
30152,53932,33837
30193,53972,33767
30312,53889,33743
30388,53815,33804
30416,53848,33721
30457,53869,33668
30436,53812,33588
30332,53909,33704
30132,53943,33609
30053,53997,33439
30112,53879,33661
30212,53949,33493
30348,53895,33321
30592,53852,33407
30592,53837,33293
30476,53816,33180
30440,53756,33301
30472,53877,33220
30488,53869,33027
30492,53965,33220
30400,53876,33052
30350,53908,32894
30420,53892,33069
30480,53836,32900
30416,53721,32789
30449,53813,32903
30524,53799,32625
30616,53863,32720
30688,53900,32492
30736,53927,32598
30724,53908,32511
30752,53895,32398
30805,53871,32404
30748,53789,32330
30693,53782,32313
30680,53780,32156
30604,53797,32222
30464,53837,32108
30413,53895,32100
30525,53860,31962
30686,53895,31980
30884,53877,31962
31204,53821,31887
31408,53791,31941
31501,53748,31751
31528,53767,31879
31469,53780,31801
31316,53804,31588
31176,53863,31732
31008,53871,31695
30820,53893,31706
30728,53868,31624
30708,53749,31432
30724,53767,31679
30752,53751,31553
30773,53716,31329
30821,53730,31578
30893,53812,31482
30964,53852,31515
31044,53865,31443
30992,53887,31279
31016,53747,31404
31172,53807,31372
31268,53756,31265
31324,53741,31317
31396,53749,31116
31348,53767,31295
31264,53723,31093
31270,53841,31239
31228,53863,31085
31128,53871,31220
31052,53836,31036
31004,53783,31180
30984,53761,31172
30968,53692,31068
30961,53652,31143
30996,53735,31012
30920,53799,31180
30852,53831,31081
30884,53760,31152
30936,53863,31052
30920,53820,30974
30820,53791,31009
30744,53735,30864
30712,53702,30976
30704,53729,30753
30684,53749,30948
30624,53696,30857
30604,53743,30930
30584,53757,30780
30574,53847,30885
30492,53789,30820
30376,53799,30702
30289,53744,30727
30300,53717,30749
30325,53735,30661
30358,53699,30625
30296,53767,30669
30240,53820,30586
30145,53831,30684
30062,53762,30588
30045,53822,30495
30048,53809,30372
30080,53764,30591
30144,53730,30492
30284,53693,30278
30384,53767,30457
30356,53739,30405
30280,53767,30341
30248,53871,30335
30184,53860,30234
30152,53783,30265
30224,53825,30214
30212,53767,30325
30140,53729,30215
30132,53639,29989
30164,53756,30137
30224,53791,30057
30284,53863,30172
30324,53857,30076
30384,53817,30108
30436,53847,30026
30432,53817,29812
30382,53788,29981
30268,53766,29946
30267,53639,29900
30272,53767,29882
30200,53821,29814
30065,53871,29843
30032,53894,29784
29981,53911,29762
29960,53823,29605
29952,53839,29749
30004,53744,29685
30060,53719,29640
30160,53767,29588
30293,53796,29562
30339,53820,29571
30344,53895,29460
30444,53925,29484
30540,53820,29479
30608,53895,29317
30653,53876,29401
30680,53831,29388
30700,53700,29256
30696,53798,29422
30692,53788,29326
30700,53873,29182
30650,53909,29285
30584,53941,29228
30492,53949,29188
30436,53951,29262
30417,53818,29191
30448,53853,29093
30504,53845,29037
30596,53748,29055
30656,53849,29125
30684,53895,29053
30684,53951,29068
30716,53967,28928
30730,53908,29021
30716,53959,28984
30728,53927,28866
30820,53895,29049
30840,53767,28935
30756,53869,28831
30644,53912,28897
30492,53829,28892
30356,53981,28831
30400,54009,28944
30481,53996,28851
30580,54015,28772
30689,53957,28828
30688,53924,28729
30644,53912,28716
30652,53865,28780
30677,53935,28781
30681,53979,28711
30676,54022,28742
30654,53997,28660
30565,54023,28655
30496,54047,28698
30456,54004,28708
30568,53975,28564
30732,53973,28694
30896,53876,28679
30968,53980,28641
30964,54023,28631
30936,54015,28627
30885,54124,28620
30788,54005,28410
30720,54102,28692
30776,54087,28613
30754,53927,28612
30744,54011,28505
30832,54023,28551
30917,53951,28612
30912,54048,28569
30836,54047,28580
30749,54165,28438
30716,54183,28508
30657,54055,28639
30676,54119,28617
30664,54015,28547
30644,54072,28545
30752,54055,28369
30852,54116,28596
30842,54069,28533
30829,54183,28533
30948,54230,28302
31030,54140,28620
31016,54220,28517
30940,54204,28524
30846,54148,28430
30776,54132,28295
30720,54151,28535
30576,54164,28500
30492,54188,28503
30544,54233,28417
30636,54300,28309
30718,54311,28417
30796,54180,28503
30856,54260,28512
30845,54205,28513
30744,54215,28504
30688,54190,28351
30660,54164,28324
30705,54268,28293
30792,54345,28269
30862,54356,28592
30831,54372,28574
30728,54275,28494
30636,54342,28527
30528,54320,28525
30468,54279,28547
30544,54271,28532
30669,54324,28506
30768,54365,28341
30765,54405,28564
30804,54461,28604
30808,54375,28570
30832,54447,28520
30898,54416,28500
30972,54396,28604
31028,54304,28625
31068,54360,28590
31076,54369,28431
31020,54375,28569
30852,54479,28712
30712,54533,28668
30596,54527,28607
30624,54525,28535
30828,54417,28441
31140,54368,28644
31484,54439,28721
31936,54383,28718
32503,54484,28671
33202,54436,28772
33936,54566,28708
34664,54548,28773
35288,54535,28761
35974,54604,28524
36640,54511,28804
37320,54495,28788
37822,54532,28765
38430,54524,28621
39157,54599,28895
39669,54568,28842
39872,54687,28853
39744,54740,28780
38992,54776,28903
37724,54652,28876
36010,54704,28881
34128,54687,28704
32044,54676,28992
30196,54558,28957
29088,54692,28804
28496,54719,28968
28400,54760,28971
28662,54825,29000
28948,54838,28997
29216,54813,28991
29588,54815,29012
29920,54767,28896
30192,54711,28861
30472,54736,28877
30648,54760,29008
30657,54772,29096
30696,54855,29052
30828,54911,29028
30856,54821,28973
30824,54889,29061
30810,54868,29050
30836,54791,28834
30876,54791,29165
30984,54817,29092
31076,54856,29095
31076,54894,29070
31092,54927,28893
30972,54991,29093
30868,54895,29112
30852,54974,29158
30854,54975,29153
30920,54919,29137
31032,54909,29108
31184,54916,29218
31268,54932,29164
31290,54976,29060
31276,55015,28961
31316,55077,29160
31214,54997,29221
31064,55069,29212
30996,55033,29150
31036,54951,29024
31164,54887,29009
31320,54983,29252
31448,55028,29236
31560,55047,29164
31576,55096,29158
31643,55172,29140
31640,55063,29096
31528,55159,28918
31500,55137,29004
31504,55101,29005
31424,55060,29000
31300,54972,29013
31216,55105,29093
31237,55125,29007
31416,55106,29023
31648,55229,28986
31804,55268,28989
31877,55236,28788
32004,55120,28711
32084,55167,28997
32028,55156,28919
32084,55173,28944
32205,55168,28933
32320,55227,28734
32392,55285,28917
32468,55276,28898
32476,55348,28912
32460,55316,28708
32506,55284,28818
32576,55265,28948
32600,55228,28911
32609,55172,28759
32679,55271,28946
32780,55265,28932
32856,55251,28874
33020,55396,28766
33096,55389,28994
33164,55404,28952
33228,55372,28976
33313,55325,28986
33392,55249,28737
33488,55303,29078
33484,55351,29036
33476,55383,28972
33488,55421,29027
33444,55489,29063
33284,55502,29092
33113,55488,28964
33004,55479,28939
32941,55374,29232
32908,55397,29186
32908,55408,29173
33012,55436,29105
33096,55463,29319
33057,55514,29255
33056,55548,29247
33132,55588,29044
33092,55556,29300
33076,55542,29392
33000,55527,29340
32924,55415,29412
32904,55453,29413
33012,55474,29439
33132,55535,29272
33236,55596,29516
33364,55647,29513
33446,55656,29356
33436,55634,29506
33344,55639,29588
33206,55585,29570
33084,55545,29535
32993,55559,29588
32873,55492,29607
32840,55623,29653
32856,55680,29548
32848,55623,29648
32764,55727,29781
32772,55729,29708
32780,55687,29751
32734,55660,29529
32701,55652,29764
32684,55625,29797
32620,55652,29735
32552,55712,29788
32492,55639,29849
32488,55789,29831
32492,55788,29831
32484,55782,29860
32528,55668,29831
32664,55739,29942
32753,55685,29888
32848,55716,29930
32836,55632,29758
32780,55760,29983
32681,55793,29949
32596,55869,29869
32564,55789,29991
32480,55809,29972
32406,55836,29773
32436,55792,29977
32448,55772,29980
32508,55708,30026
32608,55800,30036
32718,55721,29924
32828,55880,30008
32992,55935,30027
33160,55903,30060
33296,55927,29817
33349,55892,30140
33252,55772,30052
33096,55815,30068
32904,55737,30022
32832,55853,29896
32788,55837,30119
32744,55884,30081
32736,55965,30093
32700,56016,29964
32696,55973,30122
32776,55943,30085
32876,55917,30038
32889,55911,30116
32988,55793,30053
33088,55917,30076
33164,55959,29840
33248,56015,30044
33348,55943,30064
33380,56045,29916
33280,56053,30012
33212,55919,30024
33216,55981,30068
33192,55964,30020
33196,55936,29788
33220,55980,30108
33184,56004,30028
33127,55948,29847
33080,56100,30017
33028,56111,30017
33008,56117,29804
33017,56039,30017
33140,56032,30012
33152,56016,30004
33287,55988,29757
33424,56021,30021
33488,56065,29971
33472,56005,29974
33376,56133,29892
33276,56071,29812
33176,56140,29724
33176,56130,30015
33192,55992,29967
33142,56045,29940
33164,56063,29765
33276,55965,29941
33384,56086,29959
33580,56167,29958
33760,56100,29778
33848,56192,29990
33892,56199,29952
33948,56145,29900
34008,56112,29764
34092,56108,30040
34112,56064,29981
34096,56114,29829
34088,56136,30024
33964,56199,29959
33876,56148,29749
33848,56259,30005
33864,56180,29972
33812,56215,29736
33716,56071,30002
33648,56135,29956
33644,56140,29844
33721,56149,29876
33760,56172,29951
33764,56233,29948
33780,56272,29759
33792,56281,29980
33764,56287,29929
33836,56151,29895
33944,56213,29998
33976,56175,29948
33948,56132,29740
33900,56199,29917
33800,56119,29935
33708,56256,29895
33668,56260,30020
33552,56327,29948
33512,56308,29897
33497,56225,29660
33437,56153,30020
33440,56199,29948
33564,56199,29912
33712,56124,29767
33796,56242,30017
33809,56288,29919
33800,56356,29929
33700,56232,29810
33660,56327,29813
33688,56301,29924
33806,56295,29920
33872,56149,29799
33892,56220,29897
33920,56244,29969
33838,56242,29919
33664,56327,29936
33580,56361,29927
33484,56391,29742
33440,56378,30015
33404,56313,29972
33380,56280,29760
33400,56160,30004
33376,56251,29957
33396,56260,29866
33412,56317,29957
33433,56241,29924
33556,56367,29940
33624,56404,29752
33660,56319,29977
33736,56351,29947
33781,56317,29881
33760,56288,29703
33692,56172,30040
33652,56252,29951
33685,56208,29956
33772,56356,29969
33924,56423,29758
33972,56317,30055
33920,56404,30009
33976,56364,29838
34036,56277,30057
34032,56301,30029
33948,56284,30017
33952,56311,29776
33961,56316,30092
34016,56399,30049
34068,56381,30013
34036,56439,29988
33928,56405,30091
33900,56319,30082
33856,56367,29819
33776,56292,30116
33680,56252,30088
33676,56310,30117
33664,56348,30102
33589,56327,30143
33596,56444,29975
33592,56445,30085
33567,56439,30213
33564,56311,30150
33624,56372,30202
33644,56325,30180
33628,56316,30157
33576,56327,30189
33488,56358,30181
33476,56375,30218
33624,56447,30078
33936,56449,29984
34204,56453,30316
34516,56324,30247
34772,56367,30266
35110,56327,30242
35600,56216,30206
36196,56327,30357
36780,56316,30284
37356,56404,30292
37932,56462,30224
38553,56365,30277
39256,56447,30324
39936,56440,30332
40442,56388,30152
40904,56327,30425
41436,56372,30351
41840,56284,30268
41904,56407,30316
41508,56455,30381
40572,56500,30432
39232,56520,30430
37636,56500,30321
35992,56437,30516
34176,56421,30429
32496,56344,30485
31404,56352,30457
31020,56273,30471
31120,56376,30453
31484,56444,30461
31848,56409,30384
32240,56437,30296
32636,56496,30289
33016,56455,30205
33325,56368,30537
33504,56357,30492
33620,56372,30494
33636,56359,30304
33553,56405,30527
33560,56377,30500
33600,56485,30470
33552,56393,30434
33505,56481,30421
33548,56455,30535
33592,56410,30503
33612,56381,30487
33660,56269,30368
33692,56356,30395
33712,56399,30493
33720,56431,30487
33720,56436,30474
33684,56487,30320
33656,56479,30303
33671,56430,30260
33752,56381,30425
33788,56358,30587
33845,56356,30588
33916,56312,30484
33972,56308,30508
33996,56317,30449
34016,56455,30236
34020,56374,30536
33980,56413,30489
33992,56350,30482
34036,56388,30441
34085,56319,30427
34140,56317,30397
34292,56236,30373
34408,56359,30328
34472,56316,30268
34576,56441,30135
34616,56477,30150
34624,56431,30144
34576,56417,30183
34532,56375,30279
34440,56327,30206
34336,56311,30141
34368,56327,30103
34424,56355,30116
34412,56344,30094
34373,56425,30073
34380,56359,30040
34332,56407,30034
34302,56294,29988
34353,56327,29946
34424,56217,29823
34496,56305,29737
34552,56228,29732
34616,56359,29824
34672,56381,29853
34712,56415,29871
34740,56429,29840
34752,56327,29912
34756,56387,29867
34720,56341,29845
34600,56317,29662
34532,56280,29703
34649,56317,29916
34740,56327,29983
34816,56381,30025
34896,56412,29986
35008,56435,29985
35112,56407,29965
35128,56388,30025
35144,56327,30030
35125,56288,30054
35080,56250,30020
35100,56293,30029
35028,56327,30014
34896,56352,30062
34812,56404,30063
34776,56327,30007
34724,56374,30012
34668,56288,29897
34596,56316,29992
34504,56268,29952
34380,56206,30206
34328,56228,30228
34292,56278,30201
34316,56225,30225
34408,56390,30267
34524,56389,30244
34476,56391,30237
34380,56327,30165
34376,56312,30205
34444,56164,30337
34520,56229,30349
34596,56237,30292
34548,56268,30265
34516,56303,30268
34552,56358,30485
34437,56295,30425
34256,56359,30441
34080,56317,30396
34062,56295,30398
34096,56152,30480
34073,56135,30516
34016,56239,30561
33961,56280,30605
33892,56291,30567
33864,56359,30542
33896,56327,30588
33920,56324,30599
33912,56220,30489
33880,56252,30369
33748,56180,30706
33633,56204,30630
33612,56229,30649
33560,56245,30561
33440,56234,30422
33332,56233,30763
33308,56325,30706
33324,56327,30700
33352,56282,30541
33405,56262,30452
33489,56197,30740
33624,56189,30736
33728,56196,30740
33792,56180,30553
33792,56260,30820
33798,56293,30754
33840,56303,30632
33881,56301,30720
33888,56262,30756
33904,56233,30788
33924,56180,30756
33908,56061,30645
33880,56103,30823
33846,56188,30786
33776,56246,30805
33728,56271,30637
33676,56288,30880
33608,56295,30821
33552,56236,30710
33520,56199,30880
33520,56169,30813
33568,56044,30695
33584,56140,30790
33665,56165,30813
33652,56223,30744
33600,56255,30596
33656,56276,30859
33734,56188,30791
33744,56204,30787
33800,56137,30788
33861,56126,30634
33820,56135,30801
33804,56113,30770
33772,56111,30628
33669,56199,30833
33620,56221,30727
33624,56228,30741
33556,56164,30644
33457,56192,30727
33404,56145,30700
33300,56061,30708
33184,56087,30544
33138,56092,30676
33096,56128,30690
33021,56142,30694
33045,56197,30575
33128,56220,30468
33188,56182,30716
33261,56153,30644
33336,56129,30676
33304,56007,30604
33272,56052,30506
33312,56069,30408
33392,56109,30644
33460,56120,30642
33504,56167,30602
33504,56186,30404
33464,56053,30695
33449,56133,30588
33489,56103,30612
33384,55937,30469
33312,56016,30636
33372,55927,30623
33492,56039,30607
33564,56093,30596
33672,56143,30489
33748,56132,30549
33696,56050,30588
33648,56103,30582
33632,56071,30605
33560,56021,30583
33517,55988,30528
33508,56013,30359
33500,55951,30583
33486,56071,30572
33516,56064,30541
33492,56071,30431
33338,56108,30406
33127,56008,30598
33068,55928,30591
33016,55983,30569
32992,55965,30541
33056,55972,30535
33208,56012,30581
33328,56020,30573
33460,56095,30572
33532,56100,30564
33460,56093,30555
33484,55959,30450
33532,56005,30322
33536,55983,30453
33541,55865,30553
33524,55943,30536
33472,55975,30469
33444,56007,30399
33424,55980,30295
33332,56053,30535
33225,56039,30519
33233,55973,30505
33296,55981,30476
33304,55864,30259
33312,55908,30488
33380,55902,30470
33480,55967,30492
33525,55961,30332
33604,56020,30375
33634,56020,30355
33660,55996,30544
33684,55865,30476
33796,55921,30503
33904,55860,30484
33944,55862,30479
33904,55887,30333
33876,55888,30423
33854,55916,30537
33888,55991,30481
33828,55895,30493
33692,55968,30344
33700,55948,30276
33736,55899,30453
33728,55867,30513
33781,55839,30513
33900,55812,30503
33988,55879,30463
33949,55799,30405
33952,55927,30543
33980,55972,30476
33952,55932,30506
33916,55892,30412
33932,55871,30265
33920,55711,30476
33936,55772,30518
33948,55815,30504
33828,55812,30493
33716,55868,30480
33740,55892,30455
33824,55868,30284
33902,55804,30516
34016,55864,30564
34174,55815,30519
34257,55780,30524
34232,55639,30532
34248,55744,30452
34196,55778,30353
34106,55802,30460
34044,55877,30583
33984,55865,30544
33860,55863,30525
33772,55725,30540
33680,55776,30436
33608,55687,30527
33561,55730,30516
33632,55704,30558
33672,55736,30532
33712,55780,30390
33856,55712,30594
33901,55815,30581
33860,55815,30581
33748,55776,30564
33744,55756,30577
33708,55648,30494
33664,55644,30428
33685,55669,30487
33728,55696,30656
33768,55738,30561
33832,55765,30580
33901,55801,30564
33880,55776,30485
33877,55720,30590
33957,55719,30588
34068,55653,30607
34124,55572,30516
34200,55543,30417
34264,55655,30634
34196,55706,30648
34052,55700,30548
33960,55750,30586
33908,55732,30653
33920,55687,30497
33956,55624,30668
34020,55615,30642
33968,55604,30660
33952,55488,30608
33916,55613,30567
33872,55664,30760
33868,55680,30665
33813,55687,30701
33614,55700,30479
33416,55557,30725
33368,55604,30713
33408,55559,30596
33448,55521,30501
33485,55524,30741
33502,55559,30735
33548,55623,30700
33572,55639,30688
33644,55661,30742
33656,55661,30768
33728,55559,30704
33836,55559,30527
33892,55532,30855
33996,55398,30790
34078,55496,30681
34169,55520,30816
34176,55506,30809
34232,55549,30564
34236,55618,30847
34254,55599,30831
34352,55559,30709
34368,55540,30885
34325,55383,30828
34277,55452,30807
34292,55477,30652
34264,55385,30871
34260,55506,30877
34220,55558,30815
34204,55468,30779
34156,55557,30928
34172,55540,30915
34236,55464,30916
34320,55431,30800
34400,55403,30681
34388,55405,31000
34300,55328,31004
34172,55460,30922
34108,55511,30960
34016,55453,30784
33924,55497,31048
33852,55487,30981
33772,55425,30981
33773,55388,30948
33784,55380,31020
33796,55261,31017
33818,55383,30936
33840,55348,30795
33904,55389,31108
33993,55468,31070
33984,55452,30922
33876,55431,31137
33791,55324,31077
33720,55349,30962
33656,55303,31000
33588,55332,31111
33484,55248,31113
33320,55365,31069
33192,55404,30945
33148,55452,31160
33144,55418,31140
33288,55364,31132
33530,55342,30911
33792,55292,31201
34000,55271,31112
34388,55287,31148
34876,55296,31106
35500,55248,31140
36204,55366,31157
36920,55396,31025
37568,55372,31101
38233,55248,31135
38932,55292,31156
39445,55252,31064
39904,55248,31165
40440,55172,31196
40976,55276,31188
41216,55303,31080
41113,55265,31132
40580,55365,31263
39468,55361,31264
38117,55341,31193
36640,55290,31104
35124,55228,31313
33460,55105,31375
31892,55231,31308
30833,55252,31319
30608,55183,31324
30840,55303,31212
31218,55328,31217
31614,55269,31279
32057,55276,31209
32380,55188,31220
32586,55165,31365
32650,55164,31302
32752,55148,31285
32784,55175,31292
32764,55175,31092
32772,55268,31367
32733,55268,31310
32660,55250,31309
32664,55245,31205
32634,55069,31236
32620,55140,31304
32596,55071,31269
32580,55047,31272
32544,55127,31124
32504,55156,31324
32504,55204,31232
32537,55128,31239
32544,55197,31170
32604,55191,31069
32736,55124,31170
32944,55061,31290
33080,55015,31233
33164,55047,31248
33140,55092,31239
33128,55047,31116
33151,55132,31167
33180,55079,31284
33220,55143,31185
33348,55125,31193
33516,55007,30928
33640,55028,31140
33734,54972,31130
33857,54985,31089
33848,55023,30926
33817,55036,31067
33852,55060,30983
33908,55111,30996
33924,55108,30957
33944,55076,30983
33925,54965,30895
33968,54981,30892
34016,54892,30681
33980,54973,30844
33908,54983,30823
33896,54908,30733
33960,55037,30775
34016,55047,30787
34024,55071,30785
34016,55012,30765
34068,54973,30655
34076,54908,30610
34024,54889,30714
34036,54913,30758
34064,54849,30700
34076,54951,30674
34048,55004,30537
34050,55010,30663
34036,54945,30676
34032,54926,30696
34041,54903,30657
34012,54791,30598
33950,54849,30481
33904,54868,30628
33880,54877,30752
33812,54919,30735
33768,54940,30719
33804,54980,30720
33856,54950,30812
33948,54934,30750
34092,54876,30734
34192,54767,30744
34180,54791,30780
34117,54708,30807
33976,54836,30806
33816,54852,30832
33800,54903,30853
33852,54825,30748
33846,54901,30865
33833,54791,30952
33848,54855,30949
33864,54791,31029
33816,54749,30983
33800,54687,31004
33756,54766,30920
33720,54743,30956
33656,54836,31116
33572,54773,31174
33422,54807,31212
33348,54837,31140
33432,54791,31175
33508,54740,31204
33456,54724,31223
33488,54696,31177
33532,54724,31180
33548,54759,31192
33516,54820,31164
33520,54817,31202
33472,54716,31209
33408,54773,31192
33272,54701,31329
33152,54694,31448
33048,54637,31526
32992,54656,31487
32962,54693,31486
33016,54719,31485
33066,54708,31511
33097,54781,31556
33036,54727,31521
32948,54644,31406
32868,54692,31559
32754,54663,31688
32708,54623,31617
32718,54557,31554
32729,54578,31552
32644,54673,31743
32576,54639,31686
32533,54672,31699
32556,54724,31673
32612,54703,31698
32645,54663,31704
32748,54623,31727
32748,54583,31665
32720,54591,31595
32799,54601,31546
32700,54644,31766
32576,54663,31809
32532,54716,31751
32408,54687,31785
32344,54663,31709
32340,54606,31717
32312,54572,31660
32284,54535,31713
32300,54525,31901
32252,54557,31829
32352,54519,31801
32433,54644,31812
32500,54663,31821
32528,54621,31696
32544,54519,31771
32609,54559,31908
32708,54527,31805
32724,54485,31826
32748,54399,31812
32756,54500,31693
32812,54453,31666
32932,54596,31644
32990,54599,31761
32926,54623,31866
32900,54565,31879
32949,54492,31818
32953,54460,31852
32940,54349,31799
32928,54453,31771
32836,54477,31790
32740,54492,31783
32660,54556,31773
32637,54560,31748
32568,54535,31687
32576,54521,31732
32608,54436,31621
32613,54389,31649
32668,54311,31824
32864,54399,31810
33088,54332,31808
33192,54455,31694
33220,54407,31717
33280,54463,31716
33216,54511,31700
33096,54496,31639
32972,54445,31632
32865,54404,31644
32777,54365,31640
32725,54383,31597
32720,54389,31568
32716,54312,31647
32660,54445,31614
32616,54493,31532
32545,54471,31469
32516,54461,31600
32536,54397,31662
32602,54271,31764
32584,54221,31744
32584,54279,31725
32532,54279,31744
32444,54364,31596
32408,54429,31495
32377,54445,31672
32236,54428,31760
32144,54420,31760
32120,54351,31709
32104,54265,31691
32156,54188,31700
32304,54276,31665
32444,54316,31519
32588,54335,31716
32684,54324,31688
32671,54397,31719
32548,54407,31715
32476,54359,31684
32464,54308,31628
32496,54258,31561
32521,54151,31643
32544,54247,31825
32620,54272,31742
32624,54279,31732
32509,54330,31729
32448,54356,31616
32413,54371,31624
32424,54319,31780
32484,54199,31750
32472,54140,31688
32352,54191,31541
32304,54213,31799
32284,54213,31727
32264,54255,31685
32236,54237,31565
32316,54316,31831
32364,54321,31733
32333,54278,31748
32272,54216,31748
32180,54192,31697
32132,54181,31592
32204,54167,31561
32304,54191,31718
32300,54197,31732
32284,54257,31816
32300,54279,31836
32262,54276,31751
32208,54263,31751
32108,54197,31765
32068,54141,31647
32048,54119,31711
32085,54020,31846
32124,54108,31766
32152,54180,31765
32184,54137,31780
32200,54188,31783
32264,54140,31665
32356,54183,31714
32428,54069,31811
32421,54135,31791
32428,54095,31741
32472,54064,31795
32570,54036,31801
32620,54140,31791
32676,54191,31725
32749,54096,31806
32671,54188,31803
32620,54077,31693
32564,54119,31811
32568,54084,31816
32685,54068,31797
32776,54047,31783
32808,54071,31812
32816,54112,31823
32824,54141,31660
32816,54175,31724
32624,54151,31862
32492,54087,31885
32432,54095,31812
32364,54013,31822
32324,54004,31676
32408,54013,31863
32428,53981,31832
32480,54052,31879
32512,54075,31822
32489,54043,31820
32384,54135,31819
32264,54087,31813
32176,54052,31800
32120,53999,31657
32080,53951,31644
32000,53927,31708
31900,53909,31790
31860,54037,31878
31876,54068,31885
31928,54113,31793
31988,54095,31793
32040,54009,31802
32088,54018,31786
32164,53948,31629
32188,53888,31587
32236,53927,31848
32304,53895,31790
32292,53919,31790
32260,54036,31668
32285,54079,31652
32316,54047,31871
32384,54043,31781
32432,53976,31780
32504,53846,31744
32540,53927,31708
32540,53909,31620
32560,53895,31568
32544,53957,31796
32560,54005,31804
32648,54023,31772
32660,54023,31697
32696,53989,31607
32772,53952,31805
32844,53895,31764
32836,53767,31781
32842,53863,31728
32856,53799,31601
32820,53888,31574
32796,53908,31703
32804,53969,31876
32760,53919,31751
32722,53956,31767
32752,53921,31596
32752,53868,31790
32688,53836,31769
32617,53806,31747
32504,53861,31585
32437,53888,31767
32444,53943,31761
32448,53869,31781
32358,53952,31769
32320,53940,31771
32293,53885,31660
32296,53847,31646
32257,53815,31738
32292,53818,31833
32352,53755,31757
32398,53863,31773
32384,53895,31751
32452,53908,31767
32430,53919,31670
32372,53908,31554
32356,53853,31852
32368,53819,31740
32380,53760,31775
32396,53767,31573
32464,53783,31789
32456,53861,31748
32448,53791,31687
32444,53885,31682
32441,53847,31844
32484,53860,31759
32528,53824,31633
32548,53767,31772
32493,53748,31767
32441,53745,31743
32454,53762,31745
32416,53804,31591
32316,53762,31811
32236,53856,31737
32176,53880,31748
32192,53733,31588
32112,53799,31784
32016,53767,31746
31988,53616,31558
32096,53712,31808
32204,53750,31751
32300,53677,31588
32300,53805,31822
32360,53855,31744
32378,53813,31732
32376,53791,31634
32416,53767,31787
32428,53731,31751
32348,53676,31622
32360,53620,31671
32365,53704,31855
32360,53639,31764
32340,53767,31759
32348,53817,31607
32240,53804,31824
32092,53740,31777
32000,53679,31703
31920,53698,31669
31829,53676,31846
31756,53639,31799
31784,53684,31778
31844,53705,31791
31856,53748,31641
31932,53677,31672
32048,53767,31860
32261,53688,31779
32476,53703,31797
32708,53567,31777
33064,53620,31710
33496,53620,31685
33920,53639,31836
34392,53695,31877
34932,53629,31773
35548,53734,31773
36144,53753,31709
36736,53720,31589
37312,53623,31814
37664,53599,31777
37908,53608,31573
38356,53614,31854
38844,53649,31775
39012,53673,31785
38732,53730,31601
37996,53748,31744
36844,53767,31876
35572,53749,31824
34132,53639,31716
32628,53648,31853
31032,53633,31852
29841,53615,31748
29277,53510,31822
29388,53649,31805
29800,53712,31842
30256,53639,31792
30617,53711,31796
30944,53711,31652
31264,53652,31732
31536,53549,31776
31668,53535,31751
31768,53573,31647
31828,53593,31751
31888,53599,31663
31884,53667,31807
31868,53703,31781
31752,53681,31751
31596,53652,31613
31512,53623,31661
31408,53589,31816
31296,53557,31702
31220,53432,31695
31236,53559,31558
31324,53601,31539
31460,53604,31639
31592,53671,31639
31672,53660,31520
31660,53628,31653
31633,53572,31623
31624,53503,31583
31588,53511,31524
31564,53500,31623
31600,53416,31596
31616,53540,31603
31637,53541,31455
31684,53615,31659
31640,53636,31551
31647,53498,31516
31713,53549,31420
31880,53455,31299
31892,53485,31508
31881,53484,31476
31876,53493,31369
31856,53497,31352
31876,53485,31221
31960,53604,31153
31980,53607,31284
32000,53569,31212
31960,53543,31194
31980,53485,31137
32028,53453,30952
32125,53345,31069
32168,53477,31156
32189,53501,31026
32200,53543,31005
32208,53511,30938
32176,53556,30886
32172,53503,30927
32237,53497,30765
32256,53444,30960
32268,53447,30873
32320,53337,30706
32308,53437,30855
32229,53486,30796
32228,53409,30669
32284,53549,30777
32293,53545,30761
32268,53417,30612
32260,53476,30661
32304,53447,30726
32373,53383,30661
32460,53396,30505
32512,53439,30790
32489,53447,30697
32552,53469,30617
32632,53532,30749
32685,53485,30678
32680,53485,30458
32678,53464,30646
32632,53413,30497
32600,53327,30668
32672,53371,30656
32704,53415,30621
32644,53420,30647
32608,53457,30663
32664,53455,30513
32688,53500,30734
32672,53477,30639
32628,53397,30586
32592,53396,30700
32556,53358,30655
32484,53364,30580
32374,53367,30645
32304,53377,30649
32245,53359,30656
32240,53464,30503
32172,53487,30668
32112,53373,30655
32112,53343,30471
32112,53287,30727
32050,53328,30673
31928,53348,30552
31858,53351,30684
31796,53393,30661
31725,53412,30672
31718,53457,30541
31724,53359,30666
31768,53428,30662
31772,53404,30659
31764,53255,30572
31720,53319,30653
31708,53325,30669
31684,53247,30500
31672,53351,30684
31734,53349,30652
31820,53447,30648
31816,53351,30557
31808,53404,30669
31816,53351,30661
31744,53319,30536
31600,53284,30484
31644,53317,30748
31736,53307,30684
31825,53343,30657
31872,53373,30639
31880,53431,30636
31817,53417,30557
31713,53373,30671
31662,53271,30630
31708,53308,30639
31663,53292,30621
31648,53261,30446
31648,53311,30628
31704,53326,30703
31782,53375,30605
31904,53383,30575
31896,53412,30484
31792,53364,30479
31700,53325,30417
31732,53312,30543
31690,53252,30693
31668,53244,30637
31696,53255,30605
31708,53247,30600
31732,53340,30524
31892,53380,30463
32068,53383,30586
32212,53332,30584
32260,53226,30512
32228,53295,30413
32084,53245,30388
31944,53145,30447
31809,53232,30544
31672,53184,30613
31544,53335,30588
31564,53350,30512
31592,53375,30509
31638,53333,30505
31668,53319,30484
31660,53255,30341
31601,53240,30444
31636,53217,30484
31712,53238,30476
31704,53255,30460
31728,53313,30336
31866,53324,30398
31974,53255,30536
31980,53311,30415
31948,53232,30424
31944,53254,30433
31852,53204,30431
31764,53215,30345
31812,53221,30246
31932,53255,30496
32064,53287,30373
32125,53293,30399
32096,53316,30365
32112,53283,30360
32148,53255,30416
32120,53143,30361
32020,53172,30343
31929,53156,30172
31776,53184,30404
31663,53230,30385
31568,53255,30367
31518,53310,30268
31472,53295,30262
31477,53234,30399
31532,53127,30348
31645,53202,30351
31738,53175,30158
31784,53149,30345
31896,53191,30342
31985,53196,30360
32046,53255,30196
32175,53281,30300
32200,53311,30365
32120,53255,30361
32025,53143,30350
31976,53159,30208
31856,53049,30428
31796,53127,30365
31853,53063,30372
31922,53173,30236
32001,53127,30342
32116,53255,30372
32117,53255,30384
32096,53242,30182
32096,53198,30430
32084,53175,30391
32085,53153,30290
32068,53126,30377
32068,53053,30438
32088,53164,30408
32108,53159,30415
32160,53255,30279
32152,53199,30400
32056,53184,30441
32030,53194,30420
32120,53148,30358
32212,53109,30274
32284,53119,30488
32292,53124,30426
32225,53177,30388
32112,53111,30223
32092,53231,30508
32097,53254,30416
32105,53212,30423
32005,53161,30241
31872,53063,30485
31772,53096,30437
31720,53103,30392
31716,53105,30332
31772,53077,30455
31760,53127,30420
31768,53223,30432
31784,53217,30441
31776,53204,30341
31816,53072,30535
31896,53125,30457
31920,53096,30338
31992,53075,30266
32072,53117,30530
32065,53127,30464
31964,53158,30335
31856,53215,30519
31800,53212,30469
31852,53140,30422
31932,53159,30471
32012,53047,30503
32160,53060,30501
32256,53012,30351
32228,53085,30548
32144,53093,30526
32128,53165,30452
32164,53187,30514
32189,53173,30485
32184,53186,30619
32164,53029,30556
32148,53089,30458
32106,53076,30479
32078,53037,30615
32092,53051,30572
32140,53103,30498
32168,53036,30567
32212,53168,30584
32188,53191,30608
32164,53078,30528
32204,53100,30532
32272,52996,30695
32356,53031,30628
32333,53045,30457
32300,52945,30664
32240,53021,30653
32184,53046,30516
32256,53159,30750
32284,53166,30676
32318,53085,30520
32340,53097,30677
32312,53053,30660
32233,53031,30768
32225,52932,30708
32204,53024,30616
32150,53079,30816
32072,53093,30725
32025,53143,30711
31897,53049,30797
31864,53113,30744
31916,53060,30546
31956,53038,30753
31968,52999,30713
32080,52999,30671
32236,52928,30786
32416,53047,30772
32543,53089,30684
32578,53112,30589
32561,53045,30871
32541,53096,30801
32516,53012,30807
32512,53031,30645
32352,52993,30908
32248,52902,30822
32225,52998,30805
32160,53039,30817
32142,52966,30687
32160,53108,30855
32200,53127,30830
32168,53029,30927
32160,53052,30855
32245,52999,30652
32320,52998,30862
32420,52900,30838
32493,52956,30773
32524,52999,30861
32504,53060,30812
32496,53108,30960
32456,53107,30885
32452,53092,30813
32488,53020,30861
32536,52957,30968
32582,52957,30925
32645,52959,30748
32720,52935,30988
32740,53028,30839
32636,53047,30964
32636,53077,30936
32732,53111,30796
32708,52975,30941
32688,53031,30860
32740,52989,30985
32792,52965,30917
32856,52848,30996
32840,52956,30888
32792,52999,31065
32704,53024,30989
32688,53060,30794
32740,53089,31012
32692,52991,30981
32669,52999,30832
32704,52901,31078
32664,52949,31015
32669,52935,30822
32768,52973,31020
32808,52900,31007
32772,53015,30947
32760,53024,31033
32708,53031,31014
32580,53044,31127
32480,52997,31050
32454,52916,30958
32448,52933,31036
32432,52904,31057
32456,52935,30972
32488,52956,31066
32440,53014,30920
32432,53037,31166
32416,53031,31076
32384,52996,31107
32324,52972,30925
32317,52961,31097
32264,52937,31111
32256,52844,31013
32292,52919,31120
32264,52957,31127
32272,52973,31031
32352,52967,31220
32344,53047,31140
32248,53031,31079
32140,52911,31153
32088,52952,31137
32016,52911,31145
32030,52916,31142
32096,52847,31189
32189,52944,31177
32208,52903,31057
32308,53015,31217
32322,53037,31197
32336,53021,31000
32400,52973,31238
32484,52935,31201
32484,52905,31027
32492,52887,31229
32464,52866,31221
32420,52884,31071
32358,52973,31303
32424,52992,31228
32623,53028,31084
32920,52926,31298
33256,52957,31237
33494,52937,31173
33736,52889,31040
34116,52863,31292
34604,52903,31224
35044,52916,31153
35524,52951,31200
36036,52999,31213
36564,52911,31221
37088,52976,31032
37660,52965,31303
38056,52919,31214
38352,52871,31181
38688,52900,31237
39064,52900,31229
39256,52933,31187
39128,52981,31165
38544,52947,31234
37448,53036,31268
36104,53036,31109
34640,52989,31324
33256,52959,31332
31780,52864,31311
30456,52879,31148
29661,52910,31273
29500,52856,31387
29848,52973,31284
30356,53028,31277
30788,53021,31138
31264,53028,31070
31652,52964,31168
31920,52943,31356
31932,52884,31239
31924,52889,31259
31932,52883,31109
31940,52935,31135
31893,52956,31366
31885,53012,31264
31856,52918,31276
31798,52974,31261
31828,52933,31281
31956,52927,31220
32028,52788,31236
32066,52844,31277
32112,52884,31109
32070,52815,31364
32073,52919,31239
32142,52943,31231
32208,52980,31041
32204,52977,31143
32148,52935,31332
32073,52884,31221
32000,52805,31233
31976,52832,31251
32000,52870,31244
32040,52871,31105
32068,52908,31218
32116,52952,31335
32100,52980,31213
32036,52957,31217
31992,52925,31194
31994,52887,31104
31964,52741,31044
32060,52804,31221
32164,52836,31135
32216,52859,31118
32200,52927,31060
32184,52948,30996
32241,52948,30996
32284,52948,31141
32308,52901,31013
32356,52847,30997
32384,52840,30880
32432,52804,30760
32508,52828,31022
32548,52861,30930
32592,52903,30900
32640,52905,30889
32592,52889,30796
32532,52836,30672
32556,52901,30796
32548,52862,30922
32457,52817,30820
32356,52812,30805
32376,52820,30799
32412,52847,30693
32472,52831,30735
32556,52916,30820
32660,52932,30776
32732,52861,30647
32752,52871,30804
32800,52839,30757
32844,52743,30760
32961,52780,30779
33037,52708,30695
33068,52824,30724
33076,52829,30883
33148,52903,30781
33216,52925,30808
33228,52897,30782
33268,52822,30735
33308,52839,30633
33308,52801,30759
33288,52775,30804
33332,52804,30933
33296,52812,30914
33252,52772,30869
33172,52864,30880
33081,52908,30880
32972,52807,30876
32856,52845,30738
32812,52743,30788
32780,52791,30864
32804,52761,30829
32869,52785,30915
32968,52804,30893
33000,52860,31033
33092,52893,31021
33061,52911,30980
32917,52821,30972
32812,52847,30876
32796,52717,30857
32776,52767,30943
32808,52756,31081
32808,52781,31043
32784,52759,31044
32672,52743,30881
32504,52879,31124
32340,52909,31069
32240,52871,31056
32152,52855,30909
32104,52806,30958
32066,52781,31135
32052,52743,31105
32168,52723,31040
32184,52692,30941
32076,52823,31148
32008,52858,31121
32052,52815,30953
32077,52870,31044
32096,52836,31149
32140,52804,31145
32185,52780,31142
32224,52743,30993
32310,52757,31072
32368,52789,31149
32352,52764,31200
32348,52852,31157
32192,52879,31147
31972,52871,30972
31856,52789,31239
31824,52807,31150
31840,52775,31162
31740,52645,31007
31701,52743,31288
31712,52797,31160
31788,52728,31140
31888,52852,31049
31919,52887,31188
31880,52797,31166
31868,52817,31132
31972,52802,31200
31996,52655,31172
32045,52733,31092
32128,52756,31045
32224,52677,31206
32240,52807,31181
32208,52860,31050
32165,52764,31137
32192,52853,31212
32224,52847,31199
32300,52684,31069
32409,52735,31217
32516,52737,31205
32533,52640,31180
32526,52772,30988
32504,52785,31213
32524,52781,31157
32500,52868,31021
32444,52780,31083
32432,52812,31153
32497,52767,31204
32508,52743,31140
32504,52721,31017
32480,52720,31124
32372,52767,31138
32229,52796,31140
32164,52816,30993
32117,52804,31116
32086,52833,31118
32104,52781,31089
32116,52780,31193
32109,52741,31120
32128,52709,30980
32240,52737,31137
32257,52652,31119
32172,52780,31119
32100,52845,30988
31993,52743,31140
31880,52853,31162
31808,52781,31111
31896,52765,31115
32032,52736,30948
32117,52697,31204
32177,52682,31126
32164,52669,31044
32216,52791,31098
32293,52808,31116
32324,52847,31079
32292,52823,31103
32270,52795,31133
32236,52767,30983
32140,52711,31246
32104,52697,31134
32084,52726,31141
32076,52671,31036
32081,52773,31169
32085,52804,31086
32166,52836,31204
32196,52743,31152
32236,52783,31236
32296,52732,31163
32224,52725,30999
32088,52700,31236
32096,52679,31160
32114,52679,31177
32112,52690,31186
32148,52815,31184
32212,52829,31017
32260,52832,31220
32333,52689,31205
32456,52743,31103
32556,52716,31197
32628,52639,31169
32712,52698,31222
32805,52725,31232
32828,52765,31063
32724,52728,31333
32584,52817,31220
32468,52829,31212
32472,52781,31044
32548,52727,31255
32592,52708,31189
32645,52679,31189
32696,52662,31225
32708,52645,31228
32664,52743,31212
32692,52783,31239
32724,52805,31207
32664,52741,31246
32676,52756,31238
32648,52719,31176
32581,52692,31274
32544,52684,31271
32596,52596,31122
32613,52711,31380
32560,52762,31263
32500,52799,31277
32400,52793,31135
32300,52742,31196
32308,52764,31360
32384,52743,31276
32416,52601,31165
32416,52671,31348
32456,52679,31284
32496,52676,31356
32580,52743,31303
32656,52694,31409
32680,52716,31304
32632,52788,31112
32588,52743,31388
32621,52729,31313
32688,52701,31132
32752,52588,31412
32817,52665,31334
32836,52688,31172
32828,52743,31318
32772,52679,31327
32746,52788,31300
32652,52799,31272
32600,52684,31325
32586,52717,31186
32560,52681,31351
32548,52647,31193
32644,52663,31347
32669,52639,31351
32617,52743,31283
32528,52703,31357
32472,52783,31366
32456,52777,31189
32512,52743,31404
32606,52702,31359
32710,52667,31341
32720,52657,31257
32736,52612,31367
32804,52596,31228
32804,52708,31440
32808,52765,31372
32831,52764,31239
32826,52783,31455
32804,52692,31380
32840,52703,31328
32852,52660,31285
32788,52655,31470
32712,52644,31396
32648,52691,31273
32594,52660,31503
32584,52765,31415
32660,52777,31260
32644,52783,31410
32620,52743,31420
32640,52615,31237
32640,52653,31449
32696,52632,31406
32704,52623,31400
32677,52687,31422
32640,52703,31428
32664,52740,31287
32652,52791,31516
32526,52772,31425
32436,52639,31352
32410,52696,31460
32390,52640,31440
32352,52644,31385
32380,52652,31462
32400,52636,31332
32316,52704,31501
32229,52736,31447
32164,52783,31321
32164,52672,31571
32199,52728,31477
32288,52679,31289
32376,52662,31491
32388,52644,31414
32456,52540,31596
32496,52660,31484
32456,52671,31373
32432,52743,31604
32548,52743,31493
32704,52764,31385
32852,52716,31623
32912,52672,31519
32884,52588,31334
32796,52639,31597
32748,52633,31509
32656,52655,31444
32460,52655,31652
32310,52734,31532
32276,52743,31427
32264,52743,31632
32352,52704,31547
32508,52699,31560
32688,52647,31494
32824,52612,31476
32886,52644,31609
32833,52556,31573
32900,52687,31462
33032,52743,31604
33102,52743,31673
33072,52671,31695
33058,52615,31596
32976,52671,31615
32836,52652,31477
32716,52528,31516
32736,52612,31700
32775,52662,31623
32774,52680,31599
32808,52716,31447
32800,52743,31664
32761,52671,31641
32668,52710,31597
32648,52680,31494
32706,52639,31485
32724,52615,31770
32809,52511,31697
32928,52615,31657
33053,52699,31617
33144,52717,31498
33160,52732,31780
33104,52743,31698
33016,52615,31581
32992,52668,31556
32952,52643,31804
32924,52511,31801
32928,52572,31765
32880,52606,31714
32828,52682,31734
32840,52719,31724
32924,52743,31736
32892,52727,31748
32824,52714,31749
32860,52655,31634
32878,52629,31660
32749,52598,31785
32736,52532,31812
32880,52573,31790
33120,52675,31772
33380,52695,31645
33637,52738,31735
33888,52724,31877
34304,52644,31785
34804,52558,31778
35292,52609,31705
35788,52550,31620
36372,52502,31740
36952,52615,31917
37500,52673,31784
38000,52700,31804
38296,52708,31680
38520,52730,31743
38860,52704,31908
39268,52679,31818
39488,52612,31825
39236,52615,31656
38421,52608,31844
37196,52671,31844
35752,52692,31860
34204,52740,31812
32636,52775,31783
31084,52676,31891
29976,52716,31893
29528,52679,31724
29708,52660,32000
30161,52517,31872
30700,52605,31876
31208,52663,31814
31612,52679,31688
31956,52725,31884
32172,52743,31855
32208,52658,31772
32184,52711,31850
32148,52668,31829
32152,52615,31887
32132,52613,31884
32101,52605,31868
32030,52630,31833
32072,52679,32032
32132,52704,31964
32226,52724,31964
32192,52714,31931
32152,52589,31913
32109,52657,32030
32144,52557,31943
32250,52516,31927
32352,52597,31773
32408,52637,31901
32436,52653,31988
32500,52696,31934
32572,52741,31949
32604,52717,31797
32513,52708,31815
32396,52637,32097
32368,52605,31986
32365,52606,32004
32336,52591,31844
32245,52615,32116
32192,52605,32010
32172,52704,31805
32172,52615,32097
32208,52708,31973
32248,52692,31912
32329,52615,31791
32392,52551,31805
32417,52483,32036
32484,52575,31940
32526,52614,31912
32552,52537,31711
32544,52673,31959
32564,52704,31850
32460,52708,31674
32380,52685,31887
32369,52631,31831
32436,52548,31641
32525,52576,31865
32621,52572,31796
32664,52591,31605
32616,52612,31777
32646,52665,31776
32768,52623,31640
32860,52686,31751
32888,52645,31675
32984,52637,31660
33052,52487,31853
33132,52536,31771
33216,52564,31745
33228,52608,31748
33200,52636,31745
33181,52665,31629
33225,52648,31796
33192,52615,31764
33180,52655,31716
33240,52615,31615
33260,52525,31893
33308,52550,31812
33384,52565,31813
33512,52591,31694
33620,52629,31741
33752,52679,31862
33868,52692,31841
33868,52676,31791
33844,52661,31878
33880,52631,31865
33944,52567,31721
33932,52543,32004
33904,52472,31916
33816,52583,31920
33644,52601,31897
33500,52615,31995
33456,52668,31965
33412,52694,31884
33348,52647,32022
33292,52604,31981
33260,52585,31837
33212,52441,32057
33201,52543,31956
33186,52566,32006
33160,52589,32029
33104,52676,31852
33068,52596,32065
33040,52667,32069
32992,52660,31946
32993,52532,32095
33008,52567,32068
32992,52524,31903
32968,52557,32084
32885,52479,31988
32868,52603,32209
32844,52647,32089
32908,52609,32003
32836,52668,32231
32792,52652,32111
32748,52607,32007
32664,52557,32144
32540,52548,32128
32540,52536,32143
32485,52564,32012
32352,52613,32237
32244,52647,32129
32204,52625,32119
32236,52615,32020
32244,52636,32263
32300,52615,32143
32324,52537,32002
32300,52527,32253
32284,52525,32160
32360,52520,32175
32424,52596,32012
32432,52639,32208
32464,52671,32167
32388,52581,32111
32260,52637,32199
32196,52597,32185
32204,52548,32121
32200,52548,32006
32224,52549,32194
32317,52472,32125
32304,52585,32002
32276,52647,32279
32200,52647,32196
32124,52663,32207
32149,52608,32076
32268,52505,32036
32364,52564,32297
32390,52541,32229
32396,52487,32223
32444,52464,32049
32408,52580,32319
32348,52621,32229
32320,52679,32097
32256,52564,32165
32160,52636,32225
32016,52583,32223
31868,52570,32032
31716,52517,32192
31732,52484,32252
31804,52461,32184
31872,52576,32159
31952,52597,32024
32044,52602,32247
32096,52659,32162
32052,52573,32169
32062,52552,32112
32065,52551,32012
32100,52521,32228
32192,52539,32166
32192,52542,32096
32148,52572,32034
32092,52628,32220
32073,52557,32164
32048,52661,32172
32111,52639,32031
32125,52537,32281
32121,52548,32160
32184,52520,32054
32229,52517,32277
32222,52501,32174
32220,52588,31986
32236,52620,32215
32260,52667,32189
32296,52559,32180
32392,52615,32004
32478,52588,32284
32452,52567,32173
32470,52526,32170
32533,52539,32016
32544,52540,32124
32504,52575,32188
32436,52636,32194
32516,52572,32014
32532,52649,32191
32492,52613,32178
32540,52597,32041
32593,52449,32130
32532,52516,32211
32553,52471,32184
32609,52463,32196
32612,52580,32149
32541,52639,32116
32469,52540,32036
32393,52645,32208
32384,52599,32185
32392,52564,32162
32480,52453,32080
32541,52513,32197
32562,52527,32198
32525,52429,32060
32528,52575,32135
32564,52625,32224
32592,52548,32213
32572,52636,32078
32522,52558,32111
32505,52573,32320
32464,52465,32228
32334,52515,32199
32300,52525,32213
32318,52534,32100
32334,52575,32150
32301,52629,32279
32264,52567,32198
32157,52647,32136
32052,52636,32172
32025,52584,32277
32044,52476,32208
32065,52480,32191
32108,52504,32113
32161,52541,32207
32255,52587,32181
32430,52540,32085
32596,52645,32239
32636,52649,32218
32628,52608,32071
32644,52583,32229
32684,52557,32199
32612,52444,32204
32536,52509,32036
32512,52544,32332
32488,52481,32209
32496,52612,32192
32504,52663,32094
32448,52655,32217
32456,52519,32205
32493,52588,32180
32528,52547,32205
32548,52532,32089
32548,52412,32340
32568,52535,32215
32584,52581,32225
32556,52615,32040
32552,52641,32287
32513,52545,32225
32488,52615,32212
32492,52604,32079
32536,52551,32350
32592,52503,32212
32670,52484,32125
32772,52548,32046
32808,52575,32277
32772,52615,32217
32708,52639,32215
32604,52607,32237
32536,52631,32209
32500,52598,32143
32476,52546,32084
32404,52452,32073
32292,52505,32071
32265,52548,32304
32260,52589,32303
32280,52564,32228
32384,52615,32159
32412,52661,32263
32373,52615,32231
32396,52615,32229
32426,52461,32205
32496,52520,32252
32572,52519,32258
32548,52564,32117
32488,52577,32074
32484,52633,32281
32553,52567,32288
32600,52671,32248
32621,52561,32231
32644,52604,32092
32661,52576,32233
32601,52524,32319
32560,52461,32284
32560,52454,32285
32536,52583,32221
32516,52647,32124
32541,52668,32223
32512,52676,32349
32476,52645,32292
32430,52577,32316
32428,52472,32260
32364,52532,32149
32332,52544,32422
32384,52461,32303
32405,52591,32321
32416,52644,32188
32473,52597,32143
32476,52676,32444
32500,52629,32330
32616,52527,32212
32764,52573,32273
32832,52551,32448
32848,52543,32320
32768,52553,32209
32660,52511,32169
32584,52647,32476
32556,52680,32354
32436,52676,32287
32337,52660,32296
32304,52615,32386
32381,52508,32388
32509,52551,32204
32628,52540,32386
32720,52589,32383
32824,52519,32359
32921,52647,32391
33005,52693,32392
32992,52615,32236
33016,52676,32465
33076,52645,32404
33092,52604,32412
33040,52553,32429
33034,52544,32383
33020,52596,32364
32944,52615,32511
32940,52670,32439
33008,52605,32437
32960,52690,32324
32764,52665,32455
32584,52647,32492
32504,52615,32468
32449,52540,32416
32465,52554,32404
32576,52601,32540
32600,52653,32492
32608,52685,32439
32620,52677,32460
32612,52636,32519
32616,52695,32535
32632,52676,32375
32588,52615,32617
32508,52604,32556
32504,52545,32384
32520,52613,32700
32516,52605,32574
32512,52692,32525
32492,52735,32596
32487,52674,32628
32544,52712,32598
32657,52668,32640
32657,52645,32513
32532,52517,32775
32461,52604,32666
32536,52633,32679
32608,52644,32592
32636,52653,32548
32772,52671,32784
32924,52724,32708
33092,52708,32735
33320,52677,32693
33600,52607,32572
33972,52615,32764
34436,52628,32756
34984,52532,32767
35589,52654,32623
36140,52709,32620
36668,52743,32919
37216,52711,32807
37732,52732,32708
38160,52688,32845
38328,52688,32839
38428,52644,32692
38808,52641,32916
39140,52607,32900
39200,52713,32878
38788,52772,32827
37856,52801,32757
36508,52773,32829
34908,52799,33056
33345,52743,33030
31756,52728,32993
30492,52583,32887
29768,52680,32932
29708,52722,33134
30041,52633,33034
30520,52780,33031
30980,52719,33057
31368,52820,32912
31768,52808,33044
32088,52767,33189
32284,52743,33116
32380,52615,33061
32472,52692,33117
32436,52655,33141
32352,52743,33164
32312,52804,33196
32348,52845,33231
32300,52829,33156
32368,52831,33129
32406,52700,33334
32508,52741,33343
32550,52725,33373
32546,52709,33373
32520,52743,33320
32414,52761,33276
32376,52732,33293
32441,52836,33287
32532,52743,33423
32622,52822,33589
32656,52775,33501
32724,52740,33540
32796,52732,33557
32840,52735,33603
32877,52743,33625
32872,52801,33655
32802,52817,33641
32792,52784,33669
32764,52829,33671
32804,52743,33628
32804,52805,33569
32768,52775,33676
32769,52737,33854
32800,52743,33822
32785,52764,33788
32752,52800,33761
32720,52831,33757
32700,52887,33697
32644,52884,33656
32572,52855,33841
32576,52847,33783
32506,52710,33648
32460,52756,33860
32528,52742,33814
32572,52671,33733
32588,52810,33772
32536,52870,33828
32508,52797,33836
32512,52901,33685
32520,52911,33809
32596,52847,33975
32664,52837,33868
32732,52781,33855
32824,52795,33885
32926,52789,33908
33012,52839,33791
33097,52871,33799
33216,52924,34055
33224,52924,33957
33117,52903,33959
33028,52860,33870
32948,52839,34073
32860,52799,34045
32888,52789,33961
33000,52821,33964
33188,52772,34165
33376,52909,34188
33505,52927,34143
33480,52943,34183
33404,52825,34079
33439,52885,34284
33556,52825,34255
33552,52803,34104
33544,52816,34421
33524,52830,34311
33452,52881,34229
33396,52933,34351
33404,52881,34396
33500,52957,34252
33534,52952,34455
33572,52903,34460
33644,52858,34367
33624,52861,34621
33581,52743,34508
33460,52861,34452
33288,52839,34671
33132,52877,34591
33012,52975,34566
32865,52991,34644
32776,52884,34663
32777,52932,34663
32748,52895,34762
32668,52839,34729
32613,52853,34747
32616,52894,34708
32588,52812,34838
32516,52949,34837
32448,53020,34806
32409,52999,35025
32342,52888,34900
32336,52956,34836
32416,52913,35076
32429,52895,34967
32472,52871,34992
32560,52908,34951
32613,52900,34924
32676,52975,35173
32708,52996,35109
32717,53023,35092
32668,52966,35124
32612,52983,34998
32448,52929,35271
32185,52924,35155
32064,52839,35117
31988,52917,35207
31924,52916,35220
31873,52999,35261
31905,53020,35132
31844,53031,35406
31812,53039,35285
31772,52996,35188
31724,52981,35318
31672,52910,35249
31697,52925,35503
31792,52936,35364
31864,52900,35391
31864,53031,35402
31820,53079,35449
31772,53013,35460
31704,53063,35324
31680,52999,35536
31744,52900,35536
31736,52957,35497
31717,52961,35436
31764,52916,35564
31789,52999,35528
31792,53029,35463
31878,53061,35708
31940,53103,35560
31948,53060,35519
32085,53062,35734
32240,52999,35620
32332,52991,35630
32488,52924,35548
32556,52997,35692
32538,53028,35613
32522,53085,35526
32576,53063,35738
32586,53116,35628
32552,53119,35547
32533,53076,35599
32548,53055,35667
32500,52943,35652
32448,52990,35648
32412,53017,35675
32336,53063,35615
32356,52999,35681
32494,53143,35660
32557,53156,35625
32520,53124,35757
32516,53078,35705
32536,52999,35589
32540,53027,35838
32576,53020,35684
32612,52999,35644
32640,53095,35753
32652,53125,35700
32729,53151,35835
32688,53159,35741
32616,53159,35573
32588,53070,35724
32512,53065,35748
32476,53071,35709
32468,52997,35737
32436,53053,35692
32360,53084,35800
32393,53140,35750
32472,53127,35704
32488,53191,35864
32520,53156,35728
32608,53085,35847
32660,53127,35796
32652,53068,35719
32640,53055,35924
32612,53084,35828
32524,53021,35688
32436,53156,35882
32356,53195,35855
32360,53223,35776
32372,53189,35972
32432,53159,35885
32436,53127,35749
32444,53095,35935
32492,53084,35904
32492,53100,35867
32437,53127,35900
32404,53111,35812
32460,53230,36006
32516,53116,35947
32472,53215,35831
32497,53169,35996
32508,53148,35969
32492,53087,35980
32484,53093,35983
32464,53119,35929
32508,53134,36060
32520,53191,36053
32524,53244,36012
32448,53247,35884
32340,53229,36138
32212,53212,36000
32108,53159,36023
32004,53121,35893
32028,53127,36111
32190,53148,36030
32280,53159,35984
32340,53204,36095
32396,53240,36039
32428,53268,35923
32448,53237,36075
32476,53213,36048
32556,53192,36050
32588,53076,35997
32568,53127,36145
32560,53116,36070
32533,53198,36060
32516,53224,36103
32612,53233,36077
32660,53292,36007
32604,53172,36096
32484,53228,36004
32428,53188,36132
32300,53159,36071
32230,53164,36072
32304,53157,36198
32288,53180,36103
32205,53248,36004
32224,53183,36160
32216,53285,36110
32208,53293,36012
32172,53247,36142
32164,53211,36149
32176,53191,36158
32269,53086,36103
32352,53181,36167
32376,53225,36165
32332,53223,36116
32304,53292,36185
32276,53297,36144
32280,53278,36036
32289,53173,36252
32332,53234,36151
32364,53196,36089
32404,53093,36309
32458,53188,36165
32517,53226,36086
32576,53289,36204
32552,53301,36164
32480,53239,36150
32416,53232,36192
32492,53276,36178
32641,53216,36180
32704,53215,36190
32752,53124,36245
32864,53215,36180
32956,53255,36207
33022,53240,36177
33024,53319,36069
33068,53325,36335
33018,53343,36216
32972,53276,36192
33012,53244,36197
33016,53228,36133
32974,53216,36286
32988,53127,36204
32948,53255,36239
32880,53293,36125
32860,53255,36301
32832,53365,36303
32824,53237,36252
32796,53311,36160
32792,53252,36223
32804,53191,36391
32820,53223,36288
32844,53229,36241
32848,53287,36265
32736,53308,36141
32544,53372,36359
32432,53255,36284
32392,53349,36276
32324,53319,36240
32324,53248,36287
32320,53255,36209
32277,53199,36388
32224,53252,36272
32230,53273,36249
32313,53320,36281
32542,53383,36321
32724,53380,36346
32789,53359,36246
32784,53349,36375
32765,53188,36343
32640,53255,36292
32568,53254,36484
32580,53191,36397
32512,53288,36369
32408,53343,36395
32352,53343,36280
32340,53359,36352
32368,53311,36521
32421,53320,36420
32524,53255,36413
32644,53255,36373
32782,53271,36359
32944,53255,36536
32972,53308,36474
32892,53359,36365
32796,53309,36460
32724,53413,36621
32696,53393,36487
32781,53253,36508
32885,53311,36420
32914,53221,36605
32900,53272,36518
32868,53229,36543
32822,53240,36487
32700,53356,36601
32684,53383,36601
32812,53431,36594
33112,53293,36472
33532,53355,36681
34016,53349,36608
34400,53295,36612
34762,53208,36636
35144,53204,36524
35616,53325,36734
36204,53377,36637
36732,53397,36631
37336,53424,36660
37989,53404,36535
38604,53368,36783
39048,53359,36644
39320,53292,36632
39764,53285,36663
40284,53252,36797
40557,53352,36711
40556,53383,36692
39892,53444,36736
38648,53487,36711
36872,53447,36676
34952,53428,36644
33140,53383,36773
31577,53337,36880
30472,53328,36764
29904,53332,36804
29920,53383,36734
30266,53407,36885
30652,53447,36861
31004,53456,36807
31340,53446,36676
31664,53417,36796
31964,53404,36908
32202,53343,36785
32316,53340,36777
32376,53255,36804
32380,53375,36765
32304,53420,36783
32324,53444,36897
32340,53479,36871
32296,53404,36871
32320,53383,36871
32372,53293,36806
32336,53335,36972
32309,53319,36988
32351,53341,36902
32388,53380,36938
32400,53411,36823
32476,53433,37028
32621,53469,36919
32664,53447,36947
32620,53437,36951
32640,53375,36937
32676,53327,36873
32716,53321,37018
32824,53301,36999
32900,53279,36971
32893,53383,36991
32928,53383,37021
32960,53455,36984
32848,53465,36966
32752,53421,37116
32669,53383,37144
32545,53288,37072
32528,53332,37013
32624,53351,37039
32724,53367,36951
32836,53399,37101
32896,53456,37009
32845,53439,37016
32728,53444,36905
32660,53381,37148
32632,53383,37028
32520,53347,36990
32425,53342,37009
32420,53299,36941
32436,53372,36953
32416,53415,36948
32453,53459,37015
32472,53383,36948
32484,53460,36930
32556,53405,37012
32677,53399,36945
32732,53254,36861
32852,53320,37079
33056,53319,36978
33112,53383,36865
33036,53372,37007
32968,53447,36996
33012,53453,36952
33064,53468,36984
33092,53396,36949
33144,53375,37063
33077,53357,37004
32945,53329,37041
32956,53356,36998
32980,53375,36964
33036,53380,37231
33145,53360,37124
33168,53475,37116
33124,53463,37159
33152,53415,37129
33181,53383,37316
33232,53358,37213
33328,53332,37249
33470,53348,37233
33497,53255,37271
33425,53404,37373
33377,53455,37335
33339,53461,37393
33288,53439,37331
33296,53373,37407
33256,53383,37574
33164,53356,37496
33084,53243,37485
33032,53325,37524
32988,53383,37576
32937,53341,37559
32940,53453,37593
32900,53479,37548
32932,53382,37732
32957,53423,37645
33092,53383,37653
33236,53334,37600
33316,53322,37804
33380,53276,37704
33328,53373,37749
33268,53348,37693
33136,53460,37824
32944,53474,37758
32740,53407,37814
32632,53437,37858
32576,53377,37911
32516,53327,37819
32429,53317,37845
32348,53343,37772
32232,53376,37948
32085,53383,37972
32092,53444,37891
32164,53365,37903
32240,53404,37821
32316,53357,38053
32372,53377,37943
32388,53313,37909
32288,53327,37895
32268,53264,38080
32264,53367,37972
32284,53396,37966
32308,53460,37876
32340,53456,38121
32328,53460,38021
32434,53415,37964
32606,53368,37975
32704,53337,37975
32656,53332,37907
32584,53336,38116
32452,53337,38133
32352,53396,38006
32312,53465,37996
32263,53465,37934
32156,53448,38093
32096,53415,38124
32188,53365,37980
32232,53348,37911
32304,53327,38097
32396,53349,38111
32468,53367,38045
32484,53405,37950
32544,53431,37957
32508,53477,37920
32332,53455,38102
32272,53383,37940
32252,53287,37927
32208,53287,37948
32216,53231,37904
32244,53325,38024
32268,53365,37935
32248,53393,37908
32240,53447,37911
32177,53452,37871
32088,53404,38052
32096,53308,37882
32152,53358,37895
32088,53345,37808
32136,53318,37976
32344,53340,37989
32576,53313,37892
32697,53372,37895
32824,53445,37809
32884,53447,38037
32876,53436,37941
32836,53413,37869
32768,53295,37916
32740,53247,37857
32728,53306,38049
32705,53329,37895
32792,53349,37924
32832,53373,38004
32844,53428,37925
32848,53428,37939
32828,53453,37920
32868,53383,37836
32932,53343,38045
33072,53247,37917
33096,53303,37943
33064,53300,37895
33012,53327,37830
32976,53383,37944
32948,53415,38015
32828,53437,37928
32656,53417,37894
32576,53372,37888
32548,53343,37895
32549,53230,37869
32637,53303,37917
32820,53292,37895
32945,53247,37936
32980,53361,37973
32984,53405,37990
32912,53401,37924
32862,53405,37876
32800,53383,37828
32804,53341,37825
32871,53292,37841
33040,53255,37834
33169,53255,37791
33176,53303,37788
33124,53375,37700
33156,53383,37877
33180,53423,37860
33072,53397,37740
33008,53341,37772
33036,53237,37721
33074,53281,37639
33105,53228,37876
33056,53255,37772
32924,53315,37700
32796,53254,37711
32648,53380,37652
32493,53413,37698
32376,53333,37809
32412,53337,37686
32632,53237,37644
32860,53274,37676
33017,53271,37591
33066,53234,37621
32992,53279,37703
32908,53241,37783
32777,53359,37708
32668,53284,37670
32624,53367,37616
32669,53255,37617
32720,53301,37633
32696,53223,37621
32677,53245,37628
32704,53148,37620
32636,53196,37604
32584,53304,37591
32548,53372,37545
32528,53380,37556
32504,53316,37622
32508,53233,37745
32624,53281,37593
32736,53255,37582
32752,53228,37609
32721,53205,37562
32700,53216,37546
32656,53281,37578
32672,53353,37694
32620,53304,37559
32556,53348,37548
32568,53317,37564
32684,53268,37495
32816,53236,37465
32852,53216,37580
32856,53247,37668
32788,53152,37535
32764,53293,37560
32695,53220,37503
32700,53351,37527
32826,53248,37525
32992,53233,37529
33188,53184,37492
33268,53223,37468
33300,53205,37583
33372,53111,37613
33304,53207,37552
33160,53174,37476
33016,53300,37517
32944,53349,37476
32764,53316,37399
32652,53292,37508
32624,53143,37607
32668,53199,37476
32648,53199,37507
32652,53188,37439
32720,53215,37620
32722,53255,37493
32712,53284,37511
32780,53316,37497
32817,53228,37468
32804,53255,37640
32800,53255,37485
32808,53185,37516
32832,53183,37476
32812,53173,37553
32768,53213,37644
32724,53228,37497
32652,53255,37527
32680,53207,37468
32672,53284,37429
32632,53253,37517
32621,53213,37652
32656,53191,37503
32692,53140,37498
32704,53167,37527
32624,53172,37428
32592,53214,37509
32572,53200,37660
32608,53255,37511
32644,53273,37509
32749,53127,37444
32984,53184,37578
33196,53143,37652
33268,53127,37492
33260,53140,37490
33184,53159,37511
33092,53213,37479
33076,53247,37436
33020,53194,37521
32956,53254,37508
32884,53196,37500
32788,53175,37473
32716,53037,37457
32768,53109,37468
32912,53127,37396
32960,53135,37444
33026,53184,37508
33137,53216,37604
33220,53255,37476
33316,53127,37444
33472,53181,37441
33708,53100,37452
34060,53109,37396
34500,53103,37361
35036,53084,37369
35709,53127,37348
36292,53151,37420
36948,53143,37480
37700,53216,37564
38336,53124,37549
38844,53183,37532
39324,53089,37495
39924,53116,37517
40620,53085,37492
41040,53116,37548
41240,53126,37541
40960,53116,37503
40012,53212,37532
38352,53164,37565
36284,53194,37543
34136,53205,37493
32088,53124,37468
30552,53116,37529
29496,53013,37511
29100,53084,37466
29214,53021,37398
29476,53116,37336
29821,53096,37339
30320,53207,37319
30789,53200,37300
31288,53085,37300
31668,53060,37286
31884,53093,37277
32000,53076,37278
32164,53063,37253
32192,53052,37273
32072,53118,37287
32012,53061,37279
31984,53175,37284
31944,53092,37221
31908,53165,37244
32028,53105,37216
32192,53015,37216
32272,53037,37238
32369,53036,37231
32356,53085,37213
32277,53088,37175
32104,53101,37151
32032,53159,37092
31992,53084,37072
31912,53127,37073
31908,53052,37063
31964,52996,37044
31968,53025,37021
31976,53015,37188
32092,53037,37104
32160,52989,37072
32152,53101,37063
32132,53088,37076
32137,53121,36988
32264,53062,36959
32328,53055,37022
32316,53023,37138
32412,52976,37037
32488,52998,36949
32488,52959,36960
32460,53036,36927
32416,53100,36805
32404,53013,36965
32424,53101,36844
32384,53085,36837
32328,52999,36788
32334,52976,36694
32238,52973,36771
32172,52926,36831
32376,52983,36740
32588,52999,36689
32746,53062,36703
32712,53109,36588
32596,53071,36612
32381,53059,36648
32280,52948,36600
32282,52965,36556
32308,52949,36528
32360,52949,36548
32492,52964,36517
32724,52999,36376
32868,52967,36389
32948,53060,36543
32953,53073,36468
33044,53018,36395
33156,52999,36343
33176,52852,36352
33152,52860,36296
33152,52852,36244
33120,52951,36273
33056,52901,36404
32977,52999,36292
32824,53053,36132
32664,53048,36373
32664,52999,36260
32748,52940,36205
32792,52836,36103
32832,52870,36029
32934,52829,36292
32912,52919,36133
32936,52964,36119
32944,52999,36110
32960,53028,36069
32936,53015,36015
33006,52988,36181
33088,52937,36200
33044,52855,36172
32893,52871,36060
32869,52796,36088
32860,52892,35993
32764,52866,35971
32756,52969,35965
32844,52933,35930
32940,52966,35877
32985,52899,35799
32960,52932,35828
32889,52871,35840
32814,52860,36004
32888,52861,35837
32996,52900,35857
32992,52856,35791
32932,52893,35720
32916,52894,35686
32780,52975,35861
32696,52952,35784
32652,52903,35716
32632,52876,35695
32613,52845,35687
32648,52818,35576
32652,52837,35510
32622,52836,35580
32529,52925,35727
32452,52957,35556
32312,52928,35552
32296,52859,35528
32388,52879,35424
32472,52853,35343
32556,52820,35303
32596,52832,35384
32576,52844,35392
32524,52900,35500
32388,52917,35351
32344,52916,35327
32256,52863,35295
32169,52911,35199
32184,52871,35104
32142,52824,35335
32060,52799,35207
32012,52807,35138
32028,52838,35109
32088,52853,35113
32116,52903,35077
32128,52892,35002
32121,52889,34884
32142,52820,35099
32092,52852,34961
31984,52812,34928
31904,52789,34937
31949,52790,34823
31928,52807,34742
31812,52846,34816
31776,52871,34680
31804,52821,34685
31848,52917,34717
31897,52857,34684
31940,52844,34629
31914,52793,34736
31864,52773,34740
31988,52687,34639
32108,52780,34636
32148,52832,34532
32204,52764,34541
32342,52885,34567
32372,52807,34535
32352,52791,34454
32324,52837,34380
32316,52775,34288
32328,52682,34375
32348,52743,34432
32404,52780,34354
32464,52792,34340
32568,52847,34451
32628,52870,34287
32548,52871,34281
32456,52743,34140
32345,52732,34092
32150,52684,34328
32004,52704,34183
32016,52735,34164
31984,52652,33997
32020,52783,34186
32184,52837,34081
32324,52743,34072
32361,52839,33892
32440,52836,34116
32572,52780,34060
32636,52742,33976
32536,52710,33959
32364,52649,33767
32261,52660,33927
32128,52757,33864
32148,52813,33857
32284,52736,33693
32365,52813,33750
32358,52809,33868
32416,52741,33727
32468,52707,33716
32480,52676,33594
32472,52690,33552
32420,52725,33694
32348,52739,33606
32260,52796,33556
32356,52775,33511
32500,52804,33472
32620,52780,33519
32687,52629,33461
32728,52680,33415
32636,52631,33263
32556,52660,33462
32488,52703,33412
32416,52717,33349
32324,52772,33337
32328,52788,33210
32344,52791,33134
32384,52743,33268
32397,52684,33383
32460,52580,33271
32472,52620,33201
32404,52551,33189
32345,52684,33167
32292,52697,33157
32392,52743,33166
32536,52772,33108
32516,52743,32962
32544,52664,33085
32720,52693,33197
32840,52572,33180
32797,52599,33136
32710,52581,33090
32640,52640,33060
32520,52700,32879
32428,52725,32989
32448,52758,33124
32484,52657,32998
32512,52708,32949
32536,52615,32849
32472,52645,32889
32452,52527,33111
32528,52588,33031
32540,52529,32959
32520,52654,32960
32480,52621,32945
32462,52734,32786
32437,52743,33078
32488,52692,32940
32560,52676,32941
32628,52540,32775
32641,52583,32823
32688,52612,32972
32788,52615,32901
32860,52635,32890
32872,52589,32876
32860,52660,32869
32686,52704,32852
32588,52655,32767
32624,52556,32686
32636,52588,32647
32724,52487,32906
32888,52561,32836
33028,52614,32757
33124,52621,32764
33152,52685,32641
33137,52604,32621
32924,52676,32665
32728,52660,32775
32676,52615,32684
32694,52596,32652
32768,52556,32513
32808,52564,32549
32768,52575,32661
32756,52556,32721
32740,52660,32701
32749,52679,32524
32684,52612,32684
32657,52633,32549
32680,52591,32535
32744,52567,32384
32780,52551,32405
32868,52535,32637
32960,52543,32484
32844,52551,32409
32732,52623,32357
32712,52662,32436
32526,52660,32546
32436,52633,32501
32488,52532,32433
32508,52561,32423
32388,52522,32430
32328,52505,32361
32256,52532,32348
32280,52580,32272
32284,52615,32369
32261,52655,32533
32280,52637,32420
32432,52616,32417
32540,52569,32249
32600,52548,32293
32616,52487,32461
32636,52484,32384
32636,52509,32393
32652,52536,32327
32660,52591,32220
32704,52621,32295
32700,52540,32484
32676,52581,32409
32609,52461,32383
32576,52460,32390
32592,52444,32390
32610,52441,32319
32676,52504,32312
32848,52527,32365
33180,52556,32487
33546,52585,32425
33792,52559,32366
34073,52572,32327
34376,52501,32367
34796,52404,32413
35324,52452,32356
35980,52460,32362
36529,52484,32317
37224,52481,32153
38008,52564,32364
38784,52501,32325
39440,52583,32149
39916,52577,32436
40500,52548,32303
41029,52444,32126
41300,52483,32405
41376,52481,32304
40804,52439,32273
39553,52528,32279
37896,52596,32220
35940,52612,32256
33876,52614,32169
31926,52588,32090
30574,52548,32089
29708,52487,32055
29392,52454,32327
29524,52483,32220
29852,52484,32188
30112,52487,32180
30548,52560,32016
30965,52580,32088
31324,52521,32231
31692,52549,32149
31944,52520,32109
32112,52476,32121
32108,52412,32093
32088,52421,31992
32092,52461,31951
32088,52500,31930
32157,52527,31999
32268,52569,32062
32271,52557,32093
32132,52487,32037
31936,52412,32094
31796,52438,32105
31664,52428,32056
31564,52408,32044
31492,52447,32049
31476,52472,32022
31568,52517,32016
31777,52528,32028
31924,52565,32022
32021,52519,32014
32080,52479,31994
32100,52428,31988
32056,52415,31985
31993,52300,31909
31900,52412,31791
31813,52437,31751
31788,52484,31892
31822,52532,32000
31808,52420,31879
31888,52484,31868
31952,52407,31854
32000,52407,31710
32042,52393,31626
32152,52381,31655
32296,52405,31740
32412,52407,31828
32500,52461,31680
32538,52415,31640
32456,52484,31628
32420,52485,31548
32392,52436,31477
32456,52405,31415
32460,52349,31331
32524,52351,31361
32548,52391,31486
32552,52324,31388
32468,52449,31375
32421,52497,31300
32495,52380,31121
32558,52452,31239
32592,52420,31306
32644,52374,31260
32644,52335,31236
32704,52319,31180
32785,52356,31143
32820,52407,31076
32852,52439,31052
32897,52396,31040
32872,52463,31007
32900,52455,30983
32904,52405,30964
32952,52269,30940
33080,52257,30921
33220,52316,30893
33312,52348,30760
33388,52313,30756
33440,52428,30664
33528,52473,30765
33576,52380,30893
33460,52438,30789
33352,52396,30791
33328,52359,30599
33345,52324,30702
33401,52335,30854
33444,52330,30727
33368,52373,30719
33300,52424,30536
33324,52445,30708
33256,52416,30705
33176,52428,30683
33120,52391,30679
33097,52350,30653
33040,52228,30530
33028,52319,30620
33024,52357,30653
33040,52359,30612
33012,52383,30622
32996,52436,30610
32888,52444,30496
32752,52440,30477
32600,52381,30565
32534,52356,30650
32416,52300,30601
32328,52308,30566
32240,52343,30549
32164,52359,30397
32204,52401,30618
32314,52453,30517
32444,52357,30513
32480,52416,30332
32468,52359,30518
32424,52248,30583
32364,52295,30514
32332,52309,30468
32296,52317,30476
32180,52316,30367
32202,52413,30381
32244,52428,30480
32146,52455,30422
32084,52413,30412
32044,52365,30415
31948,52309,30220
31820,52310,30384
31740,52284,30374
31736,52287,30365
31673,52367,30336
31660,52335,30149
31792,52446,30389
31920,52431,30327
31976,52415,30309
31998,52396,30185
31972,52348,30266
31864,52319,30324
31880,52209,30253
31940,52327,30257
32020,52377,30237
32024,52401,30224
32004,52461,30198
31940,52357,30016
31926,52413,30109
31896,52407,30221
31909,52352,30173
31896,52327,30145
31978,52310,30127
32129,52351,29988
32297,52367,29967
32332,52424,29927
32272,52446,29949
32184,52436,30012
32088,52431,30121
32012,52392,30042
31992,52349,30002
32064,52324,29977
32236,52341,29951
32324,52341,29951
32336,52389,29924
32304,52428,29892
32304,52421,29701
32221,52391,29932
32194,52446,29887
32220,52425,29813
32261,52364,29815
32304,52319,29782
32360,52231,29711
32392,52351,29724
32329,52319,29623
32260,52445,29632
32256,52487,29741
32176,52471,29780
32100,52484,29703
32144,52423,29645
32176,52405,29636
32180,52359,29616
32256,52366,29589
32380,52311,29484
32424,52397,29493
32373,52469,29570
32351,52487,29613
32300,52516,29516
32244,52388,29499
32236,52449,29494
32280,52424,29304
32351,52295,29487
32384,52384,29467
32404,52416,29416
32332,52439,29415
32300,52487,29404
32264,52430,29285
32252,52516,29326
32224,52420,29368
32244,52476,29390
32324,52447,29343
32312,52413,29312
32408,52423,29306
32500,52343,29183
32584,52460,29167
32616,52527,29341
32624,52557,29224
32516,52580,29239
32404,52455,29205
32348,52511,29063
32380,52441,29092
32412,52452,29260
32480,52455,29191
32574,52468,29129
32600,52524,29137
32612,52463,29111
32626,52589,29024
32596,52598,28900
32533,52591,28968
32504,52559,29155
32492,52524,29045
32440,52511,29031
32520,52486,29037
32538,52535,28940
32493,52516,28971
32468,52604,29048
32436,52653,28959
32324,52551,28977
32304,52620,28836
32292,52608,28753
32248,52477,28988
32272,52536,28940
32289,52548,28901
32228,52567,28916
32220,52611,28834
32216,52559,28701
32192,52687,28946
32140,52720,28900
32144,52652,28825
32200,52663,28734
32152,52641,28695
32112,52591,28935
32110,52599,28856
32068,52516,28875
32066,52660,28863
32057,52676,28763
32172,52736,28692
32286,52696,28653
32377,52743,28889
32532,52732,28841
32564,52687,28849
32524,52676,28823
32468,52654,28668
32480,52703,28797
32488,52717,28848
32557,52780,28829
32652,52829,28829
32708,52858,28727
32760,52823,28639
32808,52807,28768
32800,52743,28889
32756,52647,28842
32685,52725,28785
32584,52708,28801
32552,52791,28598
32516,52871,28856
32480,52900,28764
32417,52871,28770
32340,52885,28773
32336,52879,28711
32436,52837,28707
32460,52828,28837
32500,52728,28753
32588,52773,28775
32640,52788,28644
32714,52920,28660
32768,52951,28833
32768,52980,28763
32764,52932,28740
32721,52908,28623
32692,52935,28736
32663,52893,28815
32714,52900,28772
32752,52920,28788
32757,52975,28785
32756,53023,28739
32772,52999,28704
32696,53076,28674
32596,52999,28796
32577,52947,28805
32632,52999,28795
32684,52961,28709
32728,52974,28609
32720,52999,28915
32560,53055,28822
32416,53127,28853
32448,53143,28858
32528,53079,28860
32540,53159,28850
32592,53127,28773
32624,53102,28807
32533,53093,28698
32456,53085,28954
32440,53127,28908
32398,53151,28921
32348,53213,28926
32296,53240,28871
32188,53293,28948
32136,53255,28938
32164,53142,28938
32268,53210,28967
32304,53095,28968
32341,53181,28969
32372,53215,28999
32456,53255,29007
32560,53304,29028
32764,53375,28962
33033,53383,28935
33380,53351,28885
33900,53340,28885
34489,53333,28850
35056,53292,28869
35704,53311,29015
36248,53327,29092
36796,53365,29092
37360,53431,28890
37904,53397,29157
38308,53479,29151
38556,53493,29119
39088,53465,29028
39712,53468,28949
40121,53373,29155
40268,53436,29179
39828,53471,29126
38812,53469,29037
37408,53575,29249
35724,53612,29206
33953,53540,29255
32092,53637,29172
30624,53636,29071
29778,53589,29281
29549,53545,29263
29784,53573,29276
30132,53580,29170
30390,53621,29063
30798,53613,29236
31256,53728,29319
31566,53767,29263
31704,53737,29276
31716,53710,29294
31740,53716,29157
31776,53597,29249
31874,53661,29349
31936,53700,29333
31932,53655,29197
31944,53786,29397
32052,53751,29356
32124,53852,29373
32116,53876,29257
32152,53836,29246
32228,53814,29340
32288,53705,29435
32432,53767,29359
32572,53755,29353
32572,53844,29365
32568,53876,29351
32640,53959,29213
32714,53991,29460
32717,53863,29388
32704,53933,29381
32688,53888,29295
32613,53895,29292
32672,53903,29425
32704,53919,29359
32644,53965,29223
32520,54023,29359
32492,53980,29335
32433,54036,29345
32357,53987,29189
32296,54040,29225
32260,54032,29356
32148,54007,29289
32156,54009,29273
32252,54004,29234
32316,54023,29077
32364,54071,29185
32400,54180,29185
32400,54183,29174
32361,54184,29141
32340,54188,28929
32288,54151,29178
32264,54118,29081
32332,54111,29095
32485,54087,28841
32596,54089,29141
32684,54221,29092
32792,54292,29044
32828,54311,29020
32858,54279,29026
32893,54279,28895
32848,54257,28765
32748,54247,29081
32688,54232,28982
32680,54236,28977
32700,54303,28997
32800,54359,28869
32932,54407,28820
33116,54413,28799
33232,54392,28775
33288,54279,29075
33380,54365,29031
33388,54324,29022
33472,54309,28983
33600,54327,28815
33716,54397,28952
33756,54468,29060
33820,54498,29070
33768,54535,29056
33656,54500,29086
33532,54486,29104
33452,54447,29100
33328,54447,29005
33240,54431,29191
33229,54429,29134
33218,54407,29180
33201,54492,29205
33208,54599,29220
33116,54628,29240
33012,54607,29228
32968,54564,29165
32948,54535,29062
32892,54524,29079
32860,54535,29396
32836,54557,29404
32776,54611,29330
32772,54639,29370
32840,54701,29359
32884,54652,29356
32976,54687,29479
32981,54688,29447
32940,54644,29460
32940,54639,29454
32928,54513,29283
32924,54628,29582
32957,54692,29511
32964,54729,29529
32948,54757,29490
32844,54791,29415
32736,54773,29524
32724,54757,29596
32733,54747,29596
32698,54679,29471
32608,54612,29548
32536,54701,29716
32388,54716,29655
32263,54815,29645
32264,54852,29444
32272,54781,29657
32236,54871,29713
32220,54857,29680
32188,54821,29703
32222,54785,29672
32348,54773,29577
32476,54823,29631
32450,54845,29814
32356,54903,29720
32246,54852,29757
32120,54951,29684
31968,54967,29537
31848,54916,29772
31832,54896,29831
31792,54855,29839
31761,54791,29859
31732,54876,29840
31684,54887,29830
31666,54968,29824
31652,55014,29786
31672,55021,29825
31676,54993,29797
31720,55007,29703
31836,54869,29613
31908,54933,29681
32028,54843,29594
32140,54940,29725
32192,55001,29834
32204,55015,29906
32196,55060,29808
32176,55109,29829
32150,55047,29826
32148,55046,29827
32148,54992,29732
32100,54988,29630
32092,55007,29726
32188,54996,29864
32260,55047,29831
32280,55093,29710
32316,55145,29716
32432,55141,29676
32373,55148,29742
32336,55119,29718
32440,55037,29724
32495,55047,29468
32572,55033,29637
32632,55068,29652
32632,55044,29639
32620,55132,29660
32549,55140,29620
32484,55192,29612
32396,55207,29602
32408,55156,29565
32452,55092,29463
32524,55012,29382
32620,55092,29592
32752,55116,29508
32760,55151,29452
32704,55175,29262
32624,55244,29549
32468,55158,29453
32308,55234,29440
32308,55111,29452
32384,55141,29412
32426,55060,29413
32548,55127,29236
32672,55069,29217
32604,55164,29236
32508,55120,29144
32476,55288,29204
32404,55284,29117
32364,55276,29393
32444,55192,29308
32484,55149,29317
32488,55175,29151
32480,55143,29304
32532,55143,29282
32485,55215,29294
32428,55273,29206
32448,55300,29236
32452,55316,29263
32388,55326,29289
32373,55185,29269
32377,55240,29119
32408,55224,29236
32508,55198,29251
32612,55196,29241
32652,55151,29240
32660,55271,29233
32656,55296,29191
32645,55340,29020
32622,55253,29148
32632,55248,28980
32632,55246,29092
32564,55246,29194
32504,55221,29276
32484,55242,29156
32464,55207,29198
32456,55297,29164
32381,55268,29161
32344,55367,29125
32300,55373,28992
32289,55324,29115
32332,55287,29152
32294,55140,29119
32296,55240,29109
32361,55212,29037
32348,55284,28876
32272,55349,29060
32244,55377,29126
32153,55399,29142
32116,55375,29086
32156,55349,29033
32168,55207,29062
32228,55229,29036
32312,55236,29029
32393,55276,29021
32484,55212,28836
32496,55335,29031
32506,55392,28976
32508,55298,28997
32552,55373,28996
32602,55367,28944
32644,55317,28809
32609,55271,28909
32568,55165,28998
32516,55268,29041
32500,55247,28941
32496,55303,28944
32492,55299,28953
32476,55364,28932
32456,55360,28729
32412,55352,28871
32456,55256,28982
32464,55285,28935
32424,55175,28957
32404,55204,28957
32332,55224,28926
32310,55333,28913
32368,55336,28744
32416,55390,28873
32468,55359,28922
32548,55362,29000
32660,55293,29018
32588,55280,28956
32552,55175,29012
32588,55284,28925
32581,55326,28940
32588,55349,28941
32600,55319,28788
32612,55329,28764
32604,55396,28909
32548,55348,28948
32465,55325,28924
32456,55303,28964
32436,55261,28961
32469,55293,28953
32586,55303,28836
32644,55292,28769
32656,55358,28819
32676,55412,28823
32620,55325,28772
32528,55364,29007
32496,55266,28973
32396,55279,28964
32376,55260,28975
32448,55207,28913
32478,55263,28772
32480,55358,28876
32508,55373,29020
32536,55423,28978
32532,55380,28999
32520,55375,28959
32444,55303,28797
32392,55294,29026
32406,55244,29031
32448,55292,29020
32424,55296,28965
32440,55302,28804
32500,55303,29122
32536,55376,29027
32504,55279,29036
32485,55340,29039
32474,55260,29007
32448,55254,28852
32453,55196,29060
32452,55215,29148
32378,55271,29055
32316,55227,29069
32288,55348,29086
32328,55271,29063
32316,55344,28927
32292,55303,28965
32276,55269,29164
32232,55149,29103
32252,55221,29113
32320,55212,28916
32360,55159,29028
32416,55293,29180
32652,55273,29100
32948,55328,29130
33284,55236,29130
33580,55288,29092
33984,55271,28909
34372,55215,29089
34825,55188,29099
35392,55223,29119
35884,55236,29012
36344,55272,29092
36896,55332,29109
37468,55232,29108
37868,55319,29070
38196,55296,28844
38628,55248,28999
39100,55222,29092
39476,55175,29103
39552,55212,29130
39064,55252,28921
37976,55281,29183
36608,55341,29164
35076,55300,29156
33420,55335,29153
31640,55260,29108
30172,55213,29021
29340,55140,29052
29176,55188,29039
29484,55164,28916
29848,55144,29143
30180,55244,29101
30621,55241,29108
31060,55260,29056
31368,55289,28982
31552,55266,29110
31648,55215,29119
31656,55149,29047
31630,55140,29053
31593,55173,29061
31532,55079,29055
31448,55213,28980
31432,55268,29095
31356,55277,29095
31284,55253,29052
31240,55229,28940
31229,55100,28932
31300,55134,29100
31460,55067,29036
31664,55023,28972
31784,55148,28832
31920,55197,29027
31972,55228,28980
31948,55245,29005
31852,55127,29004
31792,55148,28988
31773,55045,28860
31676,55096,28925
31536,55092,29029
31520,55076,28951
31500,55127,28981
31502,55079,28940
31504,55175,28756
31520,55220,28933
31556,55169,28875
31572,55045,28874
31597,55104,28828
31614,55073,28817
31600,55032,28796
31688,55047,28654
31784,54965,28740
31861,55045,28751
31988,55143,28684
32084,55173,28684
32076,55141,28643
32066,55127,28556
32060,55069,28395
32028,55039,28616
32032,54926,28518
32064,55009,28516
32036,55044,28317
32004,54991,28382
32000,55112,28399
31972,55117,28495
31908,55111,28440
31788,55069,28379
31757,54964,28400
31781,54941,28349
31784,54951,28200
31840,54985,28359
31984,54915,28333
32116,55023,28328
32160,55085,28292
32196,55087,28226
32294,55081,28045
32352,54966,28373
32384,54975,28391
32448,54944,28289
32448,54919,28313
32420,54851,28279
32376,54969,28244
32341,54932,28316
32352,54919,28241
32372,55037,28316
32340,55036,28353
32356,54895,28340
32398,54916,28356
32448,54816,28212
32402,54869,28314
32405,54876,28484
32292,54907,28494
32112,54836,28514
31973,54988,28446
31937,54998,28434
31984,54881,28510
32045,54927,28488
32156,54919,28521
32276,54820,28477
32380,54807,28358
32452,54858,28616
32484,54860,28612
32500,54909,28599
32572,54948,28593
32604,54952,28401
32552,54863,28740
32456,54909,28663
32365,54887,28693
32320,54791,28603
32272,54791,28516
32300,54791,28736
32302,54764,28803
32260,54860,28774
32192,54892,28807
32128,54919,28687
32064,54919,28786
32028,54758,28956
32030,54820,28869
31940,54755,28905
31884,54717,28937
31877,54772,28941
31904,54804,28975
31932,54776,28957
31996,54860,28862
32048,54868,28796
31932,54864,28791
31776,54761,28991
31656,54770,29075
31524,54663,29157
31353,54727,29111
31274,54734,29085
31258,54767,29124
31276,54685,28934
31313,54812,29134
31340,54791,29249
31368,54831,29173
31360,54789,29191
31332,54759,29201
31296,54695,29165
31288,54661,29028
31272,54692,29151
31240,54631,29327
31244,54736,29237
31300,54741,29280
31328,54789,29340
31272,54709,29319
31244,54744,29260
31200,54719,29343
31116,54663,29372
31032,54572,29311
30978,54525,29306
30960,54661,29309
30928,54712,29312
30953,54746,29265
31044,54783,29199
31081,54637,29084
31116,54711,29404
31191,54671,29348
31192,54613,29329
31176,54598,29333
31228,54620,29319
31288,54535,29215
31360,54663,29060
31461,54695,29370
31569,54726,29285
31584,54623,29270
31581,54663,29191
31624,54636,29069
31636,54471,29042
31608,54535,29216
31616,54495,29169
31640,54572,28972
31628,54628,29163
31596,54580,29269
31588,54663,29189
31581,54661,29191
31596,54533,29138
31528,54588,29028
31460,54548,28994
31392,54471,28968
31402,54503,29053
31468,54535,29114
31572,54565,29164
31696,54607,29080
31869,54636,29094
31968,54620,29061
31996,54583,29065
32072,54493,29063
32176,54500,29024
32230,54484,29007
32245,54468,28910
32148,54503,28829
32036,54524,28823
31876,54564,28866
31772,54535,28937
31668,54567,28977
31624,54535,28969
31588,54436,28972
31544,54413,28970
31544,54399,28955
