ECG,EDA,RR
32712,45154,35012
32699,45191,35023
32656,45200,35052
32541,45212,34947
32416,45223,34927
32284,45212,34983
32176,45255,34891
32100,45252,34901
32108,45257,34887
32184,45257,34816
32246,45258,34839
32301,45247,34736
32328,45253,34741
32216,45264,34725
32160,45271,34652
32124,45284,34648
31996,45303,34639
31956,45316,34581
32004,45313,34599
32092,45278,34543
32152,45316,34597
32298,45300,34496
32336,45311,34535
32280,45319,34438
32160,45319,34457
32060,45333,34384
31960,45319,34420
31926,45371,34337
31926,45362,34363
31988,45373,34261
32096,45364,34243
32158,45329,34229
32156,45357,34196
32124,45367,34190
32036,45372,34124
31948,45333,34110
31924,45404,34103
31868,45408,34046
31925,45412,34073
32046,45412,33973
32140,45408,33956
32192,45403,33975
32256,45356,33900
32268,45353,33945
32172,45374,33861
32124,45431,33903
32036,45447,33839
32076,45461,33847
32132,45447,33757
32204,45463,33764
32357,45412,33838
32393,45440,33751
32409,45447,33713
32376,45405,33787
32297,45471,33671
32204,45479,33660
32116,45490,33624
32080,45503,33639
32125,45453,33695
32236,45497,33588
32344,45493,33588
32424,45484,33620
32444,45485,33564
32358,45503,33604
32308,45502,33535
32228,45485,33572
32188,45531,33491
32156,45536,33455
32180,45540,33452
32296,45542,33531
32396,45529,33441
32524,45535,33516
32554,45524,33404
32524,45540,33465
32404,45527,33373
32340,45552,33447
32244,45575,33311
32228,45575,33287
32292,45543,33237
32392,45575,33264
32455,45575,33287
32527,45552,33187
32528,45554,33151
32441,45573,33141
32352,45575,33124
32292,45605,33113
32256,45581,33040
32192,45612,33044
32266,45615,33045
32360,45612,32983
32488,45616,32934
32512,45549,32924
32549,45575,32916
32472,45620,32861
32412,45629,32995
32348,45628,32848
32254,45657,32868
32228,45660,32800
32262,45620,32871
32356,45649,32735
32472,45648,32829
32564,45647,32696
32628,45644,32684
32600,45647,32637
32528,45666,32684
32468,45661,32551
32400,45685,32569
32381,45689,32463
32460,45643,32457
32564,45653,32500
32644,45679,32449
32749,45670,32449
32760,45677,32331
32716,45685,32340
32644,45684,32284
32594,45703,32356
32532,45719,32290
32540,45716,32361
32608,45685,32231
32680,45703,32284
32792,45703,32188
32880,45693,32237
32904,45703,32143
32844,45716,32252
32784,45687,32114
32772,45735,32187
32712,45751,32054
32696,45750,32173
32724,45709,32029
32800,45751,32044
32908,45735,32059
32976,45678,32020
33016,45735,32076
33016,45733,31909
32893,45748,31925
32821,45756,31957
32761,45754,31925
32716,45780,32054
32754,45781,31880
32824,45773,31878
32944,45716,31817
33057,45735,31870
33044,45750,31820
33025,45773,31924
32968,45776,31844
32904,45781,31952
32844,45796,31801
32837,45796,31878
32879,45797,31786
32964,45743,31909
33028,45789,31766
33068,45772,31813
33052,45785,31735
33012,45782,31751
32871,45799,31676
32784,45780,31766
32737,45796,31696
32700,45821,31789
32744,45818,31661
32832,45813,31742
32916,45812,31652
32976,45799,31647
33016,45796,31655
32964,45815,31661
32868,45813,31779
32728,45768,31655
32640,45831,31623
32608,45845,31621
32632,45847,31625
32764,45812,31723
32929,45800,31559
33088,45831,31590
33188,45820,31685
33188,45823,31579
33180,45828,31578
33128,45838,31502
33088,45863,31588
33088,45855,31587
33120,45852,31577
33152,45804,31652
33244,45855,31484
33312,45829,31567
33340,45830,31554
33238,45801,31471
33136,45855,31554
32988,45860,31662
32904,45869,31545
32908,45865,31588
32940,45869,31495
32964,45865,31527
33008,45861,31543
33024,45860,31637
33036,45807,31492
32960,45849,31570
32846,45869,31468
32729,45876,31503
32656,45879,31429
32632,45899,31477
32700,45879,31431
32816,45884,31543
32892,45873,31468
32948,45883,31516
32961,45817,31421
32896,45831,31532
32796,45885,31440
32696,45887,31482
32592,45907,31439
32544,45897,31556
32584,45897,31503
32681,45895,31541
32791,45884,31471
32892,45871,31615
32932,45873,31517
32906,45882,31582
32812,45892,31505
32696,45903,31426
32620,45908,31581
32556,45912,31492
32592,45915,31623
32705,45900,31517
32804,45900,31473
32904,45893,31476
32888,45903,31412
32850,45881,31472
32804,45894,31409
32632,45908,31486
32540,45876,31408
32520,45895,31505
32588,45925,31412
32660,45916,31481
32732,45904,31428
32820,45895,31516
32812,45892,31412
32752,45903,31582
32672,45916,31465
32500,45919,31583
32344,45933,31462
32202,45929,31475
32136,45921,31417
32068,45912,31359
31934,45917,31444
31786,45884,31485
31647,45831,31406
31476,45847,31413
31406,45861,31470
31448,45912,31454
31596,45926,31468
31888,45927,31415
32312,45862,31367
32864,45855,31465
33504,45903,31463
34084,45831,31572
34620,45830,31476
35321,45842,31623
36040,45880,31503
36456,45881,31486
36640,45900,31517
36756,45909,31493
36884,45910,31647
37000,45904,31488
37124,45907,31465
37256,45901,31600
37060,45890,31549
36628,45901,31620
36116,45902,31556
35564,45919,31515
35008,45925,31548
34444,45929,31505
33968,45932,31642
33608,45903,31583
33345,45911,31622
33176,45908,31572
33053,45908,31532
32894,45903,31607
32712,45871,31589
32508,45903,31738
32349,45908,31652
32232,45935,31719
32224,45935,31632
32252,45925,31591
32312,45915,31616
32333,45896,31588
32356,45893,31645
32260,45903,31639
32160,45906,31781
32068,45901,31660
31968,45917,31637
31960,45921,31818
32036,45884,31695
32120,45916,31707
32208,45864,31818
32312,45845,31722
32336,45862,31839
32308,45831,31696
32208,45868,31725
32093,45903,31727
32036,45921,31843
32068,45923,31708
32156,45916,31660
32276,45852,31728
32344,45846,31699
32428,45860,31834
32440,45860,31751
32384,45880,31849
32309,45889,31731
32256,45895,31900
32192,45903,31736
32184,45903,31717
32272,45863,31896
32361,45876,31794
32432,45847,31715
32509,45815,31884
32548,45817,31806
32532,45812,31773
32438,45815,31796
32356,45885,31791
32292,45895,31719
32276,45892,31925
32348,45888,31751
32476,45877,31743
32608,45857,31791
32708,45852,31789
32724,45847,31762
32640,45814,31679
32578,45852,31855
32512,45871,31711
32500,45876,31660
32424,45871,31758
32448,45877,31665
32500,45853,31687
32576,45860,31732
32685,45831,31621
32741,45828,31599
32684,45831,31684
32664,45831,31598
32616,45799,31568
32572,45799,31732
32596,45853,31629
32654,45855,31547
32740,45831,31554
32828,45829,31598
32909,45808,31555
32920,45806,31480
32908,45823,31665
32864,45822,31493
32832,45821,31508
32760,45831,31644
32760,45845,31489
32800,45831,31421
32848,45820,31538
32976,45813,31500
33116,45799,31463
33142,45796,31518
33124,45791,31484
33092,45804,31453
33004,45804,31431
32968,45815,31439
32980,45815,31599
33048,45772,31430
33116,45799,31374
33262,45796,31494
33344,45778,31438
33352,45769,31524
33292,45767,31426
33252,45783,31391
33180,45783,31584
33093,45784,31421
33060,45788,31372
33124,45780,31585
33216,45776,31444
33324,45765,31428
33441,45757,31420
33489,45743,31456
33456,45756,31380
33388,45759,31476
33292,45759,31471
33256,45772,31387
33192,45775,31511
33193,45764,31428
33252,45761,31585
33269,45749,31444
33301,45727,31579
33253,45735,31446
33132,45727,31449
33040,45725,31420
32892,45747,31420
32776,45743,31500
32664,45749,31391
32664,45703,31409
32712,45684,31415
32737,45721,31378
32740,45679,31351
32673,45717,31525
32544,45716,31381
32384,45725,31375
32264,45727,31516
32180,45740,31362
32136,45728,31343
32132,45733,31484
32184,45725,31356
32269,45717,31462
32312,45655,31332
32332,45655,31301
32289,45662,31300
32228,45663,31269
32172,45676,31412
32100,45665,31273
32050,45703,31212
32084,45724,31220
32173,45703,31169
32260,45703,31320
32352,45688,31225
32416,45695,31272
32417,45685,31182
32328,45684,31197
32256,45699,31151
32184,45703,31220
32152,45717,31133
32236,45703,31143
32296,45660,31077
32372,45633,31219
32477,45632,31033
32510,45646,30964
32476,45644,31033
32380,45631,31029
32312,45663,31132
32196,45700,31010
32168,45671,30964
32240,45668,30953
32308,45689,30879
32452,45676,30943
32520,45661,30916
32548,45662,30919
32560,45669,30838
32464,45668,30877
32352,45677,30909
32264,45684,30881
32244,45692,31020
32288,45692,30885
32404,45676,31004
32492,45676,30848
32534,45668,30936
32549,45637,30788
32536,45621,30929
32496,45638,30759
32384,45639,30676
32320,45676,30749
32320,45687,30676
32396,45677,30680
32580,45677,30573
32676,45661,30657
32696,45656,30546
32741,45653,30605
32824,45660,30493
32702,45652,30491
32608,45669,30390
32521,45684,30427
32492,45695,30516
32514,45691,30303
32644,45648,30292
32761,45671,30276
32812,45644,30183
32844,45654,30153
32788,45662,30146
32712,45620,30095
32641,45655,30129
32576,45685,29909
32601,45687,29927
32656,45703,29913
32769,45682,29831
32796,45679,29750
32848,45663,29718
32909,45666,29676
32766,45679,29625
32656,45679,29532
32586,45692,29508
32540,45703,29383
32569,45703,29540
32640,45695,29351
32704,45701,29366
32776,45697,29229
32876,45633,29210
32932,45678,29047
32864,45695,29191
32749,45695,28964
32600,45703,29047
32576,45725,28886
32604,45727,28811
32640,45727,28725
32740,45727,28612
32853,45717,28629
32996,45687,28593
33020,45661,28505
32949,45710,28373
32864,45701,28377
32772,45742,28302
32696,45748,28308
32672,45752,28199
32701,45764,28068
32764,45703,28133
32852,45703,28028
32920,45712,27911
32996,45722,27881
32941,45703,27801
32832,45719,27892
32740,45727,27703
32688,45743,27592
32660,45794,27530
32668,45798,27372
32685,45790,27511
32772,45783,27381
32836,45780,27201
32900,45781,27257
32864,45783,27124
32810,45788,27237
32736,45767,27060
32649,45829,26885
32634,45831,26973
32636,45826,26844
32692,45831,26811
32796,45824,26793
32872,45823,26600
32868,45817,26694
32804,45831,26540
32705,45847,26471
32600,45865,26567
32584,45868,26419
32572,45879,26576
32608,45885,26408
32700,45887,26303
32752,45887,26292
32816,45823,26304
32804,45831,26200
32756,45882,26040
32672,45896,26145
32628,45915,25959
32584,45933,26089
32528,45924,25879
32540,45895,25988
32600,45943,25795
32676,45943,25887
32704,45935,25863
32748,45935,25805
32724,45943,25636
32628,45959,25749
32564,45972,25607
32496,45991,25803
32456,45996,25637
32516,46007,25607
32608,46007,25541
32652,46004,25465
32716,45999,25476
32760,45991,25317
32716,46007,25421
32654,46021,25354
32588,46036,25348
32500,46060,25289
32469,46073,25288
32509,46066,25278
32590,46072,25220
32688,46084,25321
32793,46031,25108
32880,46068,25116
32862,46085,24933
32792,46087,25021
32676,46105,24969
32582,46134,24974
32524,46145,24799
32556,46151,24888
32628,46144,24726
32680,46149,24822
32768,46147,24721
32804,46151,24871
32760,46162,24719
32676,46177,24737
32572,46183,24661
32425,46213,24646
32432,46224,24596
32437,46231,24651
32520,46175,24517
32609,46196,24533
32700,46166,24455
32772,46173,24512
32736,46199,24381
32636,46224,24351
32524,46279,24327
32457,46303,24312
32440,46303,24253
32468,46309,24300
32568,46316,24195
32641,46319,24212
32684,46311,24125
32680,46317,24125
32644,46339,24053
32532,46343,23877
32432,46372,23988
32348,46388,23828
32304,46400,23924
32313,46415,23745
32360,46412,23865
32560,46413,23695
32760,46407,23799
32832,46409,23660
32876,46433,23806
32906,46445,23733
32845,46448,23757
32792,46487,23503
32785,46497,23628
32832,46500,23457
32884,46503,23564
32996,46508,23397
33089,46503,23523
33192,46505,23389
33180,46527,23467
33092,46541,23364
32959,46559,23476
32864,46581,23343
32832,46592,23489
32864,46599,23367
32953,46592,23169
32992,46599,23327
33076,46599,23279
33113,46615,23144
33082,46615,23215
32972,46640,23202
32848,46655,23181
32800,46671,23167
32736,46647,23119
32708,46700,23002
32788,46692,23087
32884,46709,23108
32852,46708,22912
32904,46664,23012
32892,46727,22847
32812,46745,22948
32668,46772,22892
32596,46777,22943
32572,46807,22762
32640,46804,22833
32735,46765,22687
32836,46812,22775
32921,46805,22604
32932,46815,22713
32853,46837,22559
32792,46848,22760
32686,46855,22621
32592,46834,22567
32532,46848,22563
32592,46919,22368
32644,46913,22497
32764,46924,22392
32842,46924,22494
32808,46929,22375
32732,46941,22337
32629,46952,22267
32556,46975,22292
32520,47012,22087
32532,47012,22219
32532,47020,22170
32608,46979,21968
32714,47039,22175
32804,47043,22049
32828,47037,22001
32780,47052,21961
32728,47014,21890
32628,47037,21893
32548,47056,21788
32392,47135,21801
32248,47072,21647
32068,47141,21745
31952,47134,21751
31808,47137,21656
31744,47148,21460
31692,47159,21601
31649,47174,21567
31752,47190,21377
31856,47223,21501
32088,47223,21469
32496,47229,21257
33133,47239,21466
33772,47239,21359
34308,47207,21231
34904,47213,21392
35688,47247,21293
36296,47271,21092
36636,47291,21260
36720,47315,21168
36808,47332,21218
36892,47335,21141
37080,47344,20968
37170,47348,21132
37232,47354,20970
36940,47367,21107
36580,47387,21036
36140,47407,20991
35632,47412,20993
35073,47439,20832
34444,47455,20986
33912,47473,20885
33540,47463,20695
33320,47431,20922
33196,47469,20821
33104,47471,20638
32970,47495,20803
32808,47513,20729
32584,47530,20679
32442,47544,20679
32388,47568,20640
32381,47583,20694
32412,47578,20615
32452,47572,20594
32552,47578,20438
32498,47588,20627
32380,47601,20512
32241,47621,20431
32140,47590,20442
32112,47657,20295
32136,47669,20440
32224,47623,20384
32284,47679,20337
32404,47679,20337
32484,47685,20250
32516,47688,20087
32439,47661,20260
32380,47663,20194
32316,47676,20247
32284,47701,20161
32280,47716,20253
32316,47780,20129
32432,47772,19948
32528,47783,20164
32592,47740,20078
32652,47781,20069
32620,47792,19895
32536,47804,19999
32417,47820,20063
32340,47839,19997
32332,47860,19985
32384,47868,19813
32500,47873,19952
32576,47879,19950
32617,47863,19867
32620,47876,19986
32598,47879,19916
32544,47895,19732
32456,47916,19868
32393,47948,19837
32432,47945,19620
32440,47959,19791
32540,47969,19772
32620,47967,19718
32672,47961,19712
32668,47963,19667
32566,47972,19652
32516,47983,19687
32512,48007,19479
32444,48027,19708
32396,47983,19597
32456,48051,19485
32538,48044,19545
32612,48050,19535
32724,48041,19517
32749,48052,19458
32720,48062,19479
32594,48075,19467
32528,48092,19237
32460,48108,19420
32448,48116,19404
32440,48124,19197
32560,48124,19395
32636,48133,19193
32672,48124,19437
32792,48124,19378
32788,48135,19206
32724,48159,19275
32676,48156,19329
32660,48185,19284
32620,48206,19098
32644,48207,19281
32720,48201,19241
32848,48199,19233
32964,48207,19007
33056,48215,19182
32996,48212,19064
32961,48216,19183
32948,48233,19163
32868,48263,19140
32836,48279,19145
32888,48279,18996
32964,48269,19108
33052,48281,19137
33124,48263,18948
33268,48269,19175
33172,48293,19057
33048,48309,18884
32996,48309,19109
32936,48333,19046
32860,48337,18889
32929,48349,19055
33025,48349,18889
33084,48349,19078
33220,48344,19047
33256,48358,18847
33200,48349,19045
33152,48316,19021
33104,48319,18983
33044,48356,19036
33037,48374,18864
33158,48368,18804
33220,48416,19039
33228,48416,18961
33288,48391,18744
33284,48420,18964
33174,48423,18906
33004,48430,18842
32872,48448,18903
32888,48475,18871
32856,48477,18670
32809,48479,18928
32820,48484,18887
32840,48480,18702
32844,48484,18896
32812,48481,18783
32816,48484,18667
32640,48503,18585
32652,48519,18783
32396,48530,18756
32132,48551,18737
32182,48548,18730
32320,48552,18585
32432,48544,18701
32273,48519,18667
32312,48547,18470
32292,48516,18644
32108,48529,18628
32216,48535,18414
32228,48556,18601
32176,48585,18525
32280,48560,18564
32316,48605,18514
32405,48607,18303
32480,48596,18506
32544,48615,18393
32520,48607,18412
32436,48630,18405
32380,48644,18372
32312,48653,18174
32167,48628,18333
32240,48675,18292
32308,48685,18076
32404,48661,18256
32600,48647,18003
32789,48647,18189
32574,48641,17963
32412,48668,18113
32500,48684,17908
32320,48708,18085
32388,48724,17998
32408,48719,18068
32456,48713,17937
32516,48709,17951
32448,48711,17735
32528,48669,17869
32460,48711,17717
32343,48734,17887
32264,48743,17782
32196,48744,17761
32184,48765,17746
32296,48765,17810
32468,48759,17725
32517,48765,17779
32600,48756,17673
32720,48697,17690
32680,48725,17575
32545,48756,17662
32478,48773,17575
32476,48805,17551
32349,48819,17531
32424,48809,17623
32468,48812,17497
32548,48807,17478
32549,48807,17505
32628,48740,17261
32588,48797,17473
32497,48816,17215
32468,48807,17431
32466,48831,17388
32444,48837,17341
32516,48854,17370
32560,48844,17321
32648,48832,17394
32713,48775,17076
32756,48833,17254
32665,48829,17291
32536,48841,17274
32408,48861,17109
32440,48879,17244
32428,48879,17077
32520,48885,17203
32596,48862,17028
32676,48871,17141
32756,48809,17112
32764,48801,17093
32773,48855,17169
32669,48884,17007
32589,48898,17084
32516,48903,16927
32488,48902,17087
32513,48903,16870
32568,48847,17023
32560,48903,17049
32660,48892,17048
32669,48889,17032
32632,48903,16857
32600,48840,17063
32464,48889,16832
32452,48933,17058
32448,48935,16804
32520,48935,17044
32540,48929,16829
32640,48887,17045
32733,48921,17095
32740,48917,16988
32749,48921,17041
32688,48940,16981
32544,48946,17091
32468,48958,17013
32492,48932,16814
32493,48975,16978
32564,48966,16796
32616,48952,17064
32640,48954,16815
32692,48951,17055
32661,48903,16850
32596,48903,17119
32508,48962,17050
32524,48989,16868
32484,48989,17057
32408,48959,17069
32496,48967,17100
32613,48965,17065
32780,48959,16924
32796,48971,17119
32716,48976,17005
32660,48972,17178
32576,48987,17097
32528,48993,17165
32472,49017,17164
32420,49014,17039
32568,49015,17198
32704,48998,17172
32912,48991,17299
32792,48993,17210
32892,48927,17251
32864,48997,17253
32752,49010,17055
32685,49024,17278
32704,49020,17264
32756,49030,17311
32845,49020,17135
32932,49020,17380
32937,48999,17286
32924,48999,17135
32832,49007,17355
32720,49021,17285
32640,49028,17419
32624,49043,17346
32632,48999,17428
32704,49030,17331
32772,49016,17452
32832,49027,17339
32948,49019,17179
32934,48972,17411
32964,49009,17422
32848,49017,17237
32708,49023,17452
32656,49059,17445
32676,49059,17429
32689,49041,17476
32752,49052,17381
32820,49031,17577
32928,49028,17496
32997,49020,17525
32964,48973,17533
32932,49021,17359
32832,49031,17612
32791,49061,17581
32744,49059,17615
32804,49060,17641
32948,49050,17490
33056,49031,17771
33120,48988,17671
33192,49030,17826
33192,49031,17765
33096,49031,17612
33016,49044,17849
32924,49056,17656
32928,49060,17897
32888,49063,17786
32952,49062,17948
33016,49052,17874
33079,49024,18061
33120,49031,18036
33084,49031,17938
32992,49047,18205
32924,49040,18123
32836,49031,17992
32816,49062,18249
32836,49057,18229
32953,49049,18367
33080,48983,18315
33160,49047,18323
33192,49031,18379
33168,49036,18249
33060,49040,18477
32948,49004,18303
32900,49069,18570
32888,49069,18369
32916,49065,18632
32972,49065,18583
33016,49057,18717
33098,49031,18692
33156,49031,18756
33084,49047,18872
32944,49055,18832
32836,49036,18912
32694,49065,18861
32644,49077,18959
32668,49021,18812
32792,49071,19018
32879,49063,18925
32940,49039,19132
32968,49044,19109
32932,49005,19159
32840,49056,19188
32748,49068,19073
32672,49081,19253
32700,49084,19214
32752,49088,19361
32853,49047,19216
32912,49063,19352
32912,49053,19249
32884,49044,19466
32820,49059,19468
32824,49052,19557
32813,49065,19529
32852,49074,19543
32892,49078,19612
33004,49025,19469
33140,49083,19641
33304,49069,19550
33460,49056,19715
33498,49044,19671
33433,49044,19829
33412,49063,19794
33260,49063,19660
33152,49076,19897
33172,49086,19909
33148,49028,19999
33180,49031,20008
33260,49063,19832
33388,49029,20053
33448,49030,20042
33340,49046,20151
33216,49054,20114
33082,49005,19986
33036,49008,20205
32984,49023,20210
33008,49021,20072
33100,49045,20401
33156,49007,20373
33232,48985,20221
33268,49005,20410
33276,49044,20366
33232,49054,20508
33148,49036,20458
33046,49060,20555
32996,49008,20408
33016,49052,20603
33072,49052,20431
33096,49051,20668
33148,49031,20516
33128,49004,20751
33078,49031,20615
32988,49031,20836
32861,49038,20708
32736,49060,20902
32680,49060,20817
32768,49056,20952
32848,48985,20834
32932,48991,21003
33004,49016,20894
33013,49029,21093
33008,49024,21089
32908,49031,21228
32768,49031,21156
32676,49045,21152
32662,49057,21246
32704,49049,21268
32792,49031,21256
32900,49029,21341
33024,49029,21196
33076,49015,21469
33008,49025,21408
32956,49031,21237
32860,49031,21510
32732,49045,21534
32682,49045,21440
32605,49045,21649
32668,49031,21621
32632,49023,21581
32520,49023,21733
32354,49016,21730
32144,49004,21698
31908,49016,21773
31704,49031,21797
31600,49031,21779
31644,49049,21860
31854,49031,21871
32154,49031,21890
32576,48996,21964
33076,48942,21977
33600,48999,21833
34064,48993,22080
34454,48992,22026
34976,48940,22160
35652,48951,22151
36204,48957,22261
36560,48984,22277
36796,49000,22181
36980,48999,22412
37188,48993,22366
37348,48991,22221
37377,48991,22404
37232,49004,22340
36861,48991,22459
36536,49004,22519
36012,48987,22360
35628,48983,22561
35204,49000,22477
34768,48989,22686
34360,48953,22640
33984,48969,22674
33716,48948,22702
33372,49001,22515
33121,49004,22724
32936,49028,22672
32805,49031,22816
32728,49021,22680
32696,49018,22898
32668,49021,22838
32676,48993,22673
32678,48999,22906
32624,48999,22900
32528,48984,22910
32447,49009,22941
32343,49019,22764
32288,48974,23038
32304,49021,23003
32340,49015,22849
32376,49012,23047
32508,48996,23077
32572,48991,23035
32504,48992,23121
32440,48999,23222
32304,48973,23123
32236,48956,23208
32312,49021,23060
32340,49026,23209
32428,49016,23100
32520,48996,23289
32632,48953,23271
32706,48935,23373
32668,48932,23323
32632,48991,23431
32500,48980,23377
32448,49013,23345
32414,48953,23413
32424,48957,23449
32456,48962,23444
32600,48943,23343
32760,48933,23584
32764,48979,23505
32712,48989,23344
32664,48937,23559
32576,48948,23405
32492,48942,23602
32456,49005,23619
32492,49000,23655
32528,48991,23641
32624,48992,23492
32708,48977,23692
32766,48983,23684
32764,48924,23707
32648,48988,23805
32596,48988,23692
32520,48996,23732
32460,49004,23584
32548,49012,23753
32629,48994,23573
32741,49001,23757
32764,48940,23728
32792,48975,23775
32760,48966,23852
32690,48980,23767
32620,48982,23863
32580,49005,23788
32544,49008,23805
32552,48967,23769
32632,48935,23596
32716,48935,23822
32832,48912,23645
32884,48967,23791
32842,48970,23623
32796,48979,23825
32766,48985,23885
32645,49004,23831
32556,48956,23842
32572,48989,23854
32688,48995,23672
32796,48988,23884
32852,48972,23686
32879,48960,23904
32885,48977,23782
32848,48983,24004
32804,48987,23940
32744,48999,23751
32712,49007,23964
32728,48996,23943
32828,48997,24061
32936,48994,24005
33057,48983,23972
33081,48933,24021
33120,48976,23856
32956,48996,24056
32886,48991,23933
32852,49015,24109
32848,49014,23928
32940,48940,24128
32936,48953,23972
33024,48981,24172
33092,48991,24042
33092,48982,24209
33072,48981,24042
33129,48937,24249
33120,48980,24107
32972,49011,24277
32806,49020,24178
32868,49004,24308
33064,49008,24279
33036,49007,24372
33078,48990,24210
33117,48932,24394
33108,48940,24409
32992,48924,24402
32864,48977,24467
32732,49031,24305
32696,49030,24516
32673,49025,24344
32686,49013,24548
32733,49021,24484
32752,48999,24620
32740,48996,24624
32648,49009,24583
32476,49015,24642
32292,49031,24550
32196,49031,24708
32128,49031,24557
32148,49031,24767
32252,49023,24745
32368,49028,24582
32392,49020,24775
32420,49019,24792
32388,49028,24925
32300,49031,24844
32192,49039,24845
32049,49048,24913
31988,49068,24809
32007,49057,24932
32082,49040,24982
32142,49049,24972
32236,49031,24851
32264,49030,25049
32236,49047,25044
32220,49040,24912
32116,49045,25145
32000,49071,25121
31982,49084,25212
31984,49031,25135
32072,49069,25135
32132,49011,25177
32218,49012,25099
32236,48996,25212
32224,49021,25113
32176,49012,25260
32132,49053,25156
32052,49088,25287
32056,49109,25215
32152,49108,25420
32264,49103,25363
32312,49085,25449
32425,49078,25347
32456,49012,25423
32440,49036,25338
32385,49086,25500
32302,49094,25321
32232,49108,25508
32224,49125,25614
32280,49119,25544
32380,49103,25575
32476,49095,25457
32533,49111,25633
32544,49107,25495
32516,49101,25721
32452,49105,25689
32353,49077,25826
32332,49095,25776
32258,49140,25863
32316,49141,25705
32474,49135,25944
32580,49127,25892
32632,49125,25745
32637,49124,25956
32684,49125,25903
32576,49135,26081
32456,49143,26030
32388,49095,26176
32404,49132,26127
32557,49151,26007
32572,49159,26196
32664,49159,26204
32692,49148,26314
32640,49143,26300
32700,49159,26383
32716,49112,26308
32648,49151,26470
32548,49177,26396
32452,49159,26529
32400,49188,26469
32506,49199,26529
32598,49209,26524
32668,49183,26525
32714,49187,26516
32692,49188,26597
32638,49193,26596
32600,49215,26723
32544,49228,26669
32485,49191,26695
32526,49225,26711
32608,49197,26558
32584,49223,26756
32680,49220,26748
32868,49208,26796
32848,49222,26661
32692,49226,26844
32580,49239,26810
32456,49240,26890
32432,49263,26816
32468,49263,26943
32574,49210,26789
32628,49261,26916
32744,49256,26791
32712,49253,27000
32684,49263,26945
32609,49260,27039
32588,49268,26972
32629,49285,26897
32620,49310,26993
32652,49300,26984
32748,49286,27090
32829,49283,27020
32872,49287,27114
32908,49285,27016
32896,49221,27050
32808,49281,26927
32692,49308,27026
32600,49326,26950
32564,49332,27129
32576,49328,27044
32644,49325,26897
32744,49324,27086
32844,49318,26895
32910,49309,27046
32884,49317,27037
32824,49324,27002
32776,49337,27049
32700,49349,26935
32644,49360,27044
32652,49375,26900
32720,49319,27047
32820,49363,26887
32901,49293,27057
32908,49336,27010
32878,49356,27059
32748,49357,26877
32676,49388,27061
32684,49405,26887
32644,49399,27058
32748,49405,26881
32868,49398,27060
32988,49383,26920
33082,49383,27061
33096,49388,26901
33064,49381,27082
33024,49397,26990
32960,49411,27168
32840,49429,27077
32788,49437,27033
32836,49432,27078
32881,49415,27180
32941,49415,27026
33017,49429,27132
33066,49415,27076
33056,49415,27172
32960,49436,27077
32896,49445,27128
32844,49456,27085
32809,49468,27082
32800,49464,27081
32868,49424,27079
32981,49456,27086
33002,49456,27173
33032,49445,27075
32997,49448,27143
32912,49464,27077
32856,49472,27006
32805,49494,27069
32778,49511,26977
32788,49510,27051
32888,49458,26938
32980,49479,27047
33044,49493,26873
33120,49487,27049
33140,49451,27044
33033,49442,26992
32960,49447,27036
32882,49468,26943
32848,49471,27076
32900,49469,27045
32962,49466,26953
33040,49521,27055
33120,49519,27036
33206,49509,27054
33224,49519,27068
33176,49535,27061
33116,49499,27084
33033,49499,27058
32916,49564,26909
32888,49567,27077
32925,49565,26900
32984,49500,27063
33025,49527,26946
33037,49559,27102
33004,49548,26999
32940,49575,27128
32849,49567,27044
32693,49582,27095
32616,49584,27137
32672,49597,26981
32749,49589,27193
32796,49580,27189
32798,49575,27136
32772,49575,27212
32752,49511,27166
32684,49543,27260
32648,49598,27237
32576,49612,27309
32540,49612,27256
32505,49617,27351
32580,49615,27291
32588,49561,27393
32640,49606,27348
32688,49583,27457
32696,49604,27341
32708,49615,27539
32700,49637,27480
32720,49638,27576
32724,49639,27611
32828,49652,27490
32945,49645,27684
33092,49639,27589
33196,49625,27847
33272,49620,27796
33264,49629,27767
33188,49596,27860
33077,49623,27759
33020,49657,27951
32952,49660,27951
32956,49660,28151
33065,49657,28072
33212,49655,27983
33328,49639,28278
33316,49639,28233
33320,49637,28163
33256,49636,28401
33160,49596,28397
33068,49631,28297
32996,49687,28527
33040,49687,28525
33072,49671,28780
33152,49663,28705
33292,49660,28757
33345,49652,28885
33264,49660,29038
33160,49671,29042
33101,49649,29087
33040,49684,29223
32964,49691,29436
33012,49695,29403
33092,49688,29598
33142,49636,29524
33172,49668,29740
33180,49665,29692
33168,49671,29888
33102,49671,29838
32968,49695,30087
32840,49708,30087
32820,49711,30322
32921,49709,30286
33024,49707,30545
33072,49639,30554
33185,49635,30768
33260,49653,30745
33260,49703,30996
33194,49688,30980
33072,49703,31220
32956,49721,31469
32896,49732,31366
32948,49721,31612
33016,49717,31625
33076,49709,31915
33088,49703,31948
33124,49692,32156
33104,49640,32108
33040,49711,32271
32944,49708,32492
32868,49721,32468
32856,49742,32656
32812,49743,32764
32741,49735,32957
32756,49732,32884
32625,49701,33132
32444,49696,33367
32180,49709,33252
31936,49671,33452
31788,49724,33541
31720,49732,33718
31748,49701,33855
32016,49732,33842
32356,49725,34033
32765,49718,34281
33208,49703,34311
33646,49695,34526
34024,49707,34473
34412,49708,34636
34912,49719,34698
35528,49720,34885
35960,49671,34968
36208,49732,35125
36504,49719,35176
36598,49725,35344
36717,49717,35556
36917,49658,35597
36928,49727,35677
36824,49728,35828
36552,49735,36044
36188,49751,36103
35740,49764,36292
35420,49704,36344
35136,49757,36500
34748,49742,36551
34336,49720,36801
33972,49730,36801
33664,49724,36885
33392,49743,37115
33116,49671,37143
32904,49761,37262
32653,49759,37412
32520,49764,37533
32452,49749,37726
32484,49671,37749
32516,49721,37950
32497,49727,37982
32430,49731,38163
32336,49732,38201
32220,49749,38308
32130,49701,38470
32048,49765,38567
32048,49767,38742
32152,49752,38791
32228,49743,38895
32328,49728,39032
32359,49730,39166
32400,49711,39276
32330,49724,39431
32200,49741,39505
32212,49756,39648
32212,49766,39724
32244,49759,39845
32260,49743,39943
32256,49751,40065
32332,49735,40167
32352,49739,40281
32324,49732,40420
32258,49671,40505
32136,49725,40644
32097,49756,40762
32072,49756,40861
32132,49765,40977
32192,49754,41077
32269,49749,41209
32384,49685,41300
32412,49671,41431
32313,49664,41543
32220,49671,41653
32196,49700,41744
32176,49756,41863
32160,49759,41960
32156,49757,42044
32237,49751,42184
32337,49751,42261
32485,49732,42383
32568,49728,42480
32540,49724,42561
32392,49732,42692
32200,49740,42796
32156,49745,42852
32145,49708,42990
32224,49759,43037
32340,49746,43183
32464,49748,43221
32540,49722,43389
32584,49713,43479
32593,49719,43588
32561,49703,43669
32508,49693,43709
32412,49710,43844
32388,49747,43956
32481,49745,43984
32492,49732,44152
32546,49724,44223
32628,49692,44263
32680,49671,44407
32676,49655,44493
32632,49711,44512
32561,49719,44700
32476,49695,44756
32472,49697,44807
32500,49695,44943
32612,49713,45028
32772,49713,45109
32892,49701,45197
33006,49684,45244
33072,49671,45349
33056,49693,45365
32985,49692,45539
32900,49709,45609
32930,49708,45700
32924,49708,45764
32876,49653,45860
32964,49671,45845
33038,49671,45980
33188,49671,45992
33288,49665,46134
33205,49668,46132
33021,49671,46274
32984,49685,46256
32984,49681,46431
33045,49671,46394
32992,49671,46558
33032,49588,46620
33124,49644,46682
33224,49629,46637
33244,49637,46780
33173,49647,46760
33048,49639,46884
32957,49598,46931
32816,49612,46983
32876,49616,46996
32936,49637,47111
32940,49637,47124
33007,49581,47156
33104,49605,47229
33116,49604,47260
33032,49615,47329
32848,49620,47383
32812,49597,47300
32740,49629,47437
32696,49624,47399
32752,49620,47525
32848,49607,47455
32877,49588,47568
32820,49589,47510
32663,49588,47652
32540,49527,47676
32400,49540,47641
32257,49543,47725
32156,49548,47655
32182,49541,47764
32196,49525,47800
32158,49509,47775
32144,49540,47825
32248,49565,47761
32196,49567,47857
32104,49565,47872
31948,49552,47869
31916,49573,47879
31804,49582,47792
31804,49573,47865
31788,49535,47788
31940,49498,47894
32048,49503,47863
32244,49525,47837
32200,49529,47828
32149,49534,47725
32136,49524,47804
32076,49543,47668
32032,49543,47781
31884,49484,47632
32008,49521,47717
32140,49524,47607
32172,49511,47676
32216,49496,47528
32312,49488,47572
32229,49507,47484
32028,49492,47508
31913,49508,47415
31897,49508,47428
32013,49511,47333
32125,49506,47344
32285,49492,47209
32340,49408,47276
32320,49415,47212
32280,49469,47156
32305,49464,47099
32266,49472,47032
32288,49472,46884
32130,49439,46897
32142,49470,46759
32292,49466,46768
32428,49447,46633
32444,49443,46637
32456,49415,46496
32432,49415,46517
32400,49356,46433
32380,49426,46372
32336,49455,46212
32312,49448,46196
32356,49436,46046
32392,49415,46032
32480,49415,45880
32544,49398,45863
32608,49388,45780
32596,49389,45641
32540,49339,45614
32448,49372,45479
32352,49407,45438
32272,49401,45285
32333,49393,45271
32388,49395,45123
32452,49382,45101
32500,49368,44935
32532,49356,44916
32560,49359,44774
32504,49356,44746
32352,49308,44645
32320,49373,44500
32308,49370,44468
32340,49376,44385
32416,49348,44295
32536,49341,44199
32620,49329,44048
32648,49313,44003
32581,49327,43863
32526,49327,43813
32438,49287,43668
32356,49319,43623
32300,49336,43492
32366,49336,43445
32508,49326,43321
32564,49316,43263
32637,49255,43149
32652,49297,43079
32644,49287,42998
32608,49300,42857
32532,49263,42802
32440,49319,42726
32440,49301,42596
32512,49312,42537
32604,49303,42396
32718,49268,42359
32820,49276,42237
32876,49271,42178
32836,49276,42085
32796,49277,41991
32716,49276,41917
32614,49296,41804
32564,49286,41729
32584,49301,41652
32676,49284,41537
32816,49269,41479
32892,49247,41376
32940,49255,41316
32904,49255,41220
32804,49263,41148
32692,49249,41076
32588,49271,40964
32568,49277,40902
32600,49232,40832
32661,49275,40720
32770,49253,40658
32832,49208,40609
32816,49231,40486
32828,49229,40431
32745,49237,40361
32660,49238,40280
32564,49239,40221
32564,49261,40109
32576,49260,40060
32712,49263,39971
32856,49249,39928
32852,49180,39808
32848,49221,39745
32822,49222,39711
32756,49226,39588
32676,49199,39526
32584,49244,39431
32564,49252,39393
32548,49253,39303
32568,49233,39263
32668,49237,39138
32812,49157,39087
32832,49196,39045
32812,49205,38969
32752,49215,38940
32637,49217,38800
32568,49231,38750
32545,49237,38743
32544,49181,38596
32576,49221,38545
32618,49210,38516
32728,49159,38422
32840,49190,38404
32856,49199,38276
32768,49204,38288
32642,49211,38133
32509,49159,38060
32442,49231,38012
32444,49218,37998
32505,49201,37889
32544,49213,37892
32654,49130,37772
32716,49159,37751
32680,49177,37657
32636,49201,37662
32536,49149,37492
32448,49219,37449
32388,49208,37499
32456,49215,37367
32608,49215,37340
32776,49205,37200
32956,49183,37135
33088,49177,37093
33175,49172,37125
33080,49159,36965
33016,49191,36975
32912,49211,36850
32852,49199,36782
32848,49204,36743
32940,49199,36804
33052,49159,36665
33161,49140,36684
33184,49141,36569
33070,49159,36596
32984,49183,36423
32888,49172,36481
32824,49189,36356
32804,49191,36406
32820,49186,36252
32804,49191,36203
32886,49159,36127
32924,49173,36066
32905,49159,36141
32856,49159,35972
32832,49159,35948
32807,49152,35937
32792,49189,35831
32701,49197,35903
32756,49188,35754
32868,49191,35820
32982,49151,35659
33049,49159,35535
33096,49159,35527
33016,49159,35536
32964,49157,35429
32876,49172,35347
32765,49188,35335
32704,49180,35434
32780,49189,35277
32784,49175,35345
32837,49172,35160
32909,49111,35226
33004,49148,35071
32980,49159,35137
32933,49159,34975
32840,49168,35061
32808,49132,34887
32772,49156,34847
32824,49199,34757
32902,49183,34721
32908,49181,34693
32984,49159,34756
33069,49107,34591
33028,49159,34528
32976,49159,34415
32892,49159,34444
32804,49191,34321
32754,49197,34423
32764,49189,34260
32834,49188,34109
32918,49158,34134
32956,49126,34110
32964,49159,34047
32941,49157,34127
32764,49159,33917
32528,49180,33900
32278,49181,33804
32064,49196,33791
31908,49191,33671
31812,49189,33743
31792,49172,33653
31809,49159,33671
31952,49159,33537
32064,49159,33641
32176,49159,33485
32368,49159,33549
32636,49137,33405
33021,49140,33505
33480,49180,33343
33996,49159,33348
34568,49159,33173
35248,49102,33231
36057,49132,33105
36444,49134,33143
36684,49157,32993
36700,49159,33058
36580,49128,33125
36528,49197,33010
36672,49199,32975
36788,49194,32908
36768,49149,32822
36496,49125,32967
36184,49159,32839
35760,49183,32893
35324,49181,32743
34764,49176,32688
34208,49199,32668
33709,49199,32556
33306,49204,32654
33176,49188,32558
33128,49151,32660
33088,49175,32519
33004,49183,32565
32852,49172,32447
32677,49183,32333
32520,49181,32333
32384,49211,32188
32288,49212,32268
32284,49200,32127
32272,49211,32228
32361,49189,32099
32344,49189,32212
32308,49125,32077
32332,49159,31961
32380,49120,31992
32324,49134,31896
32184,49148,32025
32060,49188,31868
32012,49209,31985
32068,49215,31803
32164,49191,31839
32294,49191,31620
32268,49127,31695
32224,49191,31498
32080,49191,31589
32012,49183,31462
32029,49209,31495
31932,49181,31366
31909,49212,31394
32033,49207,31248
32100,49191,31341
32160,49193,31155
32196,49191,31228
32197,49133,31068
32152,49207,31124
32084,49204,30954
32022,49208,31048
31968,49220,30892
31976,49225,30969
32080,49159,30804
32192,49157,30953
32268,49201,30719
32356,49190,30800
32408,49199,30575
32392,49143,30667
32312,49212,30734
32260,49221,30573
32176,49247,30404
32200,49239,30447
32364,49233,30309
32432,49223,30321
32560,49215,30137
32608,49159,30204
32556,49220,30209
32532,49212,30041
32482,49216,30034
32456,49204,29983
32444,49255,29922
32496,49244,29949
32568,49247,29795
32705,49222,29618
32829,49223,29679
32924,49215,29504
32837,49225,29589
32764,49236,29629
32676,49236,29456
32628,49185,29463
32584,49204,29353
32624,49248,29375
32740,49255,29136
32948,49236,29221
32984,49236,29017
33000,49231,29064
33032,49233,28876
32980,49236,28998
32924,49245,28872
32860,49213,28917
32720,49268,28732
32732,49275,28791
32920,49260,28640
33060,49255,28421
33100,49254,28515
33084,49247,28303
33032,49255,28391
32980,49255,28183
32892,49255,28308
32888,49279,28188
32944,49276,28199
32952,49215,27951
33068,49261,28063
33183,49268,27969
33200,49275,27965
33244,49260,28004
33241,49252,27849
33164,49253,27691
33116,49285,27749
33024,49284,27653
32968,49303,27649
32996,49305,27664
33020,49249,27500
33077,49286,27477
33216,49276,27303
33284,49271,27396
33232,49275,27258
33172,49285,27372
33072,49301,27190
33040,49245,27194
32964,49311,26937
33012,49308,27054
32988,49319,26985
33036,49305,26948
33081,49287,26853
33044,49287,26840
33012,49296,26889
32932,49250,26595
32812,49311,26684
32636,49343,26472
32456,49335,26559
32396,49340,26553
32348,49344,26272
32404,49342,26259
32352,49316,26339
32432,49319,26263
32388,49328,26324
32229,49296,26012
32132,49351,26119
32016,49356,26095
31940,49376,25839
31972,49381,25952
32044,49319,25952
32116,49372,25762
32202,49351,25796
32224,49356,25801
32184,49357,25687
32096,49375,25705
32012,49340,25444
31941,49384,25547
31884,49409,25584
31940,49396,25304
32016,49402,25410
32092,49351,25423
32221,49381,25167
32262,49375,25268
32268,49388,25276
32204,49393,25075
32180,49383,25116
32145,49415,25095
32076,49443,25048
32061,49428,24981
32052,49415,24758
32152,49420,24879
32220,49415,24863
32272,49413,24880
32284,49373,24652
32222,49439,24729
32116,49432,24762
32116,49446,24452
32048,49415,24596
32076,49464,24573
32153,49463,24386
32252,49453,24528
32368,49449,24461
32496,49446,24445
32448,49454,24487
32357,49404,24231
32266,49472,24317
32248,49478,24101
32210,49488,24272
32208,49494,24336
32277,49492,24141
32432,49484,24176
32476,49478,24239
32524,49479,24108
32536,49480,24103
32438,49497,24160
32344,49499,23913
32321,49513,24020
32264,49527,23804
32292,49519,23943
32372,49517,23951
32456,49533,23992
32560,49516,23693
32688,49517,23787
32665,49460,23840
32622,49517,23911
32564,49525,23648
32492,49541,23764
32446,49557,23756
32448,49560,23838
32558,49511,23511
32580,49554,23708
32648,49541,23759
32732,49543,23524
32660,49543,23658
32573,49548,23716
32613,49583,23495
32544,49575,23612
32484,49594,23630
32554,49593,23455
32652,49591,23565
32752,49583,23378
32844,49580,23564
32880,49576,23401
32892,49583,23584
32834,49590,23512
32760,49607,23596
32692,49543,23414
32612,49629,23494
32616,49639,23387
32712,49621,23530
32804,49620,23497
32880,49620,23589
32992,49620,23492
32928,49622,23572
32832,49581,23473
32740,49647,23506
32684,49653,23325
32620,49671,23479
32660,49626,23577
32744,49666,23317
32816,49669,23510
32896,49668,23300
32920,49647,23520
32948,49639,23572
32886,49671,23524
32812,49671,23605
32775,49701,23450
32806,49703,23521
32785,49711,23620
32800,49716,23399
32904,49711,23562
33012,49701,23359
33092,49717,23575
33097,49703,23616
33056,49730,23594
32952,49663,23636
32858,49713,23540
32822,49756,23713
32798,49759,23617
32816,49764,23728
32864,49747,23671
32941,49749,23734
33022,49751,23684
33046,49688,23813
33020,49741,23736
32916,49773,23780
32820,49791,23748
32778,49799,23798
32824,49799,23727
32896,49789,23836
33022,49813,23941
33160,49784,23730
33236,49785,23924
33243,49799,23750
33164,49745,23969
33128,49828,23994
32984,49847,24008
32945,49853,24141
33000,49839,23911
33060,49853,24116
33092,49789,24185
33164,49836,23997
33169,49839,24186
33164,49847,24257
33160,49863,24129
33068,49865,24287
32928,49889,24132
32856,49890,24356
32861,49903,24467
33004,49821,24303
33053,49895,24440
33089,49895,24343
33112,49877,24503
33089,49884,24431
33080,49895,24583
32980,49909,24537
32828,49927,24651
32724,49887,24497
32772,49951,24711
32780,49943,24721
32892,49943,24576
33060,49943,24791
33236,49943,24668
33332,49943,24865
33288,49892,24986
33329,49935,24868
33236,49988,24933
33116,49980,24955
33120,49997,24992
33140,49926,25103
33260,49988,25029
33352,49985,25117
33388,49981,24996
33311,49991,25073
33208,49940,24941
33060,50007,25108
32984,50020,25153
33004,49969,25076
33036,50055,25126
33033,50040,24980
33044,50039,25152
33108,50026,25035
33164,50031,25180
33184,50042,25108
33064,50053,25197
32988,50006,25024
32972,50068,25228
32932,50092,25191
32953,50087,25239
33008,50101,25324
33100,50093,25247
33156,50084,25338
33208,50087,25296
33228,50087,25277
33156,50055,25325
33056,50055,25187
32924,50103,25351
32864,50143,25223
32877,50141,25364
32877,50151,25325
32957,50143,25455
33036,50144,25381
33072,50143,25268
33096,50151,25484
33030,50166,25420
32956,50164,25284
32876,50173,25524
32788,50183,25441
32752,50205,25298
32836,50200,25458
32940,50205,25407
33004,50205,25567
33076,50205,25479
33074,50201,25420
33005,50151,25500
32900,50182,25335
32816,50183,25496
32736,50244,25357
32722,50265,25530
32797,50263,25468
32908,50269,25532
32968,50265,25508
32944,50203,25562
32904,50268,25645
32768,50281,25572
32584,50287,25564
32374,50293,25583
32126,50311,25572
31980,50317,25583
31840,50311,25591
31770,50325,25588
31772,50287,25690
31768,50311,25589
31892,50311,25689
32037,50320,25572
32214,50337,25673
32568,50353,25620
32872,50372,25700
33396,50372,25596
33948,50357,25698
34520,50351,25525
35300,50350,25663
36129,50293,25561
36676,50343,25661
36928,50367,25628
36976,50379,25708
36940,50400,25752
36904,50423,25618
36992,50436,25693
37204,50436,25567
37169,50428,25726
36884,50420,25765
36608,50428,25637
36164,50435,25729
35688,50439,25824
35053,50404,25662
34388,50422,25755
33836,50489,25636
33436,50484,25746
33264,50484,25561
33144,50484,25742
33112,50487,25711
33076,50484,25836
32960,50487,25660
32880,50501,25731
32660,50508,25539
32532,50540,25750
32360,50528,25681
32228,50557,25729
32281,50551,25636
32356,50550,25709
32436,50476,25643
32592,50503,25700
32480,50548,25500
32420,50567,25685
32303,50565,25542
32252,50591,25668
32172,50615,25636
32173,50599,25696
32202,50599,25649
32392,50600,25605
32520,50607,25629
32548,50599,25539
32516,50537,25599
32428,50607,25610
32368,50616,25592
32312,50641,25559
32228,50646,25417
32320,50588,25541
32404,50613,25473
32474,50661,25517
32564,50649,25366
32652,50641,25508
32628,50644,25319
32588,50653,25480
32404,50664,25389
32312,50682,25465
32308,50667,25465
32316,50695,25464
32364,50709,25438
32420,50695,25440
32492,50680,25508
32552,50695,25336
32580,50692,25390
32542,50688,25412
32412,50727,25354
32352,50724,25356
32292,50740,25321
32268,50695,25207
32356,50750,25317
32458,50740,25260
32559,50724,25297
32656,50735,25201
32685,50735,25249
32616,50686,25316
32528,50704,25215
32440,50769,25189
32416,50784,25040
32432,50787,25188
32544,50759,25024
32686,50775,25153
32748,50772,25046
32812,50767,25116
32848,50709,25084
32812,50756,25074
32744,50788,25092
32672,50797,25050
32588,50815,25107
32612,50767,25033
32756,50812,25022
32857,50807,25013
32884,50812,24804
32852,50807,24961
32872,50798,24777
32960,50807,24919
32936,50772,24745
32896,50804,24868
32856,50847,24714
32945,50852,24865
33085,50845,24711
33144,50839,24863
33204,50839,24794
33241,50828,24727
33240,50844,24749
33160,50841,24724
33124,50837,24499
33004,50861,24670
32912,50871,24503
33000,50872,24621
33172,50879,24565
33376,50875,24610
33237,50799,24559
33236,50822,24596
33237,50844,24448
33209,50853,24497
33128,50878,24276
33101,50887,24455
33056,50884,24253
33056,50905,24420
33156,50896,24337
33260,50898,24376
33345,50852,24156
33480,50886,24296
33468,50895,24248
33384,50905,24238
33320,50900,24287
33228,50916,24088
33116,50877,24177
33132,50912,24230
33141,50932,24003
33200,50925,24113
33268,50927,24048
33336,50874,24047
33216,50909,24045
33100,50920,23980
32916,50941,23940
32789,50951,23919
32764,50964,23942
32677,50960,23854
32700,50951,23943
32689,50951,23820
32745,50949,23797
32744,50943,23759
32740,50945,23582
32636,50951,23761
32457,50965,23668
32292,50974,23597
32153,50996,23648
32180,50996,23461
32268,50989,23665
32376,50997,23533
32476,50978,23292
32544,50982,23525
32528,50941,23282
32582,50931,23455
32484,50945,23417
32408,51015,23353
32388,51017,23378
32440,51026,23396
32496,51031,23321
32492,51021,23274
32580,50973,23311
32578,50964,23055
32552,50981,23243
32424,51013,23088
32320,50999,23196
32287,51032,23103
32234,51043,23254
32318,51040,23166
32320,51028,22973
32444,51036,23088
32540,51043,22917
32586,51028,23047
32588,51031,22848
32548,50973,23029
32472,51016,22804
32392,51058,23004
32392,51032,22813
32424,51066,22991
32544,51071,22731
32684,51061,22920
32728,51055,22852
32768,51044,22893
32724,51053,22948
32652,51057,22865
32601,50988,22929
32453,51020,22740
32388,51065,22898
32408,51092,22756
32465,51087,22894
32540,51069,22848
32600,51061,22872
32705,51045,22852
32652,51004,22690
32573,51007,22810
32448,51013,22708
32464,51079,22869
32405,51101,22788
32398,51095,22831
32510,51092,22804
32532,51095,22600
32661,51077,22775
32760,51079,22757
32744,51069,22695
32620,51020,22756
32476,51086,22744
32456,51053,22708
32364,51101,22733
32396,51116,22560
32500,51047,22697
32628,51111,22513
32696,51068,22710
32672,51094,22454
32676,51095,22695
32620,51111,22479
32496,51087,22677
32372,51101,22464
32352,51132,22672
32357,51132,22600
32444,51125,22624
32481,51125,22580
32584,51044,22672
32781,51100,22407
32648,51116,22593
32580,51109,22637
32476,51068,22471
32489,51141,22586
32532,51138,22360
32477,51140,22597
32530,51147,22353
32596,51079,22586
32680,51079,22371
32764,51114,22553
32776,51113,22387
32700,51136,22540
32700,51143,22492
32668,51128,22521
32492,51172,22425
32460,51161,22510
32522,51152,22287
32609,51161,22504
32724,51079,22464
32920,51149,22468
32869,51151,22464
32748,51151,22454
32620,51149,22444
32588,51165,22445
32592,51159,22524
32716,51185,22335
32652,51180,22527
32732,51164,22423
32836,51161,22204
32897,51143,22460
32864,51146,22252
32798,51169,22453
32740,51181,22414
32600,51176,22183
32564,51190,22404
32568,51197,22327
32620,51188,22374
32596,51188,22281
32596,51119,22360
32684,51172,22169
32716,51183,22356
32708,51175,22133
32680,51195,22361
32500,51207,22197
32449,51217,22354
32476,51216,22308
32632,51207,22433
32684,51207,22373
32720,51207,22181
32726,51144,22310
32696,51202,22294
32697,51207,22318
32568,51207,22293
32440,51237,22333
32368,51247,22212
32336,51261,22340
32356,51252,22164
32488,51220,22308
32628,51196,22111
32692,51237,22336
32641,51236,22159
32616,51229,22290
32508,51244,22132
32452,51231,22284
32364,51271,22356
32324,51276,22281
32328,51271,22305
32476,51261,22284
32596,51269,22132
32692,51191,22295
32836,51236,22226
32868,51253,22306
32788,51271,22291
32830,51276,22154
32808,51277,22274
32792,51287,22291
32860,51244,22285
32928,51207,22181
32952,51268,22272
33120,51268,22321
33084,51276,22301
32926,51207,22308
32848,51278,22308
32736,51298,22321
32624,51311,22349
32644,51303,22122
32685,51300,22341
32724,51287,22145
32760,51295,22412
32860,51231,22192
32880,51279,22428
32728,51287,22185
32662,51284,22483
32576,51309,22306
32621,51311,22549
32576,51317,22470
32657,51319,22505
32688,51311,22534
32760,51296,22374
32749,51284,22552
32768,51311,22557
32712,51308,22454
32629,51316,22652
32580,51327,22594
32493,51325,22434
32512,51269,22628
32544,51335,22614
32660,51323,22700
32726,51309,22735
32782,51303,22530
32778,51301,22785
32588,51310,22749
32548,51303,22540
32620,51309,22795
32468,51273,22767
32436,51293,22852
32424,51329,22853
32436,51332,22634
32521,51321,22874
32544,51316,22857
32612,51252,22974
32570,51259,22921
32464,51281,22756
32381,51268,22977
32280,51277,22842
32292,51335,22983
32336,51335,22791
32388,51321,23034
32416,51325,23144
32448,51319,22956
32397,51308,23104
32292,51308,23148
32212,51333,23140
32048,51335,23175
31880,51335,23226
31724,51335,23060
31560,51333,23259
31440,51333,23208
31346,51321,23274
31206,51317,23289
31166,51308,23269
31224,51319,23341
31304,51247,23167
31416,51320,23399
31703,51329,23207
32108,51335,23436
32700,51327,23320
33252,51325,23515
33784,51316,23474
34464,51303,23445
35244,51285,23506
35796,51295,23311
36100,51308,23584
36216,51311,23414
36196,51335,23620
36308,51335,23599
36460,51335,23678
36616,51295,23662
36736,51266,23633
36521,51271,23704
36136,51308,23542
35632,51324,23744
35192,51329,23583
34597,51320,23768
33900,51340,23707
33424,51335,23814
33056,51329,23582
32933,51335,23839
32846,51263,23596
32816,51303,23864
32684,51309,23712
32544,51317,23856
32352,51316,23833
32128,51335,23965
31972,51319,23746
31900,51335,23884
31950,51335,23813
32001,51319,23992
32126,51300,23904
32140,51302,24007
32052,51301,23954
31924,51300,24014
31860,51316,23812
31808,51324,23951
31724,51335,23741
31636,51330,23954
31668,51335,23969
31776,51302,23789
31828,51276,23999
31894,51303,24047
31853,51291,23885
31769,51286,24044
31668,51319,24020
31616,51317,24053
31568,51271,24095
31546,51324,24068
31721,51309,24100
31790,51305,23882
31841,51247,24100
31956,51279,24160
31982,51301,24133
31882,51292,24127
31808,51303,23932
31740,51309,24127
31746,51319,24175
31668,51319,24233
31766,51308,24102
31893,51324,24037
31992,51251,24173
32012,51297,24193
32076,51280,23985
31973,51289,24056
31952,51300,24176
31912,51263,24159
31884,51335,24125
31944,51313,24173
32061,51319,24175
32164,51316,23936
32192,51309,24161
32245,51295,24148
32276,51291,23924
32196,51294,24132
32168,51301,24121
32092,51309,24196
32016,51324,23875
32012,51319,24000
32116,51311,24087
32237,51241,23993
32352,51244,24020
32512,51292,23821
32452,51284,23962
32424,51292,23999
32356,51317,23848
32388,51309,23992
32232,51295,24057
32200,51335,23870
32308,51325,23912
32408,51317,23743
32492,51303,23892
32504,51303,23852
32533,51300,23868
32516,51236,23793
32468,51324,23840
32432,51316,23926
32393,51335,23725
32468,51273,23793
32576,51335,23567
32628,51324,23757
32676,51316,23518
32777,51311,23760
32852,51311,23780
32772,51311,23678
32708,51325,23692
32656,51319,23449
32616,51325,23636
32668,51342,23639
32664,51335,23413
32797,51335,23621
32928,51270,23640
33004,51316,23500
33004,51319,23574
32836,51333,23543
32752,51335,23501
32724,51335,23559
32712,51353,23484
32732,51317,23554
32748,51364,23582
32807,51353,23548
32944,51335,23609
32997,51333,23541
32996,51311,23607
33116,51347,23527
33066,51349,23545
32944,51301,23386
32857,51381,23508
32872,51375,23455
32876,51335,23488
32940,51303,23280
33020,51364,23490
32996,51352,23454
32988,51300,23476
32808,51366,23534
32656,51375,23446
32532,51381,23529
32412,51335,23420
32356,51408,23498
32484,51389,23383
32532,51397,23438
32524,51383,23276
32504,51357,23413
32496,51381,23196
32296,51388,23443
32280,51396,23228
32156,51397,23401
32092,51373,23236
32136,51420,23412
32260,51419,23177
32277,51423,23380
32308,51418,23481
32336,51412,23334
32328,51357,23399
32236,51401,23339
32120,51431,23404
32084,51455,23209
32028,51453,23363
32072,51417,23143
32096,51453,23358
32092,51460,23400
32124,51444,23349
32232,51441,23300
32320,51432,23367
32204,51455,23309
32136,51404,23336
32092,51421,23168
32041,51492,23363
32084,51495,23136
32124,51493,23332
32248,51429,23127
32380,51452,23330
32468,51487,23297
32388,51476,23327
32344,51494,23321
32256,51500,23327
32200,51460,23428
32116,51463,23336
32113,51535,23393
32173,51524,23334
32268,51525,23376
32340,51527,23318
32492,51495,23355
32453,51517,23174
32342,51519,23354
32256,51533,23420
32148,51548,23340
32096,51556,23414
32086,51568,23190
32136,51535,23412
32196,51527,23492
32344,51559,23422
32480,51559,23376
32492,51551,23460
32388,51558,23263
32308,51573,23498
32280,51548,23319
32204,51600,23509
32202,51607,23376
32204,51607,23553
32324,51591,23460
32420,51577,23572
32472,51591,23562
32420,51591,23572
32373,51591,23661
32253,51604,23653
32074,51620,23762
31944,51636,23680
31964,51637,23743
32040,51643,23704
32100,51581,23743
32172,51636,23635
32260,51612,23826
32348,51617,23738
32194,51631,23895
32039,51650,23806
31948,51660,23929
31857,51660,23866
31876,51673,24026
31952,51615,23953
32077,51661,23943
32129,51646,24007
32148,51654,23892
32249,51645,24055
32206,51655,23904
32162,51620,24079
32036,51684,23943
32040,51669,24150
32076,51692,24149
32140,51695,24144
32228,51703,24225
32324,51700,24077
32320,51695,24301
32276,51631,24245
32180,51631,24277
32193,51643,24335
32152,51695,24175
32080,51719,24430
32088,51741,24347
32116,51719,24415
32252,51719,24271
32392,51692,24412
32480,51716,24294
32424,51719,24471
32420,51719,24337
32332,51743,24495
32296,51693,24324
32241,51772,24539
32264,51775,24648
32372,51719,24556
32482,51764,24644
32568,51767,24612
32661,51753,24712
32611,51762,24532
32527,51772,24653
32500,51780,24449
32421,51783,24692
32364,51801,24485
32372,51750,24721
32492,51801,24535
32584,51780,24746
32664,51791,24792
32704,51719,24777
32680,51789,24789
32568,51799,24825
32516,51807,24830
32444,51824,24631
32356,51828,24870
32373,51807,24921
32409,51825,24920
32480,51823,25020
32524,51828,24907
32553,51757,24958
32596,51821,24784
32504,51815,24981
32420,51837,25088
32353,51822,25032
32309,51861,24983
32288,51855,25068
32316,51847,25090
32392,51847,25103
32468,51809,25209
32496,51847,25030
32448,51839,25173
32400,51844,24967
32360,51783,25212
32382,51812,25161
32412,51864,25244
32476,51868,25299
32609,51876,25260
32816,51869,25403
32960,51863,25315
33048,51861,25380
33060,51833,25196
32980,51847,25412
32924,51863,25216
32800,51807,25474
32716,51864,25253
32681,51889,25483
32736,51885,25509
32840,51872,25456
32928,51870,25537
32980,51869,25589
32968,51807,25647
32856,51873,25597
32717,51857,25655
32644,51887,25501
32508,51893,25700
32476,51889,25629
32564,51868,25733
32644,51887,25820
32832,51868,25740
32856,51868,25792
32716,51869,25732
32716,51837,25818
32685,51884,25923
32609,51876,25719
32528,51903,25863
32500,51844,25890
32612,51903,25869
32677,51879,25991
32716,51893,25960
32756,51842,25980
32769,51863,25828
32784,51860,26033
32621,51887,26128
32516,51895,25850
32460,51902,26058
32492,51910,26064
32625,51846,25992
32632,51892,26125
32645,51877,26185
32660,51873,26180
32736,51869,26189
32788,51832,26204
32740,51897,26280
32520,51884,26229
32426,51896,26221
32452,51902,26254
32476,51839,26280
32572,51903,26260
32748,51876,26269
32952,51879,26073
32804,51879,26318
32704,51869,26416
32708,51887,26333
32604,51894,26348
32496,51837,26351
32384,51909,26416
32388,51911,26384
32394,51863,26477
32349,51887,26357
32189,51869,26436
32020,51864,26299
31752,51887,26397
31588,51884,26250
31368,51896,26429
31328,51876,26450
31552,51909,26447
31800,51893,26460
32089,51837,26341
32532,51895,26420
33116,51862,26246
33580,51799,26435
34044,51863,26505
34532,51871,26257
35184,51876,26404
35740,51833,26207
36156,51895,26421
36416,51876,26177
36584,51887,26381
36716,51876,26364
36896,51875,26300
37012,51828,26331
37044,51872,26348
36716,51893,26296
36316,51897,26358
35896,51908,26279
35472,51909,26307
35076,51901,26278
34660,51884,26329
34132,51892,26153
33700,51884,26207
33294,51860,26112
33140,51901,26181
32960,51893,26274
32808,51905,26072
32637,51887,26143
32440,51925,25915
32385,51904,26127
32360,51896,26180
32400,51902,26100
32556,51887,26143
32508,51861,26066
32292,51903,26081
32184,51901,26012
32112,51908,25983
31968,51931,25974
31901,51917,25799
31922,51916,25913
32056,51915,25734
32240,51900,25918
32172,51887,25916
32161,51908,25833
32108,51895,25824
32070,51908,25602
32028,51903,25773
31916,51935,25822
31920,51932,25646
31900,51921,25772
32064,51908,25570
32176,51853,25705
32213,51900,25724
32217,51903,25522
32140,51895,25657
32046,51879,25396
31996,51925,25609
31964,51932,25587
32032,51927,25420
32086,51927,25550
32200,51919,25540
32288,51900,25484
32340,51877,25532
32300,51909,25516
32240,51909,25374
32248,51909,25505
32184,51913,25516
32157,51878,25482
32136,51927,25527
32252,51933,25385
32276,51913,25431
32340,51905,25508
32468,51900,25215
32442,51887,25388
32416,51900,25382
32384,51845,25237
32372,51876,25337
32240,51940,25119
32256,51919,25308
32380,51932,25388
32432,51919,25291
32464,51911,25255
32584,51828,25238
32524,51879,25207
32502,51899,25181
32448,51906,25174
32420,51910,25244
32301,51910,24978
32276,51924,25169
32356,51927,25135
32441,51919,25024
32572,51879,25074
32704,51895,24876
32620,51824,25061
32592,51876,25129
32670,51901,25009
32516,51913,25007
32473,51908,24997
32532,51927,25063
32600,51913,24928
32628,51904,24956
32872,51892,24931
32942,51895,24673
32864,51863,24898
32800,51884,24852
32805,51896,24790
32793,51863,24762
32704,51895,24839
32624,51916,24850
32728,51847,24711
32780,51900,24775
32952,51885,24856
33073,51804,24623
33064,51879,24717
33023,51876,24524
32950,51879,24751
32890,51847,24714
32736,51896,24648
32746,51900,24692
32905,51888,24733
32996,51884,24640
33160,51879,24657
33220,51863,24466
33216,51860,24637
33160,51847,24676
33096,51865,24596
32992,51837,24625
32908,51876,24660
32984,51884,24431
32916,51879,24595
32950,51868,24679
33093,51868,24468
33132,51842,24583
33076,51847,24524
33088,51847,24601
32968,51847,24350
32912,51869,24564
32764,51808,24326
32776,51881,24511
32600,51877,24527
32652,51860,24388
32752,51855,24504
32872,51799,24388
32854,51821,24513
32685,51839,24301
32617,51847,24462
32524,51863,24283
32364,51828,24455
32320,51879,24390
32389,51871,24414
32416,51861,24472
32556,51847,24371
32516,51844,24418
32492,51844,24277
32444,51844,24366
32352,51847,24159
32224,51871,24306
32168,51807,24085
32196,51841,24261
32168,51871,24288
32257,51845,24098
32373,51796,24224
32433,51839,24280
32444,51815,24205
32444,51829,24253
32400,51836,24160
32288,51847,24212
32224,51803,24099
32308,51863,24097
32361,51847,23910
32432,51847,24101
32544,51839,23828
32604,51823,24038
32656,51815,24016
32588,51833,23773
32508,51828,23990
32352,51813,24031
32398,51869,23920
32384,51847,23948
32356,51847,23762
32421,51847,23915
32716,51832,23828
32688,51762,23934
32698,51820,23716
32676,51823,23867
32576,51825,23708
32464,51838,23845
32388,51840,23624
32348,51807,23829
32380,51813,23608
32484,51829,23807
32560,51823,23676
32628,51812,23796
32732,51806,23750
32664,51807,23796
32506,51764,23799
32469,51829,23808
32400,51825,23900
32432,51837,23777
32432,51823,23820
32504,51768,23652
32509,51815,23830
32576,51796,23614
32724,51780,23817
32696,51799,23863
32584,51799,23837
32556,51775,23898
32396,51829,23837
32276,51814,23921
32460,51807,23781
32592,51812,23875
32664,51788,23791
32758,51719,23902
32812,51753,23810
32744,51775,23943
32629,51777,23813
32556,51785,23982
32488,51783,23911
32437,51788,23995
32448,51784,23948
32644,51719,24037
32740,51778,23810
32856,51748,23945
32865,51751,23981
32844,51693,23877
32764,51771,23996
32636,51766,23813
32672,51781,23965
32561,51775,23807
32548,51743,24005
32613,51765,23989
32669,51759,23788
32772,51743,24009
32836,51719,24041
32840,51671,23865
32704,51749,24056
32576,51744,24093
32568,51679,23983
32720,51763,24036
32633,51736,23998
32684,51719,24031
32846,51683,24082
32876,51679,23975
32972,51711,24068
32948,51693,23929
32744,51705,24112
32780,51717,23931
32732,51719,24116
32652,51655,24140
32596,51703,24141
32696,51692,24194
32796,51687,23964
32796,51633,24218
32772,51636,23980
32780,51695,24190
32656,51677,24218
32732,51684,24189
32584,51683,24230
32545,51686,24028
32553,51687,24266
32652,51676,24329
32821,51665,24116
32944,51591,24293
32888,51649,24201
32756,51637,24261
32761,51647,24104
32744,51647,24281
32572,51663,24061
32524,51653,24279
32548,51585,24348
32508,51639,24160
32632,51620,24278
32744,51612,24059
32720,51605,24276
32660,51567,24345
32584,51607,24280
32516,51612,24311
32460,51620,24136
32424,51557,24293
32328,51608,24277
32488,51591,24209
32641,51588,24281
32740,51575,24340
32644,51544,24204
32624,51556,24356
32432,51564,24169
32264,51572,24287
32248,51529,24166
32348,51582,24239
32356,51567,24205
32572,51548,24228
32752,51541,24017
32897,51463,24251
33000,51523,23993
33092,51513,24213
32980,51527,24289
32776,51452,24213
32704,51524,24194
32672,51536,24184
32720,51513,23996
32840,51505,24175
32828,51488,24064
32917,51476,24158
32836,51423,24041
32844,51473,24151
32760,51463,24116
32644,51477,24159
32568,51484,23905
32485,51485,24111
32516,51463,23967
32588,51463,24157
32630,51415,23986
32734,51436,24124
32756,51429,24105
32716,51420,23981
32588,51437,24093
32436,51428,23862
32320,51450,24082
32224,51372,24175
32340,51436,23932
32438,51408,24071
32508,51351,24132
32672,51397,23916
32680,51385,24070
32448,51394,24120
32429,51389,23925
32340,51383,24089
32353,51394,24169
32324,51335,23866
32408,51391,24077
32540,51372,24073
32708,51303,23898
32752,51342,24100
32836,51335,24060
32676,51335,24025
32696,51333,24071
32556,51332,24052
32448,51356,24068
32436,51348,24084
32496,51335,23951
32716,51324,24092
32856,51263,24099
32932,51302,24117
32737,51303,24100
32700,51295,24041
32636,51295,24103
32532,51244,23908
32612,51297,24127
32532,51296,24227
32564,51287,24105
32637,51231,24204
32728,51268,24103
32726,51262,24260
32620,51247,24151
32508,51236,24162
32264,51244,23972
31956,51244,24173
31652,51221,24198
31540,51255,24257
31488,51236,24111
31516,51223,24247
31712,51220,24235
32021,51189,24251
32380,51203,24048
32564,51197,24266
32869,51183,24348
33304,51191,24265
33776,51197,24292
34304,51190,24164
34772,51127,24379
35445,51164,24144
36080,51148,24366
36436,51143,24438
36580,51079,24312
36592,51148,24386
36612,51151,24196
36693,51164,24426
36824,51150,24513
36738,51172,24237
36416,51165,24455
36160,51117,24540
35758,51149,24308
35396,51117,24508
34940,51116,24569
34336,51116,24302
33680,51129,24572
33216,51126,24360
32846,51132,24573
32624,51079,24583
32564,51135,24608
32484,51114,24698
32448,51105,24447
32433,51089,24665
32320,51079,24670
32193,51078,24634
32032,51079,24711
31904,51079,24773
31813,51101,24592
31820,51105,24725
31780,51031,24583
31816,51079,24783
31860,51071,24817
31852,51060,24805
31873,51039,24816
31944,51033,24677
31824,51056,24865
31748,51044,24920
31640,51075,24681
31660,50996,24919
31732,51069,24893
31788,51041,24880
31852,51039,24966
31912,51022,25027
31948,50948,24935
31968,50999,25012
31904,51031,24858
31864,51043,25047
31820,51034,25009
31764,51041,25127
31788,50977,25112
31893,51000,24999
32016,51012,25221
32144,50989,25030
32208,50993,25266
32204,50988,25316
32144,50979,25134
32084,50999,25351
32013,51010,25479
31996,51015,25428
32056,51011,25521
32112,50971,25351
32190,50969,25530
32272,50973,25582
32320,50940,25440
32364,50965,25651
32304,50964,25476
32224,50964,25681
32192,50989,25811
32140,50976,25632
32212,50976,25767
32281,50958,25613
32357,50951,25853
32514,50887,25857
32560,50941,25920
32536,50948,26036
32436,50940,25993
32320,50951,26094
32256,50951,25887
32260,50973,26101
32280,50951,26212
32349,50951,26045
32424,50933,26181
32528,50896,26149
32568,50925,26273
32528,50860,26304
32472,50937,26165
32384,50924,26391
32340,50937,26454
32324,50943,26393
32352,50941,26500
32428,50924,26409
32564,50922,26616
32718,50913,26753
32820,50897,26530
32860,50905,26752
32824,50867,26899
32784,50919,26681
32700,50925,26903
32644,50925,26946
32708,50932,26982
32788,50888,27074
32877,50916,26962
32992,50900,27150
33025,50892,27044
32988,50884,27276
32916,50901,27429
32852,50900,27291
32796,50917,27471
32756,50906,27613
32796,50912,27458
32932,50900,27655
33036,50887,27708
33089,50836,27637
33126,50868,27856
33076,50872,27932
33024,50887,27904
32956,50895,28109
32932,50900,28197
32941,50845,28100
32968,50896,28368
33008,50895,28439
33073,50860,28476
33096,50857,28591
33132,50799,28735
33096,50861,28765
33036,50879,28953
32928,50876,29060
32836,50871,29086
32788,50889,29303
32776,50831,29517
32748,50885,29437
32772,50885,29681
32780,50817,29833
32770,50853,29771
32652,50868,30060
32484,50844,30193
32380,50878,30420
32292,50892,30590
32196,50900,30442
32224,50901,30765
32289,50849,30908
32354,50893,30898
32428,50864,31177
32421,50837,31375
32332,50863,31444
32276,50823,31460
32172,50873,31665
32057,50908,31796
31968,50905,32037
31953,50903,32224
31960,50891,32311
32073,50895,32540
32164,50879,32687
32168,50879,32901
32148,50887,32869
32078,50903,33188
32004,50852,33359
31996,50927,33605
32048,50924,33628
32072,50884,33775
32108,50909,34028
32176,50909,34204
32204,50900,34375
32192,50887,34700
32152,50884,34633
32068,50912,34916
31968,50919,35053
31876,50932,35309
31852,50932,35559
31916,50861,35534
32021,50925,35808
32152,50918,35973
32240,50861,36239
32249,50903,36309
32292,50901,36516
32285,50908,36823
32200,50908,36839
32148,50941,37086
32152,50934,37284
32164,50938,37431
32252,50919,37732
32292,50935,37836
32352,50911,38109
32336,50919,38180
32292,50919,38375
32257,50871,38626
32220,50933,38773
32212,50932,38941
32224,50902,39208
32296,50943,39348
32453,50911,39516
32516,50914,39716
32565,50919,39892
32612,50916,40092
32576,50919,40339
32529,50924,40489
32465,50932,40661
32392,50887,40855
32416,50951,41076
32509,50948,41223
32588,50948,41415
32664,50929,41631
32733,50889,41813
32772,50919,42020
32740,50919,42191
32668,50938,42392
32592,50935,42564
32492,50892,42780
32456,50951,42985
32464,50949,43137
32532,50943,43327
32656,50935,43540
32768,50932,43759
32820,50935,43904
32812,50925,44135
32772,50935,44324
32664,50943,44481
32552,50949,44708
32464,50951,44849
32489,50951,45108
32592,50949,45301
32654,50932,45428
32697,50929,45679
32686,50916,45871
32648,50884,46069
32608,50947,46272
32640,50944,46406
32612,50917,46556
32608,50951,46836
32632,50951,46935
32696,50896,47199
32784,50948,47405
32856,50932,47485
32876,50879,47751
32821,50932,47961
32724,50951,48135
32615,50872,48317
32557,50942,48428
32528,50972,48669
32576,50967,48868
32688,50964,48927
32820,50900,49204
32960,50933,49415
33012,50929,49459
32980,50896,49727
32892,50940,49901
32852,50948,49951
32805,50971,50220
32744,50951,50296
32752,50972,50543
32788,50967,50693
32856,50951,50894
32936,50944,51057
32980,50943,51061
32985,50892,51324
32860,50951,51385
32796,50951,51645
32725,50916,51764
32732,50967,51941
32828,50981,52020
32924,50960,52228
32992,50951,52316
33056,50945,52516
33060,50932,52661
33016,50942,52815
32989,50941,52972
32885,50972,53093
32808,50972,53198
32737,50968,53383
32737,50975,53549
32780,50961,53651
32848,50951,53800
32926,50941,53895
32962,50951,54050
32942,50951,54151
32860,50897,54279
32744,50964,54279
32628,50970,54581
32628,50980,54520
32686,50917,54817
32820,50975,54844
32982,50951,55052
33112,50951,55117
33232,50938,55303
33292,50936,55421
33228,50951,55591
33088,50932,55664
32912,50983,55832
32856,50984,55937
32896,50968,56126
33040,50975,56273
33176,50972,56327
33244,50951,56514
33268,50892,56400
33200,50963,56748
33108,50951,56640
33021,50977,56967
32932,50937,57071
32852,50980,57120
32820,50988,57247
32916,50965,57380
32996,50975,57520
33060,50914,57589
33120,50951,57671
33116,50933,57735
33064,50966,57927
32972,50967,58015
32876,50991,58132
32844,50944,58191
32868,50999,58312
32936,50980,58413
33008,50908,58502
33088,50951,58503
33104,50942,58631
33084,50901,58685
32958,50964,58835
32856,50951,58852
32772,50989,59015
32724,50992,59012
32749,50951,59185
32809,50969,59165
32886,50983,59357
32964,50960,59501
33014,50951,59526
33002,50951,59648
32936,50969,59673
32868,50918,59813
32862,50984,59602
32836,50989,59957
32872,50984,59783
32920,50924,60077
33000,50983,60150
33000,50951,59980
33076,50951,60320
33000,50900,60096
32865,50968,60423
32800,50969,60380
32730,50988,60549
32677,50980,60615
32650,50993,60532
32672,50984,60700
32756,50975,60673
32804,50932,60869
32748,50940,60935
32604,50951,60752
32408,50951,60993
32188,50981,61060
31994,50948,61177
31848,50991,61244
31752,50983,61264
31764,50973,61287
31828,50951,61319
32097,50961,61405
32407,50946,61440
32664,50949,61573
32980,50951,61629
33276,50969,61655
33628,50911,61759
33944,50965,61519
34368,50988,61760
35049,50965,61844
35685,50896,61879
36072,50945,61900
36324,50935,62023
36480,50903,61916
36380,50951,62044
36160,50980,62077
36064,50996,62144
36040,50996,62215
36020,50989,62279
35885,50997,62328
35564,50924,62350
35245,50964,62396
34952,50951,62214
34628,50950,62452
34208,50972,62461
33808,50964,62535
33432,50984,62599
33132,50924,62588
32988,51004,62620
32908,50973,62588
32916,50967,62663
32893,50951,62549
32852,50951,62812
32744,50951,62768
32588,50951,62776
32466,50983,62722
32348,50981,62868
32308,50988,62855
32292,50988,62887
32328,50927,62872
32360,50951,62982
32420,50944,63015
32420,50941,63087
32389,50948,63052
32348,50951,63080
32268,50958,63171
32225,50980,62918
32172,50965,63132
32229,50976,63108
32260,50900,63180
32328,50961,63215
32396,50936,63012
32436,50877,63248
32428,50937,63305
32284,50942,63175
32188,50951,63320
32128,50951,63312
32133,50966,63307
32152,50959,63354
32232,50950,63154
32336,50936,63298
32448,50932,63335
32540,50935,63348
32492,50868,63324
32372,50928,63328
32250,50941,63356
32160,50951,63360
32117,50895,63228
32204,50960,63324
32388,50948,63340
32512,50932,63111
32616,50933,63252
32713,50917,63261
32716,50921,63272
32696,50924,63300
32648,50868,63159
32584,50951,63264
32560,50949,63180
32596,50936,63252
32676,50926,63183
32760,50941,63085
32804,50911,63192
32850,50868,63164
32807,50919,63095
32768,50897,63120
32744,50921,63088
32673,50933,63095
32702,50945,63084
32824,50925,62949
32935,50919,62983
33028,50924,62962
33116,50860,62978
33156,50912,62920
33164,50901,62905
33100,50917,62621
33056,50935,62828
33026,50918,62855
32992,50937,62796
32996,50888,62848
33096,50917,62714
33232,50919,62754
33340,50840,62772
33377,50907,62544
33332,50888,62663
33228,50857,62616
33100,50909,62462
33006,50924,62556
32948,50916,62471
32958,50919,62471
33040,50918,62279
33164,50912,62417
33236,50911,62328
33240,50823,62309
33232,50901,62020
33188,50895,62215
33092,50871,62215
33028,50912,61948
33056,50917,62113
33112,50921,62120
33236,50852,61831
33396,50916,61972
33496,50900,61941
33560,50895,61924
33556,50900,61882
33461,50892,61793
33396,50895,61734
33264,50919,61591
33192,50924,61664
33160,50909,61461
33236,50916,61525
33352,50908,61318
33417,50900,61497
33388,50895,61365
33336,50895,61397
33276,50839,61296
33220,50900,61248
33153,50932,61180
33092,50925,61063
33060,50932,61024
33088,50908,60816
33092,50900,61007
33088,50893,60908
33056,50901,60871
32970,50836,60792
32872,50887,60752
32712,50919,60677
32572,50916,60654
32484,50935,60551
32442,50879,60520
32460,50925,60365
32464,50927,60316
32466,50919,60072
32468,50853,60262
32444,50925,59944
32340,50913,60120
32270,50925,59911
32160,50948,60004
32149,50916,59701
32164,50951,59841
32220,50924,59576
32324,50932,59769
32368,50927,59685
32356,50924,59564
32242,50933,59500
32172,50887,59271
32100,50889,59439
32044,50950,59367
32015,50964,59181
32064,50960,59263
32164,50967,59014
32244,50964,59108
32368,50948,58887
32409,50893,58972
32432,50950,58855
32361,50951,58833
32292,50951,58664
32272,50973,58701
32248,50983,58550
32296,50951,58587
32360,50983,58460
32456,50964,58423
32544,50951,58196
32574,50951,58368
32576,50964,58284
32484,50969,58196
32364,50951,58164
32276,51005,57991
32180,50993,58007
32228,50997,57863
32352,50927,57876
32484,50996,57836
32522,50983,57816
32580,50976,57671
32588,50901,57693
32502,50935,57647
32458,50992,57569
32429,50997,57548
32412,51017,57412
32469,50951,57404
32576,51015,57348
32657,50997,57311
32692,50996,57235
32692,50996,57220
32668,50989,57156
32604,50998,57085
32517,51015,57069
32488,51021,56780
32464,51031,56956
32520,50991,56711
32656,51033,56780
32748,51017,56560
32782,50997,56748
32754,50999,56487
32716,51014,56580
32622,51012,56437
32569,51029,56493
32540,50975,56404
32520,51047,56405
32560,51041,56288
32708,51031,56263
32816,51028,56061
32896,50977,56198
32924,51023,56116
32876,51028,56095
32772,51023,56011
32692,51044,55924
32624,51062,55901
32600,51068,55815
32672,51015,55776
32732,51069,55705
32820,51061,55702
32904,51053,55556
32940,51020,55542
32888,50980,55381
32792,51048,55454
32696,51061,55414
32620,51077,55413
32582,51079,55148
32673,51079,55288
32708,51068,55233
32784,51079,55189
32868,50996,55137
32892,51045,55089
32873,51068,55036
32788,51076,54949
32700,51079,54957
32644,51079,54893
32604,51093,54884
32620,51101,54809
32756,51094,54660
32864,51088,54732
32960,51055,54663
33000,51079,54527
33020,51079,54600
32968,51084,54535
32882,51104,54428
32836,51111,54484
32758,51119,54404
32748,51125,54230
32788,51119,54341
32900,51095,54276
32948,51103,54163
33008,51100,54149
32980,51101,53991
32872,51105,54135
32748,51109,54072
32606,51108,53932
32544,51141,53964
32578,51141,53815
32686,51136,53831
32766,51128,53828
32840,51117,53645
32884,51109,53805
32884,51111,53724
32824,51121,53581
32768,51136,53671
32708,51148,53604
32696,51128,53574
32772,51161,53524
32797,51150,53392
32836,51140,53460
32880,51135,53412
32881,51124,53365
32776,51140,53292
32600,51143,53158
32548,51079,53207
32536,51159,53037
32609,51172,53164
32802,51180,53127
33004,51159,52999
33200,51167,53028
33340,51157,53013
33400,51159,52916
33337,51079,52897
33196,51161,52776
33124,51164,52820
33032,51180,52664
32972,51136,52801
32932,51199,52732
32946,51189,52720
33006,51180,52655
33045,51132,52652
33084,51163,52596
33080,51167,52583
33065,51172,52525
32924,51188,52481
32832,51141,52436
32764,51207,52413
32740,51198,52359
32728,51200,52324
32797,51207,52287
32848,51177,52228
32868,51175,52185
32828,51191,52183
32788,51191,52116
32676,51206,52084
32604,51194,52062
32540,51207,52004
32556,51207,51957
32600,51170,51825
32673,51207,51893
32764,51191,51716
32788,51188,51847
32704,51124,51788
32640,51192,51764
32560,51207,51692
32481,51220,51612
32424,51231,51612
32420,51181,51489
32504,51195,51527
32612,51191,51521
32652,51207,51368
32672,51207,51401
32636,51199,51244
32524,51228,51375
32404,51236,51316
32364,51175,51193
32308,51237,51201
32346,51250,51052
32448,51236,51175
32544,51231,51103
32584,51168,51093
32636,51216,50909
32608,51207,50992
32524,51238,50945
32472,51175,50809
32480,51271,50861
32420,51252,50733
32420,51252,50770
32508,51207,50620
32548,51255,50726
32548,51228,50567
32492,51172,50620
32344,51229,50500
32092,51233,50537
31836,51240,50437
31652,51255,50476
31573,51279,50389
31588,51263,50381
31808,51261,50372
32085,51186,50336
32449,51245,50325
32824,51236,50269
33128,51206,50232
33488,51247,50065
33768,51246,50124
34108,51269,50049
34574,51280,50071
35229,51256,50055
35712,51263,49999
35976,51252,49980
36224,51261,49916
36305,51254,49900
36232,51258,49716
36218,51255,49783
36196,51279,49684
36108,51289,49720
35868,51303,49702
35476,51296,49527
35152,51300,49598
34956,51270,49452
34780,51263,49537
34508,51260,49479
34084,51259,49439
33648,51273,49415
33260,51287,49376
33032,51284,49220
32868,51288,49319
32760,51232,49149
32712,51293,49217
32684,51277,49180
32684,51207,49031
32640,51261,49092
32564,51257,49061
32445,51247,49046
32340,51284,49014
32252,51281,48919
32196,51286,48948
32226,51295,48924
32268,51294,48809
32320,51225,48840
32340,51271,48837
32428,51263,48703
32464,51184,48767
32420,51263,48660
32328,51276,48687
32268,51284,48639
32192,51287,48560
32256,51238,48556
32304,51288,48502
32364,51281,48485
32408,51271,48391
32476,51253,48388
32536,51252,48290
32493,51258,48319
32440,51248,48263
32404,51239,48239
32357,51207,48188
32396,51295,48135
32472,51273,48075
32584,51268,48046
32640,51238,48000
32632,51244,47903
32568,51235,47900
32480,51237,47848
32416,51204,47781
32358,51262,47751
32312,51271,47684
32336,51279,47577
32376,51263,47607
32464,51236,47572
32528,51239,47424
32604,51229,47452
32608,51197,47314
32580,51245,47358
32500,51231,47296
32436,51261,47253
32404,51244,47111
32436,51263,47140
32508,51255,47013
32668,51241,47030
32744,51239,46909
32812,51204,46926
32780,51223,46813
32728,51241,46836
32648,51181,46720
32596,51244,46734
32581,51257,46639
32600,51188,46638
32669,51239,46536
32744,51248,46567
32848,51231,46436
32980,51167,46453
33016,51204,46365
32976,51223,46372
32892,51229,46343
32868,51240,46217
32852,51245,46248
32860,51247,46152
32956,51207,46164
33093,51225,46087
33212,51204,46087
33224,51167,46049
33228,51205,45949
33152,51195,45934
33120,51157,45886
33142,51228,45875
33125,51199,45831
33160,51229,45792
33244,51207,45756
33309,51207,45713
33404,51204,45639
33504,51185,45631
33521,51193,45596
33492,51189,45508
33384,51195,45505
33244,51207,45471
33176,51207,45417
33232,51157,45380
33304,51204,45348
33420,51195,45285
33536,51180,45236
33589,51160,45212
33620,51167,45148
33600,51164,45119
33500,51175,45031
33376,51193,45025
33268,51128,44935
33300,51191,44935
33388,51188,44832
33468,51175,44837
33544,51164,44740
33552,51151,44772
33516,51124,44657
33402,51148,44644
33272,51108,44576
33132,51151,44559
33000,51174,44525
32980,51174,44407
33012,51169,44407
33044,51161,44364
33084,51079,44276
33112,51134,44261
33061,51137,44173
32972,51111,44177
32864,51148,44113
32684,51095,44064
32573,51168,43993
32512,51157,43980
32512,51167,43885
32538,51127,43895
32492,51141,43847
32528,51124,43764
32481,51086,43752
32398,51136,43679
32324,51143,43668
32250,51125,43628
32157,51140,43559
32134,51119,43550
32176,51154,43516
32228,51140,43447
32292,51073,43428
32384,51117,43389
32412,51116,43335
32303,51077,43301
32188,51137,43290
32116,51128,43212
32084,51155,43197
32108,51079,43120
32140,51133,43118
32256,51133,43044
32324,51116,43044
32348,51105,42999
32316,51103,42968
32193,51111,42931
32096,51111,42896
32060,51127,42860
32036,51133,42800
32056,51071,42792
32160,51119,42721
32216,51111,42706
32351,51092,42676
32440,51101,42644
32417,51079,42599
32424,51053,42588
32368,51095,42557
32232,51103,42524
32160,51119,42492
32192,51049,42415
32268,51103,42445
32318,51100,42385
32398,51077,42375
32456,51071,42351
32422,51055,42332
32348,51076,42311
32292,51079,42260
32288,51089,42268
32285,51060,42220
32308,51079,42204
32342,51077,42194
32412,51079,42158
32476,51061,42132
32560,51047,42113
32532,50996,42068
32473,51041,42069
32432,51048,42033
32420,51060,42021
32368,51060,41985
32372,51028,41973
32520,51055,41943
32534,51053,41920
32676,51012,41911
32768,51022,41863
32736,51028,41858
32644,51023,41816
32536,51029,41799
32551,50980,41789
32504,51040,41741
32508,51047,41716
32512,51039,41708
32568,51024,41677
32604,51015,41667
32596,51007,41641
32600,50967,41620
32556,51015,41612
32456,51015,41581
32400,51015,41586
32356,51014,41541
32348,50989,41543
32404,51018,41503
32462,50991,41501
32652,50975,41494
32708,50983,41449
32681,50975,41447
32656,50972,41409
32538,50991,41396
32448,50995,41383
32392,50996,41351
32448,50933,41351
32480,50997,41296
32596,50973,41287
32664,50975,41222
32712,50903,41221
32728,50951,41173
32664,50951,41169
32644,50975,41124
32544,50951,41104
32464,50980,41057
32472,50981,41048
32584,50964,40983
32632,50951,40980
32768,50936,40911
32864,50880,40862
32856,50933,40861
32800,50935,40796
32732,50938,40798
32612,50951,40729
32548,50933,40668
32588,50951,40676
32684,50933,40596
32706,50948,40592
32748,50909,40521
32752,50919,40485
32752,50908,40434
32688,50919,40373
32648,50903,40400
32608,50935,40308
32560,50950,40282
32592,50876,40212
32678,50935,40151
32748,50932,40113
32789,50860,40064
32816,50909,40101
32760,50902,39996
32736,50875,40012
32660,50924,39896
32576,50924,39849
32488,50932,39870
32512,50935,39756
32608,50919,39757
32702,50887,39671
32769,50900,39626
32772,50887,39572
32740,50823,39575
32700,50898,39495
32592,50885,39428
32516,50896,39397
32488,50908,39327
32484,50925,39302
32564,50910,39269
32677,50895,39205
32780,50864,39175
32780,50813,39210
32728,50844,39079
32644,50865,39011
32572,50884,39064
32516,50887,38944
32396,50901,38887
32382,50893,38861
32404,50901,38802
32448,50901,38868
32526,50863,38753
32560,50875,38767
32525,50876,38655
32456,50886,38636
32361,50886,38660
32297,50839,38542
32224,50897,38581
32244,50903,38463
32297,50900,38527
32386,50860,38407
32420,50869,38396
32432,50868,38317
32448,50868,38316
32458,50871,38244
32492,50893,38262
32533,50899,38177
32564,50909,38161
32620,50877,38211
32764,50898,38125
32936,50887,38183
33025,50879,38068
33112,50852,38128
33117,50870,37986
33084,50874,37964
32968,50895,37967
32905,50900,37879
32900,50917,37916
32916,50901,37826
32972,50903,37872
33005,50823,37789
33056,50901,37844
33060,50885,37695
33056,50886,37672
32952,50902,37759
32852,50892,37607
32736,50849,37597
32620,50924,37630
32613,50916,37497
32680,50919,37484
32708,50918,37584
32760,50911,37434
32832,50863,37399
32768,50892,37421
32724,50911,37354
32616,50857,37444
32540,50926,37284
32526,50935,37343
32512,50949,37244
32606,50900,37293
32694,50927,37165
32796,50919,37245
32900,50919,37119
32868,50920,37184
32832,50920,37015
32748,50924,37019
32653,50935,36944
32608,50951,36936
32644,50951,36883
32716,50951,36885
32796,50911,36831
32888,50951,36822
32948,50930,36821
32908,50878,36793
32765,50950,36858
32681,50950,36724
32620,50975,36810
32592,50980,36668
32684,50988,36652
32741,50908,36575
32808,50981,36537
32972,50962,36504
33044,50949,36431
32968,50951,36486
32828,50980,36368
32732,50983,36365
32709,50991,36278
32652,51005,36313
32644,50951,36404
32612,51012,36261
32588,51002,36292
32540,50996,36196
32412,50989,36188
32213,50985,36065
31984,51004,36084
31740,51006,36089
31648,50991,36032
31632,51029,36093
31788,51041,35975
32072,51001,36013
32452,51031,35820
32888,51015,35877
33476,51012,35892
33920,51028,35813
34341,50974,35756
34760,51046,35748
35404,51046,35872
35992,51064,35653
36320,51077,35660
36640,51063,35789
36864,51007,35556
36916,51061,35569
37056,51063,35686
37064,51071,35441
37060,51079,35460
36768,51101,35487
36260,51111,35416
35756,51132,35372
35324,51103,35397
34976,51125,35311
34624,51119,35273
34248,51120,35385
33830,51052,35270
33460,51121,35135
33197,51134,35137
33016,51101,35216
32840,51164,34995
32640,51174,35028
32559,51181,34988
32508,51150,34959
32520,51188,35024
32528,51167,34791
32584,51164,34804
32612,51180,34932
32406,51177,34655
32244,51181,34746
32177,51207,34735
32108,51206,34647
32160,51229,34631
32100,51234,34585
32128,51229,34636
32252,51207,34461
32341,51207,34476
32372,51228,34503
32304,51236,34429
32216,51252,34501
32148,51271,34231
32121,51277,34310
32192,51273,34202
32240,51282,34240
32388,51287,34244
32512,51284,34103
32593,51207,34017
32576,51287,34036
32568,51263,33981
32496,51303,34064
32406,51303,33927
32324,51335,33757
32300,51348,33830
32341,51309,33876
32432,51349,33705
32560,51335,33693
32638,51277,33609
32640,51335,33604
32594,51359,33554
32572,51372,33383
32480,51380,33468
32436,51393,33453
32484,51405,33394
32596,51335,33404
32704,51407,33192
32764,51396,33235
32829,51367,33241
32840,51391,32998
32794,51426,33102
32680,51399,33075
32616,51436,32868
32636,51463,32942
32649,51479,32885
32728,51476,32729
32832,51415,32774
32904,51452,32766
32970,51461,32690
32912,51463,32732
32848,51431,32484
32749,51511,32532
32688,51526,32513
32621,51535,32319
32644,51532,32397
32744,51543,32475
32860,51477,32229
32952,51541,32311
33040,51535,32101
33056,51485,32164
33004,51544,32201
32961,51556,31917
32884,51572,32047
32840,51601,32069
33012,51591,31871
33056,51548,31927
33136,51604,31958
33248,51591,31804
33280,51607,31823
33306,51606,31652
33252,51605,31696
33140,51628,31685
33088,51643,31665
33000,51627,31597
33008,51668,31389
33124,51660,31527
33264,51670,31553
33341,51657,31284
33380,51623,31380
33372,51677,31261
33356,51687,31305
33296,51695,31372
33177,51708,31140
33125,51719,31168
33144,51742,31153
33253,51741,31015
33356,51717,30949
33440,51669,30995
33464,51719,30863
33500,51719,30914
33470,51748,30883
33368,51757,30792
33320,51781,30774
33292,51781,30732
33316,51791,30745
33392,51797,30592
33468,51745,30596
33520,51788,30365
33560,51787,30496
33508,51788,30281
33372,51812,30404
33200,51757,30215
33036,51797,30343
32928,51804,30281
32884,51847,30228
32860,51847,30181
32952,51845,29956
33020,51847,30101
33024,51847,29880
32913,51847,30023
32756,51822,29816
32652,51881,29945
32520,51895,29767
32368,51847,29861
32328,51919,29668
32428,51919,29788
32492,51917,29586
32522,51892,29719
32556,51910,29500
32484,51918,29637
32388,51924,29433
32340,51911,29569
32206,51924,29428
32158,51972,29511
32208,51971,29397
32328,51956,29457
32392,51969,29501
32504,51972,29303
32576,51964,29346
32560,51967,29352
32497,51975,29264
32408,51933,29343
32324,52023,29213
32269,52014,29262
32348,52036,29112
32384,52031,29182
32440,52004,29048
32612,52025,29057
32644,52018,28901
32556,51956,28956
32572,52039,28780
32597,52055,28903
32376,52061,28748
32248,52007,28868
32232,52079,28672
32420,52068,28742
32484,52047,28740
32568,52069,28679
32608,52054,28692
32617,52061,28434
32530,52069,28588
32453,52084,28587
32392,52092,28368
32340,52119,28494
32320,52060,28271
32352,52117,28453
32420,52116,28492
32468,52036,28386
32528,52103,28363
32512,52101,28184
32454,52124,28285
32408,52127,28058
32348,52132,28232
32324,52151,28199
32340,52132,28134
32348,52157,28154
32388,52143,28214
32493,52143,27934
32652,52143,28055
32704,52148,27841
32609,52148,27988
32524,52152,27975
32417,52168,27900
32334,52193,27873
32305,52196,27785
32396,52187,27823
32502,52129,27805
32572,52182,27607
32684,52164,27747
32724,52149,27647
32656,52176,27707
32572,52189,27503
32537,52192,27589
32492,52212,27441
32456,52215,27522
32542,52212,27432
32662,52172,27421
32716,52213,27270
32784,52205,27361
32780,52204,27325
32680,52181,27207
32608,52221,27249
32544,52231,27192
32528,52175,27188
32504,52261,27205
32580,52240,27137
32704,52231,27127
32725,52231,27047
32776,52189,27132
32772,52231,26930
32653,52229,26985
32486,52231,26804
32476,52254,26959
32448,52273,26877
32448,52268,26909
32480,52277,26641
32580,52222,26828
32652,52279,26789
32685,52247,26801
32693,52252,26744
32653,52231,26737
32628,52276,26769
32536,52295,26546
32476,52231,26667
32450,52277,26603
32468,52302,26630
32513,52301,26586
32620,52282,26623
32698,52285,26500
32740,52295,26512
32610,52284,26281
32533,52248,26495
32458,52317,26534
32338,52320,26304
32292,52326,26441
32356,52336,26243
32445,52319,26412
32548,52253,26422
32612,52321,26286
32596,52303,26364
32556,52285,26428
32524,52320,26287
32456,52332,26300
32432,52335,26136
32436,52359,26286
32469,52335,26070
32516,52340,26254
32576,52343,26306
32632,52317,26180
32625,52332,26230
32580,52271,26277
32472,52340,26021
32380,52342,26207
32332,52359,26247
32360,52359,25991
32401,52357,26156
32449,52351,26117
32560,52349,25896
32584,52335,26119
32568,52340,26178
32479,52340,25933
32416,52287,26080
32396,52359,26050
32324,52375,25905
32340,52357,26052
32428,52348,26100
32500,52345,26029
32472,52283,26016
32544,52340,25861
32568,52339,25975
32512,52283,25965
32436,52332,25813
32358,52359,25972
32304,52359,25953
32297,52357,25767
32388,52284,25945
32493,52340,25914
32604,52341,25741
32640,52271,25947
32624,52335,25860
32516,52321,25836
32392,52333,25921
32376,52326,25924
32400,52343,25683
32414,52340,25870
32524,52279,25838
32620,52325,25764
32656,52259,25831
32676,52295,25799
32692,52301,25759
32680,52309,25820
32672,52304,25793
32548,52291,25580
32524,52317,25778
32596,52316,25845
32636,52279,25658
32700,52306,25716
32760,52284,25549
32805,52229,25685
32864,52285,25678
32848,52263,25521
32756,52229,25639
32708,52295,25545
32664,52295,25588
32624,52301,25607
32704,52277,25538
32824,52277,25489
32906,52215,25254
32961,52253,25467
32942,52255,25434
32936,52261,25247
32877,52252,25377
32781,52180,25443
32708,52271,25255
32695,52256,25300
32740,52198,25223
32813,52255,25247
32876,52231,25291
32920,52191,25028
32904,52209,25162
32836,52164,25168
32725,52217,24933
32660,52229,25116
32541,52182,25077
32548,52231,24985
32600,52229,24997
32641,52207,24916
32700,52196,24950
32732,52193,24909
32717,52119,24819
32760,52192,24764
32732,52180,24856
32705,52183,24853
32674,52204,24839
32740,52199,24544
32888,52149,24727
33032,52183,24749
33125,52161,24583
33212,52153,24647
33214,52141,24620
33156,52151,24641
33060,52158,24408
32966,52157,24547
32824,52103,24564
32792,52158,24327
32864,52144,24495
32952,52103,24448
33020,52119,24200
33092,52047,24421
33052,52103,24390
33014,52103,24184
32868,52097,24346
32736,52103,24418
32676,52111,24244
32660,52103,24295
32676,52103,24067
32756,52100,24247
32792,52100,24236
32845,52071,24232
32845,52013,24044
32810,52069,24189
32748,52071,24267
32684,52036,24056
32621,52081,24156
32572,52085,24169
32608,52077,23908
32716,52053,24117
32801,52039,24143
32898,52024,23987
32918,52023,24049
32872,51969,24067
32792,52031,24057
32712,52039,23951
32656,52045,24044
32687,52031,24055
32733,52023,23797
32821,51999,24004
32877,51997,24004
32960,51935,24010
32980,51993,23864
32916,51975,23957
32836,51997,23941
32744,51980,23705
32652,52005,23828
32684,52015,23903
32734,51997,23877
32824,51924,23657
32916,51975,23812
32977,51951,23840
32917,51933,23869
32864,51948,23588
32780,51911,23743
32714,51959,23775
32644,51905,23808
32572,51966,23527
32481,51892,23676
32412,51949,23720
32293,51929,23716
32136,51869,23540
31936,51908,23693
31764,51911,23759
31582,51909,23457
31584,51915,23639
31638,51925,23623
31853,51908,23618
32209,51878,23689
32668,51896,23348
33240,51887,23480
33892,51872,23553
34396,51871,23591
34912,51874,23341
35608,51863,23513
36341,51865,23528
36722,51870,23436
36968,51876,23396
37108,51872,23469
37300,51871,23545
37484,51860,23263
37608,51837,23470
37672,51847,23208
37420,51844,23429
36984,51800,23451
36452,51855,23213
35980,51870,23376
35524,51847,23438
35030,51860,23145
34496,51815,23263
34108,51836,23356
33780,51759,23364
33540,51820,23401
33312,51820,23130
33112,51775,23285
32904,51847,23386
32720,51845,23201
32604,51844,23262
32576,51824,23303
32564,51823,23207
32620,51799,23174
32685,51812,23238
32629,51797,22987
32500,51797,23205
32356,51797,23242
32281,51809,22990
32172,51823,23164
32184,51796,23196
32236,51813,23116
32336,51807,23159
32401,51719,23077
32492,51783,23155
32496,51760,23119
32436,51781,23132
32364,51719,23209
32336,51719,23140
32320,51797,23202
32332,51796,23104
32400,51764,23150
32484,51775,23068
32576,51773,23130
32636,51744,23248
32632,51698,22997
32569,51764,23152
32505,51767,23206
32423,51753,23082
32356,51786,23156
32384,51791,23000
32468,51777,23181
32608,51783,23251
32672,51764,23106
32724,51757,23271
32724,51764,23214
32668,51719,23276
32612,51765,23092
32549,51771,23242
32500,51788,23097
32526,51768,23209
32592,51781,23058
32696,51772,23244
32804,51783,23321
32864,51760,23063
32860,51702,23246
32752,51767,23341
32612,51776,23178
32536,51743,23293
32534,51788,23294
32610,51792,23238
32660,51741,23270
32736,51796,23117
32824,51790,23284
32900,51771,23180
32936,51715,23307
32912,51772,23216
32800,51785,23305
32728,51807,23422
32688,51815,23196
32724,51812,23345
32788,51821,23348
32852,51820,23189
32916,51796,23413
32952,51719,23380
32964,51749,23399
32916,51753,23432
32872,51744,23439
32816,51782,23236
32764,51836,23556
32752,51772,23484
32940,51769,23304
32908,51765,23539
32903,51828,23527
33024,51764,23323
33004,51780,23588
33010,51761,23621
32952,51777,23522
32916,51847,23681
32868,51871,23672
32904,51847,23774
32944,51855,23694
33004,51847,23792
33149,51842,23769
33220,51844,23890
33268,51829,23811
33304,51844,23631
33212,51847,23903
33120,51863,23893
33044,51884,23749
33071,51876,23975
33172,51879,23992
33300,51879,23815
33408,51864,24097
33452,51860,24037
33409,51862,23922
33364,51869,24122
33293,51868,24111
33200,51886,23965
33166,51911,24204
33180,51908,24148
33173,51908,24260
33332,51911,24177
33373,51903,24000
33412,51892,24309
33384,51895,24207
33248,51911,24038
33092,51863,24241
32976,51909,24143
32908,51937,24321
32852,51943,24241
32820,51921,24015
32829,51932,24288
32833,51919,24027
32848,51921,24276
32800,51922,24019
32716,51933,24285
32616,51948,24042
32500,51964,24242
32412,51964,24231
32384,51975,24228
32356,51975,24230
32420,51973,24229
32472,51948,24068
32516,51951,24206
32572,51949,24140
32564,51951,24198
32481,51967,24188
32384,51965,24154
32261,51989,24184
32268,51999,24198
32344,51999,24180
32414,51999,23948
32472,51972,24207
32516,51972,24165
32536,51966,24165
32488,51940,24144
32436,51991,24071
32396,51991,24160
32404,52013,24130
32369,52008,24117
32412,51967,24102
32537,52005,24104
32652,52004,23996
32700,51992,24121
32668,51999,24106
32548,52012,24149
32496,51932,24077
32456,51975,23877
32368,52036,24071
32330,52031,23847
32416,52021,24092
32504,52023,23832
32576,52027,24088
32634,51988,23952
32660,52013,24071
32596,52015,23819
32488,52007,24055
32406,52024,24016
32349,52053,24112
32356,52047,24081
32500,52031,24031
32640,52028,24071
32700,52029,24091
32712,52013,24014
32696,51949,24161
32640,51989,24104
32577,52031,23962
32456,52030,24067
32396,51975,24089
32429,52040,24183
32436,52024,24101
32525,52025,24199
32596,52012,24124
32660,51992,23959
32688,52007,24204
32684,52013,24115
32628,52022,24037
32524,51975,24140
32441,52044,24135
32408,52044,24069
32512,52020,24141
32644,52016,24117
32688,52020,23908
32737,52012,24145
32737,52004,24150
32724,52004,24161
32632,52015,24152
32548,51959,24018
32438,51993,24239
32437,52036,24151
32425,52020,23932
32501,52023,24150
32552,52012,24024
32645,52004,24223
32688,51967,24124
32624,51974,24079
32564,52007,24169
32492,52017,23991
32438,52031,24164
32460,52035,24021
32504,52023,24183
32608,51972,24101
32696,51973,24207
32752,51967,24014
32732,51989,24169
32624,51988,23991
32528,52007,24178
32458,51940,24213
32416,52007,24180
32468,52020,24290
32436,52008,24089
32496,51997,24260
32540,52005,24168
32616,51923,24241
32724,51975,24046
32672,51989,24215
32588,51974,24066
32509,51996,24263
32464,51996,24111
32480,51975,24209
32520,52001,24018
32592,51988,24228
32728,51991,24079
32808,51964,24220
32828,51969,24084
32784,51972,24238
32696,51988,24166
32664,51933,24320
32592,51975,24223
32528,52005,23994
32588,51990,24248
32655,51975,24246
32773,51975,24213
32916,51975,24263
32932,51972,24214
32864,51961,24170
32724,51967,24182
32676,51926,24216
32622,51993,24164
32640,51975,24280
32744,51975,24159
32812,51975,24260
32912,51900,24172
32980,51943,23952
33012,51911,24143
32948,51948,24007
32928,51961,24196
32896,51956,24007
32800,51975,24212
32762,51975,24121
32812,51967,24068
32972,51965,24125
33020,51956,24126
32988,51943,23934
33002,51940,24052
32948,51943,23841
32896,51945,24087
32848,51956,24005
32776,51957,24027
32768,51964,23921
32840,51909,24045
32932,51949,23986
32996,51949,23810
33028,51929,23933
33072,51919,23836
33016,51933,23990
32872,51937,23924
32756,51940,23744
32696,51889,23916
32670,51975,23798
32708,51962,23888
32797,51943,23783
32892,51940,23723
32940,51922,23753
32884,51886,23542
32849,51898,23694
32784,51937,23640
32696,51959,23569
32648,51949,23580
32644,51943,23559
32732,51951,23489
32836,51938,23516
32910,51933,23476
32980,51912,23327
33004,51908,23416
32948,51926,23372
32900,51942,23293
32820,51872,23374
32728,51907,23186
32696,51908,23215
32776,51951,23244
32876,51935,23198
32893,51932,23175
32976,51847,23149
33010,51917,22930
33005,51933,23101
32933,51924,23021
32864,51933,23079
32852,51951,23057
32770,51940,22867
32772,51903,23054
32927,51935,22916
32928,51923,22874
32980,51911,22916
33000,51910,22724
32894,51847,22884
32828,51916,22750
32728,51927,22816
32628,51935,22751
32636,51861,22504
32693,51908,22698
32804,51904,22585
32884,51895,22717
33005,51884,22621
33034,51879,22385
32968,51894,22593
32920,51812,22524
32884,51829,22455
32820,51837,22260
32812,51868,22545
32880,51873,22467
32980,51884,22280
33056,51863,22471
33064,51837,22380
33016,51828,22348
32916,51820,22148
32808,51836,22332
32794,51846,22261
32756,51847,22242
32696,51847,22193
32788,51832,21986
32884,51784,22165
32940,51801,22148
32988,51805,21900
32996,51789,22164
32940,51788,22061
32868,51764,21879
32796,51740,22101
32700,51751,22002
32676,51741,21801
32724,51796,21991
32788,51779,21931
32929,51748,21794
33012,51740,21668
32936,51740,21966
32880,51703,21887
32704,51671,21881
32664,51668,21805
32637,51743,21592
32587,51736,21821
32648,51719,21754
32892,51695,21709
33048,51703,21663
33216,51682,21745
33240,51669,21463
33220,51669,21694
33184,51670,21545
33180,51615,21403
33134,51628,21668
33132,51671,21600
33172,51669,21409
33172,51655,21525
33212,51630,21503
33296,51615,21463
33289,51607,21228
33184,51599,21469
33052,51605,21382
32994,51591,21452
32916,51623,21317
32909,51607,21081
32951,51591,21312
33032,51588,21119
33113,51510,21235
33204,51556,21205
33217,51557,21088
33100,51553,21114
32964,51551,21141
32833,51545,20980
32732,51567,21183
32736,51565,21053
32756,51529,21049
32848,51533,21059
32968,51512,20852
33044,51439,21005
33100,51436,20951
33104,51493,20760
32960,51472,20951
32816,51500,20746
32694,51511,20932
32661,51509,20874
32680,51432,20714
32777,51463,20946
32928,51463,20830
32960,51455,20655
32972,51447,20870
32972,51431,20781
32926,51447,20753
32736,51447,20764
32696,51450,20716
32704,51389,20526
32788,51446,20716
32879,51436,20668
32924,51407,20615
33012,51397,20665
33056,51396,20507
32972,51398,20657
32880,51396,20598
32812,51335,20399
32728,51410,20528
32690,51399,20306
32748,51399,20488
32832,51380,20416
32896,51333,20409
32932,51367,20453
32932,51353,20198
32777,51353,20361
32545,51300,20313
32352,51365,20352
32174,51375,20280
31954,51369,20090
31832,51364,20359
31741,51343,20277
31742,51327,20111
31812,51316,20209
31968,51311,20231
32080,51239,20007
32240,51317,20166
32544,51327,20138
32976,51319,20183
33388,51325,20100
33944,51291,20101
34606,51244,20064
35476,51263,19840
36300,51271,20065
36684,51256,19922
36920,51260,20030
36988,51207,20047
37020,51260,19804
37048,51303,20006
37113,51292,19899
37156,51292,20044
37044,51244,19930
36748,51239,19957
36516,51260,19935
36116,51255,19910
35572,51247,19911
34944,51263,19956
34308,51260,19926
33732,51252,19982
33382,51276,19881
33232,51255,19874
33160,51249,19952
33136,51239,19738
33044,51222,19926
32876,51207,19793
32752,51221,19957
32648,51229,19860
32497,51223,19646
32404,51223,19943
32416,51239,19831
32436,51230,19836
32464,51207,19825
32586,51190,19812
32620,51141,19841
32644,51143,19847
32564,51127,19625
32428,51188,19839
32461,51207,19803
32368,51207,19802
32264,51196,19808
32317,51188,19611
32376,51180,19859
32528,51175,19620
32704,51152,19819
32636,51111,19766
32508,51101,19777
32436,51148,19800
32352,51172,19601
32312,51165,19784
32316,51172,19735
32300,51167,19738
32412,51151,19766
32516,51149,19748
32593,51116,19556
32612,51121,19753
32516,51068,19591
32502,51052,19773
32448,51134,19743
32556,51148,19721
32525,51088,19808
32556,51133,19711
32588,51109,19664
32692,51103,19733
32660,51104,19588
32720,51079,19725
32522,51076,19657
32453,51103,19439
32447,51076,19677
32448,51111,19444
32356,51100,19748
32416,51031,19615
32606,51075,19470
32637,51061,19671
32745,51061,19533
32788,50991,19697
32782,51002,19633
32672,50989,19572
32584,50996,19374
32493,51009,19601
32505,51060,19507
32548,51044,19629
32617,51036,19418
32740,50988,19637
32860,50993,19564
32928,51002,19609
32892,51007,19554
32828,51015,19549
32732,50966,19518
32564,50997,19352
32520,51012,19520
32608,50924,19556
32749,50996,19500
32884,50981,19299
33036,50944,19524
33052,50951,19367
33082,50948,19540
32956,50949,19519
32816,50894,19493
32729,50951,19481
32652,50951,19307
32740,50951,19596
32892,50929,19536
32929,50916,19452
33004,50900,19525
33060,50887,19556
33014,50885,19447
32956,50895,19556
32888,50893,19524
32792,50904,19353
32868,50887,19577
32936,50887,19378
33033,50871,19611
33124,50791,19424
33208,50839,19584
33248,50823,19427
33128,50823,19624
33048,50823,19477
32952,50823,19627
32864,50836,19474
32872,50839,19684
32960,50819,19652
33128,50757,19701
33192,50772,19644
33276,50735,19710
33252,50716,19745
33228,50772,19492
33236,50727,19766
33048,50741,19701
33048,50757,19822
33028,50772,19736
33076,50756,19756
33088,50741,19761
33120,50724,19756
33216,50716,19801
33120,50695,19712
33016,50708,19868
32880,50716,19805
32740,50711,19605
32642,50721,19840
32544,50695,19775
32556,50637,19841
32588,50690,19660
32604,50676,19872
32560,50660,19675
32541,50651,19911
32392,50649,19808
32312,50654,20009
32180,50661,19928
32036,50660,20030
31988,50677,19904
32036,50649,19993
32156,50639,19917
32268,50638,20029
32344,50612,20028
32370,50573,19838
32342,50548,20064
32136,50581,19936
32081,50612,20087
32044,50591,20076
32032,50576,19902
32096,50604,20144
32136,50605,20125
32244,50581,20240
32325,50567,20172
32332,50567,20089
32248,50564,20299
32164,50560,20271
32085,50561,20050
32080,50575,20316
32122,50567,20188
32196,50567,20382
32292,50521,20349
32342,50532,20388
32360,50529,20359
32412,50517,20472
32340,50513,20389
32196,50527,20516
32144,50496,20463
32172,50551,20483
32192,50517,20520
32224,50528,20329
32268,50439,20583
32332,50511,20381
32416,50488,20600
32480,50484,20621
32416,50479,20653
32368,50405,20677
32300,50495,20716
32252,50493,20710
32232,50489,20742
32264,50484,20770
32388,50479,20876
32480,50468,20822
32556,50439,20663
32593,50452,20871
32564,50439,20909
32497,50462,20822
32448,50452,20926
32404,50464,21051
32412,50463,21008
32436,50452,20837
32496,50439,21095
32564,50429,21105
32632,50420,21040
32696,50412,21190
32644,50351,21013
32541,50397,21223
32460,50420,21179
32406,50436,21327
32372,50434,21301
32421,50413,21137
32472,50415,21385
32504,50404,21227
32580,50387,21512
32608,50343,21456
32576,50351,21314
32512,50385,21565
32389,50356,21548
32332,50364,21441
32268,50412,21708
32324,50409,21659
32472,50399,21552
32560,50391,21732
32616,50375,21764
32668,50372,21585
32624,50383,21868
32572,50383,21753
32505,50393,21983
32428,50401,21957
32469,50407,22009
32502,50394,21824
32592,50351,22081
32724,50310,22124
32844,50367,22242
32836,50359,22202
32784,50365,22070
32716,50373,22324
32684,50373,22148
32632,50386,22477
32685,50391,22449
32692,50388,22470
32788,50376,22637
32832,50375,22640
32908,50349,22622
32920,50355,22805
32888,50375,22758
32796,50373,22823
32728,50382,22927
32664,50403,22781
32676,50400,23017
32766,50404,23050
32814,50360,23195
32860,50372,23205
32952,50365,23267
32968,50352,23343
32887,50356,23275
32797,50375,23519
32740,50385,23570
32680,50391,23541
32686,50397,23782
32784,50388,23793
32848,50367,23760
32960,50311,24041
33040,50332,24036
33049,50353,23944
33016,50365,24199
32950,50372,24208
32840,50382,24357
32752,50372,24474
32716,50390,24495
32740,50392,24758
32780,50394,24749
32858,50368,24932
32968,50359,24961
33012,50365,24871
33012,50381,25252
32964,50365,25289
32838,50397,25263
32736,50391,25496
32696,50401,25502
32792,50389,25818
32840,50388,25850
32832,50325,25973
32860,50373,26113
32864,50375,26055
32832,50383,26361
32800,50393,26468
32776,50397,26557
32672,50340,26777
32656,50401,26818
32736,50396,27065
32820,50397,27120
32860,50388,27472
32920,50375,27540
32868,50380,27633
32844,50391,27708
32804,50343,28061
32720,50349,28245
32684,50415,28292
32665,50359,28620
32824,50367,28805
32976,50413,28985
33048,50415,29125
33052,50389,29429
33004,50397,29575
32932,50407,29748
32902,50408,29839
32776,50422,30255
32698,50421,30388
32702,50433,30740
32788,50420,30832
32968,50414,31050
33110,50415,31117
33188,50409,31588
33196,50407,31732
33160,50416,31933
33033,50415,31999
32940,50429,32409
32896,50375,32613
32856,50385,32749
32892,50421,33053
32976,50436,33221
33068,50433,33644
33116,50415,33740
33076,50412,33884
33016,50420,34368
32908,50436,34480
32844,50457,34729
32792,50460,34878
32748,50465,35329
32828,50461,35432
32956,50463,35668
33152,50444,36101
33316,50432,36239
33317,50428,36580
33240,50439,36711
33028,50448,36981
32932,50431,37359
32806,50476,37517
32736,50489,37859
32808,50477,38038
32925,50469,38277
32992,50461,38615
33044,50460,38826
33068,50439,39062
33020,50464,39406
32932,50470,39584
32809,50479,39860
32748,50495,40071
32736,50493,40408
32753,50493,40624
32792,50485,40878
32816,50484,41122
32880,50479,41392
32932,50487,41628
32912,50481,41861
32932,50484,42117
32876,50503,42364
32824,50508,42607
32824,50520,42807
32864,50501,43089
32928,50504,43304
32976,50498,43492
32990,50484,43727
32856,50487,44004
32816,50496,44212
32716,50478,44388
32560,50510,44647
32464,50524,44791
32484,50527,45063
32584,50500,45287
32788,50457,45444
32792,50471,45669
32768,50501,45815
32732,50499,46087
32708,50503,46269
32645,50516,46380
32645,50460,46560
32656,50471,46824
32708,50472,47037
32768,50479,47204
32933,50503,47387
33040,50509,47581
33064,50517,47711
33188,50496,47949
33168,50493,48125
33092,50522,48196
33020,50525,48473
32984,50520,48645
32980,50524,48711
33044,50524,48999
33113,50520,49143
33144,50517,49257
33144,50500,49468
33216,50511,49541
33168,50519,49837
33044,50516,49991
32908,50533,50125
32858,50541,50292
32805,50541,50471
32868,50517,50631
32908,50531,50695
32984,50527,50936
33101,50460,50969
33101,50489,51264
33020,50527,51289
32852,50528,51558
32696,50535,51616
32600,50549,51847
32556,50549,51871
32622,50543,52212
32666,50540,52337
32736,50535,52470
32912,50525,52647
32992,50529,52764
32956,50483,52912
32908,50504,52997
32852,50548,53210
32756,50559,53216
32676,50548,53551
32588,50548,53657
32632,50548,53727
32712,50541,53908
32825,50517,53928
32832,50476,54248
32816,50533,54364
32708,50543,54527
32660,50564,54647
32592,50567,54700
32584,50566,54879
32580,50565,54948
32664,50565,55113
32725,50556,55167
32772,50534,55368
32804,50537,55513
32704,50539,55671
32680,50548,55766
32576,50549,55686
32448,50554,55994
32440,50567,56103
32444,50559,56087
32445,50557,56395
32381,50565,56455
32308,50540,56522
32064,50535,56654
31836,50487,56676
31566,50551,56964
31380,50567,57036
31296,50567,56948
31396,50567,57272
31660,50564,57326
32132,50564,57457
32636,50549,57575
33148,50532,57696
33628,50528,57713
33965,50543,57892
34296,50549,57948
34788,50559,58100
35301,50567,58021
35616,50560,58329
35868,50565,58392
36140,50553,58423
36216,50555,58545
36192,50540,58503
36304,50551,58799
36302,50564,58840
36128,50564,58841
35798,50567,58989
35336,50589,59113
34892,50593,59119
34624,50575,59321
34413,50566,59381
34213,50567,59396
33956,50561,59519
33662,50556,59632
33350,50565,59692
33108,50564,59749
32896,50567,59712
32668,50580,59965
32536,50591,59944
32440,50574,60079
32404,50567,60116
32381,50533,60164
32404,50532,60237
32365,50548,60391
32276,50541,60423
32164,50551,60294
32028,50500,60527
31940,50583,60609
31933,50582,60551
31996,50581,60795
32016,50567,60793
32064,50549,60893
32088,50551,60956
32081,50543,60968
32112,50541,61009
32072,50551,60935
32041,50560,61188
31920,50567,61177
31853,50564,61270
31900,50567,61282
31998,50560,61231
32110,50551,61295
32188,50540,61145
32188,50532,61471
32076,50493,61468
31966,50551,61516
31861,50551,61543
31852,50559,61589
31872,50564,61596
31908,50555,61608
31969,50543,61632
32044,50537,61533
32093,50532,61646
32056,50520,61629
32044,50521,61688
32004,50533,61593
31994,50541,61796
31958,50556,61756
31948,50551,61832
32044,50551,61852
32142,50543,61716
32204,50534,61862
32300,50519,61871
32353,50529,61850
32284,50521,61825
32204,50529,61703
32192,50543,61900
32124,50551,61631
32064,50548,61908
32095,50481,61628
32208,50541,61884
32305,50548,61844
32424,50528,61784
32481,50530,61805
32460,50519,61748
32428,50533,61806
32352,50544,61803
32340,50549,61773
32412,50501,61740
32492,50494,61719
32636,50533,61700
32744,50533,61600
32828,50521,61663
32832,50511,61575
32825,50527,61556
32816,50524,61508
32760,50540,61434
32724,50546,61439
32720,50559,61386
32808,50524,61319
32880,50548,61272
33020,50532,61184
33200,50520,61128
33242,50526,61085
33218,50532,60932
33196,50477,60896
33136,50543,60725
33056,50553,60760
33044,50559,60652
33100,50548,60668
33164,50540,60612
33280,50534,60495
33380,50531,60422
33400,50516,60380
33373,50532,60288
33244,50485,60167
33152,50551,60104
33149,50551,60036
33204,50567,59968
33300,50556,59905
33410,50545,59757
33476,50553,59480
33524,50535,59652
33486,50541,59564
33432,50541,59399
33408,50557,59320
33344,50560,59255
33292,50567,59220
33312,50579,59086
33376,50567,59015
33476,50564,58948
33584,50559,58852
33653,50545,58749
33618,50551,58620
33478,50548,58357
33364,50501,58503
33268,50513,58375
33152,50564,58324
33081,50585,58206
33088,50583,58142
33120,50567,58037
33104,50564,57903
33116,50559,57800
33052,50559,57769
32969,50558,57628
32782,50580,57536
32609,50589,57278
32394,50607,57430
32293,50600,57095
32289,50608,57236
32348,50592,56927
32432,50589,57032
32492,50591,56744
32480,50580,56905
32416,50581,56786
32309,50611,56618
32212,50612,56604
32152,50623,56524
32148,50612,56455
32088,50551,56345
32200,50606,56260
32272,50615,56220
32308,50597,56140
32300,50599,56016
32224,50605,55943
32124,50615,55807
32045,50631,55756
31964,50643,55504
31856,50647,55645
31920,50637,55551
32048,50639,55360
32104,50637,55420
32236,50613,55303
32248,50622,55161
32212,50628,55092
32136,50636,55021
32068,50655,54990
31958,50677,54870
31923,50663,54791
32036,50653,54740
32132,50660,54630
32256,50603,54589
32340,50646,54462
32356,50628,54407
32312,50653,54368
32230,50631,54080
32157,50607,54205
32112,50607,54117
32092,50612,54060
32184,50636,53957
32277,50644,53798
32352,50669,53801
32432,50663,53647
32452,50653,53656
32428,50669,53496
32344,50676,53540
32316,50676,53495
32220,50695,53436
32161,50645,53373
32256,50684,53299
32340,50685,53252
32492,50663,53092
32557,50663,53140
32588,50661,53089
32536,50668,52876
32416,50686,52999
32334,50693,52912
32288,50695,52852
32289,50705,52821
32340,50687,52757
32412,50692,52693
32552,50695,52597
32676,50688,52607
32684,50692,52487
32592,50693,52462
32504,50695,52452
32472,50711,52407
32396,50733,52340
32392,50727,52252
32440,50671,52228
32516,50673,52110
32644,50724,52137
32698,50695,52103
32720,50695,52035
32680,50716,51975
32588,50680,51799
32530,50737,51862
32485,50744,51812
32448,50741,51787
32556,50748,51705
32668,50737,51591
32792,50741,51579
32909,50720,51417
32956,50727,51501
32892,50672,51439
32796,50743,51279
32692,50740,51344
32596,50756,51261
32560,50766,51092
32652,50769,51197
32817,50757,51124
32912,50751,50982
33020,50742,50995
33040,50757,50949
32968,50748,50900
32836,50764,50857
32729,50716,50695
32696,50725,50780
32677,50765,50717
32700,50797,50695
32756,50783,50627
32876,50759,50556
32904,50759,50510
32925,50763,50388
32885,50780,50396
32772,50788,50261
32704,50751,50343
32624,50775,50287
32600,50813,50236
32653,50801,50183
32708,50796,50161
32740,50727,50101
32848,50769,50061
32864,50767,50012
32796,50790,49972
32740,50799,49927
32664,50769,49900
32604,50823,49703
32672,50823,49780
32752,50752,49734
32828,50823,49716
32920,50812,49671
32968,50796,49626
32968,50813,49572
32908,50765,49557
32836,50812,49503
32816,50832,49479
32748,50837,49438
32777,50844,49399
32868,50812,49364
32946,50839,49191
33024,50823,49297
33065,50809,49125
33072,50799,49192
32984,50823,49036
32916,50831,49097
32856,50844,49008
32772,50860,49030
32832,50861,49012
32927,50847,48960
32992,50849,48880
33076,50784,48866
33148,50801,48743
33101,50820,48798
33048,50847,48645
33017,50839,48735
32976,50861,48583
32886,50863,48617
32768,50823,48500
32796,50871,48551
32864,50868,48413
32900,50845,48489
32912,50829,48344
32916,50845,48423
32836,50847,48268
32761,50860,48324
32678,50868,48188
32644,50885,48238
32640,50861,48129
32684,50880,48165
32792,50823,48127
32900,50877,48028
32940,50854,48073
33008,50840,47965
32932,50853,47996
32844,50873,47888
32728,50869,47928
32616,50887,47816
32628,50897,47844
32732,50886,47748
32892,50880,47820
32992,50869,47682
33092,50871,47724
33072,50855,47623
32984,50860,47661
32904,50877,47652
32776,50893,47584
32720,50894,47523
32672,50868,47511
32768,50896,47430
32980,50884,47423
33128,50875,47324
33268,50864,47381
33416,50857,47246
33421,50868,47285
33365,50876,47164
33360,50892,47224
33256,50900,47191
33260,50839,47132
33354,50852,47088
33424,50892,47005
33504,50868,47033
33608,50860,46997
33596,50855,46869
33509,50855,46911
33388,50864,46855
33276,50886,46854
33164,50863,46757
33096,50901,46785
33088,50887,46732
33140,50881,46756
33156,50864,46741
33220,50871,46696
33248,50865,46681
33188,50860,46584
33132,50823,46629
33116,50872,46532
33036,50884,46585
33064,50882,46504
33156,50877,46549
33208,50805,46500
33304,50862,46529
33352,50844,46469
33309,50849,46501
33264,50855,46428
33188,50804,46477
33120,50866,46423
33061,50865,46471
33097,50887,46471
33156,50887,46399
33254,50844,46453
33216,50864,46375
33224,50847,46431
33173,50845,46364
33153,50772,46425
33105,50812,46360
33012,50879,46420
32901,50877,46404
32788,50883,46320
32856,50869,46397
32900,50861,46339
32949,50855,46385
33045,50846,46396
33078,50816,46368
33080,50847,46382
32992,50861,46365
32917,50852,46364
32792,50879,46309
32692,50885,46343
32764,50853,46276
32820,50863,46337
32911,50845,46260
32968,50841,46333
32892,50836,46237
32640,50855,46324
32408,50853,46316
32192,50869,46318
31968,50872,46308
31768,50865,46313
31624,50852,46222
31680,50871,46287
31820,50863,46281
32068,50832,46269
32356,50829,46269
32620,50836,46269
32844,50852,46188
33148,50861,46252
33568,50861,46248
33936,50866,46235
34412,50812,46247
35024,50849,46239
35768,50855,46181
36260,50788,46236
36521,50820,46244
36708,50847,46244
36671,50855,46231
36576,50879,46223
36545,50892,46233
36552,50907,46148
36540,50884,46241
36260,50892,46214
35876,50883,46180
35528,50868,46196
35224,50877,46157
34873,50808,46237
34369,50871,46141
33836,50893,46215
33332,50894,46148
32992,50903,46215
32885,50900,46148
32852,50895,46241
32804,50886,46236
32764,50847,46216
32672,50885,46228
32500,50884,46167
32334,50893,46243
32261,50905,46231
32216,50916,46160
32204,50909,46252
32216,50913,46192
32261,50887,46272
32268,50889,46247
32366,50884,46305
32356,50820,46337
32288,50889,46244
32212,50894,46319
32117,50909,46308
32072,50887,46343
32084,50912,46361
32153,50912,46287
32248,50919,46348
32349,50896,46356
32440,50895,46263
32444,50836,46335
32408,50900,46351
32365,50897,46254
32300,50919,46318
32272,50924,46268
32288,50933,46316
32324,50927,46253
32430,50882,46314
32548,50892,46308
32632,50905,46317
32652,50895,46300
32505,50895,46213
32380,50919,46268
32292,50924,46181
32217,50888,46236
32288,50951,46127
32384,50934,46189
32480,50935,46152
32556,50919,46158
32625,50889,46124
32644,50917,46021
32577,50908,46069
32488,50932,45981
32404,50934,46003
32342,50944,45990
32312,50893,45959
32356,50889,45917
32460,50900,45893
32496,50948,45863
32613,50920,45765
32736,50932,45785
32762,50933,45735
32680,50949,45652
32644,50951,45684
32514,50983,45575
32450,50944,45607
32540,50964,45568
32654,50964,45477
32704,50966,45505
32801,50896,45412
32828,50951,45420
32804,50969,45385
32724,50972,45368
32632,50982,45308
32564,50989,45287
32548,51001,45212
32628,50934,45207
32750,50965,45129
32836,50983,45128
32964,50965,45102
33036,50967,45000
33008,50933,45000
32908,50985,44956
32832,51005,44917
32806,50998,44879
32836,51004,44837
32900,51015,44799
33060,50924,44693
33096,50989,44701
33156,50993,44587
33260,50985,44604
33292,50983,44505
33232,50999,44493
33160,51023,44404
33112,51020,44401
33156,51036,44359
33248,51029,44316
33372,51030,44232
33472,51012,44223
33568,50951,44167
33584,50991,44126
33532,51015,44085
33420,51027,44039
33352,51036,44001
33256,51044,43900
33244,51055,43884
33310,51052,43818
33364,51006,43812
33464,50980,43748
33508,51047,43721
33476,51028,43639
33384,51047,43620
33308,51055,43556
33216,51039,43527
33120,51079,43450
33076,51079,43444
33080,51079,43367
33097,51079,43343
33104,51079,43269
33072,51055,43244
33088,51079,43172
33008,51086,43167
32766,51103,43077
32592,51113,43069
32401,51127,42985
32356,51111,42971
32392,51127,42911
32408,51130,42873
32423,51120,42812
32460,51124,42781
32393,51130,42729
32309,51130,42688
32173,51076,42623
32069,51159,42575
32007,51172,42535
32016,51180,42468
32064,51180,42443
32100,51129,42365
32148,51133,42336
32180,51143,42281
32196,51183,42245
32104,51188,42177
32032,51199,42150
31960,51228,42069
31904,51233,42052
31902,51245,41984
31965,51183,41965
32044,51237,41895
32140,51251,41862
32256,51239,41797
32248,51236,41780
32202,51241,41709
32038,51256,41665
31948,51268,41644
31896,51295,41574
31900,51302,41524
31980,51303,41476
32078,51303,41463
32221,51296,41389
32312,51303,41341
32352,51309,41301
32316,51324,41261
32188,51325,41246
32086,51335,41177
32032,51303,41124
32104,51380,41131
32144,51319,41056
32260,51351,41010
32348,51377,41025
32452,51373,40948
32520,51388,40948
32484,51399,40876
32392,51423,40844
32356,51429,40876
32280,51439,40793
32252,51452,40789
32298,51463,40724
32384,51453,40693
32485,51455,40724
32592,51449,40656
32644,51461,40646
32613,51439,40592
32536,51439,40582
32433,51504,40597
32342,51525,40535
32320,51533,40556
32365,51536,40492
32421,51543,40455
32542,51540,40496
32612,51530,40434
32676,51538,40423
32640,51559,40372
32544,51543,40338
32448,51591,40351
32325,51613,40319
32232,51631,40317
32300,51623,40244
32465,51620,40223
32576,51609,40260
32640,51628,40165
32676,51631,40164
32644,51655,40149
32496,51673,40084
32408,51687,40125
32357,51641,40039
32344,51719,40036
32352,51719,39940
32436,51719,39917
32544,51719,39909
32672,51712,39855
32728,51740,39901
32673,51757,39799
32600,51766,39800
32540,51788,39684
32480,51799,39640
32460,51820,39609
32500,51823,39565
32632,51831,39647
32728,51847,39511
32796,51830,39465
32760,51847,39484
32684,51862,39393
32612,51879,39436
32568,51886,39311
32532,51863,39367
32556,51941,39213
32661,51948,39215
32732,51932,39120
32780,51940,39173
32828,51941,39046
32820,51905,39109
32764,51975,38973
32688,51985,38974
32588,52022,38861
32497,52034,38895
32504,52045,38791
32540,52001,38871
32624,52052,38729
32788,52065,38749
32869,52071,38600
32889,52079,38647
32801,52026,38567
32716,52040,38608
32621,52116,38449
32508,52164,38449
32556,52167,38365
32604,52168,38300
32641,52199,38280
32754,52199,38280
32836,52199,38236
32904,52198,38293
32856,52212,38156
32808,52231,38212
32712,52207,38031
32592,52291,38004
32552,52300,37929
32576,52305,37948
32648,52254,38023
32736,52324,37818
32808,52308,37825
32834,52325,37756
32812,52351,37732
32728,52324,37767
32646,52379,37605
32588,52415,37620
32565,52393,37561
32560,52439,37572
32676,52455,37511
32752,52453,37542
32808,52471,37428
32904,52461,37476
32876,52487,37381
32796,52439,37468
32740,52519,37321
32676,52551,37397
32636,52567,37236
32693,52572,37346
32752,52583,37183
32769,52591,37056
32888,52572,37122
32916,52615,37063
32844,52624,37196
32648,52647,37028
32594,52665,37135
32520,52697,36983
32508,52644,36998
32612,52709,36910
32746,52731,36961
32884,52735,36820
32940,52732,36756
32948,52741,36775
32880,52756,36701
32743,52726,36735
32608,52809,36592
32532,52839,36664
32514,52852,36537
32660,52869,36585
32813,52870,36599
32940,52862,36563
33064,52871,36581
33120,52892,36468
33088,52894,36352
33048,52932,36455
33022,52942,36359
32948,52969,36524
32954,52983,36340
33028,52999,36219
33084,52991,36300
33264,53012,36229
33312,53023,36223
33284,53047,36268
33176,53061,36178
33080,53068,36095
33048,53101,36245
33000,53124,36116
32953,53140,36028
33013,53141,36152
32997,53151,36073
33072,53143,36116
33164,53158,36025
33236,53175,36020
33156,53173,35989
32968,53197,36063
32844,53228,35919
32812,53255,36047
32777,53248,35904
32852,53279,35725
32964,53295,35893
33084,53287,35842
33136,53285,35797
33172,53306,35777
33092,53279,35669
33004,53351,35721
32953,53367,35662
32928,53383,35780
32924,53383,35664
32976,53405,35640
33032,53415,35676
33100,53420,35596
33140,53349,35444
33160,53396,35550
33152,53447,35394
33040,53468,35525
32972,53479,35398
32884,53503,35540
32869,53511,35397
32852,53523,35247
32900,53477,35388
32956,53525,35285
33052,53548,35092
33028,53551,35237
33036,53543,35104
32980,53577,35124
32908,53605,35079
32800,53612,34895
32749,53567,35005
32774,53569,34887
32847,53638,34983
32916,53639,34862
32948,53639,34704
32876,53652,34781
32700,53636,34832
32477,53629,34681
32180,53712,34740
31900,53733,34580
31760,53737,34388
31696,53749,34589
31780,53755,34447
31928,53740,34508
32108,53725,34373
32296,53743,34201
32564,53716,34308
32852,53756,34119
33276,53776,34269
33736,53812,34190
34188,53821,34052
34768,53825,34248
35620,53831,34100
36392,53804,33927
36821,53814,34101
37056,53832,34009
37044,53847,34081
