ECG,EDA,RR
32088,17591,34624
32124,17607,34439
32388,17650,34283
32696,17725,34528
33008,17698,34525
33284,17726,34534
33254,17718,34556
33028,17687,34599
32698,17647,34535
32404,17619,34501
32164,17585,34361
32164,17595,34377
32492,17631,34502
32897,17686,34422
33176,17757,34628
33296,17703,34540
33196,17719,34724
32958,17679,34593
32688,17663,34429
32404,17625,34669
32156,17601,34695
32132,17609,34695
32412,17613,34652
32760,17662,34833
33144,17708,34599
33444,17741,34714
33356,17735,34639
33140,17666,34679
32845,17638,34631
32520,17606,34756
32289,17613,34652
32245,17638,34839
32506,17612,34721
32852,17657,34556
33208,17696,34788
33382,17721,34766
33372,17721,34756
33146,17690,34742
32829,17665,34791
32524,17590,34808
32256,17573,34575
32134,17591,34805
32364,17624,34823
32772,17705,34764
33136,17749,34729
33429,17701,34863
33388,17697,34926
33140,17670,34817
32821,17637,34740
32552,17606,34859
32337,17586,34781
32429,17598,34983
32804,17639,34823
33220,17644,34616
33536,17689,34831
33909,17720,34758
34128,17717,34935
34240,17663,34775
34341,17625,34852
34516,17595,34852
34790,17589,34872
35256,17604,34964
35908,17608,34788
36640,17652,34624
37276,17692,34876
37894,17706,34893
38404,17724,34849
38856,17697,34809
38913,17668,34972
38508,17667,34975
37312,17576,34836
36062,17582,34647
35000,17636,34853
33672,17689,35010
32092,17692,34765
30756,17708,34904
30184,17707,34884
30168,17666,34863
30404,17638,34816
30713,17593,34871
31001,17573,34853
31416,17599,35028
31889,17637,34972
32300,17678,34876
32642,17677,34758
32972,17701,34932
32924,17686,34917
32600,17665,34861
32276,17633,34964
31904,17601,34997
31680,17585,34916
31744,17602,34804
32037,17604,34924
32408,17632,34873
32712,17670,34907
32920,17703,34972
32940,17705,34750
32644,17683,34921
32256,17648,34884
31874,17577,34821
31636,17557,34813
31716,17564,34917
32060,17601,35012
32501,17641,34989
32860,17672,34874
33096,17702,34770
33074,17697,34668
32832,17662,34930
32516,17639,34827
32180,17605,35003
31973,17623,34860
32044,17566,34797
32316,17596,34919
32708,17637,34937
33060,17691,34929
33308,17711,34863
33341,17712,35012
33086,17681,35014
32644,17645,34951
32132,17639,34872
31852,17565,34845
31905,17562,34929
32156,17594,34903
32572,17643,34984
32964,17697,34985
33248,17718,34951
33192,17717,34821
32996,17652,34796
32688,17612,34872
32405,17595,34861
32148,17573,34849
32124,17569,34812
32412,17608,34881
32768,17651,34951
33168,17693,34961
33505,17729,34878
33500,17676,34733
33192,17646,34540
32856,17618,34789
32508,17580,34748
32308,17573,34643
32372,17577,34797
32632,17637,34668
33036,17681,34618
33292,17665,34687
33558,17691,34575
33548,17696,34724
33372,17642,34398
33092,17624,34607
32830,17591,34742
32604,17603,34660
32636,17553,34578
32924,17647,34647
33358,17621,34617
33681,17661,34512
33924,17680,34541
33824,17669,34597
33468,17637,34593
33165,17601,34468
32912,17565,34405
32693,17543,34241
32728,17573,34469
33040,17597,34441
33405,17639,34406
33812,17681,34459
34074,17717,34532
34068,17669,34429
33874,17636,34279
33592,17626,34169
33350,17581,34164
33120,17562,34375
33182,17590,34375
33424,17583,34329
33716,17620,34265
34065,17661,34261
34362,17684,34447
34424,17675,34373
34169,17644,34268
33764,17627,34173
33436,17606,34262
33232,17579,34263
33325,17545,34228
33572,17576,34172
33880,17612,34221
34104,17679,34311
34388,17692,34310
34368,17685,34311
34108,17659,34311
33778,17641,34172
33464,17562,33944
33261,17549,34127
33236,17557,34103
33440,17592,34111
33700,17637,34025
33900,17669,34205
33884,17703,34172
33736,17661,34049
33444,17628,33989
33060,17593,33909
32652,17561,34037
32292,17556,34048
32254,17553,34036
32448,17584,33996
32724,17623,33922
32997,17668,33996
33208,17684,34115
33049,17676,34023
32737,17659,33887
32332,17588,33951
31917,17557,34022
31524,17537,34097
31468,17549,34092
31624,17580,34095
31944,17620,34049
32308,17669,33932
32560,17693,33911
32520,17689,33855
32220,17655,33949
31920,17604,34047
31568,17562,34021
31292,17545,34045
31272,17548,33932
31569,17582,33880
31900,17631,33840
32212,17655,33920
32448,17683,33933
32348,17659,33693
32068,17630,33699
31760,17594,33804
31452,17561,33924
31288,17537,33721
31344,17545,33925
31652,17573,33717
31980,17604,33831
32284,17642,33922
32544,17655,33913
32493,17640,34044
32252,17620,34036
31952,17583,34033
31636,17574,33953
31477,17580,33992
31536,17566,33879
31792,17599,33913
32184,17594,33895
32500,17631,33911
32756,17659,33836
32744,17663,33965
32524,17631,34039
32188,17605,33960
31836,17569,33908
31470,17549,33854
31472,17556,33935
31828,17592,34020
32264,17636,34048
32592,17697,34052
32844,17651,33941
32760,17643,33992
32384,17613,34044
32076,17580,34044
31848,17543,33999
31656,17527,33964
31740,17543,33953
32062,17564,34049
32404,17618,33999
32652,17665,33988
32941,17685,34051
32950,17686,34046
32692,17667,33868
32388,17573,33855
32132,17592,33916
31916,17553,33959
31932,17527,33956
32168,17548,33951
32534,17596,33940
32848,17645,33934
33144,17668,33946
33164,17660,33958
32876,17616,33960
32544,17588,33949
32228,17536,33712
31966,17512,33850
31992,17521,33860
32304,17543,33933
32644,17581,33980
32900,17621,34025
33004,17641,34065
33004,17629,33890
32800,17605,33932
32489,17562,33926
32188,17549,33840
31908,17524,34009
31936,17529,33912
32236,17565,33901
32620,17582,33710
32956,17625,33820
33204,17641,33828
33160,17636,33959
32940,17619,34020
32572,17575,33868
32244,17545,33809
32012,17506,33940
32016,17515,33835
32268,17550,33868
32592,17597,33908
32928,17633,33826
33020,17650,33847
33004,17643,33884
32796,17609,33893
32512,17582,33671
32200,17530,33839
31956,17516,33902
32004,17524,33945
32278,17548,33932
32672,17607,33894
33000,17613,33887
33232,17643,33812
33184,17639,33676
32948,17593,33914
32620,17567,33821
32304,17546,33871
32068,17487,33988
32045,17506,34033
32252,17550,34050
32542,17585,34047
32720,17627,34055
32996,17648,34055
33076,17651,34026
32856,17588,33862
32465,17567,33742
32124,17526,33956
31900,17507,33962
31905,17517,33948
32208,17549,33935
32608,17594,33948
32976,17641,33983
33212,17676,33984
33216,17610,34001
32968,17583,33993
32612,17551,33981
32262,17526,33959
32024,17494,33975
32084,17499,34013
32280,17543,34017
32476,17581,34012
32788,17631,34023
33100,17655,34039
33089,17652,34029
32876,17575,33988
32548,17547,33916
32189,17521,33999
31984,17493,33991
31994,17496,34106
32236,17541,34071
32624,17579,34119
33000,17610,34112
33240,17639,34148
33220,17621,34162
33008,17590,34140
32644,17559,34166
32264,17535,34188
32004,17506,34077
32096,17511,33999
32352,17536,34039
32688,17561,34085
32996,17590,33924
33240,17605,34005
33100,17601,34091
32724,17618,34236
32432,17569,34156
32188,17527,34167
31980,17535,34084
31936,17485,34188
32230,17516,34215
32600,17572,34198
32921,17604,34244
33173,17631,34272
33188,17623,34235
33000,17597,34234
32686,17565,34230
32367,17527,34279
32146,17514,34320
32144,17514,34332
32384,17575,34319
32766,17542,34275
33140,17641,34118
33400,17661,34231
33365,17591,34358
33128,17573,34188
32729,17540,34025
32364,17524,34244
31940,17465,34189
31940,17487,34359
32234,17520,34212
32608,17553,34128
32977,17599,34286
33264,17623,34301
33200,17639,34218
32936,17558,34348
32608,17542,34175
32320,17491,34327
32104,17474,34351
32200,17503,34327
32488,17564,34301
32871,17536,34317
33176,17575,34419
33482,17609,34407
33352,17605,34328
32876,17579,34297
32528,17525,34150
32322,17479,34405
32156,17477,34370
32188,17481,34352
32376,17495,34413
32692,17526,34377
33028,17583,34468
33308,17612,34500
33301,17605,34328
33092,17597,34180
32816,17512,34452
32556,17474,34406
32272,17467,34479
32230,17476,34433
32460,17505,34343
32836,17555,34457
33168,17597,34471
33396,17621,34469
33393,17627,34415
33189,17548,34549
32848,17514,34461
32584,17468,34439
32332,17469,34311
32302,17474,34497
32493,17511,34495
32833,17541,34513
33104,17600,34505
33328,17623,34471
33216,17575,34429
33000,17542,34465
32740,17509,34477
32408,17471,34412
32209,17457,34511
32252,17469,34601
32516,17503,34449
32900,17551,34526
33176,17590,34533
33428,17615,34471
33416,17627,34676
33156,17541,34492
32860,17509,34560
32501,17477,34480
32308,17479,34646
32300,17427,34512
32424,17481,34357
32633,17521,34609
32992,17562,34553
33333,17592,34516
33276,17586,34516
33040,17551,34766
32704,17532,34599
32392,17461,34519
32164,17441,34400
32190,17445,34647
32471,17495,34655
32824,17535,34566
33164,17586,34598
33404,17611,34676
33368,17563,34798
33116,17533,34784
32800,17509,34696
32492,17481,34628
32256,17461,34708
32348,17497,34689
32624,17479,34774
33000,17524,34647
33336,17584,34564
33572,17620,34484
33552,17559,34725
33328,17541,34705
32976,17519,34720
32636,17468,34852
32344,17449,34886
32280,17464,34895
32532,17468,34757
32900,17507,34628
33305,17550,34780
33708,17575,34772
33876,17589,34706
33892,17557,34768
33932,17526,34734
34065,17517,34818
34240,17427,34869
34721,17439,34903
35460,17534,34860
36164,17573,34887
36822,17544,34775
37400,17567,34759
37680,17559,34733
37826,17543,34732
38080,17516,34791
38348,17472,34737
38192,17471,34631
37505,17490,34645
36552,17477,34841
35596,17511,34836
34273,17569,34753
32544,17582,34949
30801,17578,34932
29985,17549,34807
29946,17515,34684
30168,17444,34876
30568,17420,34858
31069,17426,34856
31688,17459,34788
32225,17509,34996
32572,17554,34977
32904,17584,34919
32896,17580,34821
32720,17549,34806
32456,17546,34656
32140,17436,34891
31836,17421,34908
31892,17423,34927
32164,17476,34921
32476,17509,34915
32820,17556,34840
33060,17599,34973
33012,17538,35020
32700,17518,34902
32431,17493,34946
32180,17459,34919
31934,17413,35004
31894,17439,34903
32174,17494,34777
32480,17492,34724
32768,17548,34946
32964,17553,34878
32992,17543,35079
32798,17527,34870
32524,17473,34969
32284,17436,34982
32000,17417,34981
32000,17449,34740
32400,17451,34965
32748,17484,34973
32992,17533,35117
33120,17561,35053
33008,17560,34935
32732,17543,34769
32408,17502,35025
32172,17428,35032
31952,17412,35034
32084,17418,35032
32480,17459,35015
32772,17497,34951
33128,17536,34951
33384,17561,35072
33320,17549,35063
33072,17535,35101
32785,17484,34951
32465,17463,35047
32200,17434,35002
32236,17413,34895
32540,17439,34885
32860,17493,34980
33216,17541,34912
33400,17567,34901
33473,17553,34933
33252,17524,34951
32880,17527,34976
32470,17426,34871
32228,17411,34647
32328,17444,34876
32644,17503,34834
33032,17535,34725
33359,17551,34735
33588,17532,34583
33580,17521,34535
33356,17509,34750
33064,17474,34756
32762,17444,34684
32536,17388,34785
32600,17401,34788
32848,17444,34495
33253,17506,34695
33628,17506,34631
33866,17534,34695
33816,17538,34744
33604,17500,34655
33144,17462,34541
32800,17429,34389
32584,17433,34588
32624,17399,34560
33120,17447,34470
33508,17498,34527
33822,17504,34557
34180,17524,34569
34156,17525,34557
33896,17494,34553
33742,17477,34311
33449,17453,34191
33196,17380,34356
33248,17392,34299
33500,17422,34249
33925,17467,34212
34309,17520,34140
34516,17537,34143
34508,17525,34105
34292,17492,34020
33940,17475,33951
33632,17433,34004
33348,17415,33996
33336,17424,34022
33536,17423,33866
33900,17462,33750
34264,17510,33556
34496,17540,33554
34396,17541,33687
34176,17514,33641
33860,17439,33565
33548,17395,33433
33285,17384,33588
33258,17413,33333
33524,17414,33364
33864,17463,33223
34108,17521,33320
34256,17511,33100
34204,17508,33133
33888,17483,33031
33436,17454,32927
33014,17391,33025
32653,17372,32959
32496,17383,32892
32600,17415,32663
32954,17446,32470
33240,17511,32620
33424,17530,32512
33276,17533,32591
32948,17525,32469
32564,17429,32279
32180,17407,32116
31718,17398,32161
31856,17380,32200
32024,17438,32135
32300,17447,32084
32644,17478,32031
32810,17525,31861
32624,17509,32017
32376,17475,31932
32033,17451,31740
31816,17383,31725
31652,17364,31668
31584,17394,31524
31828,17428,31653
32112,17437,31519
32376,17502,31253
32716,17519,31391
32688,17526,31256
32508,17457,31326
32224,17422,31319
31924,17394,31221
31672,17367,31215
31677,17387,31111
31972,17429,31005
32372,17468,30855
32580,17477,30903
32744,17493,30855
32408,17489,30797
32028,17469,30685
31736,17428,30636
31384,17409,30716
31109,17348,30500
31400,17359,30447
31761,17389,30513
32300,17435,30471
32692,17484,30463
32836,17502,30297
32628,17477,30158
32448,17455,30293
32284,17421,30233
32052,17400,30165
31720,17345,30100
31828,17372,29909
32096,17383,30052
32428,17428,29918
32728,17473,30052
32989,17517,29852
33012,17466,29693
32688,17452,29831
32372,17424,29689
31988,17424,29836
31760,17341,29677
31776,17372,29545
32072,17385,29627
32484,17444,29587
32849,17480,29548
33060,17499,29511
33076,17505,29474
32860,17479,29425
32653,17399,29389
32248,17367,29269
31984,17353,29375
32100,17363,29353
32268,17411,29097
32604,17412,29009
33034,17468,28956
33216,17503,29070
33176,17464,29088
33008,17441,28988
32776,17418,28824
32460,17389,28765
32088,17333,28689
32084,17369,28716
32276,17377,28796
32452,17404,28548
32972,17465,28645
33165,17496,28517
33069,17457,28508
32821,17444,28472
32536,17427,28343
32279,17404,28452
32068,17324,28180
32165,17349,28113
32317,17382,28071
32700,17434,28009
33038,17469,28105
33196,17508,28049
33256,17489,27975
33048,17498,27850
32624,17452,27823
32357,17350,27759
32148,17325,27877
32088,17337,27772
32336,17386,27559
32600,17415,27516
32848,17460,27471
33244,17477,27423
33141,17474,27537
32880,17461,27492
32600,17381,27356
32268,17351,27447
32044,17341,27449
32048,17367,27271
32320,17358,27170
32711,17399,27124
32948,17456,27254
33152,17468,27222
33228,17479,27124
32798,17455,27175
32640,17381,27164
32265,17341,27124
32004,17326,27028
32072,17333,26966
32321,17378,26910
32608,17421,26901
32850,17461,26885
32908,17447,26863
33012,17439,26849
32953,17404,26839
32568,17373,26866
32080,17330,27020
31828,17319,26975
31914,17321,26794
32132,17349,26781
32508,17391,26770
32892,17429,26812
33084,17455,26887
33118,17458,26900
32832,17424,26839
32446,17380,26722
31893,17360,26740
31808,17343,26735
31844,17317,26829
32224,17345,26812
32508,17380,26825
32956,17431,26770
33108,17442,26804
32956,17435,26732
32360,17401,26828
32415,17363,26789
32232,17319,26705
32076,17303,26642
32134,17311,26532
32424,17355,26503
32684,17396,26488
33064,17455,26460
33244,17436,26439
33200,17431,26416
32997,17396,26521
32658,17380,26488
32268,17325,26457
31940,17313,26341
32165,17312,26368
32364,17356,26285
32576,17397,26396
33000,17452,26191
33172,17482,26124
33084,17421,26156
32832,17406,26220
32532,17365,26183
32192,17330,26154
32016,17328,26085
32064,17297,26069
32280,17336,26119
32616,17385,25889
32780,17437,25844
33124,17431,25829
33156,17429,25938
32876,17400,25882
32560,17369,25871
32200,17341,25756
31953,17318,25810
31993,17325,25802
32220,17359,25773
32616,17388,25740
32932,17451,25721
33156,17463,25697
33164,17445,25668
32961,17415,25649
32524,17372,25625
31980,17317,25465
31920,17301,25426
32084,17312,25400
32348,17341,25388
32800,17377,25368
33144,17436,25366
33444,17418,25332
33336,17409,25340
33032,17402,25333
32584,17356,25402
32165,17311,25382
31962,17300,25262
32094,17314,25215
32320,17337,25188
32700,17368,25171
32948,17415,25143
33148,17430,25121
33112,17423,25103
32880,17391,25104
32564,17357,25084
32240,17315,25087
32109,17293,25186
32192,17307,25129
32398,17308,25173
32776,17351,25202
33068,17398,25160
33336,17429,25109
33350,17420,25148
32956,17391,25133
32568,17351,25124
32308,17315,25116
31977,17300,25110
32036,17308,25105
32320,17351,25085
32701,17346,25004
32972,17393,25132
33276,17412,25131
33236,17394,25108
32924,17365,25119
32624,17335,25082
32148,17303,25103
31836,17273,24962
31981,17274,25045
32380,17308,25061
32680,17359,24996
33084,17392,24972
33392,17429,25081
33388,17415,25012
33112,17390,24977
32752,17363,25009
32384,17323,25063
32104,17302,24946
32208,17271,24929
32484,17300,24917
32804,17334,24973
33156,17380,25023
33448,17404,25076
33428,17410,25061
33164,17372,24967
32806,17351,24990
32468,17328,25012
32156,17253,25025
32036,17265,25082
32132,17301,25174
32548,17347,25172
32928,17388,25202
33305,17409,25163
33228,17399,25253
33028,17370,25188
32700,17341,25181
32280,17316,25174
32100,17313,25175
32072,17263,25214
32376,17295,25240
32744,17324,25372
32972,17369,25310
33185,17388,25337
33176,17380,25417
32920,17348,25365
32568,17321,25378
32245,17277,25497
32084,17256,25509
32190,17277,25573
32492,17308,25577
32844,17324,25732
33205,17380,25740
33452,17404,25796
33436,17390,25748
33312,17348,25791
32952,17318,25788
32688,17284,25809
32517,17273,25855
32700,17287,25873
33072,17315,25884
33592,17319,25982
34200,17358,26025
34873,17373,26055
35214,17390,26085
35319,17360,26119
35417,17321,26148
35472,17271,26180
35560,17257,26074
35820,17263,26153
36304,17319,26256
37020,17370,26161
37952,17462,26220
38768,17379,26221
38824,17364,26266
37948,17337,26310
36408,17321,26460
34880,17265,26356
33196,17240,26380
31460,17251,26411
30080,17279,26460
29676,17325,26492
30188,17365,26530
30972,17383,26708
31544,17369,26748
31712,17346,26791
31804,17341,26799
31736,17249,26836
31720,17229,26855
31800,17250,27005
32045,17282,26990
32412,17321,27031
32740,17353,27128
32966,17375,27163
32936,17364,27117
32684,17348,27036
32349,17311,27070
31956,17271,27259
31544,17255,27300
31568,17233,27416
31880,17301,27454
32256,17329,27492
32624,17335,27557
32836,17351,27432
32833,17353,27444
32613,17343,27508
32284,17340,27711
31964,17235,27731
31712,17218,27717
31732,17241,27919
31988,17275,27798
32313,17319,27805
32660,17368,28031
32904,17344,27996
32916,17348,28175
32712,17327,28137
32372,17281,28137
32088,17249,28178
31882,17245,28292
31900,17215,28516
32184,17249,28399
32512,17295,28422
32781,17356,28620
32984,17407,28703
33037,17327,28842
32844,17300,28709
32544,17262,28764
32248,17226,28988
32012,17215,28961
31992,17225,29081
32244,17270,29274
32629,17314,29156
33006,17316,29172
33217,17348,29209
33120,17341,29458
32864,17324,29528
32556,17298,29590
32232,17216,29677
31988,17220,29764
32060,17225,29848
32368,17240,29945
32728,17280,29837
33012,17351,29879
33264,17333,29980
33228,17335,30223
32953,17311,30056
32620,17254,30072
32270,17216,30286
32023,17219,30356
32080,17213,30395
32364,17244,30429
32724,17295,30495
33092,17351,30671
33340,17327,30726
33388,17317,30802
33132,17308,30685
32828,17270,30663
32520,17245,30876
32253,17191,30916
32340,17217,31078
32608,17254,31150
32976,17263,30988
33277,17327,31158
33532,17324,31187
33544,17317,31328
33316,17309,31321
33020,17245,31263
32754,17204,31239
32528,17198,31266
32600,17205,31527
32876,17244,31572
33292,17281,31622
33669,17335,31633
33956,17356,31709
33972,17349,31743
33732,17278,31729
33412,17243,31808
33151,17211,31934
32925,17198,32056
33021,17204,32130
33304,17241,32172
33576,17287,32138
33728,17299,32067
33892,17316,32040
33896,17310,32255
33724,17284,32204
33464,17261,32313
33196,17228,32359
32964,17217,32420
32976,17237,32519
33220,17219,32612
33540,17258,32667
33868,17295,32655
34124,17308,32577
34094,17300,32636
33829,17271,32714
33472,17256,32647
33082,17215,32693
32780,17188,32719
32740,17207,32663
32936,17247,32868
33236,17251,32900
33532,17287,32936
33680,17313,32735
33528,17303,32766
33174,17264,32813
32796,17231,33052
32469,17189,33084
32061,17172,33095
31985,17191,33056
32144,17235,33063
32420,17268,33103
32704,17315,33212
32892,17331,33293
32808,17335,33174
32501,17334,33141
32056,17292,33172
31688,17186,33209
31433,17210,33230
31456,17205,33315
31696,17241,33292
32020,17279,33358
32308,17317,33373
32500,17332,33388
32448,17329,33350
32168,17253,33336
31812,17220,33258
31432,17183,33273
31161,17164,33287
31220,17173,33508
31474,17199,33293
31856,17239,33536
32196,17277,33341
32496,17292,33367
32508,17287,33472
32292,17253,33519
31901,17219,33464
31572,17181,33440
31284,17159,33661
31304,17188,33639
31560,17210,33600
31924,17257,33812
32256,17329,33647
32508,17289,33742
32500,17283,33764
32256,17255,33740
31908,17231,33695
31604,17198,33911
31404,17153,33823
31460,17167,33689
31780,17204,33875
32196,17263,33855
32544,17263,33900
32784,17290,33905
32769,17290,33843
32516,17270,33855
32156,17215,33956
31836,17167,34081
31656,17145,34127
31732,17158,34117
32044,17186,34123
32232,17225,34151
32384,17264,34172
32648,17292,33991
32736,17298,33989
32550,17264,33862
32224,17227,34116
31921,17180,34140
31660,17163,34167
31644,17173,34108
31926,17193,34257
32316,17234,34321
32720,17289,34129
33032,17306,34101
33060,17301,34134
32821,17259,34129
32502,17220,34055
32157,17185,34073
31916,17180,34338
31952,17137,34307
32192,17181,34369
32512,17241,34414
32832,17274,34445
33060,17295,34292
33020,17298,34159
32805,17277,34421
32460,17247,34417
32140,17205,34421
31904,17127,34376
31928,17137,34519
32172,17170,34567
32552,17231,34477
32864,17259,34375
33136,17294,34462
33108,17312,34435
32816,17229,34473
32472,17193,34610
32140,17144,34449
31888,17140,34471
31912,17159,34453
32224,17211,34556
32580,17203,34449
32888,17248,34300
33108,17281,34484
33056,17265,34423
32784,17242,34556
32484,17218,34410
32176,17141,34460
31952,17126,34364
31960,17151,34592
32242,17199,34375
32577,17200,34263
32871,17236,34487
33132,17266,34370
33120,17276,34492
32848,17214,34333
32476,17182,34468
32173,17146,34444
31980,17122,34407
31964,17156,34551
32228,17188,34391
32560,17228,34332
32860,17293,34209
33108,17251,34207
33108,17242,34438
32820,17235,34439
32460,17191,34373
32176,17167,34469
31972,17154,34530
32036,17124,34468
32344,17170,34198
32613,17204,34460
32896,17253,34447
33172,17278,34357
33116,17240,34548
32856,17198,34583
32513,17164,34520
32164,17135,34356
31952,17122,34206
31968,17143,34445
32193,17176,34437
32544,17180,34359
32900,17232,34575
33172,17251,34566
33126,17255,34380
32876,17237,34248
32564,17216,34465
32268,17124,34449
32006,17110,34510
32044,17147,34489
32308,17138,34383
32641,17193,34463
32960,17245,34605
33184,17232,34413
33141,17229,34383
32904,17203,34476
32540,17167,34468
32242,17145,34439
32042,17096,34557
32044,17109,34352
32308,17151,34494
32696,17175,34404
33028,17210,34583
33280,17237,34412
33228,17250,34249
32919,17258,34488
32624,17150,34460
32284,17132,34628
32010,17087,34413
32022,17112,34284
32265,17137,34509
32576,17195,34506
32896,17239,34504
33172,17257,34519
33124,17213,34507
32880,17193,34533
32556,17174,34641
32248,17121,34623
31996,17097,34540
32024,17127,34362
32272,17167,34555
32612,17207,34551
32976,17209,34524
33300,17222,34495
33308,17236,34628
33036,17189,34677
32685,17157,34700
32356,17125,34705
32108,17105,34693
32172,17121,34703
32472,17144,34725
32816,17176,34663
33128,17221,34718
33316,17247,34711
33288,17246,34613
32988,17167,34395
32652,17134,34391
32344,17092,34377
32132,17073,34647
32188,17101,34595
32432,17133,34640
32761,17178,34708
33112,17232,34572
33320,17211,34422
33262,17200,34672
32952,17172,34642
32636,17156,34567
32296,17103,34804
32052,17093,34757
32064,17100,34703
32392,17145,34596
32689,17189,34455
33016,17191,34704
33292,17262,34686
33232,17196,34649
32927,17169,34781
32568,17145,34655
32204,17089,34493
32032,17087,34753
32046,17095,34684
32288,17129,34884
32660,17179,34742
32993,17184,34623
33217,17209,34797
33220,17215,34862
32965,17158,34746
32644,17135,34828
32320,17099,34799
32084,17084,35005
32124,17071,34789
32436,17109,34874
32768,17157,34860
33078,17220,35028
33317,17195,34927
33276,17193,34727
33028,17190,34951
32692,17117,35054
32364,17091,35007
32132,17068,34877
32105,17087,34791
32326,17135,35043
32708,17139,35066
33064,17199,35197
33332,17217,35223
33296,17229,35087
33100,17149,35061
32829,17110,34981
32520,17082,35176
32256,17085,35154
32280,17064,35145
32528,17095,35304
32876,17145,35271
33192,17186,35017
33413,17220,35268
33352,17170,35409
33108,17140,35269
32888,17114,35068
32692,17081,35335
32496,17085,35335
32614,17104,35280
33040,17093,35473
33764,17124,35531
34652,17167,35492
35432,17188,35348
35813,17183,35200
35928,17143,35193
35941,17121,35455
36012,17093,35477
36096,17071,35509
36488,17092,35568
37168,17127,35615
38127,17185,35583
39056,17175,35507
39416,17197,35270
38748,17211,35533
37244,17168,35556
35588,17132,35563
33616,17092,35551
31480,17092,35486
29896,17056,35476
29532,17087,35517
30076,17122,35739
30880,17178,35580
31712,17199,35441
32178,17165,35623
32280,17133,35573
32172,17114,35758
31964,17073,35621
31828,17070,35564
31932,17049,35384
32226,17079,35652
32548,17115,35665
32836,17150,35656
33036,17171,35572
32960,17185,35736
32708,17152,35585
32368,17134,35660
32058,17048,35660
31841,17036,35605
31880,17055,35634
32192,17101,35719
32564,17149,35613
32895,17149,35421
33112,17168,35716
33048,17168,35684
32728,17137,35662
32404,17101,35615
32104,17063,35797
31920,17063,35792
32004,17082,35648
32256,17069,35470
32588,17117,35716
32952,17156,35780
33240,17188,35764
33236,17189,35572
32940,17117,35748
32684,17095,35905
32364,17069,35676
32112,17060,35812
32084,17033,35718
32352,17079,35844
32668,17124,35802
32984,17177,35616
33216,17159,35831
33216,17147,35924
33004,17137,35757
32664,17105,35703
32376,17076,35588
32165,17055,35863
32201,17063,35867
32492,17129,35876
32780,17099,35868
33144,17133,35860
33390,17159,35828
33384,17161,35903
33140,17121,35951
32828,17096,35815
32520,17089,35877
32284,17017,35904
32301,17042,35899
32612,17075,35876
33020,17129,36026
33345,17138,35812
33544,17147,35872
33522,17134,35880
33236,17111,35903
32920,17073,35900
32652,17050,35816
32481,17030,36012
32536,17056,35812
32740,17102,35609
33096,17089,35868
33440,17130,35821
33724,17172,35887
33693,17152,36007
33424,17132,35969
33108,17064,35792
32804,17031,35885
32608,17021,35781
32728,17051,36004
33080,17047,35810
33404,17090,35653
33728,17137,35892
33996,17182,35876
33940,17131,36021
33660,17124,35901
33380,17079,35924
33148,17052,35841
32996,17061,35796
33080,17015,35812
33372,17051,35656
33696,17087,35647
34032,17132,35909
34256,17151,35887
34284,17140,35858
34037,17106,35959
33749,17082,35964
33426,17013,35933
33188,17029,36013
33228,17040,35816
33528,17049,35896
33896,17092,35928
34209,17134,35677
34448,17154,35941
34424,17148,35837
34165,17108,35847
33852,17079,36079
33516,17047,36097
33256,17061,35994
33237,17005,35869
33472,17049,35972
33804,17085,35932
34168,17126,35908
34374,17150,35907
34280,17151,36056
33988,17127,35917
33573,17046,35975
33216,17022,35910
32944,17005,36049
32908,17028,35887
33108,17031,35975
33344,17076,35868
33584,17142,36036
33716,17142,35791
33610,17153,35975
33240,17085,35972
32764,17066,35956
32328,17015,35868
32012,17013,35967
32000,17063,35888
32200,17031,36025
32428,17071,35884
32680,17113,35681
32868,17145,35951
32756,17135,35914
32469,17102,35838
32193,17052,35975
31892,17022,35993
31628,17017,35847
31588,16995,35657
31844,17049,35909
32172,17079,35816
32502,17116,35906
32720,17139,36005
32590,17131,35853
32312,17103,35817
31972,17074,35633
31628,16996,35884
31401,16978,35879
31480,16996,35757
31741,17031,35973
32040,17076,35812
32368,17133,35772
32640,17116,35557
32604,17106,35837
32356,17079,35727
32032,17049,35879
31709,17014,35725
31524,16973,35788
31608,16985,35763
31903,17029,35908
32240,17062,35804
32548,17118,35687
32780,17138,35763
32720,17132,35701
32453,17108,35647
32145,17025,35750
31836,16987,35844
31648,16971,35778
31728,16987,35645
32012,17031,35719
32344,17077,35685
32672,17092,35827
32897,17099,35658
32868,17085,35503
32622,17061,35689
32316,17044,35684
31976,17007,35612
31736,16958,35677
31784,16978,35700
32041,17025,35591
32438,17078,35392
32796,17074,35615
33050,17092,35561
33056,17084,35560
32856,17047,35732
32516,17009,35660
32160,16976,35553
31932,16977,35516
31972,16989,35588
32264,17041,35482
32604,17037,35478
32960,17073,35580
33185,17087,35653
33146,17089,35396
32872,17079,35585
32521,17059,35561
32236,17013,35516
31952,16957,35697
31917,16983,35588
32256,17020,35492
32684,17044,35436
33080,17092,35566
33288,17117,35564
33212,17113,35514
32948,17042,35684
32620,17011,35553
32304,16989,35519
32060,17014,35526
32114,16965,35672
32388,17013,35401
32720,17085,35558
33044,17073,35466
33241,17098,35660
33189,17120,35423
32936,17043,35258
32580,17025,35537
32272,16976,35524
32034,16976,35439
32068,16957,35540
32364,16987,35388
32712,17031,35527
33036,17087,35471
33245,17101,35559
33166,17117,35528
32936,17035,35345
32589,17010,35519
32284,16981,35417
32049,16977,35577
32064,16984,35569
32288,17021,35563
32624,17005,35477
32904,17061,35436
33132,17075,35445
33136,17065,35359
32890,17052,35316
32596,17009,35509
32292,16976,35529
32080,16967,35488
32109,16967,35429
32420,17015,35609
32696,17060,35495
32936,17093,35336
33128,17065,35520
33072,17057,35488
32881,17022,35635
32553,16993,35601
32258,16963,35384
32012,16953,35554
32064,16975,35463
32341,17028,35618
32696,17013,35452
33012,17055,35281
33265,17063,35493
33117,17069,35539
32889,17048,35668
32576,17008,35505
32280,16966,35478
32004,16950,35457
32128,16962,35532
32388,17001,35553
32688,17044,35517
33028,17045,35527
33237,17063,35620
33160,17069,35440
32880,17047,35525
32568,17023,35487
32278,16938,35625
32060,16922,35463
32141,16957,35452
32372,16981,35502
32713,17030,35612
33044,17116,35525
33252,17059,35449
33232,17097,35423
32953,17020,35407
32570,16981,35247
32276,16981,35231
32048,16972,35489
32056,16936,35482
32352,16968,35531
32784,17031,35408
33089,17066,35231
33364,17093,35493
33328,17086,35463
33024,17015,35503
32701,16975,35540
32462,16957,35358
32266,16933,35223
32317,16950,35436
32589,17012,35484
32892,17003,35228
33108,17046,35492
33276,17062,35435
33148,17069,35564
32920,17039,35460
32597,17007,35392
32308,16932,35488
32096,16921,35472
32200,16934,35246
32493,16987,35468
32856,17017,35477
33236,17066,35469
33412,17068,35468
33312,17065,35433
32981,17030,35432
32639,16981,35409
32318,16947,35395
32101,16970,35492
32188,16927,35351
32488,16967,35348
32824,16996,35220
33140,17048,35422
33350,17073,35344
33306,17058,35292
33044,17028,35380
32688,16982,35517
32380,16948,35434
32176,16935,35317
32260,16948,35273
32512,16992,35197
32820,17033,35354
33112,17076,35329
33292,17051,35296
33216,17037,35223
32960,17000,35383
32648,16975,35359
32333,16929,35234
32160,16921,35207
32208,16928,35079
32548,16961,35265
32864,17021,35278
33228,17046,35193
33358,17062,35152
33249,17059,35175
32992,17031,35223
32708,16997,35233
32436,16937,35313
32229,16934,35335
32336,16932,35274
32605,16958,35223
32964,16996,35101
33200,17031,35079
33412,17047,35079
33282,17037,35055
32976,17006,34889
32696,16973,35153
32400,16943,35113
32305,16925,35095
32396,16935,35020
32692,16967,35060
32980,17005,35232
33285,17044,35223
33528,17065,35234
33513,17056,35111
33308,17025,35036
33064,16996,35026
32770,16958,35021
32628,16946,35024
32888,16951,35017
33560,16967,35008
34396,17020,34984
35060,17047,34855
35720,17068,34952
36156,17047,35097
36372,17037,35113
36448,16988,34861
36439,16953,35111
36576,16959,35026
37108,16975,35180
37996,17049,35235
38708,17005,35216
38884,17042,35203
38144,17056,35125
36896,17041,35079
35368,17012,35095
33444,17028,34935
31296,16956,35092
29596,16940,35105
29216,16965,34981
29800,16985,35207
30649,17016,35221
31524,17071,35250
32233,17084,35253
32524,17076,35212
32452,17055,35333
32214,16966,35389
31944,16926,35436
31772,16908,35437
31800,16926,35323
32020,16959,35335
32268,16991,35473
32544,17034,35438
32808,17057,35474
32788,17068,35382
32537,17024,35437
32204,16983,35413
31888,16940,35380
31660,16920,35348
31716,16930,35346
32012,16972,35191
32380,17009,35471
32732,17050,35436
32976,17059,35412
32904,17055,35578
32657,17033,35510
32376,16997,35429
32060,16951,35447
31838,16937,35333
31864,16943,35362
32148,16985,35300
32524,17038,35591
32836,17037,35550
33072,17047,35717
33008,17049,35639
32736,17017,35644
32360,16986,35601
32014,16937,35588
31788,16925,35597
31836,16945,35474
32148,16970,35685
32592,17004,35719
33004,17045,35665
33228,17055,35657
33180,17047,35665
32892,17015,35685
32564,16989,35734
32230,16948,35780
32025,16933,35863
32097,16955,35845
32376,16996,35814
32724,17037,35855
33092,17031,35796
33336,17049,35716
33328,17039,35703
33023,17009,35756
32736,17019,35736
32468,16966,35702
32244,16956,35630
32340,16962,35477
32632,16957,35700
33024,16985,35689
33360,17076,35679
33565,17063,35641
33484,17055,35372
33254,17010,35617
32957,16979,35613
32676,16935,35580
32460,16916,35524
32516,16927,35472
32776,16966,35431
33149,17006,35488
33508,17060,35538
33736,17087,35591
33724,17055,35476
33495,17024,35519
33196,16988,35468
32925,16942,35485
32737,16932,35412
32832,16943,35460
33149,16984,35443
33517,17001,35412
33868,17044,35381
34112,17055,35356
34104,17049,35215
33815,17025,35143
33528,16998,35201
33276,16944,35109
33132,16934,35047
33154,16951,34975
33476,16993,35031
33828,17043,35011
34156,17044,34951
34424,17087,34892
34420,17058,35012
34200,17053,34941
33944,17020,34855
33644,16983,34797
33412,16974,34700
33493,16972,34663
33768,16999,34646
34126,17007,34447
34424,17048,34660
34580,17067,34620
34520,17071,34599
34256,17033,34567
33858,16988,34271
33488,16967,34494
33236,16948,34469
33333,16959,34423
33632,16993,34404
33944,17045,34353
34192,17052,34236
34352,17068,34406
34248,17057,34354
33956,17026,34228
33552,16985,34107
33188,16959,33926
32864,16934,33908
32824,16944,33972
33028,16981,33916
33300,17020,33815
33542,17053,33847
33668,17068,33969
33472,17060,33999
33096,17031,34080
32692,16997,34053
32296,16990,33848
32000,16975,33919
31980,16987,33977
32180,17027,33989
32468,17090,33981
32732,17130,33955
32868,17110,33957
32720,17092,33935
32396,17060,33910
32040,17033,33880
31640,16993,33842
31396,16968,33823
31432,16977,33718
31717,17005,33708
32056,17047,33661
32345,17088,33790
32536,17107,33817
32440,17098,33785
32108,17060,33722
31701,17021,33956
31368,16991,33830
31152,16981,33764
31176,16994,33641
31500,16991,33885
31880,17101,33893
32224,17077,33920
32432,17094,33941
32356,17088,33940
32117,17053,33973
31760,17028,33998
31448,16966,33793
31200,16951,34013
31280,16983,34065
31568,17008,34087
31908,17043,34110
32321,17087,34110
32508,17110,34124
32458,17087,34172
32236,17057,34201
31896,17039,34183
31576,16996,34178
31364,16984,34213
31414,16994,34296
31712,17032,34225
32093,17075,34265
32400,17121,34321
32660,17156,34487
32616,17131,34553
32405,17052,34535
32084,17018,34460
31831,16972,34468
31608,16964,34417
31672,16977,34447
31916,17006,34465
32292,17043,34516
32662,17081,34510
32872,17101,34416
32736,17085,34535
32504,17055,34607
32240,17089,34639
31988,17025,34701
31804,16989,34790
31892,17009,34788
32160,17045,34840
32497,17091,34823
32809,17132,34794
32966,17139,34728
32968,17121,34637
32740,17079,34628
32429,17028,34749
32092,16984,34743
31909,16969,34717
31892,17026,34733
32192,17083,34685
32632,17057,34633
32912,17101,34695
33140,17111,34629
33048,17136,34633
32788,17095,34676
32468,17055,34705
32176,16992,34691
31982,17028,34481
32080,17020,34583
32388,17044,34591
32760,17083,34540
33069,17119,34587
33326,17137,34709
33240,17126,34604
32976,17081,34447
32669,17042,34506
32344,17003,34487
32104,16996,34471
32196,16997,34444
32480,17031,34410
32840,17070,34376
33152,17107,34340
33344,17161,34220
33301,17147,34204
33024,17105,34305
32676,17069,34223
32352,17039,34089
32105,17025,33909
32152,17052,34084
32440,17116,34037
32812,17119,34000
33142,17156,33981
33388,17137,33863
33320,17124,33965
33024,17098,33925
32688,17078,33809
32368,17045,33725
32137,17026,33636
32165,17023,33582
32452,17063,33460
32818,17109,33511
33150,17138,33335
33356,17159,33309
33296,17147,33486
32992,17120,33455
32652,17099,33312
32333,17067,33410
32133,17056,33385
32208,17090,33420
32508,17098,33415
32832,17132,33381
33096,17195,33326
33296,17159,33271
33236,17167,33072
32909,17124,33045
32553,17084,33019
32254,17055,33099
32037,17055,33052
32124,17031,32957
32404,17068,32933
32748,17108,33117
33096,17168,33073
33316,17188,32856
33228,17189,32735
32928,17161,32698
32636,17143,32727
32232,17037,32884
31996,17031,32877
32100,17047,32854
32404,17085,32803
32744,17127,32734
33036,17188,32832
33272,17166,32865
33225,17166,32831
32929,17127,32718
32596,17110,32572
32238,17077,32793
32020,17061,32791
32088,17085,32692
32366,17079,32885
32677,17119,32890
32942,17159,32916
33136,17173,32821
33104,17166,32748
32856,17133,32719
32480,17093,32725
32133,17055,32713
31944,17047,32611
31988,17071,32625
32262,17101,32862
32568,17138,32848
32916,17199,32775
33092,17255,32975
32972,17168,33013
32644,17137,33013
32312,17126,32876
31992,17086,32852
31808,17087,32876
31880,17061,32976
32172,17094,32985
32492,17159,32896
32842,17185,32921
33052,17208,33014
32996,17209,33171
32728,17189,33172
32320,17144,33220
32048,17125,33113
31857,17052,33026
31948,17069,33051
32248,17103,33060
32572,17142,32948
32868,17195,33183
33088,17219,33224
33016,17208,33234
32710,17189,33252
32356,17114,33206
31992,17083,33212
31790,17075,33209
31860,17099,33227
32125,17140,33432
32508,17185,33332
32864,17252,33287
33104,17200,33201
33072,17199,33400
32824,17167,33436
32489,17137,33388
32144,17103,33449
31920,17093,33397
31972,17119,33580
32244,17116,33391
32600,17166,33256
32916,17220,33497
33117,17271,33485
33100,17197,33535
32856,17190,33641
32536,17150,33441
32222,17117,33302
32052,17121,33543
32144,17089,33452
32468,17122,33628
32788,17166,33655
33166,17221,33490
33412,17237,33383
33364,17243,33557
33108,17177,33455
32772,17142,33636
32517,17103,33513
32288,17093,33321
32440,17116,33543
32805,17152,33473
33212,17172,33633
33628,17212,33449
34117,17239,33559
34520,17236,33516
34740,17200,33443
34829,17171,33604
35028,17125,33432
35265,17118,33535
35680,17185,33660
36312,17146,33445
36928,17211,33513
37661,17287,33492
38512,17293,33503
39156,17281,33460
39200,17201,33465
38508,17180,33620
37064,17151,33415
35532,17126,33283
34170,17140,33253
32633,17169,33285
31040,17205,33356
30168,17239,33396
30320,17260,33349
30740,17251,33257
31048,17221,33261
31244,17191,33492
31428,17158,33496
31564,17105,33396
31772,17127,33557
32109,17155,33405
32484,17191,33461
32776,17234,33453
32996,17245,33453
32932,17237,33449
32628,17208,33398
32256,17173,33613
31888,17140,33508
31676,17128,33405
31816,17148,33331
32080,17211,33477
32388,17199,33373
32720,17238,33497
32952,17254,33281
32893,17239,33412
32568,17211,33412
32232,17174,33415
31940,17144,33316
31732,17140,33508
31776,17143,33513
32085,17178,33508
32440,17221,33516
32776,17249,33517
33016,17259,33497
32988,17247,33296
32681,17218,33532
32392,17183,33525
32072,17144,33312
31893,17157,33466
31993,17175,33468
32316,17211,33485
32664,17257,33359
32980,17251,33605
33228,17264,33607
33209,17262,33623
32900,17249,33613
32553,17197,33629
32220,17158,33639
32008,17128,33421
32045,17143,33565
32356,17177,33565
32748,17252,33631
33124,17297,33607
33318,17336,33562
33288,17259,33489
33008,17236,33415
32664,17204,33647
32340,17177,33653
32148,17178,33617
32232,17214,33595
32540,17222,33620
32932,17277,33567
33224,17303,33553
33438,17317,33493
33412,17310,33477
33184,17271,33517
32866,17246,33558
32564,17164,33637
32352,17143,33639
32442,17158,33584
32756,17215,33560
33108,17246,33412
33452,17289,33282
33693,17310,33217
33700,17297,33177
33400,17265,33181
33140,17233,33375
32857,17209,33364
32580,17156,33276
32638,17168,33436
32916,17204,33445
33256,17234,33428
33640,17282,33372
33956,17307,33254
33975,17317,33161
33728,17251,33040
33408,17221,33243
33124,17183,33164
32960,17185,33327
32996,17189,33251
33281,17225,33134
33632,17264,33089
33960,17319,33071
34228,17340,32972
34262,17287,33135
34080,17254,33133
33772,17223,33130
33468,17237,33117
33272,17199,33100
33292,17214,32876
33552,17244,32892
33928,17268,32990
34284,17303,32966
34540,17317,32965
34484,17313,32955
34236,17273,32997
33908,17237,33140
33560,17203,33061
33312,17191,32976
33377,17202,32925
33652,17234,32935
33972,17261,32889
34264,17307,32964
34504,17322,32964
34456,17301,32962
34164,17287,32924
33780,17241,32840
33420,17199,32844
33140,17198,32893
33128,17199,32902
33348,17220,32901
33566,17261,32692
33792,17310,32803
33952,17328,32852
33788,17317,32845
33436,17285,32861
32996,17252,32848
32552,17225,32836
32224,17223,32828
32121,17234,32628
32369,17253,32697
32676,17303,32660
32908,17298,32821
33048,17316,32781
32924,17314,32703
32570,17287,32913
32132,17251,32849
31798,17209,32821
31518,17204,32850
31468,17233,32708
31684,17229,32788
32020,17273,32767
32353,17327,32783
32588,17343,32820
32564,17345,32684
32272,17274,32793
31900,17247,32775
31500,17208,32748
31260,17199,32749
31296,17223,32696
31620,17261,32741
31972,17276,32831
32298,17308,32889
32556,17343,32852
32452,17331,32724
32148,17321,32580
31765,17244,32785
31456,17209,32741
31254,17211,32701
31340,17225,32848
31560,17283,32846
31905,17277,32748
32296,17348,32787
32568,17324,32713
32508,17325,32858
32244,17292,32793
31944,17253,32839
31604,17228,32744
31396,17200,32739
31416,17219,32720
31665,17266,32718
32049,17301,32820
32389,17316,32881
32621,17327,32844
32584,17321,32881
32320,17295,32876
32012,17256,32866
31717,17217,32880
31536,17202,32860
31596,17221,32708
31884,17253,32665
32252,17313,32574
32568,17317,32753
32796,17343,32764
32720,17345,32829
32485,17287,32647
32192,17268,32553
31900,17237,32730
31684,17229,32697
31716,17210,32652
32004,17245,32694
32365,17279,32609
32708,17343,32748
32940,17376,32676
32910,17326,32513
32644,17316,32647
32348,17256,32646
32078,17235,32628
31824,17216,32583
31868,17246,32505
32161,17282,32477
32510,17321,32547
32864,17356,32627
33100,17339,32588
33052,17330,32524
32797,17298,32480
32432,17280,32484
32073,17232,32397
31864,17234,32319
31908,17269,32263
32188,17247,32331
32552,17284,32252
32916,17324,32184
33160,17358,32046
33120,17351,32038
32860,17309,31984
32480,17294,32183
32140,17224,32138
31936,17205,32095
32012,17235,31983
32292,17310,32149
32644,17296,31922
32992,17345,31781
33216,17380,31921
33129,17325,31895
32884,17311,31863
32516,17284,31831
32184,17254,31793
31956,17204,31735
32002,17213,31511
32276,17252,31503
32604,17287,31540
32916,17346,31605
33132,17365,31388
33054,17353,31541
32784,17321,31492
32484,17279,31247
32149,17252,31300
31936,17271,31375
32016,17287,31135
32292,17247,31098
32640,17287,31079
32968,17353,31230
33181,17357,31157
33132,17360,31119
32852,17357,31101
32536,17260,31061
32201,17223,31023
31929,17206,30952
32028,17216,30880
32372,17269,30811
32704,17295,30852
33029,17337,30820
33240,17358,30786
33184,17339,30727
32908,17316,30511
32556,17291,30656
32216,17251,30419
31972,17218,30431
31996,17231,30457
32240,17262,30534
32624,17294,30532
32976,17363,30437
33153,17379,30434
33073,17368,30321
32804,17347,30244
32460,17327,30209
32140,17265,30204
31972,17239,30215
31984,17212,30041
32250,17252,29896
32596,17306,29842
32916,17343,29810
33164,17375,29736
33134,17327,29703
32848,17297,29624
32488,17260,29574
32184,17219,29539
31960,17211,29449
32000,17231,29396
32276,17287,29540
32604,17278,29492
32933,17325,29412
33200,17337,29365
33128,17332,29268
32893,17305,29309
32540,17277,29300
32216,17247,29288
32000,17197,29138
32064,17213,29036
32344,17253,28976
32664,17292,28849
32964,17340,28995
33172,17359,28949
33142,17324,28895
32878,17293,28775
32580,17263,28764
32264,17219,28720
32068,17261,28649
32148,17254,28632
32409,17285,28591
32700,17315,28535
32972,17356,28500
33164,17374,28455
33092,17396,28503
32880,17294,28487
32596,17263,28304
32293,17218,28260
32040,17205,28244
32092,17223,28158
32429,17260,28106
32804,17303,28039
33144,17345,28031
33269,17364,27980
33204,17377,27925
32932,17293,27893
32557,17265,27980
32216,17237,27842
32032,17215,27721
32037,17218,27703
32308,17247,27641
32632,17279,27589
32933,17321,27557
33127,17333,27485
33056,17325,27438
32792,17295,27543
32424,17252,27501
32094,17221,27438
31896,17206,27381
31960,17220,27313
32220,17278,27267
32608,17281,27300
32912,17312,27164
33104,17335,27009
33039,17335,26961
32751,17311,26927
32464,17292,27009
32192,17256,26861
31972,17239,26921
32028,17244,26735
32326,17268,26692
32684,17312,26647
32992,17373,26766
33172,17335,26700
33125,17324,26636
32844,17295,26549
32556,17266,26580
32240,17245,26396
32024,17247,26360
32060,17215,26444
32336,17255,26476
32644,17310,26276
32961,17319,26188
33224,17328,26132
33180,17315,26098
32916,17299,26066
32588,17263,26036
32284,17233,26119
32088,17210,26076
32136,17228,26030
32384,17261,25989
32744,17335,25924
33060,17311,25782
33333,17326,25758
33380,17334,25735
33208,17313,25755
32940,17279,25713
32676,17277,25545
32639,17198,25535
33029,17204,25390
33788,17238,25313
34572,17274,25273
35280,17321,25210
36008,17335,25126
36468,17320,25162
36645,17297,25102
36740,17250,25090
36812,17225,24959
37084,17221,24913
37768,17239,24832
38632,17262,24819
39136,17293,24756
38872,17338,24708
37776,17364,24793
36360,17348,24750
34520,17299,24696
32176,17252,24538
29952,17213,24488
28796,17195,24462
28952,17204,24416
29724,17245,24433
30612,17289,24473
31486,17321,24411
32168,17352,24337
32408,17352,24397
32324,17324,24353
32060,17273,24335
31780,17264,24240
31580,17189,24056
31624,17205,24187
31828,17247,24188
32180,17276,24146
32524,17316,24071
32728,17337,23976
32656,17332,23973
32393,17294,23958
32056,17257,23926
31728,17233,23831
31500,17207,23836
31548,17215,23765
31808,17257,23749
32180,17327,23735
32548,17309,23709
32820,17316,23631
32748,17305,23605
32508,17278,23565
32178,17239,23561
31868,17192,23551
31684,17190,23541
31712,17215,23477
32040,17233,23521
32415,17269,23497
32730,17324,23289
32956,17339,23233
32896,17340,23216
32644,17303,23174
32324,17230,23209
32016,17198,23279
31790,17189,23218
31822,17203,23261
32084,17260,23080
32413,17263,23068
32764,17317,23141
32972,17372,23072
32936,17303,23120
32728,17289,23026
32416,17255,22900
32116,17197,23014
31948,17176,22919
31920,17195,22976
32172,17230,22890
32568,17268,22782
32892,17308,22853
33104,17327,22741
33040,17333,22733
32796,17261,22834
32452,17231,22809
32176,17187,22783
31994,17165,22751
32080,17181,22701
32388,17218,22693
32746,17270,22591
33088,17318,22535
33276,17332,22645
33220,17323,22620
32976,17282,22602
32700,17257,22499
32416,17214,22580
32252,17203,22422
32324,17194,22430
32626,17222,22337
33009,17258,22297
33360,17300,22299
33620,17324,22261
33624,17317,22348
33396,17293,22404
33060,17261,22388
32800,17221,22357
32604,17220,22313
32681,17230,22292
33004,17243,22332
33396,17272,22308
33737,17312,22319
33998,17350,22096
33940,17361,22133
33708,17249,22162
33452,17222,22156
33164,17222,22216
32940,17188,22201
33008,17190,22110
33312,17221,22119
33696,17276,22155
34080,17321,22133
34300,17293,22179
34232,17285,21963
33980,17252,22039
33676,17237,22125
33424,17194,22053
33272,17172,22050
33356,17189,22070
33660,17231,21920
33984,17294,21971
34325,17276,22017
34520,17287,22084
34437,17279,22019
34148,17257,22067
33768,17219,22063
33437,17172,22020
33134,17146,21968
33156,17159,21856
33432,17193,21902
33736,17229,22023
34060,17262,22015
34240,17285,21982
34144,17274,21944
33821,17245,22010
33396,17204,21815
33044,17176,21978
32752,17162,21940
32613,17172,21887
32728,17215,21874
32932,17231,21901
33129,17264,21964
33240,17283,21853
33088,17268,21888
32728,17241,21851
32276,17203,21856
31882,17161,21870
31592,17190,21869
31574,17192,21806
31756,17185,21909
32024,17277,21809
32256,17298,21733
32440,17313,21721
32324,17295,21670
32032,17253,21667
31636,17239,21753
31304,17158,21821
31096,17140,21806
31137,17144,21750
31386,17179,21732
31728,17220,21790
32080,17255,21809
32272,17269,21686
32184,17259,21633
31864,17229,21657
31509,17193,21700
31252,17145,21706
31008,17132,21761
31052,17143,21756
31304,17169,21753
31653,17211,21685
31980,17249,21685
32246,17261,21751
32212,17254,21691
32004,17221,21693
31648,17183,21757
31354,17141,21760
31132,17127,21757
31172,17148,21760
31480,17173,21771
31816,17270,21773
32149,17290,21778
32400,17290,21739
32392,17298,21712
32128,17222,21735
31824,17181,21805
31544,17141,21812
31344,17120,21829
31392,17129,21762
31688,17200,21750
32064,17241,21857
32388,17243,21861
32609,17258,21855
32589,17244,21876
32320,17212,21881
31984,17174,21886
31684,17135,21780
31524,17180,21795
31568,17188,21813
31864,17156,21824
32217,17197,21832
32540,17235,21909
32758,17286,22070
32752,17276,22096
32522,17241,22077
32225,17199,21927
31880,17157,21981
31616,17137,22030
31674,17151,22165
31972,17178,22182
32288,17208,22199
32612,17241,22214
32838,17263,22232
32852,17258,22241
32600,17225,22229
32264,17179,22236
31968,17134,22260
31688,17118,22270
31736,17132,22317
32021,17151,22368
32400,17187,22376
32720,17229,22401
32984,17244,22379
32928,17239,22365
32676,17211,22464
32288,17168,22308
31968,17140,22332
31716,17102,22327
31801,17111,22338
32084,17151,22409
32433,17199,22528
32804,17225,22551
33100,17229,22500
33032,17223,22487
32776,17189,22488
32412,17208,22528
32033,17142,22612
31768,17132,22628
31784,17138,22626
32052,17196,22581
32425,17224,22598
32764,17261,22505
33044,17274,22581
33041,17259,22612
32740,17241,22720
32421,17151,22661
32092,17134,22746
31876,17075,22785
31936,17155,22767
32221,17177,22678
32565,17200,22668
32905,17237,22694
33188,17253,22676
33176,17247,22723
32925,17177,22884
32572,17140,22885
32208,17119,22851
31884,17106,22965
31900,17146,22836
32208,17124,22863
32560,17178,22997
32852,17237,22978
33156,17248,22988
33188,17239,23030
32948,17209,23073
32636,17167,23091
32304,17119,23029
32072,17097,23042
32104,17105,23036
32352,17132,23095
32660,17180,23181
32960,17218,23164
33172,17222,23204
33124,17221,23234
32881,17182,23259
32548,17128,23281
32215,17090,23299
32016,17071,23316
32084,17091,23343
32316,17129,23354
32645,17167,23349
32964,17213,23356
33173,17228,23329
33160,17204,23396
32948,17177,23442
32614,17145,23462
32296,17093,23491
32036,17068,23501
32101,17074,23522
32372,17111,23524
32737,17142,23569
33032,17181,23496
33224,17199,23484
33184,17231,23479
32994,17195,23484
32712,17165,23537
32376,17079,23582
32132,17057,23613
32196,17116,23615
32412,17141,23644
32712,17166,23662
33088,17197,23648
33332,17207,23631
33261,17197,23660
33012,17177,23748
32704,17148,23775
32424,17140,23781
32208,17051,23750
32236,17061,23789
32496,17100,23811
32856,17171,23872
33172,17189,24079
33433,17212,23985
33456,17182,24098
33241,17150,24124
32880,17122,24159
32452,17069,24088
32216,17044,24117
32216,17057,24101
32448,17090,24170
32784,17124,24292
33109,17164,24374
33381,17178,24411
33348,17167,24447
33076,17138,24423
32732,17095,24502
32433,17062,24499
32192,17039,24566
32241,17065,24512
32500,17093,24455
32842,17134,24526
33200,17190,24662
33422,17203,24705
33364,17224,24704
33141,17129,24711
32840,17095,24772
32524,17053,24797
32264,17036,24772
32288,17046,24825
32576,17088,24974
32928,17127,24940
33212,17165,24964
33420,17189,25095
33400,17184,25036
33126,17158,24950
32840,17101,25004
32485,17049,25063
32252,17030,25101
32336,17044,25120
32628,17071,25148
32993,17102,25196
33248,17142,25255
33448,17173,25240
33372,17169,25293
33048,17134,25329
32764,17101,25357
32492,17071,25388
32288,17060,25417
32348,17104,25476
32662,17057,25623
33016,17100,25668
33308,17135,25703
33532,17164,25725
33477,17165,25756
33292,17127,25737
32953,17097,25724
32670,17048,25764
32472,17039,25894
32540,17057,25964
32864,17103,25802
33168,17094,25820
33453,17129,25848
33732,17220,25876
34008,17216,25904
34279,17164,25945
34560,17143,25960
34846,17031,26029
35288,17009,26069
35948,17023,26054
36760,17052,26079
37660,17097,26125
38556,17135,26160
39384,17167,26314
40140,17179,26348
40732,17122,26367
40784,17098,26407
39956,17057,26427
38364,17051,26372
36768,17028,26484
35064,17133,26404
33008,17091,26426
31052,17151,26594
30164,17167,26620
30148,17145,26715
30412,17121,26772
30704,17092,26652
30940,17060,26631
31148,17041,26665
31429,17010,26860
31824,17039,26885
32256,17078,26843
32632,17133,26972
32848,17154,27037
32808,17137,27087
32572,17103,27150
32257,17064,27156
31964,17010,27234
31692,17043,27253
31733,17031,27189
31992,17057,27244
32332,17076,27261
32660,17134,27396
32872,17148,27340
32872,17128,27387
32612,17089,27458
32320,17048,27445
32024,17007,27510
31780,16993,27500
31812,16995,27585
32092,17026,27647
32437,17111,27676
32756,17139,27725
32992,17153,27768
32960,17133,27818
32740,17093,27863
32396,17060,27893
32060,17014,27950
31808,16995,27977
31862,17009,27989
32160,17032,28055
32484,17091,28108
32856,17136,27997
33100,17190,28023
33064,17166,28029
32868,17107,28068
32560,17073,28123
32272,17031,28140
32020,17020,28148
32032,17036,28221
32357,17014,28382
32708,17053,28420
33053,17104,28439
33312,17124,28433
33304,17118,28492
33048,17082,28518
32701,17057,28522
32356,17026,28539
32112,17009,28679
32173,17006,28638
32500,17031,28730
32921,17063,28756
33284,17127,28561
33524,17176,28711
33464,17149,28721
33244,17111,28702
32952,17060,28676
32708,17055,28817
32444,16965,28793
32520,16974,28884
32800,17005,28876
33110,17039,28885
33460,17084,28689
33700,17099,28671
33704,17095,28671
33462,17073,28862
33188,17049,28761
32924,17023,28948
32720,16993,28913
32836,16967,28764
33096,17001,28729
33464,17045,28866
33820,17099,28785
34076,17131,28949
34096,17081,28780
33908,17047,28719
33568,17013,28893
33278,16968,28886
33046,16961,28851
33076,16997,28800
33372,17026,28882
33754,17063,28967
34104,17071,28862
34416,17082,28771
34436,17069,28748
34200,17041,28853
33920,17031,28867
33636,16986,28845
33429,16963,28828
33517,16975,28772
33842,17004,28742
34188,17045,28804
34489,17078,28865
34680,17104,28862
34684,17084,28881
34444,17037,28896
34112,17048,28712
33776,17031,28883
33569,16941,28655
33628,16964,28775
33937,16993,28763
34260,17031,28727
34616,17071,28641
34813,17097,28730
34753,17092,28761
34456,17071,28708
34104,17025,28567
33700,16997,28524
33376,16965,28489
33344,16968,28495
33532,17015,28464
33772,17004,28628
34000,17054,28573
34144,17063,28624
33952,17057,28640
33560,17027,28548
33064,17003,28436
32608,16964,28407
32249,16950,28532
32184,16970,28469
32340,17007,28551
32564,17067,28358
32800,17119,28358
32986,17100,28309
32876,17117,28464
32544,17082,28415
32142,17022,28359
31756,16993,28343
31532,16975,28415
31488,16929,28491
31664,16960,28345
31981,16994,28253
32264,17039,28389
32476,17077,28351
32436,17055,28413
32160,17042,28404
31820,16968,28251
31480,16934,28226
31224,16910,28192
31260,16917,28206
31476,16951,28342
31824,16989,28377
32161,17028,28399
32365,17049,28221
32312,17029,28228
32068,17003,28197
31752,17001,28204
31453,16952,28219
31209,16932,28176
31239,16948,28338
31536,16975,28303
31889,17012,28275
32268,17047,28352
32440,17060,28365
32392,17055,28429
32168,17030,28391
31832,17007,28279
31549,16921,28237
31350,16900,28237
31400,16911,28212
31672,16941,28196
32044,17015,28207
32408,17051,28364
32656,17066,28389
32620,17057,28396
32357,17027,28339
32050,16987,28317
31748,16956,28393
31517,16893,28515
31520,16897,28309
31832,16933,28301
32192,16968,28287
32528,17006,28453
32772,17029,28463
32724,17011,28476
32512,17000,28504
32246,16966,28577
31924,16911,28503
31716,16903,28381
31764,16919,28353
32044,16929,28505
32372,16989,28601
32689,17045,28381
32980,17023,28564
32965,17017,28536
32700,16992,28548
32344,16981,28509
32096,16965,28674
31885,16878,28684
31944,16893,28580
32208,16922,28604
32561,16954,28484
32876,16999,28505
33108,17026,28466
33066,17020,28477
32828,16996,28668
32461,16957,28673
32148,16922,28653
31908,16911,28615
31976,16945,28701
32248,16913,28774
32620,16948,28773
32936,16987,28718
33120,17009,28551
33088,16996,28591
32858,16984,28532
32488,16939,28521
32192,16892,28572
31980,16876,28554
32044,16892,28573
32316,16932,28607
32660,16946,28641
33000,16983,28614
33270,17001,28551
33242,17039,28557
32928,16999,28533
32548,16923,28689
32229,16878,28692
32028,16863,28614
32048,16873,28709
32324,16909,28613
32669,16972,28675
32992,17013,28679
33244,17049,28607
33232,16987,28791
32988,17033,28730
32648,16921,28717
32264,16877,28610
32044,16854,28596
32033,16868,28532
32272,16895,28705
32620,16932,28724
32932,16973,28713
33176,16989,28719
33164,16980,28649
32889,16953,28732
32592,16910,28829
32272,16876,28666
32037,16853,28636
32080,16869,28584
32376,16908,28776
32732,16944,28775
33024,16990,28769
33252,17001,28693
33232,16981,28857
33040,16964,28693
32692,16918,28678
32324,16879,28657
32068,16864,28837
32124,16870,28821
32388,16902,28825
32712,16951,28916
33023,17004,28741
33268,16980,28871
33212,17031,28890
32948,16976,28893
32640,16895,28834
32350,16861,28979
32148,16839,28910
32184,16855,28854
32432,16876,28891
32773,16912,28820
33045,16967,28815
33300,16989,28792
33268,16964,28794
32988,16933,28968
32628,16916,28981
32312,16853,28972
32105,16844,28984
32106,16847,29002
32376,16874,29000
32718,16914,29004
33036,16970,28953
33288,16980,29031
33288,16980,29044
33012,16953,29062
32673,16925,29076
32375,16882,28981
32133,16857,28938
32164,16865,28930
32433,16902,28911
32780,16939,28926
33104,16974,28975
33336,16991,28965
33268,17014,29121
33044,16924,28979
32753,16921,28975
32468,16876,28991
32240,16842,29047
32252,16844,29053
32516,16867,29169
32820,16893,29311
33148,16983,29296
33364,16986,29318
33272,16981,29206
32964,16948,29135
32652,16911,29105
32341,16868,29292
32074,16848,29306
32114,16849,29132
32427,16878,29144
32777,16899,29221
33084,16948,29236
33324,16962,29247
33276,16947,29380
32960,16916,29408
32633,16882,29392
32372,16839,29421
32156,16814,29361
32196,16831,29380
32512,16871,29388
32904,16903,29460
33248,16947,29462
33416,16962,29502
33348,16944,29540
33092,16928,29532
32756,16904,29660
32481,16875,29541
32224,16804,29509
32258,16807,29469
32480,16841,29469
32780,16951,29492
33125,16914,29671
33356,16934,29713
33356,16946,29676
33140,16903,29684
32782,16877,29772
32472,16853,29663
32185,16796,29597
32200,16806,29792
32436,16840,29823
32756,16879,29807
33092,16932,29893
33352,16950,29886
33292,16934,29943
33057,16916,29796
32728,16890,29732
32432,16810,29902
32205,16791,29985
32232,16797,29927
32484,16842,29866
32858,16884,29809
33188,16934,30017
33416,16921,29967
33404,16909,30130
33160,16876,30124
32848,16844,29972
32560,16825,29887
32293,16796,30119
32324,16823,30165
32592,16820,30023
32976,16850,30007
33320,16901,30146
33552,16952,30273
33556,16901,30087
33320,16891,30052
32996,16871,30240
32764,16795,30156
32576,16783,30266
32804,16806,30087
33454,16847,30288
34292,16902,30214
35100,16886,30343
35824,16909,30316
36384,16924,30173
36672,16897,30381
36886,16908,30321
37004,16794,30426
37156,16775,30509
37698,16804,30325
38644,16826,30469
39652,16885,30447
40168,16943,30381
39808,16919,30364
38516,16903,30531
36884,16891,30644
34784,16909,30460
32216,16789,30577
29956,16778,30599
29060,16781,30532
29484,16821,30764
30369,16859,30780
31284,16905,30752
32080,16930,30598
32468,16919,30583
32437,16850,30776
32220,16815,30699
31968,16774,30905
31736,16755,30741
31742,16777,30848
31944,16802,30839
32292,16859,30831
32601,16877,30836
32824,16899,30983
32745,16899,30993
32488,16858,30869
32156,16833,30865
31848,16781,30844
31593,16788,31011
31652,16757,31003
31936,16787,30958
32296,16829,30945
32564,16883,31066
32839,16892,31077
32868,16892,30996
32620,16854,31205
32308,16812,31140
32004,16783,31055
31782,16771,30988
31814,16748,31141
32034,16777,31284
32348,16821,31136
32708,16876,31261
32928,16875,31305
32892,16865,31309
32716,16837,31316
32404,16814,31465
32124,16771,31273
31852,16779,31372
31920,16785,31367
32172,16770,31558
32544,16807,31380
32872,16850,31464
33136,16881,31484
33088,16879,31426
32852,16855,31561
32472,16829,31623
32196,16801,31537
31965,16789,31442
32032,16736,31636
32292,16771,31599
32656,16819,31795
32988,16868,31751
33244,16877,31637
33189,16868,31597
32972,16836,31623
32684,16799,31581
32368,16757,31812
32108,16734,31847
32173,16742,31833
32412,16777,31769
32804,16815,31785
33148,16857,32004
33400,16876,32032
33384,16869,32065
33148,16842,32030
32884,16799,32021
32560,16749,31909
32316,16740,31943
32332,16732,32047
32596,16757,32124
32964,16789,32203
33344,16834,32161
33633,16845,32244
33632,16836,32225
33392,16814,32188
33076,16774,32172
32792,16749,32120
32592,16736,32041
32624,16743,32256
32896,16770,32284
33248,16809,32305
33540,16841,32330
33836,16858,32325
33860,16866,32359
33640,16807,32384
33380,16773,32385
33092,16740,32324
32892,16715,32389
32944,16734,32506
33253,16780,32588
33672,16826,32564
34028,16867,32436
34304,16843,32388
34277,16831,32373
34068,16800,32457
33776,16766,32415
33496,16722,32661
33280,16775,32688
33356,16745,32513
33620,16772,32727
33982,16818,32745
34324,16861,32764
34584,16876,32767
34544,16849,32772
34380,16793,32943
34020,16757,32903
33654,16712,32769
33360,16710,32917
33396,16736,32879
33636,16787,33087
33968,16774,32977
34252,16807,32924
34448,16840,32809
34360,16844,33060
34028,16799,33009
33610,16765,33005
33184,16728,33240
32832,16711,33157
32721,16725,32965
32846,16758,33209
33102,16792,33236
33312,16829,33265
33412,16843,33258
33252,16835,33275
32897,16806,33276
32468,16783,33372
32052,16735,33463
31728,16698,33426
31672,16711,33327
31853,16749,33199
32088,16789,33437
32284,16834,33445
32486,16848,33477
32392,16805,33399
32148,16787,33620
31768,16749,33577
31392,16721,33461
31125,16714,33336
31104,16690,33588
31333,16725,33732
31632,16780,33415
31950,16780,33621
32192,16809,33717
32120,16809,33601
31888,16817,33695
31572,16735,33689
31276,16695,33634
31006,16678,33692
30977,16701,33847
31232,16721,33905
31620,16758,33777
31936,16815,33724
32238,16801,33845
32237,16794,33836
31956,16780,33941
31608,16760,33912
31281,16686,33721
31032,16692,33877
31088,16703,34066
31324,16764,33910
31683,16743,33999
32012,16775,34028
32280,16815,33964
32252,16812,34127
31972,16767,34230
31660,16732,34148
31354,16704,34013
31144,16663,33926
31208,16664,34191
31484,16698,34108
31844,16745,34350
32196,16797,34228
32448,16819,34170
32434,16796,34319
32160,16763,34328
31836,16729,34316
31520,16688,34309
31242,16705,34389
31309,16665,34551
31620,16693,34476
32012,16749,34413
32318,16790,34375
32608,16804,34540
32522,16804,34559
32320,16777,34548
31996,16749,34589
31692,16711,34583
31472,16678,34599
31573,16692,34617
31900,16702,34855
32216,16723,34692
32512,16787,34532
32780,16807,34801
32824,16821,34817
32532,16742,34981
32208,16703,34964
31892,16664,34947
31632,16642,34940
31712,16656,34866
31996,16684,34944
32364,16716,34948
32740,16759,34972
32972,16773,35038
32904,16837,35030
32672,16768,35101
32352,16724,35104
32036,16676,35111
31825,16661,35085
31889,16684,35152
32132,16676,35105
32520,16714,35122
32824,16754,35143
33069,16771,35139
33024,16765,35252
32760,16730,35273
32453,16697,35269
32124,16671,35228
31891,16644,35428
31932,16661,35270
32156,16710,35175
32504,16709,35332
32869,16747,35317
33112,16775,35300
33036,16772,35463
32776,16742,35493
32408,16703,35452
32080,16661,35384
31849,16668,35293
31896,16701,35148
32168,16720,35149
32500,16755,35437
32820,16739,35444
33056,16759,35444
33004,16741,35373
32752,16761,35389
32400,16711,35428
32048,16688,35372
31814,16615,35503
31868,16625,35569
32132,16667,35413
32481,16706,35237
32796,16757,35495
32980,16772,35482
32964,16765,35428
32676,16744,35575
32324,16712,35583
31996,16703,35470
31780,16617,35545
31844,16625,35557
32136,16659,35508
32420,16701,35548
32740,16738,35608
33012,16768,35649
33000,16756,35653
32709,16723,35735
32368,16686,35694
32076,16649,35674
31854,16618,35620
31872,16635,35522
32132,16650,35589
32477,16700,35621
32809,16742,35628
33068,16751,35653
33029,16751,35392
32764,16709,35602
32432,16676,35742
32152,16639,35704
32004,16617,35641
32012,16631,35574
32268,16658,35613
32589,16694,35684
32916,16750,35726
33168,16729,35655
33124,16730,35607
32848,16691,35597
32553,16658,35431
32208,16613,35668
31996,16596,35419
32024,16602,35412
32280,16633,35687
32648,16674,35673
32980,16718,35660
33208,16739,35620
33135,16740,35633
32901,16711,35619
32544,16666,35666
32230,16620,35671
31992,16591,35645
32036,16603,35429
32296,16648,35381
32652,16684,35549
32964,16724,35495
33232,16740,35383
33180,16725,35366
32928,16703,35612
32608,16669,35621
32344,16613,35401
32140,16601,35604
32169,16617,35617
32400,16647,35601
32728,16675,35390
33040,16708,35564
33272,16719,35688
33218,16749,35495
32988,16710,35556
32652,16663,35569
32388,16626,35301
32148,16587,35526
32188,16593,35567
32448,16625,35605
32820,16660,35623
33108,16699,35591
33344,16735,35509
33308,16714,35444
33048,16685,35439
32704,16661,35342
32385,16604,35257
32120,16588,35293
32145,16602,35505
32436,16623,35510
32788,16673,35464
33092,16727,35423
33372,16740,35390
33320,16729,35380
33076,16704,35372
32749,16658,35412
32381,16622,35412
32142,16615,35508
32192,16577,35510
32421,16603,35422
32768,16644,35364
33152,16685,35265
33448,16726,35425
33407,16706,35444
33096,16678,35374
32716,16648,35317
32388,16620,35543
32196,16616,35480
32260,16570,35316
32480,16596,35142
32817,16635,35396
33112,16676,35380
33358,16686,35335
33352,16681,35316
33104,16654,35384
32760,16615,35425
32400,16571,35489
32156,16551,35500
32217,16583,35476
32548,16612,35428
32848,16668,35269
33180,16666,35364
33440,16708,35327
33396,16693,35261
33124,16666,35373
32808,16649,35463
32430,16606,35430
32180,16553,35365
32224,16556,35335
32480,16589,35237
32864,16621,35100
33200,16666,35297
33480,16694,35321
33432,16681,35215
33188,16647,35428
32904,16613,35232
32592,16594,35290
32368,16541,35188
32372,16550,35335
32668,16587,35093
33000,16637,35300
33324,16679,35270
33568,16685,35180
33541,16679,35318
33285,16654,35289
32973,16597,35318
32737,16617,35293
32556,16532,35365
32660,16540,35248
33016,16575,35160
33439,16611,35164
33985,16651,35220
34612,16676,35244
35040,16653,35230
35236,16624,35222
35420,16594,35137
35612,16557,35212
35816,16547,35245
36232,16557,35144
36812,16590,35169
37551,16620,35212
38401,16679,35181
39384,16692,35095
39932,16693,34924
39708,16668,35183
38652,16615,35133
37160,16572,35116
35640,16551,35048
33964,16549,35120
32100,16580,35068
30553,16612,35204
30140,16677,35050
30656,16660,34902
31212,16643,35135
31512,16625,35033
31710,16600,35207
31813,16552,35077
31760,16543,34874
31840,16559,35129
32128,16591,35069
32460,16595,35164
32748,16625,35158
32988,16659,35093
32940,16653,34844
32692,16645,35012
32384,16612,35162
32028,16535,34972
31756,16502,34817
31816,16567,35015
32112,16586,35014
32448,16654,34988
32736,16624,35001
32980,16644,34983
32964,16636,34951
32680,16598,34984
32352,16566,34884
32064,16572,34700
31848,16577,34951
31972,16519,34834
32184,16548,35031
32505,16599,34855
32832,16640,34837
33102,16665,34777
33072,16652,34916
32836,16609,34884
32519,16581,34792
32220,16546,34951
32004,16531,34804
32044,16511,34844
32285,16546,34956
32677,16601,34712
33028,16644,34852
33272,16645,34844
33212,16645,34751
32968,16614,34949
32612,16575,34833
32316,16546,34695
32098,16536,34687
32148,16582,34811
32417,16535,34695
32776,16567,34901
33136,16607,34807
33368,16638,34577
33384,16632,34785
33136,16606,34768
32788,16575,34756
32473,16541,34738
32252,16518,34743
32320,16503,34732
32568,16529,34725
32885,16580,34672
33228,16647,34685
33460,16655,34448
33484,16625,34583
33236,16592,34447
32896,16563,34628
32608,16544,34631
32380,16489,34676
32440,16500,34525
32704,16540,34599
33056,16573,34604
33380,16625,34565
33630,16641,34479
33628,16634,34639
33368,16612,34469
33020,16595,34556
32736,16502,34512
32528,16481,34439
32580,16488,34560
32830,16523,34629
33184,16566,34613
33505,16608,34471
33760,16647,34266
33777,16607,34473
33560,16575,34534
33244,16540,34588
32937,16495,34597
32752,16478,34606
32808,16485,34500
33116,16516,34461
33520,16614,34533
33856,16594,34392
34064,16609,34353
34064,16600,34435
33933,16600,34379
33628,16559,34518
33300,16524,34446
33052,16508,34423
33100,16508,34496
33434,16535,34508
33800,16559,34465
34138,16609,34487
34388,16672,34294
34400,16597,34276
34173,16567,34273
33824,16532,34404
33480,16488,34404
33253,16474,34421
33296,16479,34445
33520,16532,34409
33880,16558,34228
34181,16598,34209
34436,16610,34216
34344,16617,34198
34048,16580,34190
33692,16538,34183
33328,16493,34149
33028,16463,34157
32972,16468,34157
33156,16505,34157
33420,16541,34156
33686,16575,34147
33840,16644,34139
33728,16631,34041
33356,16557,34218
32936,16537,34174
32528,16499,34186
32152,16484,34273
32128,16518,34095
32320,16495,33936
32584,16559,34177
32788,16584,34173
32960,16613,34071
32832,16620,34267
32492,16551,34172
32160,16538,34064
31780,16496,34143
31496,16450,34055
31480,16468,34192
31696,16504,34127
31981,16556,33876
32328,16560,34121
32564,16586,34020
32528,16583,34180
32264,16579,34052
31919,16511,33989
31573,16463,34103
31292,16447,34073
31308,16463,33982
31620,16515,34156
31924,16561,33992
32281,16556,34081
32560,16588,33988
32480,16587,34168
32233,16559,34116
31916,16526,34088
31640,16481,34004
31380,16455,34053
31404,16487,33846
31644,16477,34073
32013,16528,34023
32340,16569,34025
32584,16578,34001
32568,16587,34087
32320,16557,34044
32016,16533,34125
31680,16516,33964
31444,16432,33951
31456,16443,33883
31748,16471,33805
32080,16529,34054
32428,16579,33991
32696,16601,33967
32668,16610,33981
32452,16528,34139
32128,16486,34077
31805,16452,33951
31588,16433,34067
31672,16471,33949
32000,16540,34170
32388,16503,34015
32632,16541,33822
32860,16589,33956
32817,16549,34140
32560,16511,33942
32188,16483,34063
31900,16448,34106
31709,16447,34092
31788,16471,33828
32040,16457,33968
32412,16517,34079
32781,16564,34082
33076,16629,34027
33000,16541,34109
32743,16532,34077
32428,16540,34118
32088,16436,33973
31856,16431,34055
31904,16455,34177
32198,16522,33972
32540,16486,34055
32836,16543,34180
33135,16557,33972
33076,16568,34062
32812,16550,34015
32488,16469,34165
32194,16425,34020
31940,16428,33873
31980,16436,34049
32232,16487,33956
32584,16535,33981
32953,16527,34116
33228,16567,33948
33136,16549,34017
32854,16547,34036
32520,16462,33948
32232,16445,34121
32016,16424,33935
32068,16453,34039
32357,16440,33971
32725,16505,34095
32984,16541,34023
33229,16571,33908
33192,16522,34013
32900,16511,34149
32559,16508,33807
32248,16417,34005
32000,16415,34169
32028,16429,33975
32264,16483,33820
32576,16485,33988
32925,16536,34140
33188,16531,33852
33156,16537,34033
32892,16518,34157
32520,16452,33880
32240,16432,34013
31976,16431,34193
32036,16402,33985
32268,16447,34066
32640,16470,34121
32974,16532,33980
33198,16548,33833
33144,16541,34039
32876,16521,34036
32588,16500,34131
32268,16404,33983
31980,16405,34085
31968,16451,34124
32300,16427,34052
32596,16478,34013
32910,16514,33855
33165,16539,34111
33128,16541,34070
32885,16476,34197
32544,16454,34000
32168,16400,34078
31933,16399,34034
32016,16387,34093
32240,16445,34229
32596,16487,33920
32912,16497,34113
33164,16537,34100
33124,16506,34201
32820,16481,34276
32468,16460,34112
32096,16390,34225
31908,16390,34188
32005,16423,34364
32316,16420,34189
32652,16479,34262
32984,16520,34225
33204,16501,34374
33136,16509,34069
32884,16474,34074
32536,16457,34322
32237,16383,34285
31980,16376,34281
32052,16407,34272
32332,16405,34344
32685,16469,34372
33008,16525,34460
33264,16500,34205
33156,16519,34371
32924,16463,34485
32544,16463,34308
32210,16391,34405
31968,16399,34365
31984,16380,34417
32256,16434,34196
32640,16433,34399
32964,16501,34455
33204,16526,34397
33132,16482,34212
32876,16463,34447
32568,16454,34332
32260,16369,34556
32024,16382,34206
32080,16363,34420
32364,16409,34575
32708,16490,34388
33020,16468,34473
33184,16505,34385
33076,16515,34600
32832,16451,34532
32473,16411,34401
32232,16394,34499
32008,16349,34413
32064,16385,34509
32366,16391,34301
32696,16447,34528
33012,16469,34484
33236,16486,34630
33175,16496,34449
32912,16443,34532
32550,16414,34465
32224,16401,34625
31980,16345,34465
31944,16373,34565
32242,16421,34466
32605,16418,34661
32876,16485,34446
33224,16509,34559
33204,16539,34584
32864,16443,34511
32584,16421,34703
32280,16372,34509
32056,16337,34352
32050,16358,34589
32304,16412,34524
32712,16487,34484
33040,16463,34632
33276,16501,34433
33244,16458,34512
32948,16457,34391
32640,16415,34580
32357,16357,34388
32152,16348,34247
32192,16340,34303
32420,16394,34455
32800,16417,34186
33135,16478,34277
33365,16479,34243
33356,16466,34204
33124,16463,34077
32808,16387,34164
32480,16349,34167
32248,16355,34031
32324,16385,33852
32588,16364,33935
32896,16421,33909
33176,16485,33788
33400,16452,33700
33351,16461,33732
33045,16433,33639
32724,16423,33583
32388,16337,33669
32160,16337,33621
32228,16364,33409
32544,16363,33453
32884,16415,33407
33241,16465,33344
33486,16532,33242
33388,16435,33231
33068,16428,33344
32732,16391,33277
32424,16369,33181
32196,16359,33184
32319,16383,33214
32636,16352,33079
32944,16391,32999
33268,16439,32888
33456,16463,32735
33354,16469,32717
33089,16407,32895
32789,16378,32863
32444,16339,32801
32249,16332,32775
32268,16353,32737
32508,16418,32663
32844,16388,32652
33192,16423,32647
33420,16443,32668
33360,16449,32621
33094,16413,32549
32772,16392,32548
32432,16323,32608
32205,16303,32617
32269,16313,32585
32462,16342,32573
32801,16391,32539
33157,16448,32367
33406,16434,32517
33328,16429,32475
33020,16401,32413
32736,16396,32436
32396,16301,32473
32188,16299,32484
32261,16305,32468
32560,16347,32519
32832,16373,32319
33160,16420,32304
33360,16453,32312
33292,16452,32453
33032,16455,32425
32780,16348,32441
32508,16311,32474
32292,16293,32460
32360,16319,32455
32632,16372,32430
32964,16372,32436
33293,16415,32356
33538,16452,32204
33528,16413,32087
33292,16412,32239
33040,16364,32313
32792,16347,32320
32628,16333,32285
32722,16341,32231
33125,16409,32148
33740,16364,32245
34512,16409,32204
35204,16431,32141
35568,16421,32195
35860,16405,32328
36014,16396,32257
36116,16304,32156
36284,16291,32080
36684,16318,32207
37446,16382,32199
38396,16368,32249
39444,16417,32036
39916,16455,32199
39496,16445,32183
38140,16401,32085
36596,16413,32258
34760,16324,31957
32484,16311,32188
30500,16295,32077
29544,16333,32285
29817,16371,32096
30607,16426,31968
31475,16406,32196
31954,16423,32093
32104,16386,32308
32072,16359,32263
31880,16331,32179
31654,16273,32221
31746,16294,31996
32010,16355,32212
32284,16351,32187
32621,16407,32169
32864,16434,32309
32752,16430,32220
32496,16361,32111
32152,16321,32215
31853,16295,32166
31668,16292,32337
31672,16276,32061
31932,16318,32227
32296,16384,32173
32680,16383,32205
32916,16421,32133
32864,16415,32241
32544,16349,32165
32204,16320,32321
31865,16313,32138
31688,16265,32234
31764,16294,32330
32054,16297,32078
32412,16347,32257
32768,16407,32417
32952,16391,32198
32913,16392,32100
32652,16382,32319
32289,16308,32231
31988,16278,32380
31785,16268,32254
31896,16305,32159
32200,16290,32320
32520,16343,32461
32842,16385,32357
33096,16423,32164
33070,16368,32364
32804,16349,32383
32476,16324,32356
32128,16303,32404
31988,16247,32421
32056,16269,32199
32316,16333,32366
32644,16319,32539
32944,16372,32240
33256,16402,32436
33236,16364,32341
32948,16359,32417
32592,16336,32444
32280,16257,32359
32072,16254,32486
32128,16270,32431
32423,16285,32234
32752,16329,32429
33088,16389,32432
33324,16385,32335
33300,16403,32374
33032,16381,32528
32680,16289,32500
32388,16250,32372
32180,16245,32484
32256,16279,32414
32512,16271,32543
32864,16315,32398
33208,16384,32477
33468,16360,32615
33388,16379,32356
33160,16322,32519
32868,16298,32424
32557,16269,32516
32329,16225,32416
32400,16257,32453
32688,16269,32473
33120,16331,32529
33468,16347,32590
33716,16368,32613
33660,16349,32632
33359,16327,32620
33033,16311,32416
32754,16239,32639
32592,16225,32588
32736,16247,32792
33008,16304,32663
33384,16316,32709
33713,16381,32647
33984,16379,32770
33966,16385,32549
33713,16335,32807
33408,16323,32660
33144,16249,32749
32997,16263,32770
33044,16238,32836
33353,16305,32852
33677,16292,32775
34000,16350,32741
34256,16347,32839
34212,16351,32971
33965,16345,32821
33660,16266,32684
33344,16244,32940
33088,16206,32862
33126,16235,32997
33420,16276,32877
33745,16351,32982
34076,16335,32994
34252,16390,32980
34188,16335,32772
33824,16324,32961
33432,16260,33123
33040,16235,32951
32777,16201,33010
32744,16231,33141
32980,16276,33115
33226,16290,32973
33480,16319,32852
33612,16349,33071
33422,16359,33031
33040,16293,33164
32596,16273,32903
32204,16211,33036
31920,16213,33097
31896,16241,32935
32112,16239,33172
32384,16287,33217
32624,16357,33164
32766,16324,33017
32632,16331,33234
32272,16279,33175
31908,16245,33285
31568,16213,33199
31376,16221,33287
31332,16200,33268
31580,16255,33369
31920,16289,33348
32228,16341,33252
32493,16324,33332
32400,16353,33471
32085,16272,33317
31684,16262,33382
31392,16195,33447
31160,16189,33428
31268,16202,33310
31565,16229,33428
31896,16282,33334
32188,16316,33503
32384,16315,33449
32324,16299,33430
32080,16279,33252
31768,16277,33462
31416,16192,33540
31168,16192,33561
31244,16219,33444
31556,16217,33319
31968,16269,33560
32326,16323,33492
32520,16311,33573
32464,16329,33581
32216,16258,33609
31856,16237,33527
31552,16217,33746
31352,16161,33500
31412,16199,33681
31713,16207,33577
32116,16269,33660
32472,16286,33485
32652,16323,33738
32569,16316,33693
32352,16252,33873
32032,16229,33785
31716,16209,33690
31533,16160,33596
31592,16189,33815
31885,16236,33753
32236,16244,33864
32572,16292,33716
32804,16308,33623
32756,16316,33872
32500,16291,33875
32188,16214,33836
31884,16172,34036
31700,16165,34025
31832,16198,33949
32116,16203,33868
32397,16234,33799
32720,16290,33985
32916,16337,33971
32817,16279,33905
32616,16260,34054
32344,16214,33996
32052,16184,33958
31872,16191,34180
31893,16162,34039
32158,16196,33984
32489,16253,34081
32864,16327,34097
33108,16287,34077
33028,16300,34024
32762,16233,34025
32462,16208,34044
32156,16171,34068
31948,16171,34159
32032,16157,34207
32332,16209,34096
32654,16268,34077
32944,16263,33940
33180,16298,34169
33084,16261,34093
32832,16233,34230
32544,16214,34268
32202,16197,34172
31948,16135,34055
31997,16162,34228
32288,16216,34126
32588,16217,34358
32984,16272,34153
33216,16308,34252
33156,16261,34183
32856,16252,34258
32480,16186,34157
32168,16159,34273
31968,16168,34172
32040,16148,34369
32352,16193,34189
32652,16239,34044
32964,16249,34295
33140,16270,34191
33072,16287,34407
32872,16222,34224
32486,16212,34288
32148,16159,34220
32016,16168,34431
32076,16141,34311
32380,16195,34093
32748,16231,34334
33072,16287,34300
33212,16263,34465
33120,16263,34197
32856,16230,34140
32524,16218,34364
32212,16139,34345
32008,16120,34285
32040,16154,34425
32337,16212,34276
32672,16211,34400
32940,16255,34423
33152,16293,34428
33064,16245,34413
32842,16221,34436
32484,16194,34435
32164,16193,34194
32004,16172,34216
32040,16130,34376
32313,16179,34470
32652,16246,34436
32963,16237,34415
33168,16262,34548
33093,16265,34215
32840,16202,34380
32532,16183,34548
32168,16123,34254
31944,16123,34455
31976,16178,34593
32264,16152,34340
32648,16213,34487
32960,16276,34516
33189,16245,34534
33142,16242,34428
32852,16236,34535
32522,16165,34644
32160,16139,34446
31984,16100,34541
32057,16143,34460
32336,16185,34567
32708,16192,34297
33012,16275,34452
33236,16236,34685
33096,16249,34566
32792,16223,34469
32460,16159,34557
32136,16139,34588
31952,16151,34504
32068,16114,34329
32348,16168,34598
32716,16215,34561
33038,16221,34727
33224,16236,34583
33104,16242,34439
32832,16220,34604
32497,16150,34637
32184,16125,34527
32028,16127,34641
32124,16110,34634
32420,16142,34687
32780,16190,34468
33028,16250,34647
33207,16257,34669
33112,16218,34561
32828,16198,34671
32536,16148,34439
32212,16115,34624
32008,16117,34752
32104,16100,34610
32400,16143,34680
32744,16207,34598
33096,16207,34799
33284,16242,34463
33232,16263,34684
32919,16179,34612
32586,16156,34815
32280,16097,34620
32084,16102,34713
32140,16124,34612
32430,16196,34841
32740,16167,34737
33060,16220,34476
33284,16249,34725
33208,16201,34627
32921,16182,34807
32632,16167,34702
32328,16095,34637
32112,16100,34541
32156,16110,34599
32484,16137,34522
32862,16191,34727
33180,16239,34723
33340,16254,34694
33250,16199,34747
33017,16189,34807
32669,16156,34781
32365,16084,34641
32212,16071,34549
32288,16091,34740
32540,16143,34701
32860,16190,34760
33164,16192,34753
33332,16207,34644
33292,16215,34636
33045,16197,34460
32740,16124,34700
32428,16084,34604
32186,16079,34774
32284,16117,34609
32600,16107,34704
32904,16167,34636
33160,16197,34766
33412,16220,34793
33316,16222,34719
33088,16197,34617
32716,16158,34732
32352,16113,34797
32144,16111,34628
32248,16071,34457
32542,16118,34684
32924,16161,34660
33254,16219,34591
33444,16241,34724
33328,16178,34638
33020,16169,34406
32666,16137,34637
32361,16063,34588
32200,16075,34713
32312,16081,34700
32621,16133,34559
32964,16179,34557
33260,16176,34639
33428,16204,34617
33376,16213,34516
33089,16161,34756
32772,16124,34575
32472,16065,34612
32292,16069,34511
32304,16099,34676
32592,16093,34735
32892,16125,34755
33228,16172,34716
33449,16194,34536
33372,16203,34487
33060,16135,34580
32740,16111,34744
32453,16089,34529
32269,16039,34635
32354,16074,34532
32612,16147,34655
32968,16121,34502
33312,16190,34622
33479,16215,34533
33404,16183,34663
33124,16181,34639
32800,16099,34541
32476,16085,34684
32260,16036,34385
32357,16076,34605
32669,16081,34551
33004,16133,34655
33276,16195,34564
33544,16175,34565
33492,16183,34656
33212,16121,34679
32872,16121,34529
32560,16047,34660
32381,16052,34684
32464,16047,34602
32764,16099,34661
33112,16137,34604
33453,16148,34773
33676,16170,34612
33647,16196,34439
33414,16113,34641
33104,16091,34556
32860,16076,34663
32776,16082,34758
33172,16036,34692
33940,16100,34562
34724,16123,34644
35416,16191,34645
36084,16161,34575
36504,16157,34756
36712,16140,34643
36772,16076,34392
36816,16074,34607
37077,16068,34587
37780,16041,34668
38768,16092,34620
39352,16145,34583
39288,16155,34708
38328,16183,34517
37020,16168,34637
35260,16157,34537
33004,16165,34744
30728,16035,34548
29364,16037,34380
29348,16033,34639
30064,16064,34625
31000,16113,34528
31858,16169,34644
32512,16184,34682
32736,16210,34745
32540,16098,34623
32248,16076,34512
31965,16049,34375
31856,16047,34628
31881,16020,34636
32120,16059,34509
32436,16103,34724
32760,16160,34669
32936,16142,34540
32878,16136,34625
32594,16119,34580
32281,16057,34596
31972,16016,34695
31788,16029,34607
31892,16043,34516
32212,16101,34409
32513,16081,34467
32836,16120,34351
33036,16135,34594
32984,16141,34581
32728,16134,34637
32420,16042,34703
32120,16021,34524
31864,16023,34522
31965,16052,34494
32264,16042,34357
32684,16074,34353
32988,16121,34372
33124,16144,34629
33080,16157,34508
32772,16076,34745
32448,16058,34616
32128,16032,34436
31952,15987,34621
32070,16021,34575
32372,16065,34665
32752,16069,34567
33065,16119,34519
33288,16148,34364
33238,16107,34607
32901,16085,34485
32588,16100,34626
32224,16007,34364
32096,15985,34484
32212,16021,34695
32516,16073,34535
32840,16065,34460
33152,16121,34528
33372,16140,34509
33280,16103,34591
33032,16068,34665
32716,16047,34445
32376,16030,34529
32224,15976,34479
32357,16020,34505
32685,16038,34589
32992,16099,34407
33312,16101,34234
33516,16121,34478
33492,16130,34452
33172,16101,34515
32817,16028,34363
32500,15997,34232
32320,15996,34436
32409,16023,34428
32720,16082,34353
33152,16055,34436
33481,16109,34438
33664,16138,34404
33552,16089,34206
33256,16071,34397
32949,16044,34374
32668,16022,34329
32484,15986,34379
32576,15987,34485
32892,16038,34301
33292,16053,34372
33612,16109,34269
33840,16127,34423
33780,16129,34285
33560,16079,34365
33272,16037,34253
32961,15970,34469
32792,15991,34373
32936,16007,34260
33237,16012,34351
33600,16053,34293
33924,16111,34453
34190,16100,34253
34124,16108,34253
33894,16071,34253
33580,16043,34319
33280,16028,34338
33124,15961,34340
33252,15979,34304
33580,16017,34235
33832,16060,34273
34128,16101,34335
34352,16119,34327
34280,16140,34279
34004,16038,34212
33654,16029,34309
33300,15967,34218
33156,15981,34156
33248,16013,34053
33488,16002,34068
33800,16063,34293
34096,16075,34265
34266,16084,34280
34144,16077,34265
33816,16049,34189
33421,16034,34333
33040,16045,34404
32760,15965,34181
32769,15980,34102
33000,16036,34289
33248,16055,34240
33474,16105,34301
33584,16079,34209
33396,16089,34045
32980,16075,34289
32568,15993,34276
32152,15961,34284
31888,15954,34244
31926,15985,34192
32168,15991,34396
32429,16039,34384
32676,16077,34401
32808,16100,34301
32636,16061,34221
32288,16037,34314
31960,16019,34303
31642,15950,34268
31456,15946,34297
31528,15982,34126
31812,15982,34341
32108,16039,34326
32456,16082,34340
32608,16149,34301
32476,16055,34405
32156,16031,34439
31824,16007,34445
31508,15941,34137
31333,15945,34383
31421,15985,34284
31704,15977,34301
32068,16012,34488
32405,16068,34343
32586,16097,34247
32456,16044,34404
32201,16037,34372
31852,16019,34337
31548,15936,34433
31376,15940,34439
31456,15970,34424
31722,15977,34453
32068,16010,34463
32420,16068,34455
32636,16083,34468
32604,16062,34448
32332,16042,34484
31972,15972,34466
31646,15944,34389
31517,15933,34541
31612,15967,34589
31888,16004,34532
32284,16007,34516
32602,16048,34567
32776,16056,34450
32681,16048,34535
32428,16025,34553
32110,15989,34564
31816,15996,34476
31684,15917,34596
31740,15944,34684
32009,15982,34614
32372,16039,34515
32736,16069,34517
32940,16048,34449
32836,16031,34607
32576,16010,34504
32268,15980,34668
31944,15942,34581
31772,15908,34382
31900,15951,34599
32173,15994,34604
32509,15997,34596
32840,16052,34490
33040,16076,34653
32961,16083,34594
32716,15993,34738
32396,15974,34537
32060,15936,34567
31888,15970,34541
32024,15931,34621
32369,15982,34653
32764,15988,34612
33004,16028,34605
33160,16060,34661
33076,16055,34628
32780,15989,34535
32420,15953,34693
32124,15937,34624
31972,15920,34407
32084,15959,34592
32369,15947,34752
32740,16008,34607
33066,16032,34532
33282,16068,34612
33180,16012,34583
32892,15999,34634
32545,15975,34525
32240,15902,34623
32012,15907,34501
32108,15928,34541
32380,15972,34740
32698,15978,34513
33024,16021,34583
33176,16046,34509
33089,16010,34532
32813,15981,34374
32496,15961,34604
32156,15945,34487
32008,15885,34615
32124,15923,34339
32412,15973,34567
32740,15973,34639
33072,16033,34429
33220,16069,34457
33108,16013,34522
32832,15999,34536
32512,15932,34492
32196,15894,34614
32016,15897,34511
32156,15935,34300
32448,15931,34433
32764,15985,34446
33048,16060,34280
33192,16021,34521
33101,16059,34599
32812,15962,34451
32489,15947,34527
32184,15887,34640
31994,15905,34265
32052,15933,34407
32388,15929,34519
32737,15985,34510
33088,16059,34388
33204,16008,34625
33065,16012,34425
32710,15960,34485
32381,15936,34527
32104,15940,34413
31932,15877,34495
32064,15931,34471
32376,15917,34417
32720,15995,34435
33054,15992,34506
33216,16021,34485
33088,16037,34370
32820,15959,34524
32525,15932,34264
32212,15945,34404
32016,15864,34524
32094,15888,34380
32364,15927,34455
32668,15983,34517
32998,16045,34338
33180,15999,34406
33068,15998,34527
32780,15986,34400
32409,15911,34262
32080,15875,34415
31936,15878,34540
32072,15879,34143
32340,15927,34327
32694,16008,34254
33037,15981,34352
33188,16015,34466
33060,16005,34348
32812,15982,34293
32463,15909,34383
32104,15879,34492
31956,15899,34271
32080,15876,34364
32384,15921,34446
32712,15979,34439
33020,15979,34260
33174,15984,34247
33101,15994,34213
32797,15951,34348
32484,15902,34451
32192,15869,34146
32048,15876,34326
32160,15863,34384
32482,15909,34237
32828,15925,34268
33128,15992,34306
33313,16029,34316
33208,15972,34416
32892,15973,34288
32544,15898,34257
32216,15870,34215
32032,15916,34275
32134,15866,34393
32448,15945,34277
32812,15936,34263
33156,15982,34268
33296,15997,34125
33184,16003,34218
32876,15928,34353
32592,15910,34191
32350,15897,34047
32144,15844,34232
32256,15867,34207
32580,15930,34237
32921,15926,34168
33200,15984,34244
33388,16017,34103
33324,15961,34174
33052,15955,34068
32720,15884,34249
32452,15861,33988
32240,15831,34116
32348,15866,33948
32628,15889,33988
32936,15952,33957
33274,15967,33985
33488,15993,34112
33396,15973,33895
33084,15922,33977
32772,15895,33912
32500,15879,34048
32310,15847,33833
32385,15883,33898
32704,15875,33836
32972,15921,33956
33280,15974,33744
33480,16007,33808
33360,15944,33679
33044,15936,33880
32692,15919,33657
32420,15828,33720
32272,15845,33661
32407,15841,33743
32676,15893,33452
33020,15961,33591
33260,15949,33639
33404,15972,33460
33336,15940,33504
33041,15928,33637
32705,15929,33316
32460,15831,33457
32328,15851,33320
32430,15841,33479
32692,15901,33300
33061,15902,33098
33420,15964,33292
33548,15986,33223
33406,15932,33222
33097,15897,33287
32772,15879,33069
32480,15826,33151
32268,15820,33030
32348,15847,33148
32600,15862,32964
32960,15908,32996
33268,15934,33087
33432,15967,32847
33312,16012,32932
33048,15912,32960
32740,15858,32774
32408,15837,32830
32228,15812,32905
32329,15845,32560
32676,15863,32679
32992,15916,32816
33316,16007,32570
33489,15959,32436
33384,16005,32538
33096,15913,32470
32792,15902,32546
32464,15820,32449
32312,15845,32480
32428,15820,32544
32692,15870,32428
33024,15937,32276
33392,15929,32330
33552,15962,32244
33428,15917,32372
33104,15900,32301
32744,15885,32196
32480,15889,32030
32325,15796,31954
32498,15811,31903
32852,15861,31868
33264,15905,31972
33652,15999,31911
33836,15932,31889
33776,15919,31847
33616,15906,31789
33604,15928,31708
33776,15820,31724
34080,15796,31548
34588,15831,31413
35352,15890,31585
36112,15882,31541
36920,15944,31474
37512,15975,31353
37772,15927,31495
37988,15932,31284
38296,15859,31316
38736,15847,31253
38860,15802,31273
38552,15855,31239
37692,15898,30993
36741,15897,31060
35492,15967,31101
33677,15929,30897
31524,15930,30969
29984,15900,30838
29640,15839,30951
29788,15829,30657
30192,15786,30761
30868,15813,30727
31657,15876,30521
32236,15877,30672
32688,15935,30740
32896,15920,30516
32776,15924,30568
32484,15865,30423
32109,15868,30376
31800,15789,30422
31590,15808,30416
31709,15807,30365
31984,15870,30352
32300,15864,30086
32637,15931,30214
32792,15947,30274
32652,15973,30050
32350,15869,30113
32040,15844,29972
31757,15829,30061
31608,15775,29919
31688,15810,29954
32040,15828,29963
32441,15874,29732
32817,15946,29823
33004,15907,29831
32877,15905,29682
32552,15913,29574
32184,15843,29686
31860,15806,29636
31732,15775,29640
31820,15812,29415
32082,15858,29552
32396,15855,29539
32760,15896,29548
32901,15924,29380
32816,15909,29276
32544,15908,29414
32256,15817,29485
32012,15801,29263
31877,15769,29358
31952,15796,29252
32257,15850,29349
32605,15893,29210
32928,15890,29059
33108,15901,29212
33016,15893,29164
32744,15885,29249
32426,15863,29056
32136,15814,29077
31988,15820,28973
32106,15779,29047
32384,15815,29032
32764,15851,28925
33068,15906,28878
33224,15925,29036
33120,15878,28805
32844,15845,28700
32480,15827,28787
32168,15781,28893
32020,15785,28705
32152,15815,28603
32464,15813,28705
32828,15873,28664
33184,15897,28679
33352,15924,28464
33252,15870,28551
32952,15858,28420
32636,15825,28511
32292,15796,28302
32113,15766,28401
32252,15818,28333
32592,15806,28399
33016,15859,28132
33448,15906,28244
33639,15885,28126
33568,15885,28143
33284,15847,27970
32980,15847,28074
32704,15755,28125
32586,15755,27868
32740,15804,27988
33100,15803,28047
33377,15836,27812
33676,15892,27898
33824,15877,27960
33722,15858,27706
33432,15845,27799
33185,15791,27750
32924,15779,27603
32812,15767,27701
32945,15802,27569
33236,15792,27726
33608,15825,27552
33936,15867,27431
34148,15904,27544
34073,15879,27569
33780,15860,27344
33489,15785,27450
33176,15751,27365
33016,15740,27428
33180,15765,27201
33540,15826,27325
33868,15823,27383
34184,15869,27125
34320,15879,27070
34216,15897,27206
33912,15815,27141
33580,15807,27015
33228,15744,27117
33056,15748,27156
33152,15786,26898
33416,15781,27044
33740,15839,26973
34022,15908,27007
34064,15873,26784
33852,15875,26893
33472,15814,26956
32989,15786,26714
32548,15741,26800
32332,15743,26711
32352,15746,26777
32532,15807,26704
32804,15860,26597
33080,15850,26710
33104,15868,26705
32900,15886,26516
32504,15813,26645
32056,15785,26682
31640,15779,26445
31344,15735,26567
31460,15774,26584
31724,15827,26369
32024,15816,26350
32332,15863,26488
32468,15879,26455
32320,15837,26306
31977,15811,26421
31630,15780,26442
31318,15747,26396
31148,15740,26236
31224,15780,26382
31501,15773,26353
31804,15807,26286
32076,15846,26313
32236,15857,26398
32160,15857,26238
31840,15815,26166
31540,15803,26301
31224,15724,26268
31090,15720,26284
31240,15757,26124
31564,15766,26278
31904,15812,26172
32196,15860,26310
32348,15845,26157
32228,15855,26150
31948,15833,26212
31592,15759,26080
31320,15723,26236
31169,15730,26226
31316,15764,26220
31648,15763,26169
31965,15819,26124
32321,15837,26203
32392,15851,26133
32260,15855,26106
31978,15791,26084
31692,15765,26190
31392,15743,26274
31272,15710,26059
31460,15749,26215
31812,15793,26181
32136,15796,26126
32440,15855,26217
32584,15901,26200
32476,15839,26248
32240,15810,26087
31956,15798,26242
31620,15781,26247
31496,15712,26153
31620,15750,26324
31888,15799,26113
32212,15791,26140
32526,15836,26275
32694,15839,26198
32608,15839,26287
32300,15808,26296
32032,15765,26299
31760,15740,26314
31632,15703,26229
31708,15725,26384
32000,15769,26212
32300,15814,26197
32676,15867,26218
32852,15825,26349
32716,15829,26293
32416,15806,26418
32109,15811,26421
31814,15707,26229
31644,15717,26374
31800,15714,26348
32080,15750,26427
32408,15791,26234
32818,15845,26275
33004,15863,26401
32900,15805,26428
32612,15795,26345
32228,15764,26419
31868,15709,26396
31740,15727,26275
31845,15710,26415
32156,15771,26325
32453,15777,26485
32816,15814,26399
32960,15829,26277
32864,15818,26281
32586,15815,26395
32256,15769,26388
31944,15695,26367
31800,15685,26493
31960,15717,26405
32257,15751,26308
32576,15804,26301
32905,15849,26277
33085,15814,26437
32952,15813,26421
32668,15781,26488
32357,15769,26498
32069,15767,26503
31900,15679,26458
32012,15701,26320
32340,15748,26456
32692,15762,26441
33017,15810,26538
33125,15842,26324
32973,15816,26351
32612,15759,26373
32292,15746,26471
32028,15719,26562
31940,15673,26449
32072,15695,26357
32412,15751,26524
32748,15759,26501
33028,15808,26582
33192,15831,26399
33033,15846,26409
32704,15753,26566
32400,15726,26501
32076,15719,26605
31924,15667,26508
32040,15709,26463
32364,15740,26616
32721,15758,26532
32984,15807,26671
33108,15823,26533
32972,15825,26518
32688,15743,26532
32388,15738,26671
32069,15705,26633
31968,15708,26692
32040,15683,26558
32340,15721,26580
32696,15757,26722
33024,15814,26655
33116,15878,26773
32978,15792,26599
32644,15774,26759
32252,15704,26695
31988,15678,26632
31874,15700,26772
32024,15679,26776
32332,15721,26757
32705,15787,26812
33036,15854,26705
33172,15786,26641
33080,15785,26812
32816,15770,26735
32508,15700,26857
32212,15682,26689
32072,15683,26681
32165,15711,26719
32500,15706,26804
32820,15739,26767
33128,15798,26868
33268,15827,26724
33168,15775,26873
32900,15751,26921
32609,15734,26978
32320,15663,26820
32128,15663,26786
32244,15688,26905
32556,15741,26969
32864,15735,26896
33156,15789,26818
33236,15802,26983
33104,15789,26940
32856,15786,27076
32578,15698,26859
32304,15682,27006
32201,15646,27113
32304,15669,26922
32663,15717,27073
32976,15735,27006
33268,15797,27057
33396,15814,27120
33272,15758,27055
32968,15731,27180
32572,15701,27029
32264,15695,27200
32140,15642,27143
32241,15660,27143
32524,15718,27237
32857,15758,27188
33176,15771,27272
33252,15793,27183
33120,15783,27310
32865,15771,27428
32577,15684,27245
32313,15643,27262
32224,15676,27373
32376,15662,27305
32613,15711,27444
32944,15722,27412
33272,15780,27356
33444,15772,27524
33328,15765,27652
32989,15754,27443
32668,15676,27615
32308,15668,27685
32176,15634,27677
32312,15663,27620
32628,15724,27684
32944,15716,27771
33216,15801,27701
33368,15770,27829
33252,15781,27748
32948,15742,27865
32612,15710,27797
32340,15631,27946
32220,15653,27885
32324,15686,27891
32656,15683,28061
32970,15721,28012
33276,15771,28033
33436,15803,28142
33292,15770,28053
33044,15705,28172
32718,15664,28363
32392,15655,28138
32221,15625,28266
32404,15655,28388
32704,15723,28235
33036,15725,28423
33428,15778,28483
33568,15779,28495
33481,15735,28565
33208,15706,28533
32917,15691,28652
32616,15625,28677
32448,15646,28719
32639,15645,28737
32985,15671,28615
33324,15727,28813
33708,15797,28761
33880,15753,28736
33752,15746,28947
33464,15697,29053
33300,15688,28841
33321,15650,28973
33656,15612,29045
34368,15663,29135
35220,15698,29088
36068,15703,29253
36957,15756,29068
37700,15794,29287
38101,15729,29292
38316,15730,29348
38533,15689,29245
38968,15708,29415
39592,15641,29540
40020,15669,29351
39764,15681,29517
38756,15717,29653
37492,15780,29477
35720,15783,29472
33300,15775,29640
30832,15697,29588
29622,15663,29721
29412,15647,29584
29760,15604,29772
30408,15635,29760
31264,15681,29767
31961,15700,29872
32520,15735,29865
32864,15751,30008
32813,15745,29933
32532,15725,29965
32229,15648,29909
31904,15623,30053
31801,15615,29861
31936,15652,30087
32268,15703,30087
32596,15693,30158
32870,15731,30210
32958,15749,30076
32840,15743,30063
32500,15681,30201
32168,15673,30360
31901,15636,30176
31796,15600,30314
31940,15647,30230
32244,15672,30460
32578,15729,30317
32892,15727,30228
33036,15732,30427
32932,15732,30405
32644,15717,30502
32345,15636,30596
32084,15601,30612
31920,15593,30560
32068,15635,30449
32392,15676,30605
32762,15687,30582
33032,15735,30629
33152,15757,30549
33028,15764,30485
32756,15670,30701
32456,15654,30633
32224,15616,30820
32158,15628,30660
32288,15611,30565
32628,15646,30796
32884,15687,30815
33256,15736,30783
33416,15742,30766
33268,15734,30916
32892,15719,30906
32560,15631,30804
32296,15592,30743
32196,15600,30951
32296,15626,30925
32620,15681,31056
32990,15677,30885
33352,15716,31017
33496,15716,31028
33417,15718,31058
33128,15677,31124
32836,15652,31026
32532,15618,30885
32441,15622,31096
32616,15692,31085
32988,15641,31203
33364,15681,31221
33676,15723,31071
33884,15762,31186
33668,15692,31087
33376,15671,31252
33036,15642,31100
32692,15599,31105
32612,15578,31335
32824,15601,31263
33182,15633,31250
33520,15690,31173
33840,15735,31108
34008,15783,31296
33904,15690,31260
33588,15680,31362
33277,15634,31257
32997,15607,31160
32944,15621,31353
33093,15652,31351
33472,15629,31276
33872,15673,31429
34240,15732,31310
34312,15735,31209
34148,15727,31447
33873,15653,31455
33624,15628,31583
33384,15591,31503
33320,15588,31410
33501,15632,31521
33864,15676,31517
34210,15662,31660
34544,15699,31404
34668,15733,31591
34568,15708,31695
34268,15679,31668
33972,15684,31483
33716,15575,31676
33596,15582,31730
33712,15599,31858
34044,15639,31920
34422,15693,31900
34708,15741,31772
34844,15753,31765
34712,15681,31730
34412,15656,31935
34045,15625,31895
33676,15619,32135
33512,15566,32048
33637,15614,32007
33924,15653,32160
34160,15659,32084
34404,15716,32271
34448,15735,32052
34230,15676,32313
33860,15649,32353
33460,15629,32379
33057,15616,32340
32816,15559,32474
32816,15589,32509
33061,15630,32487
33233,15687,32663
33388,15740,32751
33368,15690,32621
33124,15678,32765
32728,15651,32796
32338,15637,32958
31964,15564,32828
31764,15576,32760
31808,15596,32792
32045,15626,33073
32304,15682,33125
32556,15730,33169
32668,15686,33179
32448,15669,33346
32076,15636,33410
31685,15616,33431
31329,15581,33553
31172,15569,33479
31348,15605,33409
31620,15609,33615
31972,15656,33589
32288,15691,33689
32444,15717,33868
32308,15669,33730
32028,15656,33892
31660,15620,34083
31304,15559,33917
31196,15574,34061
31304,15597,34173
31624,15607,34149
31980,15642,34071
32300,15692,34308
32420,15717,34271
32320,15655,34520
32014,15644,34239
31716,15616,34546
31416,15557,34497
31308,15544,34768
31420,15591,34652
31808,15621,34556
32149,15682,34855
32462,15676,34876
32620,15691,35092
32501,15673,35108
32248,15648,35012
31828,15623,34903
31576,15603,35242
31480,15545,35236
31604,15567,35455
31940,15614,35268
32284,15688,35490
32616,15668,35623
32728,15693,35580
32628,15693,35733
32368,15623,35812
32040,15585,35974
31756,15566,35867
31652,15581,36004
31825,15562,36002
32068,15609,36226
32445,15673,36225
32832,15672,36296
33004,15703,36305
32812,15700,36439
32541,15623,36549
32192,15600,36524
31892,15581,36809
31772,15587,36881
31956,15559,36791
32325,15623,36945
32600,15655,36904
32924,15673,37185
33056,15682,36991
32896,15680,37263
32632,15618,37353
32292,15603,37543
32008,15582,37572
31892,15546,37476
32040,15564,37476
32340,15619,37692
32660,15642,37754
32952,15695,37831
33092,15762,37829
32956,15652,38109
32664,15625,38132
32336,15588,38034
32044,15582,38177
31968,15542,38244
32150,15567,38327
32456,15630,38023
32716,15631,38381
33016,15690,38612
33132,15704,38364
32996,15727,38593
32717,15612,38551
32409,15615,38703
32108,15549,38732
31972,15550,38727
32124,15594,38957
32472,15591,38858
32815,15631,38787
33092,15692,38951
33164,15684,38972
33020,15680,38950
32740,15658,39231
32408,15579,39152
32100,15536,39087
31972,15545,39044
32078,15581,39205
32385,15631,39264
32708,15717,39234
33064,15669,39239
33180,15665,39487
33044,15677,39318
32672,15633,39392
32332,15620,39380
32000,15545,39477
31856,15545,39469
32034,15578,39505
32414,15636,39431
32736,15632,39556
33004,15665,39494
33156,15671,39606
33028,15674,39735
32720,15620,39269
32375,15589,39585
32104,15557,39791
31997,15573,39623
32089,15559,39704
32409,15619,39868
32736,15663,39498
33068,15746,39728
33168,15671,39876
32992,15668,39594
32684,15617,39751
32368,15589,39840
32088,15597,39809
31924,15562,39916
32040,15578,39469
32365,15682,39776
32677,15631,39943
33004,15694,39549
33098,15684,39860
32964,15681,39758
32672,15612,39988
32352,15609,39821
32064,15573,39900
31956,15533,39943
32140,15575,39847
32404,15615,39528
32774,15629,39850
33132,15686,39974
33300,15691,39860
33132,15732,39924
32796,15634,39820
32504,15603,40020
32166,15578,39997
32032,15584,39876
32177,15560,39592
32520,15622,39932
32876,15679,40021
33160,15667,39881
33252,15686,39958
33121,15670,39893
32809,15636,39985
32433,15605,40048
32077,15544,39871
31936,15563,39916
32064,15591,39916
32416,15655,40058
32756,15634,39601
33052,15689,39943
33164,15715,39894
33068,15655,39943
32745,15621,39911
32453,15609,40007
32148,15575,40006
32044,15601,39596
32160,15567,39916
32488,15595,40062
32788,15638,39892
33116,15699,39588
33276,15716,39932
33135,15708,39843
32896,15620,40085
32524,15588,39884
32177,15562,39934
32022,15567,39861
32140,15607,40088
32508,15604,39749
32860,15668,39865
33216,15676,39952
33278,15705,39917
33124,15702,39980
32844,15633,39769
32470,15621,39849
32103,15551,39996
31996,15564,39903
32164,15604,39876
32500,15601,39969
32816,15669,39879
33153,15705,39876
33260,15682,39840
33128,15680,39894
32812,15650,39624
32488,15636,39880
32236,15558,39771
32132,15549,39985
32284,15589,39780
32608,15649,39836
32937,15716,39853
33232,15679,39925
33352,15699,39900
33172,15686,39751
32860,15631,39824
32592,15606,39880
32309,15597,39748
32233,15627,39660
32361,15575,39793
32692,15623,39741
32997,15659,39927
33335,15706,39783
33414,15725,39748
33280,15669,39692
32997,15630,39805
32732,15605,39777
32400,15588,39494
32353,15578,39700
32608,15651,39584
32933,15615,39796
33308,15668,39500
33732,15698,39641
34172,15709,39581
34476,15709,39644
34676,15683,39749
34844,15663,39637
35092,15570,39220
35488,15591,39522
36064,15608,39621
36828,15623,39294
37520,15665,39441
38264,15726,39585
38932,15741,39445
39640,15742,39431
39772,15654,39332
39328,15635,39564
38128,15593,39365
36828,15621,39407
35508,15653,39270
33870,15636,39478
32041,15675,39460
30718,15713,39200
30520,15718,39293
30712,15717,39303
30948,15687,39276
31176,15615,39221
31416,15592,39393
31616,15611,39149
31889,15638,39189
32232,15685,39173
32592,15672,39127
32856,15724,39104
32960,15737,39100
32800,15690,39071
32512,15677,39020
32184,15656,38655
31825,15581,38943
31672,15604,38964
31820,15641,38811
32144,15642,38851
32497,15686,38692
32816,15736,38860
32900,15717,38445
32760,15694,38649
32452,15666,38503
32117,15644,38629
31832,15615,38452
31720,15620,38463
31864,15647,38383
32220,15638,38500
32545,15693,38171
32865,15739,38225
32968,15801,38273
32868,15700,38207
32576,15691,38060
32236,15642,38252
31948,15625,38081
31836,15590,37749
32012,15610,37981
32346,15657,37893
32694,15700,38023
33056,15730,37895
33148,15739,37732
32969,15741,37469
32648,15716,37716
32326,15640,37596
32064,15612,37672
31968,15614,37335
32173,15663,37546
32481,15720,37476
32796,15693,37424
33080,15729,37492
33208,15749,37284
33076,15741,37298
32792,15752,37178
32480,15645,37292
32192,15618,37167
32108,15622,37068
32335,15702,37100
32660,15666,36981
32952,15719,37127
33204,15799,36860
33364,15767,36836
33168,15739,36993
32888,15713,36816
32597,15682,36711
32304,15648,36476
32178,15660,36687
32340,15632,36653
32680,15685,36553
33076,15741,36359
33428,15783,36487
33541,15801,36341
33412,15731,36444
33104,15711,36065
32760,15682,36300
32484,15671,36303
32380,15619,36162
32584,15660,35900
32944,15701,36111
33264,15726,36191
33564,15757,35996
33713,15775,36004
33558,15769,35926
33280,15706,35832
32972,15687,35861
32704,15676,35847
32680,15719,35735
32904,15653,35477
33280,15695,35588
33628,15748,35581
33980,15808,35621
34088,15770,35631
33996,15774,35468
33693,15741,35513
33424,15718,35404
33117,15646,35463
33040,15663,35397
33212,15687,35282
33592,15733,35408
33920,15791,35114
34248,15775,35213
34388,15806,35294
34268,15786,35025
33988,15724,35169
33640,15696,35111
33384,15677,35068
33272,15675,35077
33404,15716,35013
33688,15758,34940
34000,15751,35004
34304,15794,34880
34420,15814,34944
34264,15795,34917
33920,15780,34786
33624,15697,34835
33302,15672,34849
33120,15678,34912
33208,15699,34676
33380,15759,34737
33612,15753,34665
33860,15803,34705
33864,15813,34551
33612,15818,34610
33181,15748,34505
32736,15711,34671
32312,15701,34437
32020,15702,34489
32096,15735,34447
32392,15733,34453
32648,15775,34266
32888,15833,34370
32916,15838,34311
32684,15829,34440
32324,15756,34215
31896,15732,34266
31464,15725,34352
31304,15685,34006
31475,15717,34161
31790,15782,34189
32037,15780,34012
32352,15818,34044
32421,15839,34004
32272,15825,34038
31941,15789,34031
31620,15758,33906
31212,15700,33924
31096,15695,33949
31292,15739,33828
31584,15781,34020
31884,15789,33885
32166,15844,33972
32332,15869,33616
32184,15810,33737
31853,15788,33709
31532,15741,33765
31232,15734,33820
31124,15743,33712
31285,15740,33820
31620,15797,33594
31984,15810,33617
32308,15853,33618
32400,15844,33628
32248,15839,33659
31996,15828,33605
31686,15756,33596
31344,15743,33341
31184,15741,33476
31404,15740,33556
31783,15803,33321
32084,15849,33476
32388,15853,33616
32420,15879,33419
32240,15832,33460
31976,15817,33499
31694,15794,33253
31445,15735,33381
31392,15737,33381
31684,15780,33447
32037,15845,33533
32368,15831,33348
32672,15880,33461
32756,15889,33391
32584,15897,33361
32308,15827,33415
31956,15823,33340
31688,15761,33415
31676,15822,33481
31800,15765,33264
32116,15830,33380
32532,15844,33441
32788,15895,33437
32913,15962,33525
32724,15874,33277
32327,15863,33401
32028,15787,33493
31813,15764,33377
31764,15777,33239
31932,15806,33455
32284,15860,33480
32684,15858,33533
33052,15892,33399
33112,15913,33518
32986,15875,33624
32654,15861,33449
32268,15855,33564
32092,15807,33575
32044,15780,33476
32208,15828,33536
32545,15838,33617
32900,15901,33602
33236,15903,33653
33328,15921,33452
33236,15941,33608
32892,15876,33620
32466,15849,33728
32064,15786,33637
32046,15791,33817
32364,15843,33534
32617,15842,33719
32924,15909,33789
33102,15911,33828
33220,15940,33748
33052,15927,33935
32772,15863,33665
32572,15848,33831
32296,15817,34052
32228,15825,33876
32556,15821,33985
32892,15865,34112
33066,15917,33919
33416,15924,34021
33500,15948,33999
33364,15930,34177
32964,15896,34100
32660,15882,34007
32356,15807,34093
32276,15829,34231
32188,15831,34143
32600,15887,34241
33092,15913,33960
33373,15969,34102
33464,15963,34320
33192,15974,34136
32988,15892,34233
32620,15870,34325
32266,15861,34180
32260,15820,34278
32524,15856,34276
32748,15903,34233
33032,15982,34079
33370,15978,34213
33504,15994,34277
33286,15940,34327
32888,15919,34373
32648,15904,34236
32320,15835,34346
32236,15844,34247
32412,15894,34460
32749,15896,34204
33046,15961,34345
33372,15980,34260
33538,16007,34460
33360,15948,34277
33062,15914,34117
32752,15891,34330
32416,15865,34223
32336,15883,34434
32470,15945,34234
32828,15907,34065
33193,15949,34300
33492,15994,34205
33504,16030,34294
33364,15961,34132
33104,15929,34242
32668,15909,34204
32356,15879,34129
32224,15903,34216
32448,15888,34186
32736,15937,34087
33068,16003,34173
33384,16005,34068
33516,16001,34077
33373,15984,33887
33023,15954,34075
32732,15934,34085
32384,15877,33940
32285,15896,33980
32407,15936,34015
32668,15934,34068
33044,15996,34076
33345,16044,33927
33488,16005,34004
33332,16015,34037
32940,15996,34007
32644,15917,33911
32352,15911,33897
32217,15887,33945
32392,15924,33908
32638,15981,33952
33040,16038,33881
33372,16029,34063
33406,16023,33860
33272,16012,33922
32928,15985,33861
32568,15953,34007
32266,15924,33895
32173,15935,33709
32326,15925,33843
32696,15981,33988
32980,16018,33766
33360,16112,33831
33420,16041,33895
33260,16036,33759
32944,16003,33837
32648,15975,33742
32272,15915,33772
32164,15913,33828
32340,15952,33716
32588,16009,33798
32972,16011,33557
33384,16061,33763
33381,16069,33838
33224,16060,33831
32845,15991,33572
32428,15977,33760
32257,15934,33735
32084,15951,33819
32300,15948,33550
32844,15981,33754
33200,16046,33679
33504,16084,33712
33478,16098,33482
33352,16037,33687
33072,16023,33701
32704,15988,33710
32424,15957,33591
32352,15969,33564
32560,16041,33660
32836,15999,33695
33268,16060,33532
33632,16100,33605
33601,16128,33569
33628,16052,33661
33580,16018,33617
33600,15976,33469
33772,15958,33517
34176,15979,33484
34832,15972,33445
35632,16022,33477
36384,16076,33388
37100,16132,33487
37460,16091,33415
37648,16085,33355
37816,16055,33372
38176,16002,33340
38404,15997,33401
38340,16004,33087
37760,16044,33260
36800,16039,33364
35856,16074,33233
34512,16107,33096
32597,16105,32975
30689,16089,33189
29726,16062,33097
29632,16038,33244
29856,15972,33050
30388,15976,33118
31152,16022,33057
31956,16032,32975
32480,16085,33017
32784,16150,33092
32965,16108,32903
32764,16085,32740
32469,16049,32933
32100,16012,32797
31745,15988,32973
31652,15989,32775
31832,16012,32729
32160,16046,32700
32476,16081,32745
32800,16121,32703
32916,16147,32773
32748,16111,32638
32404,16103,32420
32009,16026,32564
31713,16006,32677
31660,16005,32575
31836,16040,32277
32224,16092,32455
32576,16096,32408
32908,16128,32415
32932,16154,32381
32696,16151,32241
32376,16077,32385
32068,16045,32109
31744,16022,32236
31693,16017,32159
31932,16042,32140
32248,16099,32007
32576,16165,32080
32888,16157,31937
32952,16141,32076
32756,16129,31854
32448,16101,31708
32108,16083,31881
31820,16015,31751
31732,16015,31834
31848,16063,31761
32240,16102,31607
32600,16170,31655
32906,16156,31520
32984,16155,31623
32800,16147,31422
32476,16121,31265
32148,16080,31396
31896,16068,31239
31816,16028,31387
32062,16071,31239
32401,16128,31225
32692,16132,31013
33004,16170,31076
33033,16183,31023
32892,16169,30919
32597,16139,30918
32244,16084,30749
31876,16060,30785
31856,16060,30752
32164,16099,30657
32436,16145,30663
32756,16143,30480
33066,16174,30338
33197,16180,30463
32992,16156,30340
32708,16139,30422
32352,16126,30160
32040,16048,30173
31996,16065,30306
32192,16100,29992
32544,16173,30128
32904,16154,29980
33252,16189,30124
33344,16217,29877
33228,16168,29947
32832,16167,29885
32556,16097,29870
32270,16081,29740
32200,16069,29746
32428,16100,29565
32840,16149,29666
33246,16205,29722
33540,16199,29505
33624,16204,29573
33464,16202,29476
33156,16142,29399
32910,16112,29460
32604,16101,29533
32624,16076,29276
32864,16094,29365
33121,16148,29376
33503,16188,29157
33881,16243,29247
33968,16251,29191
33832,16183,29255
33540,16164,29026
33188,16133,29115
32884,16126,28991
32836,16081,29130
33016,16132,28892
33328,16181,28964
33708,16190,28867
34036,16240,28914
34085,16221,28798
33892,16199,28916
33548,16168,28710
33236,16157,28775
32905,16118,28697
32804,16140,28640
32936,16122,28596
33256,16177,28670
33556,16235,28599
33792,16271,28686
33688,16228,28464
33425,16211,28419
33040,16198,28517
32692,16174,28402
32296,16109,28517
32092,16103,28289
32194,16145,28423
32436,16206,28324
32702,16211,28321
32920,16261,28356
32952,16284,28394
32636,16216,28180
32208,16188,28293
31884,16168,28317
31533,16116,28097
31412,16139,28174
31556,16172,28274
31752,16182,28047
32077,16243,28125
32448,16274,28132
32480,16329,28042
32252,16239,28072
31912,16216,28141
31604,16198,27986
31289,16126,28132
31176,16141,28183
31332,16149,27944
31656,16207,28092
31937,16247,28167
32316,16258,27904
32385,16271,27985
32212,16239,27940
31880,16217,28057
31562,16207,28041
31224,16136,27879
31200,16144,28052
31404,16188,28101
31780,16264,27902
32073,16230,27882
32400,16282,28025
32493,16300,28081
32316,16244,27889
32008,16221,27996
31764,16205,28092
31460,16140,27866
31404,16156,27990
31536,16207,27885
31856,16213,28028
32252,16279,28108
32564,16278,27871
32653,16292,28025
32465,16285,28039
32180,16217,27906
31880,16207,28039
31585,16178,28105
31492,16204,27989
31748,16173,27893
32088,16222,28061
32440,16291,28109
32777,16284,27945
32864,16303,28066
32628,16303,28167
32337,16227,27940
32033,16216,28095
31776,16189,28057
31726,16197,27975
31925,16186,28065
32327,16220,28108
32706,16265,28196
33020,16307,28234
33092,16313,28101
32868,16300,28079
32496,16232,28237
32172,16208,28336
31876,16196,28176
31852,16203,28128
32080,16240,28308
32420,16309,28228
32788,16269,28422
33121,16301,28257
33218,16321,28216
33016,16299,28236
32740,16250,28405
32432,16247,28488
32156,16172,28324
32077,16186,28447
32248,16237,28518
32588,16237,28372
32924,16281,28508
33268,16324,28532
33316,16350,28596
33136,16283,28609
32784,16250,28478
32440,16226,28603
32172,16203,28620
32103,16217,28671
32324,16211,28548
32668,16249,28521
32960,16278,28709
33288,16318,28697
33273,16322,28837
33057,16315,28627
32768,16274,28789
32432,16242,28700
32104,16228,28770
32096,16192,28644
32284,16220,28841
32628,16269,28935
32948,16325,28758
33238,16353,28887
33272,16326,28813
33092,16305,28861
32738,16276,28920
32452,16253,28949
32192,16239,29039
32044,16252,28854
32224,16231,28836
32584,16263,29012
32952,16304,28945
33253,16342,29116
33296,16357,28940
33104,16344,29062
32752,16295,29089
32448,16270,29096
32140,16247,29042
32096,16209,29183
32261,16234,29044
32604,16295,29143
32964,16346,29250
33248,16337,29034
33276,16356,29201
33080,16345,29127
32780,16278,29271
32465,16267,29300
32156,16237,29230
32132,16276,29304
32312,16239,29241
32682,16292,29272
33060,16351,29381
33364,16342,29364
33400,16351,29476
33224,16322,29352
32872,16288,29261
32532,16260,29463
32256,16235,29386
32164,16239,29533
32308,16279,29441
32656,16327,29356
33004,16327,29521
33292,16359,29552
33368,16365,29646
33204,16353,29605
32833,16317,29505
32508,16259,29447
32280,16239,29444
32196,16258,29649
32388,16295,29660
32684,16367,29720
32984,16336,29569
33280,16379,29572
33284,16386,29719
33126,16378,29749
32816,16300,29758
32508,16287,29700
32220,16270,29847
32192,16239,29676
32396,16261,29631
32637,16309,29844
33001,16352,29838
33300,16391,29910
33385,16418,29941
33160,16347,29782
32832,16308,29804
32452,16270,29757
32160,16253,29951
32057,16277,30061
32244,16266,29896
32580,16316,30013
32904,16361,29990
33173,16420,30116
33252,16373,29900
33014,16360,30021
32752,16355,30070
32417,16355,30026
32116,16244,30183
32092,16265,30282
32316,16300,30117
32632,16311,30249
32976,16350,30336
33248,16391,30181
33316,16411,30304
33116,16359,30336
32788,16324,30276
32452,16294,30189
32144,16279,30410
32108,16307,30359
32280,16283,30565
32620,16335,30340
32992,16396,30508
33332,16389,30456
33404,16411,30512
33184,16360,30407
32848,16338,30575
32556,16308,30681
32256,16293,30638
32211,16262,30479
32448,16301,30662
32832,16372,30804
33236,16364,30621
33625,16409,30772
33746,16391,30895
33580,16393,30612
33400,16347,30838
33412,16292,30953
33572,16289,30687
34032,16305,30880
34572,16295,30974
35372,16341,30758
36116,16412,30972
36820,16434,30917
37184,16412,31073
37312,16454,31047
37432,16352,30975
37674,16357,31008
37916,16281,31111
38005,16298,31052
37668,16339,31256
36772,16345,31068
35872,16415,31204
34732,16461,31332
33004,16414,31119
30976,16412,31265
29640,16371,31359
29400,16351,31265
29610,16287,31149
30164,16304,31273
30932,16346,31393
31748,16348,31236
32405,16401,31376
32853,16452,31554
32949,16411,31295
32772,16388,31515
32464,16366,31596
32168,16311,31380
31808,16309,31540
31738,16309,31668
31928,16312,31403
32238,16365,31540
32620,16410,31732
32903,16494,31533
32948,16425,31652
32744,16422,31812
32416,16403,31588
32112,16323,31765
31820,16310,31900
31784,16333,31719
32040,16324,31805
32428,16392,31751
32752,16395,31825
32976,16434,31854
32976,16461,31913
32829,16400,32029
32528,16361,31751
32204,16345,31964
31956,16316,32129
31884,16347,32036
32096,16325,32025
32424,16373,32077
32768,16423,32128
33081,16465,32111
33125,16465,32191
32917,16406,32113
32588,16379,32229
32284,16349,32248
32005,16347,32317
31976,16303,32279
32218,16332,32263
32616,16377,32356
32877,16445,32516
33148,16431,32263
33201,16444,32383
33060,16449,32615
32712,16377,32395
32365,16351,32532
32093,16341,32677
32088,16313,32504
32340,16333,32630
32658,16390,32703
32981,16478,32575
33320,16445,32713
33348,16451,32680
33148,16429,32831
32808,16407,32816
32528,16389,32583
32304,16307,32797
32276,16327,32876
32476,16397,32883
32788,16375,32925
33089,16423,32839
33400,16469,32940
33424,16472,32850
33248,16482,33059
32961,16382,32831
32656,16365,33031
32377,16348,32943
32386,16312,33145
32604,16364,32987
32932,16407,33114
33272,16461,33092
33624,16448,33221
33642,16463,33044
33456,16438,33215
33168,16427,33137
32864,16433,33300
32596,16324,33263
32597,16343,33109
32813,16384,33234
33204,16445,33479
33592,16438,33153
33888,16476,33388
33960,16511,33365
33800,16427,33536
33500,16405,33542
33200,16362,33428
32944,16349,33304
32912,16383,33456
33132,16354,33508
33453,16405,33618
33813,16475,33729
34128,16462,33427
34200,16481,33601
34036,16429,33623
33708,16415,33644
33348,16397,33744
33076,16325,33796
33048,16353,33925
33252,16353,33826
33620,16421,33953
33908,16474,33857
34176,16465,33980
34208,16508,33900
33984,16442,33911
33640,16431,33831
33296,16361,33929
32992,16349,33975
32908,16379,33934
33092,16363,33988
33348,16443,33804
33616,16442,33971
33852,16486,34085
33828,16462,33799
33516,16455,33914
33148,16481,33964
32737,16364,33997
32341,16359,33957
32204,16343,34060
32368,16380,34036
32576,16450,33956
32840,16445,34041
33056,16495,33837
33040,16493,34053
32745,16447,34140
32356,16428,34072
31960,16410,34182
31620,16356,34084
31533,16351,34211
31740,16383,33959
32060,16437,34077
32396,16501,34117
32646,16479,34000
32609,16501,34102
32364,16478,34037
32012,16450,34195
31664,16381,33865
31388,16374,34111
31348,16386,34220
31568,16375,34092
31872,16433,34189
32184,16452,34095
32456,16511,34128
32540,16500,34043
32364,16493,34089
32037,16468,34094
31724,16371,34215
31448,16367,33954
31428,16388,34037
31644,16388,34076
31992,16432,33845
32292,16487,34033
32596,16528,34200
32636,16484,33839
32424,16477,34068
32132,16445,34175
31864,16421,33972
31552,16356,34066
31528,16355,34020
31732,16391,34094
32088,16440,34044
32448,16485,34054
32740,16529,33955
32748,16489,34095
32565,16479,33842
32250,16485,33966
31944,16388,34132
31670,16379,33765
31652,16364,33958
31868,16389,33924
32222,16452,34105
32577,16495,33874
32876,16495,33969
32900,16499,33884
32712,16478,34044
32429,16467,33841
32150,16389,33925
31905,16377,33836
31928,16383,33834
32168,16417,33900
32536,16445,33828
32836,16500,33945
33104,16495,33773
33132,16499,33869
32936,16479,33754
32696,16458,33959
32332,16440,33732
32064,16366,33828
32008,16387,33711
32220,16413,33788
32548,16476,33785
32888,16477,33888
33224,16527,33612
33216,16500,33676
33050,16471,33823
32679,16449,33489
32368,16432,33670
32058,16369,33791
32017,16374,33470
32276,16421,33628
32604,16482,33729
32896,16477,33528
33220,16535,33593
33273,16525,33725
33008,16517,33486
32664,16439,33530
32336,16422,33605
32061,16429,33567
32048,16377,33577
32264,16410,33596
32612,16468,33362
32920,16506,33517
33224,16543,33396
33192,16550,33599
32988,16552,33524
32668,16444,33287
32296,16430,33423
32013,16404,33553
31972,16417,33338
32212,16449,33218
32559,16445,33415
32844,16500,33505
33128,16548,33167
33184,16512,33365
32956,16485,33500
32644,16455,33262
32300,16425,33385
32042,16414,33492
32032,16389,33145
32228,16430,33295
32552,16519,33380
32872,16498,33358
33138,16545,33365
33164,16524,33325
32924,16520,33351
32656,16452,33354
32360,16429,33372
32076,16424,33261
32052,16391,33148
32264,16428,33282
32568,16476,33348
32936,16490,33368
33228,16528,33259
33256,16530,33492
