ECG,EDA,RR
30716,23149,24448
30496,23169,24450
30496,23166,24357
30672,23157,24334
30848,23136,24374
31216,23122,24421
31416,23103,24282
31300,23093,24414
31300,23104,24403
31184,23112,24340
30868,23156,24430
30645,23162,24406
30576,23158,24356
30744,23151,24368
30945,23148,24420
31326,23119,24404
31620,23093,24330
31672,23100,24493
31596,23100,24480
31444,23118,24477
31164,23140,24404
30992,23156,24541
30972,23150,24531
31056,23158,24608
31184,23133,24541
31524,23108,24592
31776,23087,24672
31804,23084,24592
31760,23093,24681
31598,23113,24746
31288,23139,24697
31080,23145,24763
31088,23144,24800
31156,23143,24744
31288,23127,24679
31612,23101,24864
31840,23079,24816
31861,23077,24900
31726,23079,24876
31628,23102,24805
31353,23137,24890
31120,23137,24960
31101,23129,24950
31208,23131,24849
31402,23108,24995
31696,23099,24952
31924,23078,25023
31922,23071,24951
31816,23071,24903
31690,23085,25036
31464,23110,24985
31278,23122,25056
31320,23120,25064
31480,23110,24962
31637,23098,24897
31909,23070,24900
32224,23054,25026
32360,23055,25061
32316,23068,25025
32260,23084,25063
32105,23100,24927
31952,23110,24996
32028,23117,25056
32152,23108,24990
32393,23090,24900
32808,23063,24996
33104,23044,25001
33216,23063,25068
33220,23064,24976
33228,23075,24921
33108,23097,24948
32993,23117,25020
33084,23121,25068
33236,23105,24979
33372,23087,25094
33632,23054,25063
33788,23056,25030
33828,23054,24985
33836,23053,24970
33724,23071,25146
33360,23096,25120
33188,23106,25164
33184,23109,25148
33112,23107,25199
33040,23087,25135
33132,23052,25092
33160,23040,25196
32964,23037,25276
32754,23057,25256
32612,23071,25350
32346,23098,25244
32134,23110,25362
32056,23100,25398
32036,23106,25345
32108,23085,25375
32300,23054,25452
32412,23037,25544
32408,23044,25399
32380,23037,25535
32240,23056,25625
31948,23076,25484
31748,23095,25666
31728,23097,25631
31804,23105,25722
31916,23079,25593
32052,23055,25711
32112,23034,25732
32164,23033,25816
32116,23036,25670
32060,23052,25866
31896,23077,25861
31756,23084,25892
31788,23109,25798
31824,23098,25880
31876,23074,25893
32056,23048,25973
32220,23034,25924
32284,23037,25844
32292,23036,26009
32252,23059,26000
32004,23077,25948
31752,23110,26029
31840,23108,26000
31896,23097,26076
31932,23077,26016
32052,23050,26049
32208,23030,26027
32260,23023,26119
32228,23044,25937
32244,23061,26137
32074,23086,26112
31920,23099,26151
31872,23092,26164
31877,23085,26024
31904,23068,26180
32184,23060,26185
32304,23037,26213
32356,23031,26078
32308,23030,26182
32252,23053,26198
32101,23080,26168
31997,23094,26235
32056,23088,26185
32097,23084,26289
32148,23073,26295
32380,23042,26188
32544,23036,26265
32520,23023,26256
32460,23027,26308
32377,23047,26348
32212,23076,26247
32180,23092,26283
32188,23092,26373
32112,23105,26386
32240,23075,26261
32441,23047,26425
32548,23025,26335
32550,23018,26429
32544,23028,26324
32522,23064,26292
32346,23083,26450
32240,23092,26448
32344,23100,26389
32384,23079,26375
32392,23068,26426
32552,23053,26491
32689,23031,26402
32712,23024,26387
32716,23026,26532
32670,23053,26551
32428,23074,26569
32288,23089,26530
32268,23092,26495
32340,23085,26569
32392,23065,26609
32556,23060,26540
32686,23014,26481
32676,23025,26520
32690,23044,26690
32684,23060,26615
32536,23083,26688
32384,23098,26717
32421,23100,26610
32489,23092,26580
32516,23066,26771
32644,23034,26761
32752,23028,26725
32748,23043,26673
32808,23032,26660
32740,23071,26762
32576,23097,26884
32456,23096,26888
32492,23097,26726
32528,23093,26898
32588,23073,26932
32796,23036,26796
32948,23029,26980
32964,23036,26961
32910,23033,26850
32837,23054,27004
32664,23080,26844
32608,23104,26949
32576,23100,26960
32676,23092,26920
32780,23061,27029
32944,23056,26908
33008,23039,27004
32997,23020,26972
33060,23036,27110
33008,23065,27098
32870,23084,27009
32744,23096,27028
32732,23101,26988
32692,23101,27079
32780,23077,27124
32988,23040,27010
33120,23023,27044
33129,23039,27148
33092,23041,27112
33056,23059,27073
32820,23084,27084
32704,23087,27039
32700,23111,27149
32732,23085,27029
32740,23066,27196
32952,23036,27198
33040,23031,27076
33164,23041,27196
33104,23043,27251
32999,23056,27100
32852,23100,27274
32712,23101,27236
32724,23103,27203
32704,23080,27180
32736,23085,27225
32896,23055,27333
33012,23031,27353
33048,23024,27348
32998,23031,27201
32968,23071,27287
32780,23090,27393
32730,23104,27270
32740,23097,27360
32740,23089,27424
32801,23084,27264
33000,23057,27433
33116,23024,27358
33080,23047,27437
33056,23046,27358
32968,23066,27500
32824,23095,27456
32690,23093,27522
32704,23112,27370
32672,23100,27398
32776,23069,27505
32960,23038,27568
33088,23040,27426
33132,23039,27577
33052,23038,27594
32908,23075,27453
32688,23089,27548
32580,23090,27596
32592,23093,27527
32636,23096,27624
32738,23071,27569
32920,23044,27684
32988,23036,27532
32988,23036,27679
33016,23036,27735
32920,23077,27572
32712,23092,27724
32664,23095,27628
32596,23108,27791
32608,23097,27775
32661,23065,27708
32864,23060,27845
32996,23043,27816
32936,23033,27897
32948,23032,27748
32924,23079,27901
32756,23095,27929
32664,23100,27849
32644,23093,27941
32664,23086,27973
32760,23076,28046
32948,23047,27919
32996,23037,28072
32976,23026,28007
32944,23039,28128
32836,23071,28000
32676,23083,28191
32553,23094,28199
32476,23106,28076
32492,23094,28177
32544,23073,28252
32652,23063,28105
32744,23030,28321
32724,23033,28316
32724,23059,28326
32688,23069,28337
32560,23085,28217
32449,23117,28417
32448,23112,28328
32532,23102,28439
32581,23080,28314
32716,23060,28500
32888,23031,28469
32916,23029,28525
32920,23036,28411
32868,23076,28480
32714,23094,28546
32604,23111,28580
32616,23110,28480
32620,23102,28452
32692,23078,28628
32964,23055,28546
33092,23035,28671
33164,23033,28561
33152,23034,28580
33120,23055,28728
32984,23083,28624
32913,23094,28743
32900,23094,28763
32892,23093,28640
32880,23071,28636
32968,23044,28724
33089,23030,28821
33108,23047,28687
33060,23047,28817
33013,23071,28792
32884,23097,28868
32801,23101,28901
32808,23104,28908
32800,23093,28785
32872,23069,28857
33044,23042,28960
33160,23039,28812
33156,23031,28891
33160,23036,29010
33084,23057,28863
32908,23084,29041
32789,23115,29045
32796,23094,28929
32828,23087,29021
32900,23077,29016
32988,23047,29073
32976,23031,29028
32952,23022,28997
32910,23045,29120
32768,23052,29204
32408,23079,29049
32008,23107,29246
31660,23095,29209
31256,23084,29118
30801,23064,29118
30372,23051,29302
29868,23036,29358
29472,23033,29236
29304,23039,29325
29533,23063,29393
29940,23095,29254
30676,23105,29438
31588,23103,29360
32732,23113,29335
34068,23076,29476
35448,23073,29433
37172,23056,29548
39352,23057,29401
41780,23047,29572
43792,23096,29520
44680,23117,29644
44074,23135,29605
42732,23129,29692
41584,23112,29559
40532,23116,29750
39936,23065,29736
39968,23038,29640
39857,23031,29619
39416,23068,29716
38480,23077,29782
37480,23095,29786
36648,23097,29834
35936,23102,29713
35240,23091,29716
34572,23066,29840
34000,23046,29852
33476,23045,29908
32940,23050,29941
32448,23053,29977
31992,23071,29856
31564,23092,29864
31300,23101,30078
31148,23103,30124
31076,23101,30141
31052,23070,30060
31164,23047,30208
31200,23033,30268
31117,23030,30137
31112,23025,30209
31040,23056,30444
30900,23081,30482
30788,23085,30544
30785,23092,30453
30794,23078,30640
30832,23053,30600
30948,23028,30746
31078,23012,30799
31112,23023,30836
31137,23017,30860
31108,23041,30754
30956,23067,30941
30880,23078,30977
30896,23069,30825
30968,23071,30879
31041,23047,30972
31204,23015,31081
31292,22999,31052
31276,22993,31049
31288,23001,30992
31244,23020,31120
31092,23055,31070
31008,23066,31168
31032,23063,31128
31086,23057,31118
31200,23034,31117
31348,22994,31220
31522,22997,31285
31560,22991,31328
31580,22993,31342
31584,23006,31254
31424,23047,31408
31324,23056,31473
31344,23059,31552
31396,23040,31480
31456,23012,31568
31644,23002,31641
31772,22980,31552
31768,22964,31751
31765,22975,31781
31712,23008,31768
31575,23033,31907
31476,23041,31946
31484,23044,31820
31536,23037,31916
31565,23012,31992
31725,22980,32123
31824,22975,32322
31870,22962,32298
31840,22968,32388
31749,22998,32325
31616,23023,32535
31528,23031,32655
31520,23032,32532
31556,23020,32713
31608,23000,32788
31772,22974,32854
31888,22960,32728
31860,22983,32858
31796,22973,33101
31745,22998,33129
31598,23016,33086
31484,23029,33281
31564,23024,33336
31592,23013,33270
31672,22993,33404
31836,22972,33589
31944,22962,33501
31996,22961,33680
31992,22969,33751
32000,22988,33600
31896,23009,33911
31836,23037,34041
31868,23031,33916
31964,23023,34113
32092,22992,33989
32316,22975,34293
32544,22959,34377
32680,22952,34363
32748,22959,34452
32728,23006,34325
32648,23016,34477
32636,23017,34741
32760,23028,34689
32884,23010,34798
32997,22992,34687
33248,22972,34916
33452,22949,34999
33548,22948,35005
33648,22948,35128
33652,22973,35191
33596,23019,35078
33544,23021,35377
33600,23012,35388
33668,23004,35468
33728,22985,35564
33876,22967,35412
33888,22948,35604
33856,22948,35685
33736,22949,35908
33565,22957,35788
33312,22982,35996
33084,23010,35901
32960,22999,36096
32860,22988,36312
32773,22957,36272
32801,22941,36145
32780,22921,36533
32676,22937,36512
32576,22926,36524
32474,22941,36780
32236,22965,36765
32060,22990,36588
32032,22981,36985
32020,22968,36943
32012,22953,37116
32145,22918,36924
32224,22919,37262
32196,22903,37290
32140,22900,37484
32092,22928,37495
31908,22951,37780
31772,22959,37756
31772,22969,37837
31832,22953,37928
31852,22924,37944
32040,22896,38061
32132,22897,38210
32116,22896,38252
32112,22895,38526
32057,22916,38489
31908,22930,38549
31824,22954,38580
31808,22948,38775
31844,22936,38764
31904,22922,39020
32084,22884,38861
32201,22876,39052
32180,22869,38832
32152,22871,39175
32072,22905,39351
31900,22932,39316
31822,22934,39442
31804,22933,39416
31836,22920,39671
31904,22896,39567
32024,22882,39364
32121,22857,39777
32116,22853,39844
32101,22881,39869
32060,22889,39593
31960,22911,39943
31884,22921,40129
31900,22913,40080
31886,22913,39898
31940,22892,40300
32108,22862,40169
32214,22844,40318
32180,22852,40015
32145,22852,40403
32096,22869,40596
31941,22894,40448
31884,22914,40580
31896,22902,40548
31936,22896,40745
31981,22878,40576
32160,22840,40783
32272,22831,40813
32228,22830,40685
32184,22834,40853
32116,22859,41056
31957,22881,41125
31884,22897,40916
31932,22908,41121
31996,22898,40823
32068,22863,41191
32224,22836,41262
32324,22820,41288
32340,22841,41045
32349,22833,41380
32324,22848,41565
32180,22872,41479
32096,22884,41550
32124,22889,41479
32122,22878,41749
32192,22856,41639
32324,22821,41743
32449,22829,41580
32456,22828,41852
32452,22824,41945
32416,22850,41749
32293,22861,41906
32164,22879,41984
32198,22879,42036
32244,22885,41660
32316,22863,42033
32496,22830,42247
32604,22812,42228
32609,22812,42223
32584,22809,42280
32541,22830,42300
32384,22853,42103
32337,22876,42077
32356,22881,42008
32368,22875,42310
32484,22844,42503
32704,22817,42372
32849,22813,42533
32884,22804,42436
32892,22815,42597
32840,22837,42692
32704,22857,42652
32592,22865,42568
32604,22861,42678
32640,22864,42708
32684,22840,42777
32852,22815,42781
32968,22805,42613
32988,22791,42768
32972,22812,42652
32916,22824,42844
32764,22854,42692
32672,22858,42764
32704,22876,42420
32760,22855,42870
32784,22834,42648
32950,22801,42840
33048,22806,42765
33044,22799,42604
33040,22793,42900
32972,22832,42841
32816,22861,42852
32773,22866,42783
32846,22868,42693
32848,22863,42900
32924,22833,42876
33104,22817,42695
33236,22789,42832
33224,22782,42844
33240,22793,42448
33172,22820,42698
32992,22840,42831
32852,22872,42900
32869,22870,42877
32852,22863,42820
32887,22838,42820
33032,22805,42848
33176,22781,42656
33216,22788,42668
33192,22806,42694
33134,22818,42820
32984,22844,42824
32865,22861,42909
32868,22855,42783
32888,22844,42705
32912,22831,42847
33076,22797,42792
33176,22802,42933
33153,22793,42748
33096,22789,42857
33022,22806,42887
32896,22854,42902
32792,22853,42525
32736,22855,42748
32756,22843,42933
32844,22832,42748
33036,22797,42897
33172,22787,42773
33188,22794,42912
33116,22796,42796
33049,22813,42918
32868,22840,42591
32744,22866,42956
32709,22860,42733
32756,22844,42909
32860,22846,42581
33012,22805,42905
33104,22784,42919
33092,22791,42727
33040,22809,42872
32972,22821,42764
32808,22838,42932
32696,22872,42869
32673,22860,42488
32697,22852,42756
32744,22830,42946
32888,22806,42834
33008,22787,42836
33024,22781,42870
33000,22818,42724
32936,22837,42724
32777,22856,42812
32660,22860,42900
32692,22855,42911
32740,22854,42884
32798,22836,42887
32981,22805,42789
33104,22783,42686
33088,22781,42797
33088,22788,42830
33036,22835,42777
32884,22851,42597
32784,22857,42717
32774,22860,42796
32788,22845,42860
32733,22828,42844
32832,22799,42768
32904,22801,42700
32912,22789,42621
32904,22806,42751
32848,22817,42784
32692,22841,42756
32592,22850,42372
32628,22864,42724
32604,22857,42729
32644,22829,42620
32796,22829,42696
32904,22801,42409
32936,22790,42696
32948,22799,42759
32872,22812,42607
32680,22853,42664
32568,22859,42631
32604,22853,42671
32692,22863,42631
32780,22839,42656
32940,22821,42241
33092,22783,42488
33088,22790,42643
33017,22813,42681
32925,22820,42452
32720,22846,42599
32632,22872,42490
32728,22869,42608
32784,22860,42646
32848,22834,42450
33032,22826,42586
33172,22805,42260
33252,22794,42580
33276,22791,42489
33216,22830,42549
33040,22848,42525
32876,22858,42612
32812,22867,42543
32852,22852,42276
32912,22828,42432
33056,22820,42575
33184,22800,42332
33232,22796,42496
33221,22797,42156
33164,22830,42564
32988,22847,42551
32864,22863,42420
32852,22858,42468
32872,22848,42100
32860,22824,42452
33032,22818,42503
33116,22794,42404
33136,22799,42399
33128,22791,42135
33088,22811,42489
32956,22853,42233
32840,22860,42388
32816,22856,42318
32760,22845,42271
32740,22832,42252
32864,22817,42444
32952,22796,42183
32860,22802,42333
32704,22788,41917
32408,22821,42292
31880,22852,42383
31336,22862,42106
30808,22857,42260
30232,22857,41910
29716,22837,42306
29456,22815,42180
29380,22801,42158
29528,22801,42200
29992,22809,42168
30772,22816,42096
31644,22857,42224
32648,22878,42268
33944,22868,42068
35216,22860,42161
36832,22884,42161
39036,22838,41828
41512,22816,42144
43628,22804,42213
44716,22856,42076
44332,22857,42119
42892,22880,41991
41764,22877,42108
40800,22914,42104
40136,22887,41956
40068,22862,42044
40192,22841,41964
39956,22804,41837
39116,22787,41968
38152,22809,41855
37316,22808,42044
36412,22840,41871
35580,22861,41529
34808,22854,41991
34040,22872,41789
33380,22836,41412
32960,22794,41816
32612,22797,41615
32156,22790,41728
31772,22793,41673
31524,22818,41553
31196,22841,41286
30980,22865,41825
30908,22856,41567
30857,22847,41636
30836,22833,41709
30920,22801,41671
30984,22785,41669
30988,22782,41396
30988,22793,41810
30944,22812,41596
30836,22836,41396
30732,22852,41749
30749,22848,41902
30762,22845,41716
30820,22833,41767
30944,22805,41700
31077,22786,41845
31092,22770,41807
31136,22797,41689
31144,22810,41854
31044,22836,41751
30980,22844,41727
31036,22864,41684
31080,22844,41810
31164,22822,41664
31313,22791,41671
31441,22768,41633
31464,22796,41748
31424,22796,41633
31408,22804,41598
31256,22837,41262
31156,22839,41696
31160,22850,41423
31221,22848,41535
31265,22823,41216
31376,22799,41525
31496,22777,41575
31580,22779,41360
31624,22798,41468
31656,22804,41431
31552,22847,41599
31452,22848,41450
31433,22847,41463
31436,22838,41344
31492,22834,41472
31648,22797,41513
31756,22770,41465
31749,22788,41380
31708,22786,41516
31672,22802,41512
31528,22844,41524
31441,22850,41600
31436,22851,41533
31448,22843,41772
31488,22830,41665
31624,22799,41600
31744,22780,41684
31744,22788,41473
31748,22788,41911
31736,22809,41809
31568,22836,41735
31480,22848,41764
31504,22844,41510
31576,22844,41956
31648,22820,41857
31800,22790,41684
31880,22788,42048
31876,22789,42013
31848,22788,41844
31780,22817,42136
31604,22838,42127
31472,22864,42049
31516,22855,42116
31536,22849,42190
31624,22828,42068
31824,22813,42341
32008,22788,42284
32089,22800,42184
32140,22796,42391
32192,22807,42368
32132,22844,42369
32109,22849,42364
32152,22869,42440
32204,22852,42065
32321,22828,42559
32537,22805,42476
32700,22804,42532
32848,22798,42245
32928,22793,42652
32992,22815,42422
32972,22857,42270
32972,22862,42625
33072,22855,42532
33204,22853,42680
33352,22840,42385
33594,22801,42781
33824,22801,42749
33892,22791,42788
33952,22804,42768
33964,22820,42676
33856,22850,42552
33776,22874,42892
33796,22868,42844
33792,22852,42751
33836,22845,42797
33952,22813,42877
33964,22797,42916
33864,22808,42948
33724,22812,42972
33557,22823,42677
33268,22854,43044
33029,22882,42872
32921,22877,43044
32840,22872,42980
32788,22840,43014
32840,22813,43093
32869,22796,42718
32856,22799,43031
32816,22815,42977
32692,22836,43143
32524,22855,43015
32424,22863,43180
32376,22864,43132
32368,22870,43192
32396,22836,42993
32532,22813,43188
32620,22799,43030
32612,22792,43213
32557,22801,42853
32484,22837,43215
32376,22857,43125
32272,22873,43280
32264,22865,42900
32232,22857,43188
32252,22848,43272
32364,22815,43293
32472,22800,43300
32508,22808,43172
32503,22794,43300
32464,22820,43312
32328,22863,43150
32213,22868,43289
32192,22873,43233
32188,22856,43173
32221,22833,43244
32400,22817,43196
32500,22802,43196
32528,22797,43216
32504,22809,42888
32469,22836,43069
32328,22868,43104
32248,22877,43129
32276,22872,43140
32272,22860,43000
32352,22834,43089
32544,22788,42892
32692,22805,43029
32736,22805,42996
32700,22800,42958
32640,22840,42837
32525,22868,42991
32464,22864,42882
32452,22880,42756
32480,22864,42815
32508,22836,42856
32644,22829,42748
32738,22809,42840
32744,22812,42741
32736,22805,42716
32689,22834,42415
32520,22872,42657
32396,22876,42700
32368,22876,42474
32390,22865,42596
32436,22838,42177
32660,22820,42517
32784,22805,42615
32760,22802,42382
32736,22819,42383
32692,22834,42432
32544,22870,42468
32444,22876,42045
32448,22869,42350
32464,22877,42473
32556,22854,42293
32708,22817,42401
32788,22817,42208
32824,22813,42465
32852,22813,42272
32788,22846,42359
32664,22862,42188
32624,22872,42420
32638,22885,42308
32668,22863,41972
32700,22838,42180
32856,22834,42389
32960,22809,42148
32985,22811,42196
32968,22819,42232
32920,22850,42196
32796,22879,42080
32700,22879,42080
32714,22878,42252
32736,22882,41981
32797,22850,42126
33004,22820,41685
33116,22818,41968
33136,22818,42180
33081,22818,42012
33040,22845,41584
32920,22860,42055
32852,22895,41927
32864,22883,41935
32869,22869,41704
32892,22855,41964
33080,22821,41764
33172,22823,41748
33216,22820,41412
33220,22820,41400
33184,22847,41734
33044,22885,41684
32932,22882,41630
32900,22874,41311
32916,22897,41676
32988,22852,41519
33128,22824,41440
33240,22829,41396
33268,22820,41381
33272,22825,41041
33216,22845,41344
33104,22876,41372
32997,22880,40876
33012,22893,41221
33028,22876,41103
33116,22856,41072
33288,22828,40708
33392,22810,40936
33415,22822,40980
33396,22824,41065
33338,22843,40756
33206,22884,40846
33104,22885,40767
33108,22879,40865
33148,22885,40742
33236,22857,40617
33420,22824,40777
33472,22806,40597
33492,22824,40221
33452,22826,40685
33356,22840,40513
33248,22877,40367
33184,22888,40583
33156,22883,40357
33190,22884,40024
33244,22854,40396
33360,22824,40175
33440,22811,39956
33441,22819,40300
33444,22829,40101
33404,22844,40205
33248,22863,39988
33172,22886,40268
33184,22884,40126
33216,22870,39718
33264,22845,40048
33388,22818,40012
33484,22820,39996
33482,22820,39652
33460,22820,39876
33389,22849,39974
33234,22864,39794
33140,22879,39796
33145,22873,39869
33172,22887,39768
33248,22852,39412
33412,22820,39815
33489,22816,39565
33460,22813,39312
33416,22828,39681
33338,22846,39453
33192,22869,39523
33096,22886,39548
33088,22879,39516
33172,22872,39128
33268,22860,39374
33404,22820,39477
33476,22822,39381
33484,22815,39069
33454,22823,39270
33376,22839,39377
33225,22872,39124
33116,22881,38908
33112,22885,39317
33132,22877,39136
33200,22847,38845
33352,22835,39050
33436,22812,39204
33476,22812,38910
33452,22820,39020
33388,22853,38988
33248,22864,38980
33156,22880,38956
33124,22871,38838
33124,22870,38816
33161,22846,38887
33268,22839,38862
33297,22820,38804
33260,22823,38903
33248,22822,38790
33156,22845,38687
33001,22865,38836
32908,22880,38592
32872,22895,38697
32880,22880,38688
32944,22863,38580
33092,22821,38624
33204,22821,38457
33222,22808,38671
33244,22819,38568
33240,22855,38489
33128,22873,38390
33076,22884,38484
33028,22889,38487
33052,22864,38298
33092,22851,38101
33216,22832,38405
33256,22815,38068
33232,22810,38462
33280,22828,38039
33260,22844,38407
33128,22871,38277
33084,22877,38183
33132,22894,38356
33232,22882,38104
33340,22852,38218
33504,22830,38094
33548,22808,38168
33532,22834,38145
33485,22833,38045
33396,22846,38041
33216,22877,38020
33125,22887,37893
33140,22875,38125
33174,22868,37876
33256,22860,37981
33424,22828,37912
33536,22811,37819
33532,22813,37921
33524,22813,37879
33476,22852,37762
33332,22877,37874
33208,22876,37677
33205,22870,37854
33228,22881,37815
33308,22852,37548
33408,22831,37757
33468,22821,37756
33456,22807,37700
33436,22808,37695
33348,22854,37668
33212,22874,37772
33068,22881,37540
33008,22873,37335
32916,22872,37692
32753,22837,37598
32596,22829,37639
32268,22808,37548
31772,22805,37493
31172,22814,37410
30440,22846,37493
29700,22868,37422
29216,22876,37400
29072,22882,37350
29364,22872,37456
29960,22846,37383
30948,22821,37397
32137,22812,37296
33440,22830,37044
34876,22829,37432
36216,22856,37308
37856,22908,37224
40068,22908,37284
42592,22912,37272
44668,22891,37040
45736,22863,37257
45448,22845,37135
44216,22839,37181
43096,22861,36916
42016,22848,37171
41276,22855,37012
41064,22923,37088
40916,22898,36924
40352,22903,37092
39260,22872,36961
38361,22888,36783
37636,22836,37041
36844,22817,36812
35968,22820,36876
35060,22824,36704
34156,22861,36825
33264,22880,36902
32556,22889,36768
32052,22886,36668
31632,22880,36706
31364,22855,36453
31312,22816,36708
31268,22812,36709
31172,22813,36565
31085,22818,36654
30992,22849,36480
30792,22872,36725
30664,22872,36525
30600,22884,36392
30584,22869,36684
30653,22845,36580
30785,22817,36708
30856,22813,36705
30828,22807,36733
30820,22813,36711
30764,22836,36452
30616,22869,36734
30577,22878,36636
30604,22874,36730
30636,22865,36517
30700,22844,36720
30876,22818,36718
31012,22807,36625
31033,22807,36659
31036,22820,36648
30964,22845,36664
30856,22866,36540
30832,22879,36245
30854,22885,36552
30932,22866,36399
31040,22844,36146
31216,22815,36311
31332,22808,36352
31328,22805,36335
31340,22823,36279
31308,22840,36004
31140,22864,36296
31088,22871,36108
31105,22877,35940
31156,22856,36153
31253,22842,36218
31412,22815,36140
31476,22815,36176
31476,22804,36160
31476,22818,36060
31421,22835,36197
31248,22860,36020
31184,22870,36161
31200,22870,36090
31208,22878,36231
31284,22848,36141
31432,22815,35933
31497,22807,36249
31496,22805,36248
31516,22822,36292
31416,22840,36226
31232,22865,36016
31168,22868,36201
31196,22879,36419
31200,22865,36296
31325,22834,36084
31480,22816,36447
31576,22812,36381
31560,22810,36326
31528,22817,36452
31448,22842,36329
31296,22869,36588
31232,22880,36493
31200,22876,36547
31204,22863,36473
31292,22842,36549
31392,22811,36604
31472,22815,36372
31508,22812,36695
31488,22814,36532
31440,22846,36672
31316,22860,36687
31292,22880,36609
31316,22881,36724
31388,22865,36640
31524,22839,36780
31740,22825,36765
31872,22815,36633
31934,22812,36855
32028,22817,36660
32032,22854,36796
31944,22871,36792
31992,22884,36860
32112,22876,36772
32196,22869,36836
32384,22841,36939
32640,22822,36812
32772,22812,36564
32846,22811,36916
32948,22835,36858
32980,22855,36662
32925,22872,36895
32964,22878,36860
33056,22871,36893
33152,22889,36780
33349,22853,36994
33616,22822,36868
33732,22807,36883
33788,22812,37021
33812,22844,36901
33732,22852,36892
33536,22879,36658
33400,22874,37008
33348,22893,36940
33308,22865,36951
33309,22839,36902
33368,22836,37038
33348,22821,36925
33260,22815,36701
33133,22815,37084
33000,22852,36975
32804,22869,36793
32672,22877,37097
32621,22884,36762
32644,22869,37052
32676,22841,36908
32752,22812,37044
32764,22800,37040
32744,22821,36772
32676,22830,36992
32568,22845,37141
32408,22868,37071
32328,22881,37005
32320,22876,37198
32325,22869,36976
32388,22828,37108
32536,22807,37217
32602,22803,37140
32604,22807,37066
32596,22799,37255
32528,22841,37172
32390,22857,37236
32308,22876,37152
32276,22868,36905
32246,22853,37262
32352,22836,37134
32512,22813,37182
32608,22796,37088
32616,22788,37294
32568,22800,37124
32471,22846,37241
32289,22863,37070
32228,22865,37308
32220,22853,37192
32258,22850,37212
32344,22820,37010
32512,22791,37156
32620,22788,37181
32624,22800,37168
32636,22797,36870
32556,22831,37164
32408,22849,37260
32340,22852,37048
32344,22854,37215
32376,22864,36990
32444,22824,37109
32592,22802,37060
32669,22780,37206
32700,22792,37050
32686,22797,36895
32584,22816,37101
32428,22855,36929
32357,22860,37064
32352,22843,36967
32348,22837,37095
32420,22823,37016
32524,22791,36996
32628,22783,36729
32608,22776,37099
32581,22792,36975
32504,22816,36892
32360,22836,37060
32292,22862,36934
32324,22849,36959
32364,22834,36864
32440,22804,37033
32608,22791,36820
32688,22770,36901
32676,22789,37020
32628,22785,36951
32556,22812,36868
32440,22860,36938
32381,22845,36911
32364,22848,36952
32380,22831,36936
32504,22815,36831
32640,22788,36949
32737,22773,36911
32744,22761,37013
32740,22795,36949
32680,22807,36885
32508,22833,36964
32416,22840,36918
32416,22846,37052
32432,22826,36933
32508,22816,36972
32652,22791,36687
32752,22774,36852
32773,22776,36885
32772,22785,36854
32668,22811,36997
32508,22826,37049
32436,22828,37060
32444,22854,37029
32488,22835,36881
32548,22796,36934
32696,22772,36960
32756,22761,36660
32748,22775,36965
32720,22780,36864
32637,22798,36932
32540,22833,36838
32466,22839,36999
32496,22826,36898
32576,22835,36790
32704,22796,36945
32873,22778,36870
32952,22761,36825
32956,22761,36740
32936,22786,36927
32901,22808,36783
32744,22820,36517
32720,22824,36817
32725,22822,36772
32768,22829,36732
32884,22804,36572
33029,22760,36798
33125,22756,36584
33102,22750,36652
33076,22759,36668
32980,22809,36511
32824,22820,36673
32745,22824,36460
32762,22825,36511
32784,22821,36497
32888,22785,36528
33013,22770,36229
33072,22755,36376
33072,22759,36359
33036,22756,36520
32976,22783,36384
32840,22823,36396
32769,22829,36286
32776,22830,36240
32812,22812,36328
32878,22788,36261
32988,22752,36388
33064,22740,36147
33056,22756,36252
33044,22752,36153
32961,22775,36297
32800,22816,36174
32756,22824,35932
32749,22808,36076
32792,22815,36164
32850,22786,36239
33009,22748,36119
33076,22754,36017
33052,22738,36108
33026,22746,36085
32940,22790,35967
32780,22799,36140
32720,22812,35974
32720,22783,36028
32752,22803,35876
32824,22766,36072
32962,22758,35970
33052,22737,35876
33072,22752,35892
33036,22736,36031
32944,22780,35917
32768,22801,35877
32724,22807,35747
32760,22800,35880
32792,22784,35869
32864,22765,35735
33028,22732,35806
33113,22725,35905
33108,22732,35672
33084,22724,35780
32972,22783,35672
32812,22801,35828
32752,22803,35718
32756,22789,35572
32800,22801,35804
32868,22769,35657
32993,22745,35700
33044,22729,35425
33044,22732,35572
33028,22749,35747
32956,22764,35612
32817,22781,35623
32752,22817,35536
32784,22809,35708
32820,22797,35592
32884,22764,35591
33053,22735,35361
33104,22725,35533
33124,22728,35681
33088,22729,35558
33016,22775,35569
32864,22791,35300
32800,22806,35464
32816,22790,35637
32836,22799,35550
32940,22765,35436
33100,22732,35628
33168,22735,35401
33140,22735,35492
33112,22733,35520
33012,22756,35409
32814,22797,35533
32708,22803,35580
32688,22791,35421
32648,22782,35364
32702,22772,35464
32813,22737,35477
32877,22732,35229
32832,22724,35356
32800,22744,35541
32708,22769,35428
32548,22781,35207
32496,22807,35500
32508,22793,35322
32540,22780,35180
32660,22759,35233
32864,22734,35369
33004,22725,35484
33056,22736,35389
33072,22745,35264
33008,22764,35440
32860,22789,35335
32812,22812,35320
32800,22796,35112
32824,22783,35368
32882,22769,35224
33040,22749,35284
33180,22730,35308
33208,22729,35035
33208,22733,35207
33182,22783,35295
33120,22801,35247
33104,22789,35276
33136,22809,35148
33140,22794,35349
33152,22763,35204
33268,22733,35028
33320,22720,35125
33300,22738,35207
33277,22738,34973
33160,22769,35117
32977,22790,35101
32904,22806,35193
32928,22794,35096
32948,22813,35157
33060,22759,35233
33216,22732,35144
33304,22751,34904
33268,22740,35044
33216,22740,35200
33116,22760,35137
32972,22804,35076
32940,22804,35093
32893,22791,34852
32876,22805,35089
32928,22775,35032
33080,22749,35054
33116,22749,35076
33088,22742,35049
33032,22759,34800
32918,22756,34884
32696,22808,34852
32528,22805,34964
32320,22796,34983
32068,22784,35000
31761,22767,34808
31412,22743,35024
30948,22724,34871
30316,22734,34980
29668,22744,34844
29216,22773,34972
28989,22797,34844
29268,22805,34937
29912,22773,34704
30868,22796,34948
32160,22770,34905
33664,22745,34908
35264,22757,34808
36837,22751,34951
38752,22757,34882
41148,22780,34640
43564,22848,34820
45472,22830,34816
46308,22844,34850
45652,22812,34863
44380,22788,34668
43352,22761,34734
42252,22784,34877
41536,22764,34772
41424,22772,34772
41136,22777,34601
40240,22820,34768
39024,22808,34633
38076,22800,34700
37181,22824,34534
36357,22778,34660
35600,22759,34679
34772,22738,34585
33956,22756,34604
33216,22756,34400
32520,22775,34552
31828,22812,34433
31336,22813,34497
31076,22811,34276
30908,22804,34266
30860,22773,34396
30984,22764,34511
31012,22744,34540
30940,22747,34546
30876,22754,34471
30740,22777,34516
30580,22794,34397
30504,22818,34437
30520,22810,34621
30540,22801,34665
30652,22770,34489
30832,22748,34612
30896,22750,34633
30917,22744,34460
30912,22754,34615
30880,22769,34653
30725,22788,34639
30672,22805,34637
30678,22808,34541
30728,22794,34649
30820,22769,34684
30984,22748,34638
31080,22735,34548
31092,22731,34548
31124,22753,34311
31044,22772,34438
30932,22796,34582
30896,22798,34401
30928,22796,34425
30977,22796,34439
31092,22767,34199
31276,22744,34425
31348,22725,34340
31348,22725,34260
31332,22733,34251
31244,22760,34343
31096,22788,34341
31048,22798,34341
31080,22791,34094
31104,22788,34220
31184,22769,34370
31348,22749,34405
31412,22735,34325
31421,22733,34248
31412,22736,34333
31336,22759,34380
31152,22793,34148
31096,22802,34293
31124,22792,34439
31154,22785,34517
31204,22757,34384
31352,22725,34453
31456,22735,34260
31448,22732,34380
31424,22744,34444
31356,22764,34615
31160,22791,34575
31081,22794,34687
31101,22788,34567
31102,22784,34653
31160,22757,34719
31368,22738,34622
31432,22731,34852
31424,22722,34797
31384,22740,34567
31292,22754,34830
31152,22777,34748
31044,22806,34886
31064,22798,34661
31072,22788,34761
31144,22764,34858
31300,22736,34964
31408,22726,35070
31396,22734,35034
31392,22733,34958
31360,22753,34921
31232,22791,35068
31220,22802,34835
31282,22797,34932
31392,22791,35088
31532,22769,35185
31772,22732,35060
31924,22722,35120
32016,22721,35150
32076,22742,35173
32124,22764,35044
32060,22791,35098
32064,22797,35102
32188,22796,35132
32302,22778,35128
32492,22756,35136
32732,22729,35101
32924,22722,35277
33008,22735,35224
33096,22735,35173
33104,22761,35285
33044,22789,35328
33056,22793,35328
33176,22805,35300
33312,22783,35224
33445,22752,35376
33668,22740,35114
33813,22725,35318
33872,22721,35484
33860,22743,35383
33764,22759,35428
33580,22787,35245
33436,22788,35412
33356,22805,35556
33292,22784,35370
33265,22756,35480
33336,22738,35256
33316,22717,35433
33260,22712,35493
33180,22720,35625
33020,22756,35528
32808,22785,35463
32665,22776,35553
32596,22780,35599
32564,22783,35623
32637,22752,35468
32773,22712,35581
32820,22724,35709
32800,22718,35620
32752,22708,35677
32668,22749,35712
32502,22766,35484
32412,22769,35625
32381,22788,35793
32380,22767,35796
32448,22744,35649
32600,22709,35661
32672,22717,35805
32681,22698,35732
32676,22701,35720
32612,22740,35821
32404,22756,35836
32312,22760,35758
32325,22772,35940
32348,22755,35873
32436,22724,35861
32624,22713,35612
32728,22692,35765
32736,22695,35861
32732,22692,35868
32636,22732,35959
32456,22756,35744
32376,22757,35847
32384,22756,35860
32366,22749,35576
32408,22724,35782
32585,22705,35788
32664,22692,35772
32668,22689,35786
32672,22692,35812
32628,22714,35529
32480,22744,35768
32364,22754,35862
32359,22751,35689
32384,22769,35744
32456,22723,35768
32588,22695,35564
32680,22676,35750
32704,22689,35637
32662,22696,35479
32580,22717,35728
32432,22751,35676
32344,22755,35709
32340,22740,35613
32392,22747,35740
32494,22712,35666
32624,22700,35412
32672,22684,35572
32676,22683,35713
32660,22682,35580
32584,22717,35648
32376,22748,35536
32316,22737,35578
32360,22758,35669
32404,22741,35624
32452,22719,35640
32628,22687,35368
32744,22668,35540
32760,22677,35721
32740,22684,35620
32636,22710,35598
32469,22734,35378
32388,22752,35588
32420,22741,35744
32468,22733,35552
32500,22715,35549
32672,22681,35545
32760,22667,35680
32776,22674,35621
32744,22676,35765
32696,22700,35648
32580,22723,35671
32485,22738,35511
32476,22749,35692
32520,22737,35591
32592,22715,35781
32753,22684,35670
32848,22673,35437
32832,22674,35653
32840,22670,35609
32777,22696,35573
32608,22720,35686
32540,22733,35460
32568,22745,35684
32612,22740,35753
32700,22711,35540
32876,22684,35641
33000,22678,35500
33028,22660,35680
33032,22662,35600
32992,22687,35601
32812,22714,35408
32736,22724,35496
32748,22727,35628
32804,22738,35452
32852,22708,35520
33020,22685,35256
33104,22660,35416
33106,22669,35453
33071,22669,35495
33000,22695,35517
32856,22724,35345
32796,22729,35421
32836,22726,35221
32840,22740,35303
32924,22704,35437
33104,22671,35301
33176,22660,35316
33191,22665,35292
33128,22661,35256
33084,22688,35069
32952,22714,35028
32900,22737,35266
32928,22728,35084
32952,22728,35053
33020,22695,35092
33168,22664,35079
33228,22658,35045
33208,22652,34959
33172,22669,35029
33100,22693,34980
32900,22713,34712
32816,22738,34959
32900,22732,34992
32933,22709,34862
32992,22680,34860
33140,22660,34740
33212,22662,34845
33220,22652,34676
33202,22654,34784
33152,22678,34669
32967,22718,34727
32880,22721,34724
32884,22712,34564
32924,22703,34692
32980,22693,34596
33116,22665,34632
33172,22645,34488
33129,22670,34631
33108,22660,34532
33072,22682,34535
32912,22706,34533
32812,22713,34340
32829,22710,34445
32836,22707,34324
32932,22679,34500
33076,22668,34380
33173,22645,34191
33184,22639,34476
33152,22662,34391
33112,22675,34277
32964,22716,34255
32896,22718,34094
32880,22702,34311
32912,22693,34292
32964,22677,34135
33128,22660,34337
33244,22647,34221
33240,22648,34215
33185,22655,34143
33132,22677,34260
33008,22696,34134
32904,22701,33926
32884,22720,34101
32932,22713,34208
33000,22674,34124
33132,22647,33976
33252,22633,34092
33241,22644,34076
33216,22651,33848
33120,22670,34078
32952,22693,33988
32904,22698,33796
32925,22700,33888
32932,22706,33962
33029,22677,33943
33180,22645,33965
33229,22637,33710
33232,22642,33892
33204,22632,33863
33124,22685,33733
32942,22702,33852
32864,22709,33936
32878,22699,33840
32908,22693,33624
32992,22669,33826
33136,22631,33821
33212,22624,33828
33184,22647,33700
33148,22646,33876
33069,22668,33740
32880,22692,33782
32800,22711,33644
32774,22708,33746
32738,22686,33695
32768,22667,33724
32868,22633,33526
32924,22658,33740
32912,22644,33593
32864,22655,33688
32776,22680,33685
32608,22685,33508
32504,22699,33693
32512,22693,33576
32560,22689,33628
32636,22663,33448
32820,22656,33637
32932,22652,33584
32956,22649,33573
32970,22648,33593
32916,22663,33580
32804,22686,33383
32752,22705,33417
32752,22715,33500
32746,22704,33520
32816,22676,33516
32948,22637,33275
33008,22624,33372
33052,22624,33362
33077,22634,33452
33042,22666,33535
32884,22696,33335
32876,22696,33444
32948,22688,33321
32980,22700,33477
33056,22670,33404
33184,22631,33183
33176,22637,33386
33140,22631,33364
33092,22628,33371
33008,22672,33156
32836,22684,33431
32776,22697,33332
32824,22703,33351
32857,22692,33112
32960,22648,33255
33152,22644,33380
33224,22629,33220
33241,22621,33271
33212,22652,33063
33120,22663,33142
32964,22689,33317
32908,22688,33148
32894,22703,33249
32876,22688,33016
32958,22657,33140
33156,22628,33250
33240,22637,33189
33236,22629,33127
33184,22631,33148
33104,22653,33168
32897,22672,33044
32733,22696,33204
32704,22695,33025
32560,22672,33126
32316,22655,33044
32092,22642,33127
31752,22625,32984
31232,22626,33086
30640,22635,32881
29888,22652,32987
29300,22681,33120
29025,22696,32986
29148,22696,32836
29672,22684,32964
30512,22670,33052
31912,22644,32998
33225,22629,32796
34672,22628,32924
36128,22655,33038
37848,22680,32854
40044,22722,32949
42536,22700,32961
44796,22696,32950
46056,22753,32928
46016,22698,32724
44804,22673,32773
43720,22639,32809
42504,22680,32901
41624,22657,32782
41280,22665,32813
41048,22706,32656
40480,22697,32789
39408,22721,32692
38400,22690,32693
37536,22653,32538
36764,22637,32612
35916,22624,32500
35044,22625,32594
34088,22637,32413
33324,22663,32557
32680,22678,32372
32084,22696,32420
31621,22694,32494
31356,22686,32364
31208,22669,32409
31212,22649,32195
31016,22629,32287
31144,22625,32423
31040,22634,32325
30861,22658,32352
30768,22685,32212
30556,22695,32284
30426,22688,32372
30621,22684,32432
30666,22659,32293
30772,22630,32388
30756,22619,32436
30840,22594,32436
30828,22625,32244
30757,22650,32264
30648,22679,32365
30612,22696,32352
30572,22692,32356
30652,22691,32415
30685,22661,32416
30908,22631,32240
31125,22620,32260
31105,22623,32357
31120,22626,32359
30992,22647,32314
30976,22670,32119
30966,22685,32296
30920,22692,32087
31048,22671,32324
31184,22659,32156
31304,22624,32253
31568,22610,32237
31360,22614,32180
31437,22626,32241
31472,22641,32072
31344,22668,32255
31204,22680,32263
31236,22681,32204
31338,22688,32170
31372,22646,32293
31580,22622,32230
31552,22622,32199
31516,22615,32334
31665,22621,32191
31620,22640,32421
31312,22671,32365
31213,22687,32213
31280,22678,32409
31328,22676,32443
31320,22644,32490
31488,22617,32409
31556,22607,32594
31656,22616,32556
31582,22623,32398
31370,22639,32682
31340,22668,32644
31316,22685,32551
31296,22679,32652
31332,22670,32716
31488,22644,32552
31652,22628,32805
31692,22612,32719
31692,22612,32805
31676,22621,32806
31584,22650,32706
31406,22665,32920
31332,22687,32836
31324,22680,32877
31361,22679,32869
31424,22644,32832
31640,22615,32912
31717,22609,32762
31716,22620,32821
31688,22627,32975
31705,22644,32957
31568,22679,32780
31512,22677,33040
31508,22689,32980
31644,22674,32864
31796,22644,33028
32013,22631,32981
32192,22620,33031
32148,22607,32996
32272,22630,32808
32368,22663,32924
32228,22684,32988
32328,22692,33012
32397,22681,32805
32388,22664,32951
32628,22642,33071
32864,22644,32982
33084,22622,32812
33192,22613,32974
33348,22626,32972
33376,22645,32989
33324,22670,33012
33292,22679,32799
33296,22687,32976
33460,22692,33031
33644,22652,32903
33848,22631,32992
33980,22609,32796
34044,22610,33037
33981,22628,32879
33976,22654,32960
33868,22671,32884
33676,22689,32984
33648,22675,32927
33696,22681,32721
33576,22649,32840
33664,22610,32932
33548,22629,32862
33512,22609,32866
33485,22613,32709
33328,22656,32881
33064,22663,32681
32876,22676,32577
32801,22678,32642
32656,22663,32722
32688,22660,32708
32936,22616,32688
32924,22602,32529
33008,22612,32552
33040,22615,32613
32932,22632,32460
32800,22665,32617
32712,22668,32414
32744,22660,32492
32697,22670,32294
32740,22637,32415
32976,22600,32356
33060,22588,32412
33112,22603,32177
33028,22606,32300
32928,22622,32317
32696,22652,32277
32524,22670,32276
32584,22660,32117
32660,22660,32198
32756,22624,32256
32912,22607,32100
32928,22584,32157
32908,22586,32109
32878,22591,31948
32764,22629,31965
32621,22652,31999
32560,22648,31835
32440,22663,31973
32528,22653,31876
32640,22616,31655
32776,22604,31682
32864,22591,31829
32808,22592,31620
32844,22586,31703
32800,22622,31519
32572,22645,31653
32496,22647,31524
32521,22673,31553
32624,22647,31329
32620,22616,31433
32728,22592,31398
32816,22575,31273
32828,22595,31348
32760,22588,31134
32676,22607,31125
32580,22652,31183
32568,22651,31184
32552,22644,30982
32526,22635,31122
32564,22607,30940
32640,22594,31016
32728,22581,30983
32740,22584,30759
32752,22591,30845
32740,22607,30784
32570,22642,30739
32445,22651,30785
32432,22639,30596
32440,22655,30560
32476,22617,30703
32604,22593,30537
32644,22576,30615
32662,22566,30426
32716,22577,30390
32644,22620,30367
32488,22637,30499
32384,22645,30343
32444,22636,30426
32408,22624,30239
32588,22617,30344
32804,22594,30329
32810,22568,30148
32788,22570,30114
32756,22576,30236
32676,22616,30244
32540,22633,30183
32508,22631,29990
32532,22650,30036
32600,22631,30056
32592,22604,30055
32788,22584,29880
32892,22559,30044
32896,22593,29888
32940,22583,29981
32800,22602,29777
32524,22636,29934
32580,22644,29849
32621,22631,29737
32678,22628,29785
32756,22595,29710
32892,22586,29793
32892,22564,29597
32944,22558,29710
32976,22580,29717
32884,22594,29548
32772,22643,29628
32609,22635,29630
32660,22631,29432
32656,22639,29590
32740,22604,29468
32961,22573,29359
33053,22578,29488
33084,22574,29445
33028,22571,29308
32940,22606,29428
32772,22631,29304
32642,22626,29356
32716,22632,29303
32772,22620,29280
32764,22608,29107
32900,22574,29080
33104,22564,29244
33128,22556,29156
33100,22586,28995
33030,22599,29021
32868,22616,28984
32800,22629,29065
32801,22642,28875
32820,22623,29029
32952,22592,28933
32980,22562,28956
33188,22569,28745
33212,22563,28911
33176,22565,28785
33072,22604,28824
32956,22622,28626
32832,22624,28748
32932,22623,28692
32932,22612,28712
32804,22595,28688
33092,22564,28496
33288,22580,28512
33276,22568,28599
33184,22575,28452
33082,22609,28495
32917,22637,28492
32840,22647,28472
32856,22629,28309
32820,22621,28405
32848,22591,28356
33080,22564,28340
33168,22553,28353
33136,22553,28208
33132,22574,28135
33065,22593,28200
32884,22618,28212
32736,22637,28253
32724,22629,28109
32740,22612,28105
32812,22600,28188
32964,22567,28036
33041,22548,28165
33052,22560,28121
33033,22569,28114
32968,22582,27937
32744,22625,28033
32672,22635,28053
32724,22624,28027
32749,22628,28022
32812,22587,27863
33024,22582,27898
33104,22564,27904
33053,22560,27897
33036,22572,27924
32928,22597,27926
32820,22614,27733
32744,22620,27844
32748,22625,27872
32752,22604,27752
32892,22581,27813
33056,22578,27812
33048,22570,27709
33039,22562,27636
32968,22577,27684
32908,22588,27604
32752,22618,27610
32696,22630,27700
32764,22634,27721
32688,22622,27598
32764,22597,27676
32992,22562,27664
33128,22549,27502
33156,22572,27557
33098,22573,27641
33028,22604,27575
32892,22625,27509
32772,22628,27590
32772,22622,27452
32781,22608,27436
32852,22583,27457
33000,22557,27536
33128,22579,27441
33084,22567,27503
33040,22572,27516
32968,22590,27390
32766,22613,27366
32708,22631,27386
32724,22631,27348
32760,22621,27308
32789,22589,27333
32844,22562,27468
32856,22543,27334
32864,22552,27341
32784,22570,27294
32740,22597,27269
32510,22624,27381
32452,22637,27306
32484,22628,27391
32516,22614,27223
32604,22581,27373
32796,22579,27351
32888,22563,27345
32936,22563,27332
32968,22575,27229
32924,22578,27224
32756,22623,27288
32676,22623,27105
32704,22628,27176
32736,22609,27254
32772,22576,27157
32928,22573,27142
32996,22552,27042
32968,22556,27201
32948,22559,27197
32928,22581,27143
32764,22611,27172
32809,22618,27068
32846,22620,27036
32992,22625,26958
33060,22596,27047
33136,22570,27020
33133,22556,27015
33121,22559,27047
33092,22556,26956
32985,22602,26844
32776,22617,26964
32688,22625,27013
32720,22613,26960
32680,22602,26976
32776,22581,26814
32964,22580,26775
33017,22560,26940
33052,22553,26870
33068,22551,26854
32972,22601,26746
32788,22613,26809
32696,22624,26762
32696,22615,26828
32732,22620,26676
32816,22586,26814
32988,22553,26695
33072,22564,26752
32982,22557,26759
33001,22559,26591
32876,22577,26736
32714,22617,26637
32580,22616,26704
32538,22609,26565
32444,22608,26570
32300,22588,26642
32192,22557,26672
31896,22548,26508
31456,22557,26619
30916,22558,26600
30240,22586,26502
29484,22611,26484
29040,22620,26534
28948,22629,26589
29296,22616,26472
29944,22591,26475
30944,22566,26564
32136,22559,26471
33324,22559,26530
34792,22564,26460
36232,22597,26380
37988,22651,26519
40333,22660,26524
42832,22662,26469
44772,22645,26480
45740,22620,26352
45334,22612,26333
44100,22581,26463
42932,22605,26322
41724,22595,26250
40844,22605,26415
40452,22612,26317
40060,22652,26298
39420,22629,26306
38429,22608,26229
37576,22622,26294
36877,22581,26116
36132,22556,26110
35340,22556,26127
34520,22589,26188
33680,22596,26055
32864,22615,25991
32240,22628,26068
31780,22631,26088
31436,22620,26058
31224,22605,26015
31168,22575,26036
31136,22565,25894
31020,22558,25854
30928,22567,26020
30828,22593,25937
30628,22612,26002
30500,22623,25940
30476,22625,25916
30516,22615,25957
30564,22597,26057
30708,22564,25964
30800,22548,25928
30804,22553,26008
30756,22578,26079
30692,22588,26118
30552,22613,26159
30500,22620,26076
30493,22618,26009
30528,22617,26174
30618,22586,26194
30796,22567,26031
30908,22562,26057
30956,22560,26055
30968,22565,26213
30956,22580,26124
30840,22607,26196
30784,22615,26084
30788,22613,26020
30829,22616,26185
30904,22579,26016
31052,22565,26180
31136,22553,26126
31144,22564,26032
31116,22558,26135
31060,22579,26089
30916,22604,26186
30836,22631,26132
30848,22621,26207
30940,22606,26141
31024,22585,26224
31180,22567,26176
31238,22542,26153
31212,22543,26332
31244,22565,26356
31204,22589,26217
31040,22610,26356
30952,22612,26468
30956,22625,26412
30996,22609,26540
31064,22595,26458
31228,22559,26444
31328,22559,26690
31376,22551,26653
31342,22556,26770
31264,22585,26836
31132,22601,26742
31036,22609,26797
31040,22615,26946
31032,22590,27057
31112,22590,27055
31304,22564,27160
31425,22549,27120
31404,22545,27108
31332,22551,27140
31260,22567,27221
31128,22613,27456
31066,22621,27416
31052,22613,27551
31044,22610,27513
31113,22585,27549
31296,22557,27620
31372,22556,27688
31396,22553,27713
31376,22556,27832
31308,22593,27951
31164,22612,27844
31124,22627,28064
31156,22625,28015
31236,22615,28078
31352,22598,28231
31588,22559,28289
31720,22562,28192
31776,22556,28426
31864,22563,28366
31840,22597,28437
31824,22610,28444
31860,22629,28608
31972,22619,28606
32112,22623,28756
32253,22593,28646
32500,22568,28701
32684,22559,28857
32776,22560,29001
32836,22559,29023
32844,22605,29110
32793,22621,29168
32824,22631,29070
32916,22623,29268
33072,22612,29350
33228,22597,29357
33492,22565,29351
33620,22549,29383
33665,22559,29616
33717,22580,29596
33656,22593,29727
33468,22608,29630
33360,22626,29703
33310,22637,29876
33256,22616,29996
33188,22611,29893
33233,22574,30105
33232,22561,30214
33120,22565,30136
33024,22557,30311
32848,22583,30397
32616,22621,30385
32460,22626,30366
32396,22633,30452
32340,22617,30531
32344,22590,30753
32436,22565,30763
32532,22554,30880
32508,22548,30948
32456,22566,30870
32364,22591,31127
32188,22606,31026
32096,22633,31221
32068,22620,31108
32096,22605,31202
32168,22587,31356
32320,22555,31473
32368,22570,31360
32382,22551,31653
32348,22552,31562
32260,22577,31761
32120,22605,31748
32032,22610,31788
32052,22621,31951
32072,22604,31923
32124,22597,31982
32264,22557,32143
32316,22543,32038
32312,22535,32135
32304,22553,32205
32224,22572,32372
32040,22585,32250
31960,22618,32452
31968,22621,32580
32016,22600,32628
32068,22602,32572
32205,22556,32476
32302,22535,32668
32316,22544,32816
32320,22546,32832
32260,22580,32663
32076,22596,32968
31960,22609,32996
31976,22605,32942
31980,22607,33116
32070,22581,33012
32220,22540,33188
32316,22546,33063
32292,22556,33250
32272,22559,33347
32196,22580,33376
32040,22593,33319
31948,22607,33453
31924,22605,33543
31937,22590,33558
31996,22591,33632
32120,22559,33444
32240,22544,33721
32264,22535,33748
32252,22552,33637
32184,22565,33645
32016,22614,33864
31921,22613,33973
31928,22610,33880
32004,22592,34048
32080,22577,33943
32272,22551,34223
32332,22531,34084
32309,22528,34245
32292,22546,34294
32225,22562,34325
32089,22596,34149
32040,22608,34420
32032,22624,34452
32052,22597,34540
32116,22567,34484
32276,22552,34620
32368,22535,34744
32380,22529,34700
32356,22548,34732
32272,22568,34845
32161,22585,34740
32064,22610,34911
32092,22599,35040
32116,22591,34912
32148,22577,35073
32352,22546,34876
32446,22531,35110
32472,22535,35273
32484,22541,35204
32400,22559,35285
32256,22599,35344
32188,22612,35287
32224,22604,35508
32276,22591,35354
32336,22576,35520
32520,22544,35348
32612,22522,35567
32644,22535,35511
32652,22535,35668
32612,22561,35533
32456,22597,35726
32388,22604,35644
32412,22623,35797
32460,22595,35732
32540,22567,35908
32720,22534,35805
32824,22535,35810
32832,22524,35847
32820,22549,35844
32780,22557,35992
32628,22585,35916
32544,22597,36022
32544,22594,36071
32532,22585,35802
32620,22574,35996
32761,22535,36200
32892,22540,36092
32912,22526,36156
32886,22530,35884
32804,22553,36108
32660,22599,36220
32552,22606,36069
32588,22602,36180
32608,22583,35942
32668,22564,36044
32817,22551,36222
32929,22528,36311
32976,22522,36116
32956,22528,36248
32912,22575,36045
32784,22587,36316
32726,22591,36174
32736,22612,36270
32736,22597,36260
32824,22560,36296
32973,22557,36284
33037,22530,36200
33028,22522,36292
33000,22544,36316
32928,22560,36231
32792,22576,36420
32726,22608,36296
32696,22598,36349
32684,22581,36408
32768,22575,36240
32940,22543,36368
33028,22533,36152
33056,22518,36448
33028,22535,36356
32968,22552,36241
32788,22596,36508
32732,22596,36439
32704,22591,36155
32728,22590,36340
32765,22577,36525
32924,22550,36513
33004,22533,36388
33013,22519,36480
33036,22534,36377
32960,22566,36571
32812,22597,36397
32744,22594,36508
32736,22591,36244
32780,22596,36436
32828,22561,36487
32968,22548,36314
33052,22524,36647
33040,22548,36548
33032,22543,36604
32992,22584,36554
32832,22580,36513
32724,22591,36440
32736,22600,36326
32748,22583,36648
32796,22564,36552
32944,22534,36552
33060,22534,36416
33060,22523,36692
33004,22524,36502
32925,22566,36583
32753,22584,36628
32692,22595,36502
32670,22589,36622
32680,22601,36578
32772,22564,36367
32960,22529,36693
33040,22534,36508
32984,22527,36640
32980,22527,36580
32896,22571,36749
32744,22581,36644
32648,22590,36477
32676,22601,36761
32684,22591,36652
32737,22553,36388
32916,22545,36761
32996,22527,36545
32952,22515,36700
32928,22543,36615
32868,22560,36743
32744,22577,36590
32668,22589,36553
32704,22605,36808
32740,22590,36672
32828,22556,36561
33021,22535,36828
33112,22526,36629
33100,22518,36692
33048,22541,36739
32985,22552,36644
32770,22580,36687
32644,22601,36740
32620,22592,36668
32624,22595,36613
32622,22565,36749
32758,22535,36768
32804,22530,36615
32780,22528,36769
32700,22549,36487
32592,22549,36756
32428,22578,36788
32308,22599,36782
32336,22597,36692
32392,22605,36702
32476,22567,36796
32664,22549,36737
32760,22522,36864
32784,22526,36892
32784,22524,36724
32700,22580,36789
32588,22591,36791
32509,22604,36528
32492,22600,36714
32512,22594,36753
32558,22562,36910
32720,22553,36728
32856,22531,36813
32872,22529,36736
32864,22553,36761
32820,22566,36816
32736,22590,36828
32686,22593,36553
32720,22596,36745
32768,22598,36871
32832,22573,36929
32928,22540,36852
32980,22530,36794
32916,22515,36868
32876,22530,36727
32832,22576,36886
32732,22582,36796
32636,22612,36964
32668,22604,36824
32688,22588,36870
32752,22569,36696
32916,22530,36956
33016,22518,36819
33020,22518,36844
32964,22545,36580
32928,22569,36691
32772,22596,36806
32692,22612,36895
32712,22607,36908
32744,22605,36766
32812,22575,36804
32948,22545,36845
33092,22530,36563
33088,22527,36753
33080,22535,36965
32981,22548,36800
32781,22572,36855
32616,22608,36560
32508,22601,36796
32308,22587,36886
32064,22563,36844
31781,22543,36828
31388,22525,36808
30856,22523,36945
30190,22535,36793
29572,22561,36564
29084,22585,36856
28976,22596,36711
29432,22600,36853
30112,22593,36613
31172,22568,36760
32421,22542,36917
33820,22545,36817
35272,22534,36828
36800,22546,36864
38696,22604,36672
40996,22614,36905
43384,22620,36820
45164,22619,36880
45744,22657,36652
44816,22614,36884
43720,22575,36884
42680,22548,36820
41644,22547,36846
41076,22561,36862
40956,22580,36900
40559,22600,36708
39656,22607,36785
38504,22597,36800
37638,22618,36716
36828,22580,36880
36152,22544,36716
35414,22522,36756
34572,22546,36756
33764,22542,36615
33024,22564,36732
32321,22594,36742
31764,22599,36583
31368,22596,36700
31100,22590,36581
30968,22572,36751
30988,22556,36708
30964,22541,36636
30868,22532,36420
30840,22529,36796
30768,22569,36615
30588,22596,36732
30468,22605,36648
30421,22603,36820
30447,22590,36776
30520,22566,36557
30660,22551,36813
30768,22534,36989
30780,22531,36916
30764,22537,36785
30696,22566,36915
30536,22597,36662
30444,22596,36932
30472,22609,36972
30532,22597,36957
30628,22566,36676
30820,22535,36902
30956,22524,37052
30973,22529,36916
30993,22537,36836
30952,22565,36824
30788,22582,36973
30700,22597,36852
30724,22590,36836
30792,22586,36848
30856,22561,36596
31072,22529,36754
31156,22527,36725
31172,22520,36761
31174,22548,36847
31152,22567,36704
31032,22590,36732
30988,22591,36656
31026,22604,36834
31032,22589,36688
31077,22560,36728
31212,22534,36735
31325,22532,36624
31324,22530,36743
31292,22535,36775
31264,22559,36575
31132,22580,36808
31068,22600,36733
31081,22597,36828
31084,22594,36732
31169,22561,36871
31324,22534,36864
31392,22532,36870
31390,22530,36928
31372,22539,36732
31332,22553,37053
31224,22588,36912
31164,22597,36744
31160,22594,37158
31144,22584,37007
31205,22566,36871
31340,22543,37208
31453,22517,37160
31460,22524,37076
31452,22541,37365
31372,22570,37152
31245,22589,37328
31156,22604,37297
31172,22586,37372
31180,22605,37413
31252,22578,37316
31384,22547,37553
31484,22530,37420
31516,22532,37548
31509,22537,37580
31484,22572,37716
31372,22584,37548
31341,22596,37708
31408,22596,37540
31512,22600,37856
31644,22570,37689
31848,22541,37832
31996,22527,37839
32036,22525,37857
32068,22557,37940
32044,22572,37894
31968,22590,38116
31984,22612,37912
32096,22597,38069
32248,22594,37855
32416,22574,38118
32704,22548,38052
32910,22532,38204
33048,22522,38151
33132,22552,38234
33136,22572,38214
33056,22596,37999
33112,22625,38422
33252,22613,38345
33360,22604,38388
33508,22566,38558
33708,22567,38351
33808,22545,38501
33820,22542,38269
33808,22543,38599
33712,22564,38535
33580,22611,38652
33440,22613,38688
33328,22615,38700
33252,22605,38416
33216,22580,38764
33218,22549,38708
33172,22541,38825
33108,22531,38780
32964,22535,38840
32772,22567,39030
32588,22604,38842
32492,22604,38956
32456,22604,38910
32400,22588,39129
32432,22581,39041
32512,22550,38782
32524,22528,39199
32480,22543,38968
32476,22528,39159
32420,22578,38980
32260,22596,39274
32164,22597,39084
32128,22591,39252
32112,22596,39188
32228,22570,39398
32396,22534,39240
32484,22523,39276
32496,22535,39072
32460,22541,39399
32360,22561,39509
32180,22596,39535
32101,22601,39508
32148,22594,39444
32176,22582,39143
32240,22558,39477
32381,22535,39444
32480,22524,39529
32496,22520,39472
32484,22541,39628
32416,22566,39525
32268,22581,39580
32252,22591,39480
32277,22596,39680
32296,22588,39541
32376,22554,39575
32536,22529,39596
32592,22525,39527
32512,22520,39352
32506,22531,39609
32444,22578,39684
32316,22590,39564
32268,22597,39591
32292,22601,39558
32324,22579,39577
32408,22550,39577
32577,22540,39327
32652,22527,39701
32668,22518,39540
32621,22526,39288
32514,22567,39664
32348,22583,39468
32288,22588,39248
32308,22613,39716
32320,22592,39541
32360,22565,39570
32524,22535,39279
32620,22517,39654
32636,22542,39448
32600,22541,39254
32474,22559,39516
32308,22582,39628
32228,22613,39572
32248,22606,39606
32276,22592,39524
32376,22562,39687
32550,22535,39484
32638,22521,39568
32644,22527,39616
32636,22532,39609
32600,22559,39701
32444,22599,39632
32352,22598,39570
32368,22592,39703
32412,22590,39617
32508,22558,39638
32648,22557,39582
32692,22529,39712
32700,22532,39645
32757,22545,39777
32700,22565,39535
32532,22590,39676
32414,22596,39329
32416,22598,39694
32421,22583,39680
32521,22564,39663
32724,22554,39607
32840,22527,39596
32868,22531,39672
32820,22534,39604
32748,22562,39664
32561,22608,39764
32508,22615,39516
32500,22604,39629
32524,22594,39632
32608,22567,39559
32760,22540,39724
32848,22527,39518
32876,22547,39574
32840,22545,39232
32748,22566,39687
32616,22607,39508
32560,22612,39220
32588,22605,39511
32632,22593,39511
32720,22580,39503
32876,22558,39404
32948,22535,39573
32942,22548,39431
32925,22548,39477
32876,22575,39421
32720,22596,39295
32640,22629,39324
32613,22614,39416
32624,22597,39244
32708,22596,39030
32912,22553,39293
33012,22534,39144
33040,22560,38951
33016,22556,39201
32904,22574,39120
32736,22618,39175
32652,22610,39047
32672,22608,38952
32740,22602,39077
32812,22575,38828
32984,22548,38882
33136,22551,38552
33120,22553,38881
33110,22549,38668
33088,22590,38471
32964,22609,38875
32892,22614,38578
32916,22613,38357
32932,22613,38696
33004,22581,38628
33184,22576,38676
33236,22559,38464
33196,22555,38564
33177,22556,38491
33104,22601,38597
32932,22629,38328
32848,22629,38443
32860,22620,38137
32864,22624,38440
32906,22587,38272
33060,22560,38356
33117,22567,38277
33136,22560,38397
33129,22558,38022
33036,22601,38362
32876,22617,38218
32856,22621,37932
32908,22616,38260
32928,22628,38116
32976,22601,38052
33124,22566,38112
33162,22555,38198
33168,22575,38041
33160,22577,37773
33108,22593,37945
32984,22614,38059
32952,22626,37972
32952,22623,37721
32937,22636,38031
32981,22601,37894
33132,22573,37582
33212,22557,37764
33172,22569,37856
33124,22574,37904
33028,22609,37687
32886,22628,37734
32800,22635,37575
32832,22631,37764
32924,22639,37615
33052,22607,37615
33208,22582,37618
33288,22568,37452
33276,22569,37561
33240,22583,37448
33156,22604,37444
32948,22644,37561
32868,22642,37390
32908,22640,37416
32952,22628,37476
33024,22601,37372
33144,22597,37290
33252,22570,37301
33310,22573,37039
33284,22582,37372
33188,22620,37245
32993,22639,37244
32908,22641,37213
32924,22644,37072
32952,22658,37164
33049,22622,37088
33228,22593,37216
33280,22580,37105
33264,22575,36823
33264,22587,37025
33180,22622,36991
33004,22636,37044
32908,22644,36974
32917,22655,36900
32933,22647,37013
32992,22617,36895
33104,22583,36903
33124,22575,36961
33088,22591,36840
33048,22596,36885
32928,22614,36906
32796,22644,36780
32736,22647,36928
32728,22665,36800
32754,22656,36767
32808,22630,36805
32980,22596,36505
33016,22581,36694
33028,22588,36812
33028,22592,36621
32976,22639,36453
32836,22669,36596
32812,22667,36696
32852,22663,36756
32900,22661,36740
32988,22617,36586
33124,22604,36612
33214,22588,36313
33176,22587,36608
33124,22613,36545
33024,22632,36496
32912,22660,36536
32901,22660,36252
32961,22662,36548
33002,22644,36333
33148,22637,36455
33376,22604,36206
33457,22599,36336
33448,22589,36457
33424,22599,36372
33304,22641,36324
33136,22660,36324
33040,22678,36292
33052,22655,36230
33088,22630,36276
33180,22637,36028
33332,22603,36244
33396,22597,36228
33396,22591,36189
33348,22596,35913
33264,22639,36257
33096,22661,36084
33056,22660,36132
33112,22654,36021
33172,22662,36036
33256,22631,36080
33396,22602,35972
33514,22589,36140
33504,22617,35888
33468,22609,36008
33360,22635,35901
33192,22649,35837
33132,22682,35949
33140,22674,35716
33124,22657,35886
33152,22621,35878
33212,22601,35860
33120,22618,35832
32862,22611,35718
32476,22605,35900
31932,22637,35678
31272,22655,35753
30606,22669,35596
29988,22670,35740
29520,22660,35653
29364,22637,35542
29572,22613,35615
30152,22608,35633
30948,22620,35605
31884,22633,35565
32888,22664,35348
34044,22674,35321
35176,22688,35532
36676,22680,35504
38628,22678,35432
41116,22682,35422
43449,22644,35392
44856,22649,35447
44740,22636,35148
43388,22645,35212
42168,22681,35332
41112,22705,35431
40416,22688,35174
40396,22687,35190
40588,22668,35201
40472,22681,35212
39844,22639,34944
38956,22616,35062
38124,22612,35220
37356,22626,35008
36520,22668,35076
35580,22673,35047
34680,22695,34776
33912,22679,34868
33289,22668,34878
32864,22638,34977
32576,22631,34791
32316,22616,34880
32033,22609,34727
31788,22639,34902
31536,22661,34684
31317,22673,34780
31177,22687,34781
31158,22685,34765
31137,22673,34517
31196,22644,34636
31300,22616,34757
31344,22607,34848
31328,22621,34756
31292,22623,34778
31208,22660,34806
31048,22672,34783
30964,22681,34692
30997,22689,34789
31060,22679,34660
31180,22644,34717
31337,22619,34757
31412,22621,34628
31424,22615,34743
31437,22623,34780
31360,22653,34545
31224,22666,34652
31192,22682,34358
31232,22689,34553
31256,22677,34556
31332,22642,34496
31486,22629,34212
31592,22613,34348
31612,22620,34300
31628,22628,34261
31584,22647,34292
31428,22689,34239
31408,22693,34120
31424,22684,34231
31464,22669,34244
31576,22647,34045
31740,22635,34054
31832,22625,34111
31832,22617,33861
31832,22621,33957
31782,22674,34032
31636,22692,34064
31572,22688,34048
31564,22685,33920
31624,22669,33996
31712,22645,34012
31876,22625,34012
31992,22608,34029
32004,22614,33784
31964,22649,33928
31872,22666,34055
31740,22681,34033
31661,22687,34068
31673,22697,33840
31724,22681,34053
31802,22653,34183
31948,22628,34145
32036,22613,34168
32060,22608,34183
32044,22639,34124
31965,22656,34196
31808,22679,34100
31736,22696,34278
31752,22690,34212
31784,22677,34248
31852,22676,34272
31996,22633,34260
32032,22626,34401
32028,22621,34303
32044,22631,34366
31972,22657,34148
31832,22681,34278
31748,22703,34456
31808,22695,34310
31880,22697,34439
31988,22656,34457
32208,22639,34477
32317,22636,34269
32392,22628,34400
32452,22653,34500
32432,22677,34500
32358,22695,34328
32352,22697,34580
32456,22696,34497
32548,22688,34468
32736,22685,34548
32976,22653,34528
33148,22652,34311
33220,22630,34556
33268,22644,34564
33265,22672,34524
33196,22691,34572
33204,22716,34421
33316,22709,34585
33420,22692,34468
33614,22664,34566
33836,22662,34578
34000,22638,34461
34080,22644,34610
34124,22644,34661
34096,22680,34444
33976,22693,34560
33949,22701,34582
33960,22718,34566
33956,22704,34445
33945,22666,34536
33984,22636,34668
33968,22631,34476
33836,22649,34591
33700,22654,34407
33504,22664,34640
33253,22692,34584
33056,22702,34566
32976,22708,34595
32892,22699,34612
32902,22660,34401
32992,22639,34624
33012,22639,34512
32948,22629,34628
32852,22641,34528
32704,22672,34716
32481,22695,34544
32376,22707,34524
32404,22693,34628
32428,22685,34660
32500,22660,34668
32648,22636,34655
32732,22644,34556
32712,22631,34756
32696,22629,34593
32596,22662,34694
32456,22686,34610
32368,22695,34784
32376,22712,34693
32360,22693,34732
32440,22653,34575
32608,22629,34700
32681,22624,34778
32666,22633,34678
32637,22642,34695
32564,22663,34755
32408,22689,34773
32368,22692,34597
32376,22686,34592
32420,22700,34757
32493,22663,34804
32628,22633,34607
32692,22625,34697
32696,22618,34716
32672,22639,34612
32580,22659,34641
32436,22681,34616
32384,22688,34663
32364,22687,34428
32382,22670,34426
32464,22648,34521
32616,22636,34582
32692,22621,34700
32648,22628,34540
32598,22620,34565
32488,22668,34589
32358,22687,34474
32316,22689,34616
32332,22674,34553
32356,22685,34327
32400,22652,34520
32520,22628,34576
32612,22607,34500
32585,22629,34301
32576,22620,34485
32492,22639,34497
32325,22652,34484
32232,22684,34337
32244,22685,34514
32300,22668,34544
32380,22636,34412
32536,22616,34365
32644,22621,34447
32648,22620,34437
32641,22620,34322
32600,22643,34502
32452,22669,34397
32364,22683,34412
32376,22676,34222
32408,22669,34180
32501,22644,34208
32648,22616,34300
32741,22602,34477
32704,22612,34360
32680,22616,34188
32600,22632,34413
32444,22681,34487
32364,22681,34405
32380,22669,34405
32412,22663,34423
32479,22631,34189
32628,22627,34469
32720,22608,34496
32729,22607,34338
32692,22612,34407
32644,22629,34177
32500,22674,34486
32440,22678,34343
32416,22673,34392
32432,22656,34295
32512,22629,34444
32662,22599,34338
32736,22591,34366
32736,22594,34388
32712,22614,34268
32664,22633,34419
32524,22652,34318
32460,22673,34102
32464,22670,34255
32480,22655,34401
32580,22631,34271
32752,22596,34311
32820,22588,34044
32812,22597,34181
32792,22599,34284
32764,22617,34124
32620,22663,34206
32568,22663,33957
32584,22661,34052
32656,22654,34044
32696,22620,34205
32856,22614,34012
32932,22601,34068
32928,22604,34021
32924,22613,33999
32832,22628,34032
32677,22652,33780
32604,22655,33864
32644,22662,33730
32676,22650,33836
32748,22625,33823
32925,22596,33868
32988,22575,33949
32988,22577,33908
32964,22586,33889
32896,22637,33798
32780,22648,33697
32694,22652,33780
32706,22640,33532
32748,22649,33641
32820,22618,33727
32972,22599,33765
33082,22569,33748
33052,22578,33526
33052,22596,33661
32988,22613,33433
32828,22637,33612
32728,22644,33582
32764,22644,33468
32784,22636,33526
32816,22607,33564
32948,22582,33356
33020,22568,33297
32984,22569,33476
32964,22580,33476
32885,22600,33465
32724,22645,33481
32632,22653,33272
32640,22653,33242
32656,22646,33313
32700,22612,33490
32860,22582,33316
32964,22578,33292
32984,22576,33373
32940,22578,33372
32852,22609,33242
32696,22629,33375
32616,22645,33372
32656,22634,33316
32708,22628,33270
32737,22599,33292
32862,22573,33076
32948,22573,33185
32920,22574,33332
32904,22588,33132
32828,22596,33220
32660,22622,33221
32580,22633,33054
32600,22629,33052
32601,22620,33164
32677,22604,33141
32848,22572,33124
32905,22574,33148
32866,22564,32996
32824,22565,32964
32744,22588,32979
32621,22608,32969
32560,22639,33057
32532,22631,33148
32628,22625,32992
32732,22590,33028
32889,22580,33031
32996,22557,32839
32972,22557,32852
32924,22564,32900
32860,22588,33028
32712,22616,33036
32608,22636,33063
32628,22633,33036
32644,22617,33052
32760,22592,32973
32920,22570,32866
33020,22544,32959
33024,22569,32748
33008,22572,32832
32944,22589,32996
32792,22615,32904
32712,22614,32876
32708,22615,32956
32720,22623,32735
32808,22593,32821
33020,22558,32989
33108,22543,32843
33100,22539,32945
33036,22567,32740
32940,22583,32727
32736,22610,32804
32636,22608,32994
32628,22623,32908
32572,22607,32932
32600,22578,32775
32714,22548,32828
32782,22543,32932
32720,22543,32864
32662,22553,32980
32576,22594,32807
32396,22599,32916
32316,22606,32712
32332,22633,32897
32424,22612,32884
32536,22581,32901
32708,22545,32913
32849,22550,32687
32880,22548,32836
32868,22555,32967
32812,22569,32876
32672,22597,32889
32588,22617,32765
32584,22615,32824
32612,22603,32946
32640,22574,32912
32828,22556,32836
32912,22543,32759
32920,22541,32788
32912,22551,32869
32897,22586,32879
32796,22611,32703
32772,22615,32660
32832,22605,32732
32888,22601,32718
32936,22566,32645
33076,22535,32743
33112,22551,32850
33076,22534,32820
33042,22535,32852
32968,22580,32701
32812,22596,32854
32732,22601,32748
32764,22598,32828
32797,22607,32688
32908,22573,32852
33112,22543,32868
33208,22520,32735
33212,22525,32804
33196,22532,32603
33116,22575,32668
32946,22596,32676
32880,22612,32775
32877,22607,32768
32856,22589,32837
32904,22560,32667
33016,22544,32679
33108,22525,32761
33120,22518,32558
33100,22543,32624
33008,22564,32788
32809,22577,32647
32676,22590,32729
32548,22613,32597
32389,22580,32695
32156,22553,32728
31896,22540,32552
31436,22523,32727
30884,22520,32590
30212,22540,32688
29500,22564,32573
28980,22587,32663
28829,22594,32620
29217,22594,32692
29820,22594,32546
30816,22568,32576
32216,22540,32656
33680,22524,32562
35280,22530,32712
36876,22563,32616
38820,22581,32456
41228,22596,32704
43753,22615,32472
45704,22612,32693
46492,22633,32647
45812,22604,32647
44624,22554,32532
43472,22596,32409
42272,22556,32610
41596,22569,32484
41516,22551,32424
41136,22646,32468
40244,22611,32558
39076,22604,32524
38112,22582,32327
37196,22570,32541
36409,22534,32452
35568,22530,32272
34648,22516,32493
33788,22527,32352
33013,22545,32391
32292,22581,32441
31688,22597,32364
31296,22584,32208
31032,22598,32360
30910,22560,32344
30944,22532,32205
30945,22519,32361
30874,22517,32352
30808,22518,32221
30752,22549,32263
30564,22574,32429
30460,22576,32296
30445,22597,32428
30437,22583,32252
30476,22553,32484
30620,22523,32393
30700,22509,32516
30704,22508,32349
30672,22516,32570
30599,22545,32484
30461,22575,32392
30402,22584,32636
30428,22570,32576
30452,22578,32449
30544,22542,32469
30736,22513,32578
30848,22502,32448
30848,22514,32629
30856,22524,32426
30808,22542,32519
30672,22564,32358
30601,22580,32491
30648,22573,32350
30680,22566,32447
30772,22532,32319
30952,22523,32428
31072,22514,32373
31121,22500,32177
31136,22513,32328
31024,22546,32276
30880,22560,32341
30824,22584,32108
30868,22564,32313
30904,22556,32345
30997,22545,32217
31160,22510,32309
31260,22500,32305
31252,22500,32173
31216,22510,32290
31128,22532,32380
30984,22556,32316
30852,22569,32305
30876,22569,32349
30928,22568,32245
30992,22543,32196
31132,22504,32460
31208,22500,32293
31180,22494,32432
31148,22493,32343
31064,22532,32412
30884,22559,32513
30816,22564,32332
30836,22564,32460
30828,22562,32519
30912,22535,32601
31056,22503,32468
31140,22488,32628
31132,22487,32620
31089,22512,32604
31052,22535,32740
30908,22556,32660
30844,22573,32761
30848,22554,32751
30880,22565,32639
30996,22533,32741
31172,22505,32953
31240,22500,32855
31260,22499,32752
31248,22526,32927
31164,22544,33071
31040,22564,32982
31018,22572,32994
31080,22567,33065
31140,22565,32868
31328,22540,32966
31580,22513,33150
31756,22500,33192
31840,22503,33074
31888,22511,33160
31884,22534,33198
31844,22577,32993
31864,22572,33223
32004,22567,33246
32148,22564,33250
32336,22534,33275
32580,22517,33287
32768,22502,33076
32876,22500,33261
33000,22513,33308
32992,22560,33353
32944,22577,33376
32960,22581,33199
33088,22576,33275
33221,22567,33368
33404,22539,33485
33616,22508,33364
33776,22502,33444
33844,22516,33480
33833,22516,33381
33748,22544,33481
33532,22565,33524
33389,22574,33540
33337,22589,33350
33304,22577,33437
33325,22539,33507
33366,22517,33580
33312,22507,33616
33200,22509,33703
33120,22528,33648
32948,22535,33669
32736,22564,33452
32632,22586,33775
32576,22573,33594
32536,22557,33736
32552,22544,33688
32676,22514,33796
32700,22500,33732
32680,22500,33793
32640,22517,33640
32508,22545,33737
32372,22572,33900
32328,22569,33750
32320,22565,33857
32341,22570,33680
32416,22535,33846
32596,22503,33764
32672,22508,33669
32684,22498,33813
32672,22520,33940
32560,22542,33948
32409,22557,33856
32340,22567,34004
32368,22564,34012
32436,22556,33917
32526,22551,34029
32668,22513,33924
32768,22500,34077
32772,22508,34055
32744,22503,34004
32680,22535,33871
32556,22564,33984
32472,22564,33965
32468,22565,34048
32470,22564,33996
32532,22526,33980
32676,22496,33883
32768,22504,34005
32756,22500,33967
32701,22503,34060
32620,22503,33940
32468,22566,34018
32424,22561,33933
32492,22583,34125
32484,22556,34007
32528,22543,34038
32660,22509,34031
32708,22495,33926
32708,22496,34017
32680,22502,34107
32560,22526,33984
32396,22556,34032
32407,22581,34038
32420,22576,33796
32412,22564,33973
32484,22533,34085
32620,22507,33888
32669,22498,34018
32664,22485,33772
32644,22504,33922
32553,22533,34077
32388,22569,33901
32334,22568,33799
32324,22566,33956
32344,22551,34023
32440,22554,33942
32584,22506,33815
32648,22498,33957
32656,22500,34077
32620,22503,33969
32480,22532,34017
32320,22583,34008
32268,22577,33796
32264,22569,34023
32276,22564,34088
32400,22528,33966
32544,22511,33973
32608,22499,33972
32612,22499,34035
32596,22510,34040
32516,22535,33948
32372,22555,33957
32292,22564,34080
32312,22560,34102
32352,22569,34063
32458,22534,33860
32632,22512,34004
32704,22491,34154
32688,22524,33988
32676,22517,34127
32596,22535,34044
32470,22562,34014
32406,22580,34128
32412,22572,34064
32424,22564,34023
32529,22530,34127
32724,22518,34050
32828,22506,34206
32852,22513,34116
32864,22502,33887
32780,22530,34020
32636,22570,34143
32580,22578,34125
32616,22565,34016
32672,22569,34116
32764,22542,34055
32954,22516,33989
33012,22503,34102
33004,22501,33877
32976,22524,34100
32908,22535,34084
32760,22564,34036
32716,22587,33816
32724,22569,34112
32756,22576,34005
32864,22531,34028
33044,22506,33820
33108,22528,33888
33108,22522,34021
33064,22520,34034
32997,22544,33894
32865,22564,33941
32809,22567,33910
32848,22592,33677
32880,22572,33780
32964,22544,33945
33096,22516,33764
33134,22509,33838
33128,22508,33686
33140,22529,33820
33020,22547,33689
32868,22564,33725
32821,22574,33708
32832,22578,33718
32881,22562,33592
32996,22557,33741
33156,22530,33575
33240,22512,33622
33224,22520,33613
33204,22528,33484
33108,22548,33613
32932,22569,33464
32884,22581,33549
32873,22572,33412
32876,22586,33492
33004,22559,33518
33164,22529,33405
33232,22525,33477
33196,22520,33240
33144,22524,33520
33028,22549,33412
32860,22572,33401
32788,22598,33185
32836,22584,33284
32864,22569,33262
32932,22556,33153
33078,22532,33372
33162,22508,33325
33140,22505,33349
33132,22530,33349
33040,22555,33218
32858,22592,33145
32780,22596,33256
32785,22580,33300
32840,22587,33183
32932,22551,33338
33092,22519,33208
33112,22526,33076
33096,22524,33287
33072,22529,33239
32965,22566,33218
32788,22587,33112
32736,22584,33204
32729,22600,33141
32788,22587,33108
32892,22546,33172
33064,22540,33082
33117,22528,33084
33104,22519,33145
33092,22556,32997
32984,22576,33100
32828,22592,33165
32788,22592,32961
32824,22618,33133
32844,22588,33061
32940,22559,32908
33056,22535,32986
33104,22524,33148
33069,22529,33025
33056,22569,32932
32948,22581,33061
32785,22596,32913
32744,22600,33100
32776,22593,32990
32797,22600,32804
32900,22564,33047
33052,22540,33009
33064,22524,32865
33060,22557,33057
33036,22553,32920
32928,22581,32804
32808,22591,33004
32744,22601,32956
32796,22612,32961
32821,22594,32836
32924,22567,33016
33072,22544,32840
33104,22535,32929
33088,22542,32956
33057,22549,32784
32920,22572,33004
32770,22617,32846
32728,22620,32949
32713,22605,32806
32708,22596,32991
32796,22559,32866
32912,22555,32925
32900,22545,32784
32845,22548,32965
32828,22549,32800
32672,22578,32903
32512,22623,32744
32420,22612,32975
32397,22617,32804
32432,22599,32900
32528,22583,32681
32684,22560,32903
32772,22556,32948
32772,22561,32820
32797,22559,32889
32750,22590,32684
32656,22615,32768
32660,22612,32832
32736,22631,32884
32776,22606,32745
32897,22587,32937
33005,22559,32852
33024,22548,32841
32996,22549,32665
32964,22561,32801
32856,22607,32903
32768,22628,32831
32736,22636,32644
32800,22628,32831
32876,22611,32900
33084,22574,32831
33258,22582,32857
33332,22575,32682
33300,22575,32900
33268,22570,32812
33124,22608,32840
32908,22623,32692
32817,22628,32869
32808,22647,32731
32860,22625,32839
32956,22593,32640
33133,22563,32785
33184,22561,32785
33165,22566,32696
33128,22568,32823
33004,22604,32676
32876,22618,32672
32840,22629,32800
32860,22629,32767
32852,22629,32775
32944,22596,32562
33069,22568,32767
33145,22571,32820
33128,22577,32711
33092,22598,32735
32968,22621,32804
32800,22640,32740
32756,22630,32592
32725,22633,32706
32713,22633,32716
32816,22596,32604
32852,22576,32589
32704,22589,32705
32416,22583,32488
32008,22589,32486
31360,22615,32549
30660,22639,32620
29960,22644,32669
29368,22641,32724
28992,22633,32660
28968,22607,32557
29484,22586,32526
30141,22580,32615
31040,22596,32634
32269,22594,32623
33484,22631,32600
34929,22651,32412
36524,22662,32392
38528,22656,32384
41080,22684,32460
43864,22632,32632
46072,22629,32476
46996,22605,32496
46336,22618,32562
44884,22670,32340
43548,22679,32400
42164,22693,32522
41280,22666,32444
41148,22663,32464
41060,22661,32468
40432,22628,32233
39424,22606,32332
38508,22594,32261
37548,22597,32317
36592,22601,32369
35520,22629,32332
34448,22681,32194
33592,22672,32262
32924,22666,32276
32328,22648,32044
31956,22615,32095
31684,22596,32071
31440,22588,32167
31222,22596,32244
31040,22615,32076
30832,22650,32144
30652,22663,32182
30588,22663,32204
30564,22663,32036
30536,22645,32169
30616,22628,32205
30713,22604,32220
30732,22603,32294
30701,22598,32109
30701,22611,32190
30576,22639,32314
30412,22658,32421
30428,22671,32285
30476,22677,32273
30524,22658,32390
30648,22628,32396
30820,22604,32200
30876,22596,32263
30856,22608,32384
30816,22612,32411
30692,22650,32276
30580,22663,32405
30600,22672,32431
30652,22667,32310
30688,22653,32340
30812,22619,32113
30992,22612,32295
31076,22604,32319
31068,22605,32224
31053,22604,32040
30948,22647,32185
30856,22669,32153
30820,22668,32089
30852,22654,32172
30904,22650,31965
31038,22628,32080
31170,22607,32135
31241,22596,32119
31248,22610,31950
31240,22616,31953
31136,22647,32036
30972,22661,32116
30918,22668,32111
30960,22664,32124
31024,22649,32112
31136,22618,32007
31252,22601,32148
31284,22613,31956
31264,22605,32013
31212,22619,32029
31089,22644,32192
30988,22661,32081
30964,22668,32224
30972,22672,32102
31004,22656,32317
31096,22628,32167
31256,22601,32303
31300,22597,32305
31268,22604,32356
31264,22613,32368
31148,22644,32185
31028,22668,32276
30988,22668,32452
31000,22671,32447
31056,22661,32497
31200,22629,32388
31345,22618,32528
31400,22607,32359
31384,22618,32510
31352,22625,32657
31240,22654,32524
31128,22665,32631
31128,22692,32661
31136,22680,32476
31201,22668,32574
31372,22632,32653
31557,22616,32766
31668,22612,32720
31744,22613,32742
31824,22639,32800
31800,22659,32676
31717,22689,32836
31776,22690,32859
31888,22689,32646
31976,22676,32828
32152,22639,32917
32396,22616,32871
32549,22627,32924
32644,22618,32940
32716,22628,32737
32700,22658,32787
32672,22693,32848
32740,22696,32952
32888,22690,33063
32988,22684,32903
33184,22653,33020
33420,22624,33060
33534,22615,33073
33624,22647,32906
33677,22647,33041
33629,22676,33184
33492,22696,33079
33484,22688,33146
33556,22685,32985
33556,22687,33181
33624,22653,33275
33700,22629,33112
33688,22623,33225
33580,22625,33238
33440,22649,33143
33244,22668,33353
32996,22692,33285
32868,22689,33208
32800,22684,33308
32764,22676,33356
32804,22668,33372
32884,22645,33176
32893,22632,33287
32832,22633,33412
32792,22645,33480
32652,22669,33516
32472,22684,33353
32384,22690,33485
32388,22681,33264
32400,22679,33530
32522,22642,33429
32628,22614,33380
32676,22629,33632
32650,22625,33557
32660,22624,33375
32544,22652,33649
32408,22677,33648
32340,22700,33526
32368,22692,33655
32404,22681,33669
32524,22650,33554
32700,22616,33740
32716,22615,33783
32708,22617,33594
32668,22618,33665
32508,22660,33752
32359,22676,33760
32352,22685,33536
32381,22681,33704
32396,22671,33788
32528,22636,33789
32676,22621,33570
32728,22608,33633
32752,22604,33759
32736,22619,33874
32608,22658,33764
32464,22690,33799
32381,22685,33693
32408,22676,33796
32444,22663,33788
32532,22637,33808
32660,22615,33806
32714,22606,33811
32680,22606,33582
32655,22616,33799
32509,22644,33649
32340,22666,33668
32296,22660,33785
32308,22654,33846
32340,22664,33845
32438,22629,33756
32560,22599,33752
32568,22591,33780
32544,22613,33529
32540,22615,33633
32432,22643,33716
32300,22657,33816
32240,22663,33640
32276,22676,33740
32320,22653,33549
32448,22629,33509
32636,22597,33569
32660,22600,33661
32608,22596,33746
32576,22600,33792
32462,22633,33614
32333,22668,33716
32296,22660,33718
32309,22661,33577
32380,22639,33716
32484,22631,33773
32596,22602,33656
32709,22590,33748
32680,22606,33616
32644,22606,33773
32520,22637,33828
32388,22657,33844
32328,22653,33799
32324,22650,33734
32360,22660,33692
32476,22615,33721
32632,22593,33790
32696,22590,33799
32668,22597,33625
32656,22597,33791
32548,22631,33580
32428,22642,33793
32404,22663,33724
32480,22659,33824
32520,22639,33716
32588,22608,33784
32652,22572,33909
32788,22591,33716
32768,22598,33799
32750,22593,33848
32680,22623,33618
32576,22640,33756
32544,22648,33908
32552,22661,33740
32573,22644,33788
32680,22612,33830
32816,22594,33812
32888,22574,33580
32896,22573,33684
32865,22604,33813
32608,22631,33797
32496,22647,33748
32564,22647,33743
32609,22637,33524
32629,22631,33629
32756,22629,33753
32924,22590,33645
32978,22580,33703
33024,22567,33484
32984,22581,33460
32864,22631,33567
32712,22637,33703
32734,22636,33507
32784,22636,33573
32858,22645,33589
32965,22604,33344
33116,22577,33333
33160,22565,33407
33177,22570,33374
33128,22583,33345
33048,22623,33473
32948,22635,33329
32869,22639,33380
32848,22631,33368
32864,22621,33104
32960,22609,33265
33132,22582,33346
33181,22564,33196
33180,22578,33108
33184,22575,33141
33076,22604,33121
32908,22629,33096
32800,22630,33060
32878,22653,32950
32932,22631,33004
33084,22599,33020
33229,22573,32994
33296,22560,32756
33303,22556,32849
33280,22591,32972
33148,22608,32948
32997,22627,32796
32976,22631,32804
33004,22623,32806
33028,22611,32804
33137,22605,32784
33264,22575,32756
33312,22561,32537
33276,22562,32548
33252,22569,32596
33128,22620,32733
32984,22635,32735
32916,22639,32676
32928,22629,32564
32900,22602,32628
33004,22590,32440
33137,22571,32610
33212,22551,32501
33180,22559,32564
33148,22565,32359
33056,22599,32572
32941,22613,32536
32892,22620,32496
32877,22626,32351
32892,22611,32381
32988,22567,32540
33120,22573,32452
33185,22548,32255
33164,22547,32300
33152,22551,32481
33124,22594,32320
32916,22609,32401
32832,22615,32377
32896,22607,32171
32912,22615,32326
32980,22575,32412
33104,22552,32344
33156,22535,32211
33120,22535,32308
33072,22564,32315
32960,22584,32108
32825,22608,32133
32752,22607,32128
32764,22600,32128
32800,22590,32192
32908,22565,32224
33072,22548,32296
33096,22540,32134
33112,22524,32216
33132,22555,32039
33036,22572,32127
32896,22591,32237
32861,22601,32184
32904,22612,32108
32940,22589,32198
33016,22570,31980
33188,22533,32056
33236,22545,32228
33236,22535,32148
33201,22532,31985
33128,22564,31980
32984,22598,32192
32909,22603,32065
32925,22596,32161
32944,22582,32156
33036,22549,32005
33168,22533,32085
33260,22525,32206
33248,22524,32128
33200,22541,32025
33076,22554,32149
32916,22575,32142
32868,22590,32135
32877,22606,32148
32876,22586,31938
32960,22546,32058
33112,22516,32121
33172,22518,32135
33172,22516,31972
33160,22535,32013
33104,22542,32164
32920,22594,32101
32848,22593,31934
32868,22583,32111
32880,22565,32032
32944,22535,32103
33092,22529,31919
33112,22519,32049
33088,22512,32176
33061,22520,32133
32896,22565,32022
32672,22572,32092
32594,22580,32110
32588,22596,31909
32612,22588,31908
32688,22549,31913
32864,22519,31992
32900,22516,32128
32872,22517,32116
32824,22508,32057
32732,22557,32084
32628,22573,32110
32624,22585,32015
32644,22584,32109
32688,22560,31913
32824,22534,31980
32900,22511,32056
33084,22509,32102
33116,22508,32117
33072,22522,32007
32896,22544,32169
32744,22564,32025
32696,22570,32100
32708,22561,32116
32756,22556,32124
32885,22524,31930
33102,22525,31990
33237,22505,32176
33348,22505,32183
33396,22518,32012
33332,22533,32140
33184,22559,31946
33100,22583,32010
33092,22564,32129
33050,22549,32134
33088,22526,32157
33236,22506,31980
33292,22500,32124
33292,22491,32192
33288,22500,32080
33168,22540,32118
33013,22557,32172
33013,22570,32180
33020,22559,32172
33008,22542,31968
33132,22509,32006
33296,22487,32044
33348,22499,32182
33340,22501,32228
33293,22503,32228
33208,22524,32212
33044,22557,32236
32992,22551,32185
33016,22561,32157
33056,22551,32150
33128,22508,32220
33280,22487,32064
33280,22493,32176
33216,22488,32180
33144,22493,31993
32928,22513,32110
32572,22535,32200
32192,22542,32220
31732,22551,32168
31220,22535,31965
30704,22505,32111
30168,22484,32224
29692,22485,32156
29436,22480,31984
29448,22481,32237
29816,22518,32095
30309,22540,32180
31328,22540,31989
32560,22543,32066
33984,22564,32138
35660,22534,32149
37508,22500,32224
39720,22495,32183
42324,22485,32090
44832,22580,32044
46396,22565,32144
46560,22570,32172
45308,22565,31975
43944,22561,32007
42692,22577,32164
41592,22530,32108
41168,22550,32124
41244,22491,32076
40984,22493,32153
40060,22473,32023
38832,22503,32045
37788,22524,32060
36788,22557,31844
35888,22548,31900
35008,22535,32054
34200,22500,32053
33544,22476,31902
32952,22478,31967
32384,22477,31956
31908,22480,31796
31432,22514,31881
31017,22527,31980
30733,22535,31936
30636,22538,31851
30614,22523,31935
30648,22495,31766
30776,22468,31822
30857,22463,31879
30824,22459,32047
30784,22477,31933
30660,22500,31936
30484,22524,32077
30424,22534,31911
30440,22519,31968
30456,22524,32142
30544,22492,32148
30680,22466,32103
30776,22452,32192
30808,22452,32008
30784,22460,32153
30697,22491,32224
30556,22522,32099
30564,22526,32300
30596,22521,32172
30624,22511,32121
30728,22488,32213
30944,22465,32226
31028,22457,31996
31016,22451,31996
31008,22452,31969
30924,22490,31948
30828,22504,31997
30822,22516,32067
30869,22521,32148
30872,22508,31982
30940,22481,32088
31108,22452,31936
31232,22452,32119
31240,22452,31936
31224,22455,32030
31136,22482,32036
30957,22505,32054
30880,22517,31900
30936,22508,32109
30988,22519,31941
31080,22479,32069
31232,22455,31855
31320,22438,31938
31336,22439,32116
31316,22445,31996
31232,22491,32133
31060,22510,31996
31020,22509,32134
31044,22508,32192
31116,22509,32076
31208,22482,32200
31356,22444,32070
31424,22440,32139
31404,22456,32286
31364,22457,32212
31260,22485,32352
31092,22511,32164
31029,22529,32366
31008,22526,32332
31020,22509,32468
31120,22480,32279
31276,22468,32393
31336,22454,32584
31326,22453,32621
31284,22456,32492
31242,22486,32641
31093,22528,32552
31024,22532,32495
31053,22526,32599
31077,22513,32716
31168,22493,32846
31328,22461,32733
31424,22454,32808
31464,22455,32861
31482,22486,32884
31436,22498,32901
31340,22529,32924
31364,22532,32717
31421,22540,32831
31505,22522,32984
31712,22496,33061
31936,22469,33068
32116,22460,32921
32222,22468,32948
32288,22495,33063
32298,22525,33094
32252,22535,33108
32321,22550,33121
32420,22543,33148
32532,22531,32942
32705,22500,33098
32952,22487,33244
33140,22465,33109
33244,22465,33224
33341,22477,33252
33392,22521,33092
33332,22535,33292
33324,22559,33374
33408,22533,33279
33496,22548,33334
33676,22514,33374
33821,22480,33145
33820,22467,33321
33864,22476,33412
33808,22481,33486
33652,22521,33472
33368,22542,33380
33212,22542,33488
33141,22537,33312
33084,22547,33412
33096,22506,33501
33153,22480,33622
33120,22491,33657
33052,22481,33605
32952,22485,33531
32788,22507,33604
32576,22525,33657
32488,22550,33557
32456,22534,33730
32428,22524,33757
32484,22511,33600
32609,22474,33726
32685,22468,33752
32628,22475,33772
32592,22482,33561
32516,22498,33824
32356,22535,33697
32276,22534,33837
32320,22535,33649
32356,22526,33892
32420,22500,33855
32601,22471,33764
32664,22479,33879
32624,22470,33916
32624,22471,33744
32556,22494,33710
32412,22516,33826
32342,22526,33977
32365,22520,33986
32407,22514,33925
32520,22495,33932
32668,22461,34047
32740,22448,34005
32712,22475,33953
32688,22479,34020
32628,22503,34070
32501,22516,33836
32448,22526,33957
32441,22532,34141
32432,22516,34061
32520,22498,33998
32706,22464,34085
32800,22450,33856
32792,22472,33988
32788,22464,34161
32708,22486,34044
32556,22508,34086
32476,22517,34085
32456,22533,33844
32480,22513,33961
32512,22489,34100
32704,22465,34136
32804,22445,34030
32792,22463,34049
32772,22468,33961
32660,22489,34112
32486,22519,33941
32424,22526,34036
32420,22509,34068
32464,22500,33825
32512,22473,33870
32640,22468,34039
32700,22446,34028
32736,22445,34038
32704,22465,34055
32636,22489,33823
32468,22508,33853
32380,22527,33932
32372,22510,34092
32384,22503,33973
32464,22489,34028
32644,22457,34052
32728,22447,33932
32709,22439,34060
32676,22455,34153
32608,22492,34004
32436,22508,34063
32361,22508,34078
32404,22534,33978
32448,22509,34080
32512,22478,34128
32664,22452,34196
32744,22439,34114
32733,22463,34077
32732,22463,34028
32669,22469,34093
32520,22505,34112
32453,22501,34177
32468,22520,33935
32480,22509,34061
32552,22476,34226
32736,22449,34234
32865,22465,34256
32840,22452,34092
32860,22452,34152
32816,22475,34204
32649,22497,34210
32608,22502,34221
32620,22519,34217
32640,22501,34095
32740,22482,34204
32900,22442,34254
32992,22449,34204
32972,22450,34233
32976,22451,33988
32904,22471,34151
32720,22518,34229
32653,22508,34205
32704,22504,34199
32756,22490,34063
32873,22485,34246
32997,22452,34239
33072,22437,34180
33092,22447,34169
33072,22434,34023
33036,22486,34112
32904,22504,34228
32832,22514,34024
32825,22497,34052
32900,22493,34112
32968,22463,34116
33080,22441,34108
33196,22455,34080
33196,22447,34072
33172,22444,33812
33086,22471,33822
32936,22488,33890
32876,22524,33964
32900,22512,34038
32925,22501,33916
33005,22472,33830
33152,22444,33904
33228,22431,33913
33216,22436,33888
33197,22440,33624
33104,22460,33730
32952,22492,33797
32868,22510,33881
32884,22501,33718
32876,22493,33752
32952,22463,33756
33120,22437,33697
33216,22420,33727
33216,22431,33709
33224,22439,33668
33168,22481,33543
32984,22505,33540
32869,22504,33604
32872,22505,33668
32900,22490,33589
32976,22465,33593
33124,22440,33598
33248,22448,33336
33228,22444,33436
33180,22456,33437
33140,22470,33520
32993,22500,33501
32949,22508,33507
33017,22500,33558
33052,22503,33380
33112,22476,33472
33242,22444,33484
33328,22433,33303
33332,22440,33508
33316,22447,33345
33252,22471,33400
33057,22493,33429
32968,22512,33239
32952,22508,33429
32948,22496,33342
33040,22471,33370
33200,22455,33389
33264,22439,33236
33240,22452,33122
33205,22449,33392
33124,22479,33316
32952,22492,33335
32864,22513,33223
32876,22513,33310
32908,22497,33208
32960,22489,33260
33076,22462,33258
33180,22445,33029
33168,22448,33112
33140,22456,33222
33049,22469,33287
32900,22503,33096
32828,22508,33216
32868,22510,33073
32868,22519,33240
32900,22476,33164
33088,22448,32945
33172,22459,33168
33164,22452,33096
33128,22454,33143
33032,22489,33009
32876,22505,33200
32796,22510,33097
32797,22532,33116
32812,22513,32940
32905,22484,33164
33062,22480,33040
33136,22459,33047
33124,22452,33092
33072,22462,32958
32996,22499,33132
32840,22524,32950
32780,22512,33075
32804,22516,32941
32832,22519,33117
32873,22492,33043
33028,22460,33053
33092,22457,32926
33112,22463,33057
33104,22448,33069
33036,22478,32928
32936,22526,33022
32840,22533,33070
32840,22517,32997
32848,22527,32799
32944,22491,32888
33092,22465,33084
33168,22445,32932
33204,22468,33009
33164,22479,32791
33096,22493,32862
32928,22519,32869
32868,22535,32997
32892,22534,32775
32900,22527,32855
32964,22492,33014
33096,22466,32916
33144,22454,32948
33180,22452,32980
33164,22458,32806
33046,22500,32974
32860,22527,32856
32800,22530,32964
32808,22532,32749
32824,22514,32821
32876,22489,33007
33016,22463,32925
33088,22452,32890
33072,22452,32856
33004,22479,32864
32910,22500,32897
32728,22521,32908
32656,22528,32932
32652,22520,32710
32660,22528,32943
32704,22492,32856
32768,22472,32817
32820,22452,32932
32797,22478,32914
32748,22468,32709
32664,22495,32945
32493,22518,32944
32408,22526,32828
32428,22523,32813
32388,22513,32871
32388,22506,32916
32528,22478,32696
32608,22463,32750
32624,22458,32868
32624,22471,32889
32608,22485,32960
32496,22510,32795
32440,22535,32886
32456,22530,32684
32452,22514,32757
32512,22494,32933
32712,22477,32788
32852,22463,32880
32892,22460,32872
32916,22453,32773
32864,22500,32888
32733,22522,32672
32689,22532,32804
32732,22530,32806
32764,22526,32786
32800,22511,32765
32920,22483,32940
32948,22458,32815
32916,22460,32820
32924,22458,32884
32884,22484,32670
32744,22497,32804
32704,22512,32880
32724,22510,32880
32740,22501,32764
32852,22479,32868
33040,22474,32661
33153,22457,32756
33140,22457,32891
33092,22461,32752
33016,22474,32868
32900,22510,32647
32820,22508,32850
32820,22512,32933
32844,22501,32866
32904,22476,32740
33080,22455,32804
33162,22444,32797
33148,22444,32774
33125,22452,32751
33024,22468,32767
32864,22497,32887
32780,22518,32843
32820,22506,32646
32812,22501,32729
32823,22471,32900
32900,22441,32865
32881,22427,32724
32628,22445,32823
32268,22446,32713
31708,22466,32700
31021,22495,32884
30380,22514,32708
29748,22504,32832
29217,22499,32775
29020,22476,32719
29192,22452,32813
29793,22440,32589
30468,22436,32700
31516,22461,32793
32692,22485,32799
33956,22500,32580
35492,22536,32802
37228,22532,32661
39436,22510,32788
42068,22508,32641
44744,22485,32766
46520,22452,32708
46916,22501,32740
45680,22478,32540
44172,22499,32573
42688,22516,32647
41372,22567,32736
40724,22528,32663
40700,22508,32660
40590,22528,32512
39920,22467,32662
38892,22464,32484
37997,22436,32583
37036,22496,32398
36061,22492,32432
35020,22516,32579
34040,22511,32456
33228,22532,32492
32552,22524,32466
32064,22494,32445
31740,22468,32280
31448,22444,32377
31188,22443,32408
31000,22461,32192
30844,22477,32310
30648,22500,32326
30492,22508,32388
30461,22524,32286
30432,22508,32287
30468,22484,32428
30592,22454,32516
30652,22449,32390
30588,22449,32527
30536,22444,32529
30504,22482,32381
30368,22500,32456
30288,22505,32605
30272,22518,32600
30360,22505,32471
30456,22480,32526
30596,22452,32506
30717,22443,32513
30700,22449,32594
30684,22446,32712
30653,22471,32612
30516,22495,32633
30488,22508,32658
30548,22508,32420
30572,22493,32504
30630,22466,32647
30784,22438,32640
30882,22437,32480
30904,22436,32553
30928,22445,32552
30880,22461,32544
30758,22483,32332
30708,22500,32389
30716,22500,32496
30724,22486,32580
30840,22466,32571
30992,22429,32456
31094,22416,32442
31124,22433,32502
31096,22429,32292
30980,22455,32428
30792,22477,32517
30741,22492,32519
30776,22485,32407
30860,22471,32497
30952,22455,32534
31111,22424,32371
31189,22409,32585
31201,22421,32626
31224,22417,32463
31156,22442,32584
31036,22471,32636
30930,22487,32652
30940,22480,32673
30964,22472,32704
31060,22446,32711
31200,22416,32561
31268,22407,32655
31240,22400,32679
31232,22421,32817
31158,22438,32850
31045,22466,32871
30924,22470,32789
30924,22472,32834
30948,22473,32974
31028,22447,32775
31148,22410,32908
31248,22398,33119
31300,22406,32993
31292,22415,33100
31237,22439,33156
31101,22461,32944
31060,22468,32975
31096,22464,33004
31100,22469,33068
31173,22445,33165
31373,22418,33284
31477,22397,33415
31532,22413,33280
31636,22410,33340
31660,22432,33426
31592,22456,33306
31620,22476,33511
31720,22479,33287
31832,22465,33413
32006,22437,33614
32264,22409,33616
32440,22403,33648
32532,22398,33693
32608,22399,33585
32645,22427,33661
32596,22461,33657
32625,22466,33711
32772,22474,33663
32896,22468,33764
33016,22451,33724
33241,22413,33868
33445,22399,33748
33564,22414,33863
33648,22407,33812
33684,22429,33812
33632,22460,33945
33632,22454,33852
33692,22471,34028
33688,22459,34006
33729,22435,33796
33868,22416,34087
33892,22396,34032
33840,22404,34097
33728,22402,33900
33584,22430,34238
33319,22454,34161
33148,22455,34005
33064,22473,34289
33000,22448,34256
32952,22414,34047
33018,22410,34356
33044,22393,34224
32904,22390,34356
32812,22390,34140
32680,22411,34446
32481,22445,34428
32392,22447,34334
32404,22458,34561
32440,22439,34370
32512,22413,34522
32636,22388,34541
32708,22383,34432
32724,22380,34345
32688,22377,34528
32608,22415,34493
32445,22439,34508
32336,22436,34636
32332,22429,34647
32317,22445,34714
32416,22413,34478
32616,22380,34764
32729,22368,34677
32744,22363,34583
32696,22385,34836
32625,22396,34823
32456,22441,34769
32381,22438,34772
32398,22425,34902
32389,22419,34767
32428,22397,34916
32604,22388,35012
32724,22365,34943
32676,22360,34760
32600,22377,35008
32520,22407,34945
32352,22409,34771
32297,22436,35020
32360,22435,34973
32392,22409,35021
32476,22415,34901
32672,22372,35116
32732,22359,35023
32728,22356,34984
32717,22376,35033
32676,22392,34957
32512,22421,35073
32404,22417,34962
32381,22437,35038
32388,22420,35084
32472,22388,34981
32640,22372,34985
32704,22359,35102
32716,22351,34992
32684,22372,35164
32577,22391,35089
32368,22416,34855
32276,22419,35116
32276,22436,35012
32296,22415,35137
32380,22397,35041
32604,22348,35193
32696,22354,35148
32652,22348,35048
32568,22372,35223
32480,22396,35137
32365,22410,35175
32286,22419,34924
32340,22409,35260
32380,22429,35142
32460,22384,35226
32604,22360,34999
32664,22340,35260
32678,22356,35236
32684,22367,35272
32660,22375,35220
32505,22404,35385
32392,22412,35308
32374,22404,35116
32344,22409,35320
32420,22380,35460
32592,22348,35388
32660,22332,35399
32704,22344,35240
32712,22359,35464
32616,22378,35510
32452,22392,35458
32404,22421,35368
32408,22409,35549
32456,22397,35437
32504,22368,35264
32696,22344,35508
32820,22341,35508
32829,22341,35504
32820,22339,35285
32748,22373,35569
32656,22392,35522
32632,22398,35559
32624,22423,35471
32612,22404,35600
32732,22375,35556
32888,22333,35461
32956,22340,35668
32884,22332,35552
32812,22330,35316
32764,22376,35531
32644,22398,35541
32592,22398,35566
32608,22408,35300
32648,22394,35473
32761,22360,35662
32925,22362,35520
33013,22338,35561
33000,22340,35411
32968,22336,35615
32844,22375,35510
32740,22388,35264
32733,22420,35525
32764,22400,35420
32814,22385,35501
32916,22376,35384
33068,22341,35576
33141,22326,35340
33144,22335,35455
33076,22328,35349
32932,22360,35489
32768,22404,35384
32680,22401,35407
32684,22397,35241
32710,22407,35445
32792,22367,35356
32948,22356,35092
33032,22334,35369
33036,22338,35248
33020,22337,35276
32950,22374,35028
32768,22392,35244
32704,22394,35188
32724,22408,35244
32784,22400,35111
32848,22357,35292
33024,22353,35101
33088,22337,35189
33072,22326,35061
33044,22354,35207
32956,22368,35040
32856,22390,35156
32784,22412,35044
32760,22395,35228
32784,22389,35106
32856,22357,35117
32996,22351,35116
33021,22334,35037
32996,22330,35129
32968,22364,35108
32884,22373,35079
32721,22393,35028
32636,22402,35104
32632,22393,35079
32676,22397,34890
32824,22369,35113
33000,22337,34956
33092,22345,35079
33088,22336,34983
33048,22350,34958
32932,22359,35156
32724,22407,34929
32685,22407,35061
32708,22400,34948
32752,22388,35039
32840,22369,35003
32976,22342,35031
33000,22334,34782
32984,22340,34809
32960,22338,34981
32876,22361,34949
32724,22405,34940
32704,22406,35007
32732,22399,34740
32768,22387,35015
32822,22354,34896
32928,22360,34976
33004,22329,34951
32993,22332,35054
32960,22332,34833
32897,22376,34943
32772,22396,34917
32748,22392,34999
32788,22407,34917
32832,22388,34687
32892,22356,34840
32997,22325,34873
33012,22330,34924
32956,22328,34861
32940,22326,34924
32856,22372,34852
32716,22389,34916
32744,22400,34817
32762,22392,34902
32800,22378,34903
32920,22346,34855
33060,22327,34916
33092,22333,34724
33048,22330,35012
33001,22328,34845
32844,22351,34876
32664,22389,34820
32576,22404,34792
32564,22392,34892
32573,22372,34932
32652,22370,34768
32801,22342,34926
32901,22327,35044
32952,22328,34835
33096,22332,34950
33080,22352,34696
32913,22380,34857
32832,22412,35040
32784,22379,35012
32744,22385,34838
32788,22354,34983
32908,22316,34876
32952,22329,35072
32936,22316,34996
32972,22350,34892
32876,22361,35084
32684,22383,35004
32605,22380,35026
32573,22400,34929
32529,22372,35025
32560,22338,35036
32684,22320,34786
32780,22321,35116
32756,22314,35028
32680,22333,35116
32548,22352,35069
32429,22374,34889
32393,22397,35154
32400,22389,34975
32428,22375,35080
32504,22348,35013
32652,22324,35199
32696,22308,34988
32696,22315,35132
32685,22325,34875
32580,22344,35165
32484,22388,35097
32500,22382,34951
32481,22372,35259
32482,22373,35144
32576,22354,35171
32716,22326,35079
32788,22310,35196
32784,22308,35207
32788,22319,34946
32784,22348,35124
32692,22396,35184
32632,22378,34980
32696,22388,35241
32764,22375,35206
32852,22345,35235
32972,22316,35272
32988,22324,35303
32894,22317,35252
32856,22326,35290
32748,22343,35164
32580,22375,35389
32560,22391,35344
32640,22399,35316
32672,22372,35367
32784,22341,35376
32988,22309,35372
33044,22303,35142
33044,22316,35495
33076,22319,35302
33016,22341,35424
32888,22376,35256
32812,22373,35537
32753,22386,35469
32721,22361,35380
32828,22337,35532
32992,22306,35444
33088,22314,35516
33088,22308,35524
33067,22318,35513
32972,22334,35656
32782,22359,35476
32756,22383,35590
32708,22374,35612
32640,22361,35503
32648,22334,35664
32692,22301,35642
32637,22310,35585
32408,22299,35605
31976,22301,35638
31388,22341,35680
30661,22358,35601
29977,22362,35736
29392,22362,35743
29022,22361,35748
28980,22333,35685
29364,22302,35864
29940,22300,35709
30752,22311,35796
31524,22306,35708
32425,22332,35921
33512,22376,35709
34616,22376,35860
36144,22383,35720
38212,22362,35860
40728,22336,35904
42960,22319,35893
44104,22386,35925
43576,22372,35844
42144,22356,35980
40936,22360,35864
39900,22374,35929
39292,22367,35984
39336,22397,35886
39404,22374,35948
39256,22327,35865
38628,22292,35864
37836,22327,35959
37136,22289,35854
36456,22299,35972
35732,22318,35833
34924,22338,35920
34112,22362,35684
33424,22340,36028
32829,22333,35940
32360,22313,35711
32060,22289,36008
31804,22269,35924
31528,22273,35796
31336,22292,35941
31244,22311,35922
31080,22334,35836
30984,22335,36048
30956,22340,35933
30940,22328,35712
31012,22295,36056
31164,22280,35996
31152,22266,36056
31064,22259,36015
30996,22278,36089
30928,22304,36168
30776,22324,36095
30680,22334,36268
30596,22328,36207
30560,22325,36016
30700,22297,36269
30900,22282,36020
31021,22260,36377
31088,22258,36109
31096,22276,36319
31050,22296,36303
30940,22317,36326
30904,22336,36379
30920,22329,36281
30952,22316,36458
31076,22284,36247
31248,22253,36372
31296,22261,36279
31276,22265,36468
31256,22260,36250
31106,22290,36357
30932,22323,36245
30936,22326,36385
30992,22312,36238
31072,22316,36348
31224,22284,36250
31456,22263,36364
31548,22245,36341
31584,22261,36081
31576,22264,36301
31448,22292,36452
31217,22316,36356
31100,22324,36289
31168,22312,36402
31212,22299,36141
31324,22276,36238
31437,22257,36328
31500,22261,36452
31488,22260,36540
31536,22265,36532
31488,22281,36487
31372,22316,36303
31340,22324,36415
31412,22316,36621
31397,22297,36541
31500,22293,36711
31609,22267,36652
31613,22252,36769
31598,22247,36836
31569,22247,36871
31480,22279,36669
31376,22308,36871
31372,22316,36950
31394,22327,37085
31441,22308,37218
31592,22284,37248
31748,22249,37097
31852,22242,37252
31852,22259,37030
31780,22252,37463
31689,22286,37549
31564,22314,37505
31600,22320,37532
31696,22322,37304
31706,22300,37592
31737,22284,37725
31856,22264,37698
31948,22249,37669
32100,22245,37857
32272,22255,37917
32288,22284,37845
32249,22307,37713
32224,22332,37872
32308,22329,38005
32460,22317,38071
32672,22287,38276
32940,22261,38284
33140,22250,38229
33216,22252,38297
33236,22258,38389
33188,22300,38356
33105,22307,38540
33160,22314,38476
33332,22322,38546
33501,22309,38261
33760,22281,38588
34020,22252,38791
34100,22250,38808
34124,22278,38752
34134,22277,38647
34008,22307,38822
33928,22322,38864
33924,22328,38681
33918,22340,38980
33832,22315,39076
33820,22279,38862
33804,22274,39033
33708,22247,39121
33576,22266,38967
33486,22275,39140
33240,22312,39116
32956,22311,39292
32768,22320,39110
32728,22330,39297
32664,22304,39384
32662,22285,39321
32680,22254,39349
32572,22271,39372
32449,22253,39133
32320,22267,39520
32080,22294,39528
31884,22308,39536
31864,22343,39449
31920,22325,39572
31918,22313,39728
31980,22276,39559
32076,22253,39676
32132,22249,39718
32136,22252,39696
32108,22245,39669
31992,22284,39788
31885,22312,39484
31860,22312,39872
31920,22314,39564
31952,22304,39884
32084,22273,39997
32222,22245,39985
32264,22237,39967
32212,22253,39953
32144,22255,40060
32020,22286,39865
31940,22302,40100
31980,22304,40236
32032,22302,39992
32032,22304,40167
32096,22272,40168
32240,22244,40233
32300,22234,40221
32336,22252,40140
32400,22256,40330
32332,22284,40109
32168,22297,40240
32100,22301,40196
32092,22300,40351
32100,22305,40157
32249,22267,39921
32421,22253,40394
32424,22232,40160
32308,22255,40313
32188,22258,40196
32128,22279,40416
32044,22297,40188
32068,22302,40311
32084,22314,40246
32112,22284,40343
32276,22258,40220
32420,22249,40442
32480,22236,40294
32524,22233,39943
32604,22244,40349
32508,22290,40319
32300,22308,40323
32184,22311,40308
32184,22301,40313
32261,22309,40310
32329,22264,40313
32473,22241,40316
32568,22241,39956
32556,22240,40312
32452,22253,40396
32300,22275,40156
32220,22309,40071
32204,22307,40366
32285,22322,40156
32320,22293,40312
32476,22262,40245
32620,22238,40445
32677,22257,40199
32620,22245,40312
32636,22255,40024
32628,22290,40417
32524,22298,40256
32509,22300,40335
32500,22325,40292
32460,22302,40455
32541,22270,40228
32700,22242,40374
32800,22244,40152
32852,22244,40380
32824,22245,40356
32692,22277,40336
32528,22309,39977
32506,22311,40396
32465,22316,40240
32484,22287,40351
32544,22294,40264
32728,22256,40446
32842,22244,40281
32844,22247,40253
32868,22256,40302
32776,22274,40321
32656,22312,40188
32604,22308,40259
32636,22318,39855
32712,22293,40260
32832,22279,40058
32924,22246,40194
32950,22242,40089
32964,22236,40263
32956,22260,40134
32928,22284,39815
32852,22309,39876
32812,22310,40036
32892,22317,40140
32980,22300,39901
33077,22266,39956
33240,22260,39855
33317,22245,40023
33252,22252,39804
33144,22258,39830
33008,22296,39816
32904,22314,39431
32936,22327,39440
32980,22330,39552
33048,22309,39796
33116,22279,39783
33200,22257,39684
33220,22252,39527
33133,22247,39525
33088,22266,39476
33046,22289,39504
32992,22311,39463
33036,22308,39175
33048,22325,39430
33108,22306,39207
33174,22268,39341
33300,22247,38974
33260,22244,39293
33180,22260,39252
33180,22257,39151
33076,22286,39175
32956,22319,39165
32932,22320,38919
32960,22306,39157
32976,22301,39061
33112,22284,39031
33292,22253,39013
33384,22244,38836
33364,22236,39000
33292,22249,39068
33180,22305,38944
33072,22311,38876
33048,22310,38695
33120,22306,38909
33104,22309,38700
33188,22265,38455
33294,22255,38832
33292,22260,38736
33188,22246,38733
33172,22261,38357
33072,22283,38592
32916,22303,38749
32924,22324,38572
33092,22320,38580
33216,22305,38453
33304,22264,38596
33385,22244,38444
33428,22255,38151
33452,22253,38420
33464,22258,38508
33338,22293,38380
33268,22308,38224
33280,22314,38330
33268,22301,38305
33244,22298,38053
33284,22295,38180
33372,22262,38296
33340,22248,38141
33388,22248,38158
33477,22253,38044
33432,22294,38185
33292,22312,37916
33196,22320,38031
33153,22306,37826
33104,22320,37988
33212,22285,38052
33384,22254,37848
33536,22251,37871
33541,22251,37593
33489,22257,37834
33344,22296,37892
33112,22312,37676
32992,22326,37767
33052,22309,37438
33012,22298,37701
33076,22293,37792
33232,22264,37650
33372,22252,37511
33396,22255,37567
33408,22266,37589
33320,22290,37580
33152,22305,37577
33040,22342,37264
32988,22320,37564
33016,22308,37476
33118,22275,37469
33257,22247,37241
33340,22238,37362
33312,22245,37476
33250,22264,37383
33180,22287,37397
33054,22311,37292
32984,22319,37392
32960,22338,37396
33028,22317,37175
33188,22277,37287
33294,22247,37232
33290,22245,37354
33228,22240,37271
33181,22248,37074
33064,22308,37164
32992,22319,37176
32948,22323,37079
32904,22324,37137
32864,22308,37180
32876,22276,37054
32932,22276,37072
32904,22252,36972
32885,22260,37060
32934,22257,36987
32788,22284,36846
32616,22322,37088
32561,22324,36956
32640,22325,36760
32668,22319,36936
32784,22279,36748
32976,22260,36906
33104,22245,36885
33136,22251,36780
33112,22278,36847
32980,22293,36760
32816,22320,36925
32768,22312,36699
32813,22310,36741
32938,22322,36489
33092,22277,36767
33300,22267,36850
33408,22236,36714
33408,22266,36536
33432,22263,36636
33392,22303,36773
33313,22309,36608
33301,22313,36656
33312,22325,36592
33252,22308,36697
33287,22272,36685
33368,22253,36473
33440,22240,36553
33448,22236,36570
33440,22248,36484
33324,22278,36580
33196,22303,36621
33117,22304,36580
33168,22305,36417
33236,22296,36497
33384,22292,36248
33468,22249,36557
33479,22240,36449
33384,22236,36334
33364,22257,36504
33316,22289,36252
33172,22306,36348
33136,22309,36430
33220,22295,36334
33277,22300,36225
33369,22264,36400
33512,22241,36140
33500,22242,36236
33364,22222,36103
33348,22255,36287
33288,22276,36094
33190,22286,36186
33084,22293,36092
33004,22296,36216
32893,22285,36063
32764,22253,36100
32548,22229,35836
32132,22222,35982
31564,22224,36117
30920,22238,35959
30160,22264,36006
29516,22292,35716
29272,22296,35944
29368,22293,35913
29821,22293,35933
30682,22265,35854
31668,22236,35798
32702,22242,35876
33888,22248,35756
34944,22263,35741
36237,22300,35908
37952,22305,35676
40192,22311,35776
42284,22369,35679
43604,22340,35764
43624,22309,35640
42420,22254,35576
41452,22276,35757
40688,22252,35589
40228,22268,35599
40304,22268,35463
40580,22319,35413
40516,22302,35587
39864,22319,35449
38844,22289,35153
38136,22267,35389
37568,22231,35421
36984,22212,35257
36272,22220,35288
35464,22230,35013
34632,22256,35156
33828,22294,35284
33132,22308,35049
32640,22288,35129
32245,22285,34983
31996,22247,35144
31940,22230,34992
31848,22225,35004
31728,22226,34921
31661,22231,35073
31508,22258,34948
31296,22277,34709
31208,22279,34789
31208,22276,34855
31240,22265,34942
31360,22234,34941
31540,22215,34852
31596,22208,34919
31556,22212,34703
31512,22233,34933
31368,22258,35004
31232,22279,34792
31256,22287,34892
31304,22276,34653
31340,22261,34746
31429,22244,34902
31560,22216,34692
31628,22207,34782
31650,22204,34600
31652,22216,34604
31584,22264,34668
31488,22286,34628
31412,22277,34477
31440,22274,34589
31456,22268,34402
31576,22241,34461
31720,22207,34328
31748,22205,34439
31728,22223,34329
31772,22220,34304
31652,22250,34077
31536,22269,34221
31528,22270,34277
31550,22279,34137
31624,22255,34004
31780,22242,34112
31934,22216,34054
32048,22214,33872
32084,22198,34102
32072,22206,33992
31990,22255,33985
31844,22268,33857
31800,22276,34025
31828,22263,33880
31884,22247,33942
32008,22238,33826
32149,22214,33962
32209,22200,33825
32185,22193,33924
32112,22206,33740
32004,22239,33925
31885,22274,33833
31860,22277,33941
31893,22261,33836
31904,22255,34022
31992,22224,33952
32148,22201,33956
32232,22213,33732
32182,22206,33917
32144,22218,33951
32076,22234,33984
31924,22256,34032
31924,22284,33914
31964,22271,34114
31951,22254,34016
32052,22222,33817
32184,22196,34050
32260,22199,34164
32292,22217,33977
32261,22226,34062
32156,22246,34104
32056,22265,34016
32036,22271,34100
32088,22258,34161
32200,22253,34127
32380,22244,34149
32520,22223,34149
32656,22207,34096
32716,22196,34117
32798,22227,34159
32764,22245,34084
32724,22262,34215
32784,22271,34119
32892,22279,34159
32992,22269,34004
33164,22232,34191
33432,22204,34015
33567,22204,34146
33632,22219,34015
33676,22226,34204
33676,22249,33999
33648,22268,34110
33752,22273,33989
33876,22268,34164
34020,22274,34054
34196,22253,34084
34424,22230,34073
34524,22220,34043
34532,22216,33881
34526,22222,33927
34420,22252,34116
34196,22270,33901
34068,22292,34008
33981,22266,33881
33881,22266,34031
33876,22247,33980
33884,22218,33980
33760,22216,33840
33604,22205,34001
33460,22220,33863
33188,22247,33924
32924,22287,33769
32772,22276,33949
32684,22278,33812
32616,22270,33797
32660,22245,33804
32724,22215,33833
32716,22210,33860
32664,22208,33625
32604,22212,33829
32484,22252,33810
32332,22260,33551
32292,22264,33714
32240,22278,33769
32296,22250,33642
32413,22222,33687
32544,22221,33694
32588,22209,33692
32576,22203,33695
32546,22212,33679
32440,22243,33472
32324,22248,33626
32277,22257,33612
32316,22272,33614
32348,22252,33600
32500,22212,33433
32644,22192,33543
32700,22186,33590
32681,22204,33572
32676,22200,33365
32548,22234,33428
32412,22251,33600
32340,22250,33399
32308,22267,33492
32352,22245,33356
32436,22227,33496
32576,22197,33371
32608,22180,33389
32586,22182,33373
32564,22196,33128
32464,22242,33345
32300,22256,33364
32271,22262,33255
32292,22253,33124
32340,22239,33220
32476,22202,32972
32608,22196,33204
32665,22192,33132
32672,22187,32976
32621,22215,33077
32548,22241,33033
32412,22255,33031
32372,22253,32896
32368,22242,32961
32372,22258,32974
32464,22217,32799
32592,22201,32970
32678,22183,32772
32656,22184,32886
32608,22193,32741
32488,22239,32809
32364,22252,32814
32340,22249,32732
32353,22264,32668
32372,22244,32570
32464,22206,32662
32621,22191,32708
32672,22180,32452
32629,22184,32721
32620,22194,32516
32524,22223,32616
32412,22250,32591
32348,22228,32448
32356,22267,32636
32404,22263,32433
32540,22231,32542
32672,22201,32468
32712,22185,32436
32736,22195,32485
32704,22205,32351
32596,22231,32489
32452,22260,32380
32412,22257,32436
32444,22261,32391
32448,22244,32215
32556,22210,32357
32696,22188,32348
32740,22189,32221
32732,22199,32365
32720,22202,32336
32602,22226,32197
32444,22247,32346
32420,22273,32167
32460,22260,32285
32496,22253,32068
32604,22217,32175
32752,22199,32104
32820,22176,31991
32817,22197,32093
32812,22205,32176
32712,22233,31998
32588,22256,32132
32568,22254,32037
32594,22247,32095
32648,22245,31874
32760,22208,31940
32900,22189,32052
32972,22192,31996
32964,22192,31860
32956,22212,31932
32832,22245,31708
32688,22252,31912
32670,22260,31868
32712,22252,31702
32732,22239,31792
32892,22215,31764
33060,22184,31588
33116,22205,31716
33116,22202,31588
33112,22216,31640
33013,22242,31457
32908,22264,31610
32872,22263,31525
32872,22267,31336
32920,22240,31488
33020,22214,31372
33176,22195,31432
33260,22210,31316
33244,22202,31329
33196,22210,31144
33052,22244,31172
32888,22266,31320
32872,22267,31220
32908,22268,31030
32933,22244,31111
33100,22240,31183
33260,22212,31096
33268,22199,31064
33240,22208,30917
33184,22210,31114
33104,22239,31028
32932,22259,30851
32904,22267,30908
32932,22262,30975
32940,22248,30804
33060,22247,30893
33245,22214,30734
33304,22213,30756
33312,22215,30750
33288,22222,30676
33164,22247,30834
33004,22284,30792
32996,22279,30720
33012,22283,30764
33016,22262,30582
33148,22233,30726
33305,22213,30687
33364,22209,30524
33364,22207,30576
33336,22214,30485
33184,22271,30564
33052,22284,30456
32992,22295,30564
33032,22287,30396
33008,22276,30535
33144,22237,30485
33276,22214,30304
33328,22217,30376
33284,22214,30468
33260,22236,30404
33121,22260,30204
32928,22285,30204
32852,22295,30239
32858,22287,30290
32844,22272,30265
32936,22247,30286
33074,22222,30258
33128,22221,30088
33124,22256,30092
33104,22252,30114
32944,22278,30186
32800,22293,30024
32748,22296,30087
32768,22312,30137
32820,22292,29964
32956,22259,30119
33100,22241,29968
33164,22233,30076
33138,22256,30012
33128,22255,29933
33004,22294,30031
32882,22310,29869
32832,22319,29856
32856,22313,29844
32900,22301,30021
32988,22263,29868
33120,22260,29899
33172,22252,29962
33164,22245,29884
33092,22255,29937
32976,22308,29832
32848,22316,29780
32812,22322,29744
32761,22308,29745
32768,22322,29921
32900,22289,29846
33046,22279,29853
33016,22261,29693
33000,22264,29722
32988,22270,29876
32896,22300,29742
32764,22331,29821
32760,22335,29658
32784,22334,29646
32812,22324,29754
32932,22288,29815
33056,22265,29733
33076,22263,29696
33024,22289,29596
32952,22298,29613
32800,22328,29764
32640,22350,29724
32612,22351,29607
32660,22344,29724
32661,22340,29597
32790,22309,29693
32945,22292,29531
32972,22278,29533
32952,22287,29564
32884,22300,29701
32740,22323,29549
32608,22349,29634
32556,22370,29654
32568,22366,29477
32604,22341,29668
32772,22324,29605
32928,22298,29608
32964,22288,29464
32960,22313,29630
32908,22321,29557
32788,22341,29421
32644,22365,29439
32613,22363,29622
32636,22380,29472
32652,22367,29565
32784,22336,29401
32892,22308,29388
32917,22312,29382
32912,22313,29569
32896,22342,29532
32768,22359,29373
32632,22382,29464
32624,22408,29458
32612,22390,29520
32656,22375,29440
32776,22342,29400
32909,22325,29519
32920,22321,29348
32885,22348,29509
32808,22358,29384
32632,22389,29477
32441,22405,29343
32380,22404,29415
32344,22402,29406
32332,22404,29452
32448,22364,29480
32632,22340,29317
32673,22342,29340
32609,22364,29492
32504,22373,29473
32376,22404,29436
32244,22423,29311
32220,22418,29380
32252,22437,29380
32330,22423,29424
32508,22390,29444
32676,22366,29293
32728,22357,29454
32637,22391,29332
32577,22396,29430
32444,22422,29273
32364,22436,29334
32420,22447,29471
32492,22445,29345
32540,22428,29442
32708,22399,29274
32844,22371,29468
32848,22396,29365
32820,22397,29447
32808,22422,29269
32724,22432,29393
32620,22476,29348
32602,22468,29295
32628,22464,29407
32604,22445,29376
32728,22417,29429
32869,22397,29262
32925,22397,29308
32952,22428,29461
32984,22420,29367
32872,22444,29316
32732,22485,29422
32732,22482,29250
32764,22479,29284
32777,22462,29446
32901,22447,29373
33040,22414,29407
33088,22409,29245
33116,22420,29336
33080,22436,29396
32920,22484,29384
32764,22495,29281
32720,22497,29216
32704,22490,29399
32732,22477,29282
32844,22451,29340
32964,22429,29372
32976,22428,29197
32940,22436,29214
32896,22457,29389
32708,22492,29310
32440,22508,29348
32204,22515,29188
31924,22516,29333
31508,22491,29300
31108,22468,29197
30644,22455,29160
29984,22460,29318
29392,22465,29230
29060,22484,29301
28952,22518,29156
29336,22532,29337
29856,22535,29306
31032,22547,29137
32549,22534,29208
34140,22500,29137
36036,22524,29284
37908,22513,29188
40240,22512,29294
42956,22531,29129
45492,22560,29240
47040,22569,29208
47396,22588,29123
46461,22625,29277
45120,22595,29220
43904,22565,29076
42856,22513,29222
42276,22551,29168
42288,22527,29025
41913,22557,29168
40760,22566,29031
39404,22574,29120
38220,22585,28932
37152,22604,29020
36071,22572,28943
35101,22553,29022
34268,22533,28849
33440,22524,28856
32702,22535,28974
32072,22568,28933
31392,22584,28792
30852,22601,28965
30540,22623,28944
30408,22609,28792
30328,22601,28991
30369,22565,28997
30416,22564,28896
30389,22552,28923
30340,22558,28897
30246,22579,29087
30093,22608,29088
29952,22625,28941
29892,22628,29039
29868,22636,29161
29896,22617,29000
30004,22591,29076
30140,22573,29191
30184,22570,29177
30184,22582,29127
30172,22599,29064
30064,22625,29216
29956,22655,29200
29989,22659,29061
30050,22648,29224
30092,22632,29121
30228,22600,29202
30372,22604,29022
30436,22603,29191
30432,22604,29128
30432,22615,28951
30296,22652,28988
30194,22676,29053
30220,22679,28898
30256,22670,28863
30280,22660,29030
30444,22631,28830
30596,22616,28991
30616,22612,28960
30600,22620,28900
30584,22644,28909
30444,22669,28758
30326,22691,28880
30340,22685,28816
30396,22698,28905
30492,22686,28762
30620,22657,28758
30757,22637,28925
30820,22637,28857
30801,22638,28912
30764,22655,28753
30612,22685,28948
30493,22717,28931
30488,22716,28805
30514,22713,28970
30564,22697,28854
30700,22663,28984
30824,22651,28837
30868,22659,29036
30804,22667,29040
30772,22677,28868
30672,22714,29095
30540,22735,28981
30536,22732,29112
30544,22731,28960
30600,22715,29152
30765,22690,29156
30916,22680,29042
30885,22679,29100
30876,22681,29178
30848,22696,29248
30709,22740,29277
30576,22754,29268
30568,22765,29212
30572,22759,29333
30597,22735,29202
30724,22720,29333
30820,22698,29367
30846,22703,29372
30828,22705,29430
30764,22725,29460
30656,22773,29301
30561,22785,29512
30556,22785,29409
30612,22782,29520
30718,22769,29380
30952,22745,29397
31136,22725,29584
31252,22741,29473
31308,22743,29584
31365,22761,29624
31357,22797,29472
31380,22806,29606
31444,22816,29645
31580,22805,29692
31712,22791,29545
31964,22764,29741
32224,22751,29630
32340,22753,29764
32444,22773,29605
32508,22792,29639
32500,22820,29709
32500,22829,29831
32620,22834,29687
32801,22845,29884
32932,22824,29807
33177,22796,29892
33386,22780,29767
33516,22780,29911
33584,22786,29907
33604,22809,29969
33468,22836,29847
33380,22852,29909
33312,22873,30052
33268,22869,30058
33260,22845,29924
33359,22816,30005
33444,22798,30133
33404,22796,29989
33272,22824,30104
33148,22845,30116
32932,22869,30220
32762,22885,30084
32700,22887,30158
32668,22880,30306
32673,22867,30204
32780,22838,30320
32876,22833,30183
32872,22823,30368
32840,22833,30261
32760,22861,30396
32602,22886,30265
32476,22901,30364
32424,22898,30460
32468,22903,30384
32488,22893,30509
32668,22865,30412
32744,22853,30522
32728,22844,30375
32704,22852,30460
32676,22879,30630
32549,22900,30512
32480,22914,30613
32424,22922,30631
32416,22914,30496
32501,22908,30550
32628,22887,30681
32736,22855,30604
32732,22853,30598
32704,22880,30549
32621,22904,30766
32488,22924,30727
32372,22952,30590
32388,22957,30620
32424,22948,30820
32488,22920,30790
32656,22913,30625
32801,22892,30861
32852,22885,30708
32820,22895,30821
32748,22928,30688
32584,22951,30873
32496,22964,30832
32476,22969,30673
32464,22975,30796
32472,22959,30748
32608,22929,30872
32750,22932,30708
32704,22932,30840
32668,22940,30786
32652,22958,30869
32516,22980,30888
32393,23015,30740
32416,23010,30905
32450,22991,30884
32494,22994,30727
32636,22956,30892
32752,22959,30912
32760,22959,30773
32708,22967,30854
32657,22981,30844
32508,23023,30783
32408,23034,30804
32408,23038,30992
32408,23031,30855
32436,23021,30868
32576,22985,30971
32696,22975,30797
32712,23003,30847
32694,23007,31020
32624,23017,30860
32452,23047,30996
32344,23060,30838
32353,23080,30889
32380,23075,31044
32444,23054,30944
32564,23026,30853
32668,23012,30947
