ECG,EDA,RR
30560,19479,19722
30652,19429,19748
30636,19444,19680
30584,19458,19691
30436,19502,19599
30276,19495,19636
30260,19510,19556
30292,19505,19583
30352,19504,19487
30560,19483,19550
30692,19426,19552
30760,19418,19483
30720,19441,19508
30680,19456,19390
30524,19490,19462
30400,19518,19469
30392,19531,19372
30428,19489,19407
30492,19479,19340
30660,19456,19403
30792,19418,19343
30788,19423,19412
30756,19432,19402
30692,19428,19409
30500,19476,19408
30344,19505,19410
30298,19480,19378
30292,19485,19412
30297,19487,19401
30464,19425,19333
30596,19428,19411
30596,19403,19374
30572,19420,19453
30500,19439,19436
30312,19455,19423
30172,19485,19468
30100,19475,19402
30140,19485,19499
30172,19465,19534
30304,19417,19495
30432,19399,19522
30440,19405,19574
30420,19427,19564
30388,19415,19561
30236,19450,19620
30132,19474,19544
30152,19490,19601
30224,19457,19620
30352,19457,19644
30634,19409,19676
30900,19399,19584
30972,19429,19676
31072,19409,19592
31140,19436,19689
31058,19442,19612
31072,19477,19725
31152,19460,19705
31290,19463,19729
31452,19459,19754
31720,19399,19691
32018,19393,19808
32180,19414,19796
32288,19383,19781
32392,19420,19816
32360,19444,19858
32348,19471,19881
32456,19472,19831
32608,19449,19844
32820,19428,19944
33128,19401,19980
33356,19401,19884
33440,19369,19970
33488,19382,19904
33492,19424,20042
33368,19420,19985
33262,19445,20081
33216,19477,20111
33192,19444,20064
33224,19432,20113
33376,19424,20038
33492,19365,20183
33488,19382,20226
33452,19364,20229
33398,19398,20254
33212,19412,20272
33048,19439,20313
33028,19446,20238
33052,19484,20298
33096,19404,20250
33240,19392,20369
33364,19410,20335
33408,19348,20420
33365,19374,20445
33248,19368,20461
33072,19428,20473
32900,19409,20476
32888,19430,20552
32952,19416,20512
32996,19411,20576
33182,19389,20489
33308,19339,20622
33332,19356,20655
33320,19365,20588
33232,19356,20662
33072,19396,20635
32936,19413,20738
32940,19428,20727
32984,19398,20661
33036,19401,20807
33184,19378,20836
33332,19331,20772
33389,19332,20855
33384,19339,20848
33336,19378,20849
33152,19379,20873
33004,19413,20798
33028,19428,20949
33044,19391,20914
33064,19387,20864
33212,19359,20997
33340,19321,21015
33336,19335,20875
33292,19349,21029
33216,19337,21023
33040,19377,21012
32864,19405,21068
32800,19414,21050
32808,19384,20964
32848,19381,21111
32996,19349,21138
33152,19309,21163
33180,19309,21181
33156,19334,21100
33109,19389,21172
32925,19363,21081
32784,19392,21248
32780,19406,21259
32776,19376,21225
32824,19351,21262
32976,19340,21176
33100,19316,21343
33092,19337,21341
33024,19305,21314
32986,19338,21365
32816,19350,21304
32644,19371,21423
32646,19393,21433
32676,19381,21309
32692,19376,21477
32848,19314,21440
32972,19313,21523
32968,19306,21486
32954,19337,21413
32868,19311,21581
32664,19357,21609
32520,19391,21540
32512,19364,21590
32556,19355,21663
32620,19344,21540
32786,19321,21692
32900,19338,21716
32920,19286,21610
32872,19300,21733
32832,19342,21749
32668,19371,21636
32520,19358,21798
32516,19357,21780
32546,19349,21837
32640,19348,21692
32812,19313,21860
32960,19333,21872
32992,19281,21777
32965,19289,21889
32912,19312,21910
32760,19365,21824
32656,19351,21886
32624,19364,21785
32624,19372,21925
32688,19382,21956
32878,19294,21863
32988,19280,21961
33004,19293,21921
33008,19296,21860
32984,19299,21972
32836,19333,21940
32712,19360,21836
32676,19394,21988
32724,19343,21967
32788,19337,21859
32944,19291,21952
33080,19273,22011
33132,19275,21828
33134,19296,21940
33096,19332,21961
32924,19322,21973
32812,19339,21850
32812,19344,21986
32836,19348,21993
32920,19330,21821
33112,19327,21977
33280,19269,21970
33292,19263,21832
33292,19284,21888
33276,19302,21919
33088,19371,21809
32960,19337,21937
32936,19349,21926
33005,19353,21814
33064,19346,21922
33232,19335,21849
33372,19268,21778
33376,19269,21892
33360,19284,21813
33332,19333,21737
33152,19317,21860
33012,19356,21804
33036,19362,21794
33060,19378,21778
33116,19307,21813
33284,19274,21838
33408,19264,21744
33440,19276,21764
33396,19307,21700
33320,19284,21816
33116,19334,21827
32957,19332,21730
32924,19343,21812
32945,19367,21749
32976,19309,21746
33128,19284,21657
33256,19287,21778
33249,19260,21745
33236,19264,21807
33196,19297,21812
33024,19348,21641
32876,19325,21806
32836,19334,21801
32876,19365,21679
32925,19301,21807
33088,19292,21821
33212,19288,21738
33212,19255,21786
33184,19258,21802
33124,19294,21823
32969,19311,21832
32824,19348,21750
32776,19367,21772
32812,19328,21765
32856,19332,21834
33036,19276,21836
33180,19289,21709
33180,19253,21823
33124,19283,21702
33045,19277,21819
32904,19322,21732
32768,19356,21842
32708,19329,21751
32716,19353,21816
32741,19298,21753
32904,19285,21864
33048,19292,21815
33012,19252,21799
32940,19279,21862
32860,19273,21875
32616,19319,21898
32432,19352,21880
32429,19324,21884
32432,19329,21809
32456,19311,21895
32608,19297,21894
32780,19253,21800
32856,19260,21876
32872,19289,21767
32864,19271,21920
32744,19316,21933
32648,19360,21834
32660,19320,21876
32720,19335,21791
32756,19290,21909
32916,19273,21860
33032,19266,21948
33009,19290,21904
32992,19248,21810
32952,19284,21964
32836,19327,21920
32700,19322,21836
32752,19334,22002
32840,19333,21989
32968,19346,21847
33176,19289,21991
33332,19281,21968
33308,19247,21976
33264,19271,22008
33172,19301,21953
32964,19301,22004
32816,19338,21904
32816,19359,22080
32836,19311,22051
32924,19294,21945
33088,19268,22093
33232,19271,22040
33220,19245,21941
33212,19256,22116
33169,19278,22070
33014,19330,21948
32892,19311,22124
32876,19341,22141
32893,19346,22070
32940,19289,22100
33101,19269,22014
33196,19274,22071
33236,19240,22111
33216,19251,22044
33136,19309,22156
32932,19296,22116
32788,19318,21995
32784,19322,22168
32788,19347,22186
32797,19287,22034
32900,19277,22174
32873,19262,22164
32700,19239,22104
32369,19255,22172
31852,19278,22204
31140,19302,22026
30376,19329,22202
29676,19342,22140
29156,19308,22090
28884,19301,22216
29124,19268,22152
29756,19271,22096
30432,19245,22236
31663,19256,22196
33048,19294,22124
34612,19332,22243
36412,19328,22232
38621,19352,22252
41308,19364,22279
44268,19413,22125
46868,19269,22270
48176,19270,22240
48172,19284,22276
46940,19315,22154
45692,19359,22257
44096,19316,22272
42952,19342,22135
42508,19346,22221
42176,19380,22199
41316,19295,22184
40232,19301,22178
39232,19293,22112
38160,19247,22210
36944,19244,22141
35692,19282,22089
34453,19331,22177
33356,19314,22110
32556,19325,22085
31928,19320,21996
31404,19306,22134
31172,19277,22093
31016,19263,22088
30880,19284,22065
30748,19252,22108
30636,19280,22130
30392,19322,22098
30220,19348,22181
30145,19323,22186
30128,19329,22172
30172,19303,22261
30340,19293,22212
30456,19252,22360
30487,19245,22396
30500,19275,22313
30453,19266,22362
30276,19300,22348
30148,19332,22475
30168,19335,22412
30220,19343,22332
30324,19291,22508
30528,19273,22552
30658,19261,22468
30668,19240,22514
30648,19252,22469
30604,19293,22561
30444,19298,22481
30320,19332,22566
30345,19314,22540
30412,19325,22407
30504,19279,22474
30688,19268,22334
30856,19236,22420
30904,19245,22377
30924,19278,22392
30868,19273,22332
30712,19309,22408
30572,19344,22440
30540,19311,22320
30568,19316,22410
30608,19313,22260
30778,19258,22412
30944,19250,22306
30954,19232,22424
30940,19241,22433
30916,19268,22287
30748,19324,22359
30588,19307,22280
30529,19314,22428
30540,19332,22295
30605,19277,22452
30744,19267,22381
30864,19281,22468
30856,19248,22344
30832,19266,22520
30772,19260,22438
30596,19299,22559
30476,19344,22418
30456,19306,22600
30488,19298,22604
30556,19293,22471
30744,19263,22662
30828,19252,22709
30828,19257,22556
30816,19263,22746
30756,19262,22757
30564,19292,22653
30424,19303,22826
30430,19321,22868
30441,19307,22721
30480,19300,22864
30664,19253,22868
30804,19236,22882
30848,19245,22914
30852,19254,22805
30804,19287,23012
30640,19328,22967
30556,19300,22939
30565,19322,23088
30688,19325,22986
30834,19324,23136
31040,19253,23050
31224,19247,23096
31316,19244,23147
31366,19257,23036
31360,19262,23198
31268,19292,23094
31220,19316,23236
31304,19354,23133
31464,19300,23297
31624,19287,23165
31928,19295,23358
32152,19232,23389
32244,19241,23304
32340,19247,23408
32388,19280,23366
32334,19335,23478
32348,19305,23510
32452,19318,23449
32576,19318,23524
32757,19308,23557
33028,19302,23407
33276,19228,23587
33343,19239,23463
33420,19263,23650
33408,19258,23680
33230,19308,23633
33125,19335,23732
33101,19298,23650
33112,19319,23735
33140,19303,23685
33252,19244,23758
33340,19247,23768
33280,19230,23829
33156,19231,23708
33056,19256,23910
32868,19293,23898
32716,19331,23968
32680,19297,24000
32668,19301,23913
32684,19282,24015
32796,19274,23938
32888,19220,24001
32896,19225,23980
32852,19237,24116
32776,19270,24096
32612,19288,24117
32448,19329,24208
32464,19293,24120
32504,19295,24246
32590,19284,24262
32760,19287,24302
32880,19236,24309
32900,19250,24348
32876,19218,24225
32824,19258,24398
32668,19289,24390
32544,19306,24297
32517,19316,24467
32560,19326,24455
32676,19256,24345
32792,19247,24527
32924,19221,24516
32924,19230,24388
32900,19245,24510
32852,19236,24549
32686,19270,24449
32546,19300,24540
32532,19277,24553
32565,19279,24685
32608,19269,24525
32788,19249,24700
32944,19200,24692
32940,19209,24622
32884,19223,24629
32840,19261,24743
32652,19254,24676
32532,19282,24670
32548,19295,24758
32556,19292,24645
32620,19247,24786
32812,19232,24807
32892,19213,24692
32892,19196,24740
32852,19201,24716
32798,19241,24805
32604,19285,24721
32500,19266,24809
32480,19288,24741
32485,19261,24891
32512,19241,24861
32672,19216,24804
32800,19220,24861
32808,19223,24857
32720,19194,24783
32616,19219,24868
32434,19246,24950
32324,19268,24993
32320,19290,24884
32368,19254,24965
32428,19230,25042
32629,19209,24862
32788,19198,25048
32808,19221,24960
32813,19235,25056
32776,19205,24976
32612,19239,25090
32436,19275,25132
32425,19274,24977
32456,19255,25104
32508,19238,25072
32732,19212,25188
32872,19234,25196
32916,19177,25090
32860,19198,25132
32792,19243,25064
32584,19236,25239
32492,19252,25136
32505,19266,25298
32541,19267,25309
32609,19250,25161
32804,19194,25336
32932,19172,25361
32972,19189,25232
32970,19199,25297
32944,19205,25241
32789,19237,25342
32652,19277,25313
32653,19236,25432
32692,19250,25324
32736,19221,25362
32920,19215,25316
33080,19163,25452
33112,19191,25429
33132,19196,25458
33076,19249,25492
32900,19235,25351
32828,19252,25460
32850,19263,25466
32888,19232,25348
32984,19202,25390
33157,19191,25332
33284,19202,25388
33321,19156,25376
33312,19161,25333
33268,19210,25456
33076,19245,25464
32973,19235,25338
32968,19253,25387
33032,19261,25330
33104,19198,25358
33280,19182,25284
33400,19172,25431
33408,19192,25463
33338,19159,25308
33252,19199,25334
33104,19236,25260
33024,19231,25381
33037,19226,25413
33012,19245,25214
33068,19235,25341
33260,19164,25296
33398,19164,25339
33401,19180,25244
33368,19150,25183
33312,19185,25305
33136,19220,25284
32985,19254,25124
32984,19281,25275
33040,19210,25158
33136,19212,25174
33316,19186,25114
33464,19183,25176
33504,19184,25239
33476,19145,25113
33404,19191,25092
33236,19211,25140
33110,19237,25181
33102,19260,25038
33160,19247,25094
33248,19181,25141
33420,19157,25168
33560,19149,25004
33556,19158,25134
33496,19177,25071
33408,19160,24980
33196,19196,25055
33088,19216,25031
33072,19244,24997
33128,19263,25125
33229,19172,25076
33396,19148,24924
33529,19143,25023
33536,19142,25048
33492,19144,25124
33424,19183,24967
33216,19236,25070
33096,19204,25086
33092,19212,24997
33141,19210,25095
33232,19206,25125
33457,19140,24952
33572,19124,25095
33572,19135,25123
33544,19140,24962
33452,19190,25013
33236,19178,24943
33160,19212,25076
33156,19231,25095
33153,19188,24954
33193,19171,25095
33372,19150,25052
33504,19156,24950
33481,19114,25093
33454,19130,25127
33412,19168,24954
33216,19199,25086
33072,19186,25053
33040,19197,25002
33086,19192,25124
33140,19182,25110
33300,19164,24974
33412,19111,25125
33432,19140,25152
33388,19135,25000
33300,19183,25079
33104,19205,25181
33004,19187,24986
33016,19193,25157
33012,19215,25108
33084,19156,25105
33260,19132,25112
33383,19121,25023
33360,19141,25218
33320,19110,25160
33264,19159,25108
33032,19166,25132
32880,19188,25094
32816,19228,25225
32813,19172,25286
32868,19168,25276
33001,19145,25276
33056,19104,25143
33028,19119,25298
33022,19146,25217
32936,19130,25317
32760,19178,25369
32632,19198,25225
32600,19172,25388
32632,19180,25260
32752,19177,25295
32996,19116,25310
33160,19112,25436
33150,19144,25428
33148,19102,25407
33092,19142,25348
32928,19203,25452
32760,19173,25380
32746,19192,25493
32768,19165,25508
32801,19161,25529
33016,19133,25385
33194,19092,25525
33216,19105,25583
33180,19122,25428
33184,19122,25469
33068,19163,25410
32980,19198,25572
32960,19164,25436
32976,19175,25612
33036,19170,25501
33200,19102,25536
33312,19097,25498
33288,19119,25650
33240,19087,25694
33152,19127,25538
33012,19161,25660
32893,19156,25516
32924,19167,25692
32964,19161,25587
33028,19164,25727
33229,19096,25734
33344,19078,25581
33308,19081,25663
33286,19114,25608
33268,19108,25729
33080,19160,25613
32920,19188,25694
32900,19153,25641
32897,19158,25685
32960,19180,25631
33136,19087,25764
33240,19090,25774
33204,19087,25801
33148,19108,25735
33076,19167,25797
32848,19133,25717
32676,19159,25760
32556,19186,25665
32324,19140,25798
32004,19126,25640
31684,19085,25793
31264,19084,25780
30636,19092,25780
29940,19076,25770
29428,19113,25697
29056,19156,25745
29180,19158,25698
29724,19161,25839
30584,19186,25837
31836,19138,25758
33392,19127,25840
35232,19079,25716
37032,19104,25895
39268,19085,25836
41880,19151,25897
44568,19176,25852
46504,19157,25772
47317,19189,25885
46712,19165,25828
45448,19154,25932
44388,19139,25965
43176,19093,25925
42388,19108,25941
42116,19116,25772
41636,19098,25836
40504,19158,25816
39264,19213,25824
38277,19168,25816
37308,19153,25893
36288,19160,25816
35372,19087,25925
34500,19087,25874
33672,19110,25754
32948,19087,25904
32240,19136,25932
31582,19133,25813
31100,19167,25892
30849,19144,25749
30744,19144,25960
30725,19122,25861
30868,19110,26012
30908,19070,26017
30848,19081,25949
30802,19123,25901
30684,19108,26097
30432,19136,26183
30256,19175,26038
30260,19146,26244
30292,19154,26301
30364,19114,26145
30552,19084,26336
30648,19078,26260
30664,19100,26228
30664,19077,26428
30564,19118,26471
30396,19126,26484
30284,19146,26406
30341,19156,26553
30373,19154,26412
30477,19113,26469
30657,19084,26456
30833,19103,26593
30900,19067,26623
30936,19085,26522
30873,19130,26631
30648,19131,26464
30548,19165,26536
30564,19140,26462
30648,19142,26628
30768,19124,26540
30932,19084,26460
31032,19068,26536
31024,19078,26628
31012,19101,26694
30968,19096,26529
30829,19138,26592
30808,19169,26558
30865,19143,26729
30956,19141,26669
30956,19125,26661
31080,19079,26781
31168,19084,26724
31144,19091,26708
31140,19074,26871
31064,19108,26892
30912,19165,26760
30848,19148,26877
30909,19155,26962
30984,19173,26900
31144,19108,26965
31360,19105,27128
31456,19085,26960
31425,19095,27001
31352,19079,27172
31248,19108,27257
31068,19141,27188
30960,19170,27188
31004,19140,27324
31016,19140,27421
31048,19129,27289
31200,19108,27494
31300,19072,27464
31356,19084,27404
31400,19104,27636
31364,19101,27716
31216,19145,27553
31108,19179,27758
31101,19148,27837
31072,19154,27692
31153,19116,27876
31328,19103,27906
31428,19092,27920
31433,19110,27875
31509,19080,28091
31462,19129,28014
31324,19160,28200
31264,19197,28105
31320,19173,28096
31372,19160,28297
31504,19154,28368
31752,19097,28261
32009,19103,28439
32136,19084,28540
32192,19104,28404
32168,19151,28486
32074,19161,28536
32092,19189,28696
32292,19163,28624
32472,19165,28727
32620,19159,28672
32900,19101,28871
33117,19108,28997
33240,19119,28813
33310,19102,29038
33288,19127,29164
33208,19181,29002
33176,19167,29199
33296,19173,29317
33462,19163,29136
33632,19134,29298
33836,19124,29289
33936,19137,29496
33933,19096,29581
33905,19127,29414
33812,19164,29626
33564,19165,29572
33375,19198,29748
33316,19173,29703
33356,19185,29911
33390,19143,29877
33508,19117,29953
33517,19113,30080
33437,19140,30049
33352,19108,30076
33222,19145,30272
32981,19204,30361
32832,19180,30181
32804,19184,30373
32820,19195,30564
32888,19143,30573
32996,19129,30660
33068,19144,30521
33062,19100,30757
33036,19132,30861
32976,19175,30696
32776,19168,30928
32632,19193,31068
32596,19183,30880
32628,19196,31095
32696,19175,31169
32884,19175,31125
33072,19108,31326
33124,19120,31426
33116,19152,31324
33024,19142,31503
32796,19181,31438
32645,19207,31662
32600,19184,31465
32584,19186,31680
32650,19182,31814
32796,19125,31846
32944,19141,31980
32940,19152,31782
32912,19122,32005
32844,19161,32044
32644,19217,31876
32596,19194,32049
32640,19205,32141
32640,19188,32244
32676,19175,32303
32864,19168,32352
32964,19121,32292
32964,19138,32373
32912,19168,32509
32796,19157,32573
32552,19197,32487
32416,19228,32657
32440,19197,32700
32464,19204,32508
32537,19213,32714
32708,19148,32677
32800,19140,32877
32788,19168,33015
32785,19143,32784
32761,19190,33012
32628,19229,33123
32544,19224,33117
32600,19231,33230
32696,19233,33102
32828,19178,33278
32960,19167,33425
33049,19175,33245
33084,19137,33311
33088,19172,33379
32960,19212,33399
32740,19205,33464
32576,19232,33597
32516,19252,33721
32548,19212,33713
32678,19204,33636
32913,19185,33861
33008,19145,33861
32968,19148,33798
32916,19181,33948
32869,19249,34013
32760,19209,34016
32640,19244,34221
32652,19221,33924
32732,19237,34165
32908,19221,34364
33061,19166,34124
33127,19172,34336
33124,19213,34528
33180,19185,34207
33120,19237,34437
32984,19230,34540
32904,19270,34612
32904,19231,34522
32892,19241,34756
32912,19237,34732
33072,19176,34778
33220,19181,34757
33216,19220,34841
33212,19170,35006
33172,19221,34689
33056,19233,34933
32992,19260,34740
32984,19308,35065
33048,19252,34804
33132,19239,34980
33284,19180,35071
33340,19182,35188
33272,19193,35241
33272,19180,35140
33168,19209,35273
32993,19253,35342
32928,19251,35305
33032,19256,35220
33100,19262,35389
33216,19252,35164
33329,19187,35373
33376,19194,35412
33384,19218,35454
33336,19187,35452
33284,19233,35512
33193,19285,35544
33164,19257,35431
33164,19273,35437
33184,19295,35533
33205,19231,35730
33377,19223,35655
33496,19185,35770
33504,19215,35589
33401,19235,35669
33276,19231,35692
33084,19277,35749
33028,19308,35716
33108,19291,35780
33200,19300,35820
33320,19243,35936
33536,19218,35676
33624,19227,35756
33572,19203,35621
33505,19215,35824
33396,19271,35780
33184,19268,35927
33104,19284,36084
33184,19302,35928
33232,19293,36037
33316,19287,36032
33524,19204,36116
33632,19212,36103
33628,19226,36224
33532,19255,35932
33364,19241,36102
33150,19281,36257
33024,19305,35965
33100,19327,36148
33180,19283,36264
33240,19270,36292
33376,19250,36315
33468,19262,36255
33524,19227,36252
33472,19244,36367
33324,19300,36416
33088,19285,36344
32958,19295,36560
32948,19314,36470
33008,19327,36352
33197,19263,36615
33408,19232,36460
33580,19245,36496
33632,19254,36612
33621,19236,36414
33536,19269,36615
33300,19303,36740
33184,19332,36517
33212,19303,36628
33210,19308,36647
33288,19268,36663
33428,19265,36734
33480,19273,36765
33469,19245,36800
33472,19261,36777
33401,19309,36728
33260,19309,36926
33169,19313,36730
33160,19327,36868
33192,19325,36775
33372,19327,36916
33616,19254,36834
33704,19244,36951
33661,19264,36929
33532,19261,36999
33284,19309,36973
33168,19313,36871
33196,19325,37124
33136,19351,37054
33198,19361,37052
33260,19286,37101
33424,19268,36815
33508,19270,36999
33504,19287,37182
33448,19256,37189
33312,19300,37231
33136,19361,36932
33128,19332,37105
33181,19344,37184
33192,19356,37300
33280,19298,37420
33456,19282,37359
33524,19298,37479
33509,19255,37072
33430,19270,37374
33280,19305,37557
33097,19365,37152
32972,19337,37343
33004,19351,37428
32996,19331,37470
33088,19301,37676
33304,19297,37511
33428,19294,37511
33416,19269,37420
33364,19293,37524
33244,19310,37661
32976,19342,37712
32784,19362,37713
32742,19380,37724
32824,19338,37793
33048,19332,37865
33408,19307,37767
33564,19271,37839
33556,19273,38001
33440,19288,37834
33308,19334,37876
33128,19340,37921
32952,19362,37968
32824,19373,38124
32780,19351,37885
32848,19332,38013
32968,19313,38183
33037,19277,37894
33036,19295,38103
33044,19311,38256
33084,19369,37868
33012,19350,38084
32936,19382,38271
32928,19360,37927
32972,19367,38260
33096,19355,38219
33200,19297,38335
33240,19284,38244
33276,19297,38365
33316,19333,38401
33216,19321,38524
33104,19371,38463
33036,19402,38495
33000,19363,38428
32992,19365,38535
33008,19338,38689
33124,19319,38509
33188,19318,38589
33180,19292,38757
33224,19313,38692
33261,19340,38557
33116,19369,38846
33072,19407,38544
33116,19382,38754
33184,19344,38470
33222,19349,38888
33308,19334,38778
33320,19292,38884
33328,19303,39000
33336,19336,38972
33268,19335,38908
33066,19359,39084
33008,19391,39061
32997,19427,39076
32972,19379,38756
33060,19353,39044
33201,19345,39268
33153,19297,39192
32972,19308,39204
32652,19330,39188
31928,19373,39249
31157,19364,39380
30476,19381,39360
29888,19400,39494
29424,19375,39412
29164,19344,39415
29304,19325,39471
29877,19326,39526
30644,19306,39540
31376,19326,39521
32240,19370,39612
32968,19389,39776
33700,19397,39660
35056,19414,39700
36736,19476,39809
39052,19372,39761
41292,19356,39736
42756,19386,39901
42588,19396,39766
41360,19348,39860
40392,19370,39822
39604,19404,40020
39276,19431,39937
39444,19454,39801
39632,19386,39969
39484,19386,39991
38856,19351,39896
38024,19372,39956
37444,19319,39967
36928,19356,39985
36284,19357,40060
35540,19376,40188
34864,19392,40124
34164,19406,40112
33480,19392,40105
33088,19366,40156
32948,19362,40120
32776,19380,39785
32500,19315,40132
32260,19325,40318
31960,19366,40220
31636,19396,40109
31380,19429,40320
31216,19392,40237
31084,19378,40342
31168,19359,40446
31444,19340,40084
31668,19358,40399
31776,19311,40692
31776,19335,40477
31660,19360,40620
31477,19403,40780
31344,19416,40776
31262,19386,40820
31180,19386,40960
31240,19360,40706
31412,19337,40940
31541,19343,40838
31564,19344,41165
31560,19322,40990
31540,19345,40757
31389,19374,41116
31381,19398,41140
31468,19392,41256
31516,19397,40838
31600,19377,41253
31694,19363,41154
31689,19354,41459
31621,19308,41275
31656,19316,40932
31608,19361,41280
31428,19387,41422
31349,19400,41501
31397,19390,41391
31364,19383,41463
31400,19356,41477
31568,19344,41632
31692,19308,41563
31780,19311,41449
31860,19313,41743
31797,19353,41445
31612,19381,41692
31448,19412,41821
31360,19380,41711
31453,19384,41685
31508,19360,41973
31669,19337,41902
31820,19354,41543
31861,19300,41944
31924,19328,42077
31908,19357,42006
31832,19420,42098
31720,19376,42054
31596,19392,42340
31564,19399,42291
31737,19336,42330
31992,19334,42044
32040,19354,42449
32048,19312,42584
32020,19342,42620
31788,19344,42696
31572,19376,42757
31518,19397,42703
31584,19415,42953
31640,19365,42799
31804,19342,43052
32032,19321,43196
32200,19334,43209
32148,19300,43320
32164,19335,43356
32064,19340,43464
31864,19377,43525
31801,19417,43612
31920,19396,43695
32048,19369,43624
32200,19357,43780
32468,19345,43757
32623,19302,43941
32760,19338,43900
32864,19316,43967
32856,19337,44197
32788,19374,44071
32736,19415,44164
32832,19372,44128
32892,19382,44337
33024,19341,44536
33300,19325,44535
33440,19300,44550
33624,19320,44551
33764,19301,44661
33788,19363,44488
33684,19365,44780
33644,19404,44958
33701,19375,44983
33840,19383,45063
34000,19338,45008
34260,19335,45140
34380,19336,44953
34408,19304,45225
34264,19324,45192
34092,19335,45300
33884,19376,45247
33776,19397,45389
33716,19368,45231
33652,19380,45584
33680,19333,45689
33644,19327,45640
33464,19300,45782
33292,19308,45740
33212,19325,45838
33044,19333,45788
32688,19366,45977
32432,19395,45967
32308,19397,46015
32229,19365,46133
32180,19351,46144
32264,19319,46032
32272,19335,46271
32228,19296,46272
32260,19313,46357
32180,19360,46399
32000,19356,46428
31904,19376,46399
32005,19374,46544
32052,19375,46564
32160,19330,46552
32368,19311,46305
32400,19308,46641
32300,19334,46644
32284,19288,46841
32240,19332,46868
32060,19366,46536
31944,19414,46884
31980,19356,46792
32064,19355,46972
32164,19350,46972
32304,19290,47100
32336,19294,47060
32348,19335,47143
32244,19284,47188
32096,19325,47239
31932,19363,47276
31888,19348,46900
31884,19367,47239
32024,19364,47072
32108,19308,47343
32184,19297,47226
32105,19303,47380
32124,19271,47023
32160,19292,47354
32144,19335,47316
32008,19334,47464
31878,19354,47492
31852,19359,47512
31956,19335,47517
32212,19310,47523
32396,19305,47470
32476,19268,47504
32436,19282,47521
32468,19268,47144
32376,19322,47596
32152,19324,47623
32044,19360,47504
32024,19347,47552
31968,19327,47605
32029,19316,47597
32260,19277,47623
32456,19285,47572
32604,19253,47612
32569,19276,47550
32452,19330,47605
32256,19329,47428
32208,19357,47572
32288,19327,47500
32320,19339,47551
32416,19289,47564
32616,19271,47676
32736,19283,47652
32765,19268,47664
32752,19287,47607
32545,19284,47628
32213,19335,47568
32076,19324,47581
32164,19342,47492
32305,19311,47593
32488,19306,47289
32716,19245,47623
32744,19263,47495
32684,19261,47636
32697,19252,47653
32684,19291,47676
32652,19321,47647
32708,19361,47485
32712,19337,47572
32714,19306,47424
32754,19284,47572
32848,19249,47464
32944,19241,47517
32948,19277,47508
32908,19254,47528
32808,19296,47489
32596,19300,47472
32552,19322,47364
32628,19303,47404
32636,19307,47103
32724,19300,47382
32884,19236,47377
32965,19238,47364
32972,19285,47359
32932,19233,47320
32852,19285,47304
32696,19289,47120
32612,19331,47164
32612,19302,47158
32640,19311,47124
32770,19259,47060
33008,19244,47084
33096,19220,47065
33128,19237,46972
33104,19262,46980
33056,19257,46923
32888,19316,46887
32809,19289,46796
32781,19303,46791
32712,19280,46696
32764,19257,46300
32944,19279,46599
33040,19221,46228
33010,19212,46568
33012,19237,46525
33020,19249,46396
32996,19311,46312
32912,19296,46319
32886,19279,46165
32936,19300,46192
33064,19260,46239
33284,19209,45805
33288,19201,46086
33189,19225,46053
33108,19247,46032
33000,19259,45840
32800,19268,45805
32717,19295,45496
32624,19304,45711
32604,19263,45727
32792,19257,45688
33068,19207,45668
33180,19217,45575
33164,19188,45552
33193,19216,45370
33192,19271,45416
33032,19264,45229
32896,19301,45332
32925,19266,45348
32912,19280,45236
32938,19225,45220
33080,19226,45152
33125,19188,45124
33092,19202,45024
33092,19193,45029
32992,19242,44941
32868,19286,44860
32740,19271,44841
32688,19294,44828
32726,19244,44719
32908,19234,44720
33076,19247,44590
33216,19183,44413
33248,19201,44516
33144,19184,44409
32900,19228,44446
32700,19246,44292
32732,19261,44224
32844,19246,43936
32960,19263,44122
33152,19207,43823
33385,19194,43972
33404,19169,43792
33380,19188,43892
33276,19173,43589
33100,19233,43741
32913,19266,43696
32856,19246,43748
32878,19270,43644
32788,19235,43655
32840,19213,43468
32960,19204,43458
33068,19157,43485
33032,19189,43185
32980,19168,43271
32832,19216,43032
32628,19223,43271
32600,19257,43022
32620,19273,43180
32648,19230,42823
32688,19223,43020
32864,19165,42870
32950,19173,42908
32972,19156,42908
32936,19183,42836
32866,19192,42873
32676,19244,42919
32664,19224,42435
32632,19236,42727
32608,19215,42752
32642,19193,42759
32772,19159,42596
32836,19196,42533
32948,19144,42460
33084,19189,42397
33108,19184,42079
33057,19232,42503
33048,19213,42389
33096,19237,42461
33104,19256,42304
33124,19189,42263
33208,19183,42168
33252,19140,42088
33244,19159,41956
33236,19152,42076
33120,19206,41991
32948,19198,41908
32864,19228,41564
32880,19205,42020
32892,19217,41808
33024,19157,41735
33148,19158,41728
33145,19182,41401
33060,19151,41824
33000,19133,41628
32980,19173,41524
32936,19189,41404
32940,19207,41188
33044,19236,41567
33120,19183,41424
33148,19172,41569
33272,19166,41356
33284,19116,41457
33241,19132,41287
33224,19169,41271
33064,19158,41171
32873,19197,41265
32772,19240,41140
32744,19193,41264
32756,19202,41048
32820,19141,41167
32996,19137,41000
33057,19140,41068
32852,19111,40925
32572,19152,40802
32076,19159,40868
31333,19199,40824
30612,19180,40863
29952,19190,40740
29448,19166,40661
29132,19159,40815
29048,19119,40640
29292,19119,40605
29788,19105,40430
30420,19130,40128
30974,19180,40608
31732,19172,40046
32616,19200,40572
33670,19184,40372
35193,19192,40424
37200,19169,39913
39600,19183,40160
41456,19125,40236
42292,19161,40340
41672,19131,40159
40700,19192,40263
40025,19173,40052
39716,19200,39998
39940,19229,39976
40324,19166,39950
40468,19151,40038
40152,19171,39612
39236,19110,39805
38253,19140,39393
37588,19089,39668
36928,19140,39524
36156,19151,39542
35332,19172,39498
34528,19196,39431
33804,19141,39462
33285,19148,39329
32984,19137,39535
32664,19076,39038
32293,19098,39228
31962,19114,39279
31634,19108,39252
31260,19151,39401
31088,19170,38879
31084,19153,38958
31081,19134,39087
31100,19119,39224
31240,19116,39204
31268,19085,39296
31216,19093,39189
31152,19071,39289
31081,19116,38919
30932,19157,39047
30836,19140,38892
30863,19156,39123
30885,19127,38876
30988,19105,38948
31166,19092,38745
31204,19055,39028
31152,19071,38894
31172,19089,38880
31144,19089,38860
31013,19139,38832
30932,19132,38767
30884,19132,38712
30840,19131,38701
30960,19121,38688
31224,19080,38561
31340,19095,38580
31348,19056,38550
31336,19088,38558
31296,19082,38440
31168,19121,38412
31040,19140,38476
30888,19116,38316
30932,19127,38348
31056,19084,38207
31258,19073,38236
31392,19061,37812
31432,19081,37998
31500,19058,37973
31328,19093,37868
31110,19109,37639
30964,19108,37938
31005,19130,37895
31112,19105,37828
31272,19082,37780
31452,19083,37764
31536,19031,37785
31508,19050,37796
31416,19062,37824
31416,19079,37808
31341,19145,37776
31292,19100,37877
31280,19110,37719
31304,19107,37767
31352,19061,37749
31480,19046,37788
31428,19049,37783
31384,19023,37808
31344,19044,37912
31316,19098,37832
31168,19085,37933
31112,19114,37853
31148,19090,37932
31188,19098,37885
31212,19085,37799
31332,19029,37847
31520,19029,37928
31608,19015,38006
31592,19031,37933
31512,19097,38023
31276,19085,37991
31160,19097,37932
31216,19122,37936
31324,19074,38039
31476,19065,38151
31732,19036,37732
31916,19012,38143
31960,19024,38076
31964,19021,38116
31980,19057,38090
31884,19101,38117
31896,19085,38074
31956,19093,38164
32044,19104,38128
32213,19041,38248
32448,19031,38124
32630,19042,38228
32672,19005,38128
32701,19044,38173
32688,19039,38151
32664,19100,38192
32760,19076,38128
32900,19094,38176
33029,19061,38146
33232,19050,38180
33472,19007,38109
33616,19014,38084
33676,19047,38087
33680,19023,37869
33633,19079,38288
33484,19060,37828
33366,19080,38204
33308,19117,38151
33278,19076,38261
33324,19052,38160
33396,18997,38182
33345,19007,38104
33210,18984,37912
33092,19007,38133
32908,19047,37836
32640,19045,38223
32448,19069,38178
32396,19112,38303
32364,19055,38165
32392,19012,38245
32544,19010,38180
32577,18987,38092
32538,19013,38196
32500,18998,38164
32404,19046,38197
32212,19042,38020
32108,19040,38125
32088,19049,38260
32141,19061,38148
32252,18999,38268
32448,18996,38134
32525,18958,38204
32528,18973,38109
32508,18994,38127
32428,18991,38036
32260,19025,38091
32204,19047,38125
32244,19020,38037
32317,19037,37751
32412,18985,38204
32580,18972,38087
32685,18993,38144
32668,18943,38045
32624,18970,38068
32530,19014,37983
32336,19012,38111
32256,19036,37639
32324,19045,38069
32396,19001,37935
32476,18996,37895
32613,18951,37840
32664,18951,37799
32628,18953,37773
32576,18941,37735
32385,18983,37732
32224,19022,37828
32184,19005,37686
32204,19024,37695
32236,19047,37606
32340,18981,37663
32572,18966,37532
32572,18924,37624
32580,18942,37291
32480,18949,37430
32340,18999,37516
32189,18989,37372
32164,19003,37317
32216,19013,37157
32232,19008,37200
32344,18951,37188
32520,18941,37197
32608,18936,37100
32576,18914,36969
32588,18945,36957
32476,18982,36908
32252,18980,36932
32192,19009,36789
32256,19013,36610
32369,19028,36777
32524,18941,36381
32612,18932,36508
32584,18905,36466
32620,18928,36413
32660,18944,36285
32546,18939,36360
32340,18979,36223
32212,19023,36132
32276,18980,35925
32312,18986,35901
32512,18929,35841
32628,18913,35846
32692,18919,35708
32876,18904,35540
32960,18943,35596
32668,18935,35493
32384,18976,35384
32180,18985,35271
32058,19014,35198
32024,18952,35148
32272,18934,34990
32517,18908,34636
32594,18915,34716
32624,18889,34770
32584,18902,34327
32476,18933,34456
32268,18983,34468
32188,18958,34048
32172,18953,34124
32242,18948,34151
32359,18920,33927
32548,18932,33880
32570,18876,33616
32544,18886,33588
32520,18918,33580
32400,18916,33144
32206,18958,33236
32108,18962,32933
32132,18984,32961
32236,18937,32913
32392,18912,32596
32636,18891,32676
32718,18896,32656
32704,18867,32219
32592,18894,32220
32436,18937,32093
32180,18933,32013
32117,18970,31772
32165,18944,31796
32224,18950,31576
32468,18896,31557
32748,18869,31496
32834,18872,31404
32752,18902,31196
32736,18859,31103
32668,18896,30861
32496,18936,30880
32428,18946,30732
32420,18925,30660
32508,18935,30540
32592,18916,30528
32716,18853,30383
32824,18862,30319
32832,18898,30268
32804,18853,29927
32688,18901,29902
32548,18906,29703
32468,18924,29694
32516,18917,29492
32580,18914,29617
32672,18914,29280
32848,18844,29296
32940,18855,29108
32932,18878,29087
32932,18844,28926
32828,18889,28836
32684,18935,28781
32594,18909,28750
32576,18911,28702
32604,18909,28397
32738,18889,28434
32968,18841,28348
33070,18822,28079
33092,18838,28116
33082,18853,27933
32965,18866,27948
32812,18890,27884
32768,18912,27588
32801,18944,27600
32852,18892,27385
32932,18876,27390
33112,18828,27202
33185,18828,27142
33184,18838,27118
33176,18823,27060
33060,18867,27008
32884,18916,26725
32816,18886,26673
32856,18910,26536
32864,18904,26529
33008,18839,26345
33165,18828,26418
33197,18839,26236
33192,18804,26125
33164,18825,26169
33044,18888,25929
32856,18866,25893
32760,18893,25790
32788,18908,25708
32804,18864,25690
32900,18833,25689
33060,18828,25416
33117,18838,25496
33116,18799,25365
33112,18814,25164
32996,18855,25270
32797,18863,25124
32744,18870,25132
32740,18884,24941
32756,18857,24905
32916,18822,24920
33104,18811,24735
33172,18812,24662
33096,18831,24624
33048,18793,24624
32882,18842,24442
32660,18862,24500
32542,18887,24348
32536,18857,24206
32604,18861,24292
32664,18843,24211
32737,18789,24192
32692,18796,24099
32612,18778,23913
32632,18810,23964
32484,18836,23963
32332,18888,23780
32348,18862,23804
32372,18884,23602
32472,18848,23628
32549,18845,23532
32664,18780,23515
32852,18783,23367
32881,18826,23455
32872,18799,23302
32772,18844,23376
32536,18834,23344
32448,18856,23167
32436,18869,23167
32458,18830,22983
32544,18797,23023
32717,18783,23029
32848,18808,22986
32880,18764,22847
32868,18783,22706
32812,18831,22830
32696,18874,22788
32652,18837,22637
32688,18842,22600
32740,18853,22468
32884,18792,22557
33068,18777,22494
33148,18767,22270
33116,18797,22381
33004,18763,22313
32832,18793,22289
32636,18826,22236
32560,18867,22112
32564,18823,22092
32642,18813,21927
32856,18802,22000
33084,18775,21920
33164,18744,21838
33100,18760,21776
33068,18773,21650
33044,18786,21740
32916,18823,21665
32736,18837,21628
32612,18861,21588
32657,18799,21444
32824,18789,21425
33008,18778,21320
33080,18730,21332
33020,18759,21225
32932,18780,21269
32809,18773,21220
32661,18811,21161
32620,18844,21105
32600,18809,21013
32576,18804,20953
32572,18793,20813
32532,18735,20863
32333,18737,20713
31888,18761,20804
31321,18733,20774
30512,18781,20568
29596,18820,20647
28929,18803,20562
28588,18809,20505
28704,18797,20497
29292,18781,20421
30100,18733,20436
31416,18733,20372
32692,18743,20216
34184,18773,20301
35792,18773,20231
37636,18818,20213
39996,18812,20193
42748,18834,20004
45088,18857,20082
46312,18772,20033
46728,18771,19954
46072,18805,19933
45149,18739,19906
44180,18781,19722
43692,18789,19753
43468,18828,19717
43224,18790,19572
42104,18809,19634
40840,18818,19591
39678,18746,19485
38552,18741,19463
37220,18770,19316
35892,18717,19348
34728,18735,19280
33632,18769,19156
32641,18806,19150
31924,18825,19120
31343,18788,19119
30937,18780,18972
30757,18771,19013
30778,18769,18957
30744,18710,18969
30672,18718,18936
30632,18738,18836
30493,18792,18912
30244,18777,18888
30148,18781,18891
30102,18773,18887
30132,18789,18789
30224,18752,18872
30340,18740,18847
30430,18701,18748
30432,18711,18826
30380,18727,18797
30260,18754,18714
30074,18772,18703
30036,18769,18724
30048,18768,18718
30044,18767,18639
30181,18733,18662
30408,18733,18622
30500,18693,18567
30493,18705,18541
30497,18732,18452
30416,18728,18474
30190,18774,18407
30144,18795,18351
30160,18765,18312
30228,18758,18220
30388,18738,18250
30586,18695,18218
30628,18694,18120
30638,18710,18109
30604,18697,18079
30488,18736,18012
30308,18765,17998
30336,18796,17962
30308,18758,17906
30349,18763,17905
30564,18748,17810
30749,18688,17841
30812,18678,17829
30808,18703,17740
30748,18702,17741
30592,18758,17732
30397,18746,17675
30332,18764,17704
30404,18764,17700
30472,18783,17632
30596,18709,17641
30772,18693,17636
30768,18701,17599
30752,18724,17601
30688,18688,17578
30528,18731,17593
30320,18757,17576
30208,18784,17556
30225,18745,17559
30232,18748,17561
30348,18721,17514
30496,18717,17566
30544,18676,17576
30476,18681,17518
30424,18718,17554
30284,18713,17545
30068,18759,17504
29988,18767,17540
29972,18780,17536
29996,18742,17531
30164,18720,17527
30372,18705,17541
30400,18677,17521
30378,18678,17524
30324,18692,17556
30160,18742,17548
30028,18784,17536
30048,18749,17534
30112,18752,17564
30134,18748,17572
30312,18756,17524
30568,18678,17566
30692,18677,17572
30774,18689,17532
30812,18713,17577
30796,18716,17586
30736,18751,17568
30720,18769,17594
30776,18772,17612
30900,18736,17576
31160,18705,17584
31432,18678,17615
31638,18682,17652
31768,18687,17596
31816,18714,17636
31800,18751,17648
31796,18778,17658
31900,18784,17620
32044,18748,17676
32208,18736,17695
32520,18719,17712
32832,18705,17676
33064,18718,17730
33157,18672,17744
33276,18692,17700
33240,18734,17771
33101,18776,17771
33040,18786,17812
32972,18798,17803
33060,18734,17774
33284,18719,17849
33372,18689,17861
33348,18700,17836
33362,18667,17890
33328,18677,17893
33157,18724,17890
32949,18748,17904
32852,18771,17948
32860,18796,17940
32809,18733,17996
32899,18718,18036
33144,18685,17972
33296,18700,18046
33236,18663,18007
33152,18692,18086
33000,18736,18124
32865,18733,18132
32848,18756,18156
32844,18773,18167
32828,18725,18201
32993,18713,18160
33156,18677,18213
33181,18663,18180
33191,18679,18255
33152,18713,18225
32989,18709,18293
32821,18738,18340
32768,18798,18331
32768,18734,18356
32816,18734,18360
32940,18718,18364
33125,18716,18315
33168,18660,18412
33128,18671,18444
33108,18692,18362
32948,18751,18435
32796,18731,18388
32756,18757,18469
32772,18729,18433
32812,18735,18491
32928,18746,18435
33124,18664,18500
33176,18671,18494
33116,18673,18440
33064,18710,18522
32884,18708,18554
32716,18730,18490
32637,18748,18525
32640,18791,18461
32660,18722,18561
32800,18701,18585
33000,18708,18564
33084,18653,18560
33072,18677,18518
33000,18672,18580
32800,18713,18544
32504,18746,18604
32364,18733,18574
32340,18736,18620
32400,18725,18599
32560,18719,18666
32696,18717,18686
32718,18658,18645
32660,18672,18682
32604,18710,18630
32428,18709,18717
32244,18751,18725
32210,18768,18756
32265,18728,18785
32304,18727,18778
32448,18711,18809
32636,18663,18743
32668,18669,18823
32668,18692,18752
32608,18672,18818
32456,18725,18773
32232,18726,18844
32196,18750,18820
32228,18729,18881
32288,18724,18812
32384,18709,18902
32620,18665,18854
32712,18676,18924
32735,18662,18947
32728,18680,18949
32512,18729,18896
32332,18727,18980
32288,18744,18940
32384,18741,19032
32460,18716,18976
32548,18708,19040
32784,18701,18978
32871,18658,19086
32844,18687,19084
32872,18676,19108
32768,18725,19140
32600,18746,19053
32436,18770,19086
32508,18732,19130
32600,18735,19068
32793,18702,19173
32932,18664,19189
33052,18668,19197
33057,18688,19223
33073,18674,19125
32968,18728,19208
32792,18748,19164
32760,18733,19205
32824,18749,19236
32868,18753,19149
33068,18689,19269
33304,18676,19256
33324,18709,19173
33216,18662,19279
33244,18689,19285
33190,18705,19290
32989,18743,19268
32936,18737,19298
32812,18739,19292
32884,18744,19252
33141,18688,19304
33364,18695,19256
33472,18683,19274
33532,18707,19228
33520,18670,19301
33356,18722,19301
33120,18737,19271
33070,18771,19184
33169,18732,19298
33228,18742,19312
33452,18706,19217
33550,18671,19230
33604,18671,19236
33632,18694,19276
33644,18694,19158
33516,18743,19197
33316,18774,19230
33176,18780,19200
33192,18754,19201
33224,18748,19191
33340,18726,19172
33480,18674,19124
33528,18671,19136
33516,18690,19161
33518,18714,19057
33368,18716,19114
33204,18740,19112
33176,18768,18999
33273,18758,19089
33285,18758,19072
33376,18745,19041
33500,18679,19056
33652,18681,19045
33676,18695,19008
33540,18714,18948
33389,18717,19017
33184,18759,18951
33144,18770,19009
33158,18788,19018
33128,18732,18905
33252,18701,18927
33464,18708,18972
33528,18713,18888
33468,18672,18957
33384,18708,18889
33304,18723,18941
33144,18751,18920
33074,18781,18896
33064,18752,18927
33085,18751,18876
33244,18724,18873
33452,18716,18820
33496,18682,18850
33504,18689,18799
33384,18729,18840
33212,18732,18793
32948,18761,18804
32884,18789,18729
32945,18752,18806
33012,18769,18793
33180,18741,18764
33320,18685,18758
33388,18704,18733
33372,18709,18757
33328,18751,18762
33152,18734,18648
32900,18759,18724
32856,18786,18702
32864,18775,18644
32781,18799,18705
32864,18720,18711
33032,18713,18601
33088,18702,18672
33120,18724,18663
33100,18711,18660
32896,18753,18644
32748,18773,18613
32632,18806,18639
32652,18768,18610
32728,18769,18613
32904,18745,18596
33120,18704,18608
33184,18718,18551
33216,18727,18596
33224,18716,18558
33104,18754,18567
32924,18789,18581
32840,18802,18580
32780,18773,18561
32752,18760,18596
32906,18743,18608
33076,18756,18512
33204,18701,18574
33236,18729,18593
33216,18735,18506
33124,18779,18578
33008,18832,18577
33092,18785,18495
33142,18801,18568
33116,18768,18541
33197,18743,18544
33310,18737,18573
33336,18736,18594
33312,18753,18490
33316,18724,18589
33184,18767,18580
33028,18807,18508
33020,18828,18538
33064,18788,18570
33116,18777,18602
33198,18757,18516
33300,18737,18573
33376,18764,18596
33372,18717,18504
33340,18757,18585
33188,18780,18561
32996,18803,18597
32944,18823,18521
33004,18791,18549
33020,18789,18567
33168,18759,18536
33352,18765,18555
33452,18727,18567
33477,18751,18501
33441,18739,18573
33208,18787,18612
32940,18821,18500
32844,18799,18598
32744,18819,18621
32608,18825,18574
32437,18760,18596
32204,18752,18526
31785,18725,18612
31184,18746,18576
30412,18766,18531
29624,18806,18628
29108,18809,18608
29112,18822,18575
29593,18840,18645
30229,18801,18665
31500,18779,18606
32912,18782,18642
34408,18746,18588
36036,18785,18659
37952,18788,18642
40244,18846,18686
42840,18821,18628
45276,18869,18688
46592,18875,18716
46756,18820,18657
45852,18813,18686
44860,18832,18620
43604,18761,18707
42524,18791,18724
42024,18807,18624
41700,18810,18684
40892,18834,18636
39784,18851,18651
38788,18874,18674
37780,18822,18687
36824,18791,18601
35844,18772,18659
34920,18795,18664
33976,18763,18558
33180,18797,18621
32384,18847,18548
31672,18835,18623
31184,18859,18636
30948,18832,18633
30740,18846,18649
30729,18793,18636
30824,18793,18685
30868,18763,18682
30800,18790,18722
30788,18797,18735
30544,18860,18822
30292,18838,18873
30188,18848,18796
30192,18873,18924
30280,18846,18933
30438,18823,18992
30616,18773,18997
30702,18786,18960
30724,18788,19044
30704,18809,19098
30556,18817,19121
30348,18858,19132
30292,18876,19171
30280,18853,19105
30356,18859,19211
30552,18801,19161
30772,18791,19256
30864,18782,19175
30852,18784,19287
30816,18810,19303
30656,18864,19204
30548,18849,19260
30542,18872,19180
30624,18859,19278
30680,18847,19295
30808,18828,19224
30932,18821,19281
31008,18789,19201
31008,18800,19300
30992,18807,19258
30892,18836,19304
30752,18870,19338
30672,18860,19334
30629,18873,19363
30612,18845,19366
30822,18838,19264
31024,18796,19359
31104,18800,19288
31140,18821,19421
31000,18813,19436
30764,18841,19386
30596,18874,19450
30600,18899,19372
30640,18871,19476
30672,18858,19508
30870,18836,19448
31012,18830,19580
31052,18798,19576
31024,18800,19631
30972,18828,19660
30798,18880,19656
30589,18872,19593
30524,18892,19738
30548,18902,19737
30596,18858,19668
30793,18833,19828
30956,18841,19862
30968,18801,19840
30896,18823,19924
30848,18866,19874
30652,18868,19979
30496,18894,19935
30468,18937,19993
30524,18893,19957
30556,18892,20049
30728,18873,19983
30908,18821,20148
30998,18841,20135
30956,18852,20205
30888,18834,20215
30792,18884,20269
30681,18889,20281
30714,18903,20336
30884,18927,20354
31028,18880,20314
31248,18859,20390
31512,18864,20402
31512,18821,20481
31582,18853,20522
31652,18840,20494
31556,18885,20529
31488,18937,20455
31592,18902,20628
31692,18908,20632
31824,18904,20589
32100,18894,20728
32388,18836,20709
32576,18840,20640
32696,18847,20820
32762,18889,20806
32724,18882,20839
32686,18924,20916
32724,18932,20897
32832,18948,20885
32992,18897,21007
33252,18878,21060
33520,18845,21072
33636,18842,21085
33632,18858,20973
33632,18889,21164
33509,18889,21216
33352,18924,21111
33281,18956,21233
33252,18913,21300
33244,18914,21196
33360,18887,21300
33484,18888,21388
33500,18842,21241
33384,18861,21436
33260,18868,21410
33100,18932,21351
32893,18916,21454
32776,18924,21558
32769,18927,21568
32812,18924,21550
32956,18877,21652
33124,18862,21518
33148,18860,21588
33112,18858,21732
33084,18873,21749
32928,18909,21738
32772,18935,21780
32720,18940,21838
32724,18929,21796
32740,18916,21769
32904,18889,21902
33032,18877,21956
33069,18873,21970
33082,18879,21965
33076,18904,22038
32928,18945,21916
32702,18935,21942
32676,18930,21956
32698,18937,21986
32764,18921,22055
32912,18896,22140
33088,18865,22225
33132,18872,22224
33096,18855,22285
33048,18867,22185
32928,18895,22138
32764,18924,22212
32728,18924,22260
32748,18922,22365
32770,18908,22350
32904,18882,22388
33068,18861,22412
33108,18868,22296
33078,18868,22276
33028,18895,22464
32884,18940,22444
32688,18921,22406
32628,18925,22500
32628,18943,22416
32720,18912,22492
32860,18895,22438
33044,18876,22400
33044,18872,22471
33012,18889,22474
32976,18917,22526
32792,18903,22607
32644,18931,22598
32656,18950,22608
32712,18946,22574
32754,18919,22583
32876,18900,22702
33068,18926,22562
33125,18855,22717
33165,18861,22656
33176,18875,22752
32996,18947,22714
32776,18966,22700
32736,18972,22815
32808,18977,22682
32660,18968,22676
32808,18885,22774
32984,18866,22830
33072,18876,22886
33024,18875,22777
32996,18888,22910
32836,18938,22914
32652,18964,22900
32613,18996,22826
32660,18932,22996
32712,18919,22940
32884,18896,23015
33020,18879,22912
33084,18895,23012
33124,18861,22956
33172,18893,23103
33036,18951,23111
32804,18933,22948
32632,18957,23128
32704,18948,23181
32760,18965,23029
32944,18889,23180
33152,18887,23220
33216,18884,23073
33240,18927,23188
33184,18893,23060
33024,18926,23244
32868,18951,23213
32816,18981,23237
32832,18937,23158
32868,18919,23261
33002,18896,23311
33192,18882,23132
33212,18900,23293
33180,18869,23326
33165,18885,23145
33032,18928,23309
32864,18967,23191
32808,18939,23330
32828,18961,23255
32892,18948,23342
33076,18905,23148
33240,18902,23337
33288,18888,23248
33256,18868,23294
33172,18888,23196
33016,18932,23334
32900,18945,23243
32836,18957,23344
32868,18965,23151
32925,18920,23324
33068,18917,23252
33252,18897,23330
33272,18863,23328
33285,18880,23213
33260,18903,23229
33109,18956,23123
32928,18938,23293
32880,18944,23320
32849,18955,23150
32935,18969,23268
33144,18891,23250
33300,18873,23089
33312,18884,23143
33284,18880,23245
33248,18914,23165
33086,18916,23052
32900,18940,23150
32888,18954,23184
32980,18967,23225
33032,18926,23116
33168,18892,23164
33328,18884,23186
33356,18879,23017
33308,18897,23196
33220,18887,23201
33116,18913,23018
32952,18949,23187
32880,18963,23096
32908,18973,23146
32988,18960,23023
33168,18920,23087
33332,18910,23188
33364,18863,23108
33352,18871,23029
33345,18892,23184
33128,18929,23103
32936,18982,23023
32904,18939,23160
32984,18947,23036
33084,18956,23196
33244,18891,23151
33360,18885,23112
33374,18890,23106
33390,18901,23185
33376,18885,23228
33220,18917,23078
33012,18951,23156
32952,19006,23032
33012,18960,23181
33048,18951,23169
33199,18891,23080
33376,18869,23224
33404,18881,23149
33360,18897,23052
33320,18880,23234
33152,18940,23221
32964,18956,23081
32912,19000,23236
32956,18932,23234
33024,18927,23193
33160,18897,23238
33344,18879,23240
33377,18884,23127
33270,18898,23274
33200,18921,23253
33020,18908,23222
32884,18935,23272
32812,18959,23109
32792,18943,23216
32836,18930,23305
33012,18916,23232
33136,18900,23335
33176,18908,23209
33140,18856,23177
33104,18882,23330
32940,18924,23257
32717,18972,23240
32718,18933,23246
32736,18947,23342
32797,18940,23310
33052,18889,23340
33230,18883,23294
33264,18905,23302
33292,18863,23324
33268,18877,23398
33092,18930,23269
32912,18949,23400
32844,18977,23364
32784,18981,23431
32844,18913,23284
33052,18894,23444
33248,18901,23372
33336,18853,23473
33380,18859,23314
33324,18891,23346
33172,18933,23478
32976,18962,23468
32944,18927,23486
32993,18932,23393
33044,18918,23378
33124,18901,23517
33184,18908,23518
33224,18852,23441
33208,18867,23556
33200,18886,23361
33080,18965,23552
32896,18921,23509
32844,18940,23548
32909,18941,23409
32968,18910,23404
33136,18884,23462
33296,18877,23551
33316,18884,23512
33326,18849,23574
33248,18888,23400
33104,18940,23601
32896,18916,23532
32864,18925,23623
32880,18929,23430
32925,18940,23613
33096,18868,23526
33254,18873,23525
33258,18876,23619
33220,18846,23582
33124,18868,23639
32892,18909,23557
32696,18951,23559
32524,18916,23612
32260,18916,23572
31944,18918,23620
31692,18879,23484
31308,18860,23512
30716,18863,23580
30086,18883,23653
29608,18864,23686
29280,18907,23532
29316,18928,23561
29696,18940,23596
30504,18949,23628
31668,18951,23711
33092,18874,23615
34812,18865,23732
36476,18854,23534
38540,18913,23734
41012,18874,23696
43550,18908,23758
45372,18948,23633
46156,18969,23592
45624,18968,23621
44460,18948,23748
43440,18925,23676
42336,18945,23756
41532,18854,23790
41280,18846,23680
40880,18881,23601
39904,18908,23752
38684,18930,23751
37740,18972,23653
36840,18908,23756
35932,18911,23565
35148,18872,23732
34412,18891,23744
33664,18839,23560
32984,18844,23717
32394,18870,23620
31757,18926,23534
31224,18911,23593
30936,18917,23687
30816,18920,23722
30784,18893,23686
30877,18857,23666
30976,18844,23697
30956,18842,23687
30972,18862,23815
30860,18898,23804
30621,18923,23912
30402,18948,23778
30352,18888,23781
30400,18900,23901
30496,18884,24009
30668,18848,23972
30848,18837,24040
30846,18847,23968
30856,18853,24117
30824,18866,24036
30673,18904,24177
30536,18938,24058
30556,18903,24071
30612,18909,24180
30624,18903,24229
30816,18848,24228
30984,18852,24212
31029,18853,24064
30996,18823,24229
30976,18854,24181
30876,18904,24077
30784,18922,24117
30760,18926,24202
30816,18886,24101
30800,18881,24198
31017,18854,24031
31212,18846,24082
31236,18815,24167
31200,18817,24089
31184,18846,24144
30980,18884,24002
30844,18892,24097
30830,18911,24177
30892,18908,24087
30930,18891,24136
31068,18876,24082
31218,18822,24201
31328,18828,24229
31269,18853,24046
31216,18830,24131
31052,18857,24246
30888,18887,24239
30872,18909,24086
30873,18913,24199
30956,18904,24316
31112,18832,24249
31296,18809,24356
31288,18827,24247
31253,18822,24397
31236,18844,24329
31068,18889,24308
30906,18917,24336
30848,18880,24480
30852,18875,24406
30924,18876,24409
31056,18852,24558
31194,18801,24481
31232,18804,24454
31184,18827,24520
31132,18831,24650
30972,18880,24583
30833,18868,24719
30840,18879,24556
30892,18887,24740
31004,18887,24742
31188,18821,24711
31308,18816,24782
31364,18812,24830
31348,18838,24673
31340,18817,24766
31228,18857,24867
31124,18885,24880
31136,18896,24908
31240,18866,24801
31380,18855,24988
31620,18828,24932
31852,18811,25037
32009,18825,24872
32084,18794,25041
32132,18820,25004
32033,18853,24916
31986,18901,25076
32036,18865,25146
32180,18872,24970
32348,18867,25139
32624,18844,25146
32936,18822,25095
33108,18790,25206
33164,18786,25228
33236,18805,25056
33148,18845,25066
33094,18867,25124
33176,18895,25286
33276,18856,25193
33416,18863,25331
33640,18847,25276
33820,18788,25201
33872,18789,25376
33853,18816,25316
33700,18839,25338
33429,18893,25333
33240,18852,25401
33164,18860,25504
33156,18883,25316
33164,18829,25378
33280,18819,25404
33388,18804,25563
33361,18813,25588
33224,18783,25564
33080,18797,25583
32860,18831,25646
32636,18852,25605
32572,18870,25541
32628,18878,25581
32620,18868,25607
32772,18796,25764
32924,18769,25676
32925,18765,25816
32864,18795,25836
32813,18801,25847
32622,18843,25796
32480,18879,25804
32440,18836,25911
32480,18837,25962
32544,18840,25855
32700,18785,25996
32862,18772,26056
32900,18767,26001
32892,18791,25906
32836,18835,25950
32692,18799,26119
32528,18840,26023
32460,18847,26196
32484,18868,26056
32516,18806,26036
32648,18797,26212
32864,18794,26196
32908,18753,26220
32871,18772,26207
32796,18780,26079
32644,18815,26104
32528,18855,26127
32500,18822,26148
32516,18816,26304
32504,18807,26221
32669,18794,26299
32804,18788,26357
32856,18743,26180
32824,18743,26180
32766,18784,26216
32576,18816,26333
32424,18842,26272
32404,18816,26416
32424,18808,26313
32476,18796,26282
32630,18776,26236
32772,18769,26397
32788,18779,26385
32746,18737,26439
32670,18760,26268
32512,18798,26432
32384,18823,26424
32380,18807,26468
32412,18815,26284
32476,18815,26460
32644,18753,26425
32812,18734,26520
32901,18737,26326
32913,18769,26493
32928,18747,26402
32748,18784,26521
32596,18820,26380
32476,18836,26545
32536,18796,26513
32589,18792,26432
32740,18784,26593
32920,18720,26554
32976,18732,26450
32972,18759,26633
32924,18741,26592
32736,18782,26706
32560,18808,26535
32564,18832,26704
32620,18843,26729
32672,18772,26729
32836,18760,26596
33016,18727,26628
33088,18735,26781
33049,18755,26694
33020,18782,26857
32908,18755,26674
32744,18788,26727
32704,18803,26748
32696,18822,26852
32750,18756,26724
32957,18751,26911
33148,18720,26853
33146,18724,26957
33092,18736,26836
33080,18724,26804
32940,18769,26958
32800,18781,26913
32780,18809,27009
32808,18773,26813
32844,18761,26989
33033,18737,26906
33188,18697,26966
33268,18700,26850
33296,18730,27015
33272,18711,26892
33132,18759,26976
32916,18761,26855
32856,18767,27023
32812,18773,27016
32884,18780,26928
33084,18712,27039
33238,18712,26864
33292,18718,26945
33268,18690,27031
33240,18704,26999
33072,18757,26966
32876,18764,27057
32853,18787,26997
32876,18798,26848
32912,18734,26853
33120,18702,26845
33280,18679,27010
33316,18698,26998
33264,18693,26912
33236,18719,26972
33090,18733,27014
32936,18740,26931
32904,18759,26821
32941,18780,26973
33000,18729,26908
33156,18704,26937
33324,18695,26948
33340,18685,26984
33320,18702,26996
33294,18687,26799
33144,18738,26852
32984,18756,26960
32886,18780,26938
32928,18741,26854
32988,18744,26948
33149,18722,26808
33312,18668,26817
33348,18672,26972
33300,18681,26916
33260,18724,27000
33104,18708,27006
32972,18734,26861
32968,18748,26838
33012,18771,27002
33072,18712,27019
33244,18677,26920
33398,18683,27065
33432,18683,26946
33376,18662,26890
33356,18695,27054
33216,18724,26953
33063,18760,27110
33016,18724,27015
33068,18724,26910
33132,18716,26944
33248,18701,27108
33352,18655,27087
33420,18649,27111
33392,18655,27061
33344,18681,27165
33176,18713,27037
32996,18778,27151
32940,18730,27050
32952,18732,27132
32984,18742,27009
33140,18662,27196
33292,18649,27089
33292,18658,27234
33248,18653,27172
33212,18676,27065
32996,18721,27079
32816,18742,27252
32816,18711,27188
32848,18706,27270
32888,18701,27246
33052,18667,27140
33204,18671,27176
33220,18629,27334
33175,18631,27237
33132,18651,27393
32960,18695,27329
32788,18709,27234
32762,18742,27407
32750,18701,27334
32793,18690,27487
32988,18660,27420
33104,18642,27305
33088,18642,27490
33061,18660,27504
33004,18672,27501
32864,18676,27472
32728,18700,27392
32637,18717,27423
32616,18706,27590
32600,18719,27537
32740,18647,27630
32904,18629,27526
32918,18629,27503
32865,18640,27525
32788,18662,27548
32605,18680,27565
32436,18716,27588
32396,18733,27772
32453,18692,27677
32524,18669,27822
32733,18638,27837
32924,18620,27684
32973,18612,27708
32985,18638,27876
32960,18655,27882
32844,18709,27984
32696,18678,27820
32652,18689,27821
32664,18681,27847
32668,18685,28013
32838,18645,27919
33000,18644,28098
33088,18653,27938
33084,18609,27918
33084,18625,28104
32988,18660,28130
32884,18684,28105
32904,18688,28055
32948,18681,28188
33020,18663,28238
33181,18633,28167
33264,18624,28298
33252,18613,28225
33172,18629,28126
33140,18674,28130
32976,18645,28149
32804,18686,28348
32780,18700,28288
32796,18663,28423
32864,18665,28248
33061,18641,28426
33220,18642,28413
33248,18592,28377
33204,18596,28461
33116,18629,28573
32931,18665,28381
32772,18657,28554
32708,18665,28462
32740,18664,28615
32775,18666,28433
32909,18607,28616
33060,18597,28717
33104,18596,28535
33069,18608,28537
33016,18634,28745
32788,18624,28665
32580,18656,28725
32460,18669,28664
32316,18678,28836
32120,18677,28748
31916,18596,28914
31616,18593,28752
31076,18602,28873
30412,18581,28909
29796,18592,28852
29268,18626,28847
28961,18650,29058
29264,18660,28983
29846,18669,29190
30728,18632,29024
32048,18606,29196
33524,18596,29136
35065,18628,29310
36676,18587,29152
38788,18601,29157
41176,18661,29340
43616,18685,29400
45436,18736,29376
46192,18648,29284
45416,18653,29508
44328,18639,29504
43312,18612,29528
42250,18622,29575
41596,18629,29508
41336,18645,29511
40756,18612,29689
39640,18643,29664
38556,18653,29780
37660,18674,29604
36812,18611,29782
36044,18602,29844
35216,18613,29884
34384,18563,29807
33608,18572,30016
32940,18608,29913
32260,18645,29881
31608,18628,30037
31244,18644,30004
31048,18657,30128
30917,18605,29959
31020,18581,30176
31078,18583,30271
31032,18549,30084
30984,18564,30328
30945,18581,30421
30724,18633,30324
30552,18623,30520
30468,18628,30512
30472,18632,30492
30500,18598,30588
30644,18588,30782
30762,18570,30796
30812,18543,30777
30804,18555,30885
30832,18565,30757
30736,18613,30993
30616,18607,31069
30596,18619,31132
30637,18636,31057
30688,18593,31190
30869,18564,31059
31040,18556,31305
31128,18548,31259
31104,18553,31393
31040,18589,31270
30861,18583,31205
30712,18599,31438
30716,18607,31340
30772,18619,31535
30828,18591,31533
31008,18574,31434
31216,18532,31369
31276,18520,31575
31232,18551,31708
31168,18567,31519
30992,18580,31664
30884,18596,31778
30916,18607,31641
30908,18629,31801
30967,18573,31806
31169,18560,31790
31357,18541,31919
31420,18521,32048
31388,18535,31772
31356,18566,32019
31132,18567,32169
30960,18603,32034
30948,18607,32176
30989,18588,32168
31040,18586,32383
31212,18552,32229
31376,18522,32404
31428,18509,32320
31396,18524,32537
31332,18551,32391
31120,18596,32621
30984,18583,32574
30942,18602,32669
30992,18578,32812
31008,18572,32951
31108,18566,32684
31225,18508,32862
31252,18511,33093
31188,18526,32969
31200,18559,33076
31040,18554,33248
30912,18576,33287
30948,18587,33254
30976,18598,33425
31004,18556,33457
31173,18533,33532
31309,18519,33514
31372,18530,33668
31408,18502,33716
31432,18525,33693
31348,18577,33855
31220,18569,33956
31232,18592,33719
31292,18564,33927
31360,18566,33973
31573,18549,34153
31756,18505,34245
31824,18519,34168
31896,18546,34318
31944,18515,34229
31860,18551,34518
31836,18573,34396
31920,18586,34388
32032,18594,34619
32120,18597,34540
32284,18513,34788
32440,18519,34508
32540,18518,34750
32612,18554,34977
32700,18506,34780
32644,18543,34988
32532,18576,35142
32644,18605,34973
32760,18554,35180
32916,18549,35321
33144,18537,35221
33340,18529,35324
33404,18484,35319
33381,18498,35572
33364,18518,35439
33192,18559,35577
32964,18620,35527
32812,18556,35695
32688,18562,35478
32664,18573,35755
32833,18501,35921
32937,18500,35832
32920,18495,35972
32840,18492,36028
32736,18524,36068
32504,18546,36129
32288,18561,36192
32184,18580,36217
32160,18560,36301
32212,18545,36360
32376,18517,36420
32484,18496,36453
32456,18486,36556
32416,18506,36487
32340,18491,36565
32132,18519,36832
31952,18543,36911
31953,18559,36944
32001,18555,36828
32056,18552,36700
32244,18487,37028
32440,18468,37036
32476,18476,37037
32456,18476,37284
32449,18507,37286
32252,18541,37336
32076,18549,37436
32056,18566,37436
32080,18583,37373
32116,18519,37176
32257,18480,37564
32420,18457,37556
32480,18465,37502
32476,18469,37792
32412,18500,37651
32201,18555,37757
32020,18520,37767
32009,18527,37956
32032,18530,37930
32068,18520,37852
32324,18480,37620
32492,18469,37976
32538,18484,38012
32532,18491,37976
32512,18466,38062
32300,18492,38228
32128,18519,38228
32108,18522,38101
32078,18511,38079
32072,18509,37903
32268,18475,38268
32457,18462,38288
32500,18460,38258
32488,18484,38348
32480,18500,38407
32308,18492,38508
32110,18510,38264
32076,18535,38447
32190,18533,38355
32316,18532,38621
32516,18458,38596
32708,18439,38521
32796,18438,38372
32792,18450,38624
32746,18468,38627
32560,18503,38645
32384,18527,38670
32380,18540,38597
32404,18561,38772
32428,18480,38919
32576,18461,38848
32672,18445,38852
32696,18446,38828
32660,18444,38700
32628,18482,38973
32464,18476,38908
32334,18520,39136
32380,18525,38937
32404,18548,39084
32456,18489,39115
32612,18474,39076
32744,18463,39151
32756,18483,39201
32792,18415,39137
32812,18450,39269
32680,18481,39370
32556,18512,39232
32557,18495,39324
32616,18489,39282
32668,18469,39262
32856,18461,39494
33000,18447,39342
33057,18412,39415
33008,18424,39452
32964,18444,39518
32796,18497,39350
32660,18546,39490
32652,18487,39519
32680,18479,39431
32750,18468,39662
32920,18445,39532
33088,18439,39304
33132,18429,39596
33156,18442,39636
33160,18429,39476
32976,18459,39760
32820,18492,39632
32772,18498,39596
32816,18488,39303
32884,18477,39668
33052,18444,39660
33184,18424,39647
33224,18449,39697
33183,18405,39783
33104,18431,39681
32968,18462,39471
32868,18489,39320
32916,18515,39696
32941,18518,39685
32976,18452,39642
33068,18419,39735
33188,18418,39815
33188,18444,39578
33228,18397,39687
33272,18424,39700
33128,18468,39662
32996,18476,39652
32964,18485,39607
32928,18492,39801
32892,18480,39750
33041,18464,39622
33204,18434,39630
33288,18396,39695
33292,18399,39645
33268,18423,39812
33112,18460,39808
32968,18484,39696
32964,18486,39613
33060,18495,39424
33105,18487,39309
33214,18409,39699
33340,18391,39588
33416,18401,39760
33424,18410,39832
33452,18424,39828
33340,18453,39630
33160,18490,39324
33020,18506,39708
33012,18455,39652
33068,18439,39720
33188,18425,39815
33364,18401,39640
33428,18404,39553
33464,18401,39559
33417,18445,39719
33248,18433,39648
33082,18450,39770
33068,18458,39758
33164,18455,39740
33248,18442,39508
33440,18410,39349
33608,18383,39663
33572,18380,39634
33468,18404,39730
33408,18414,39644
33213,18446,39671
33068,18478,39813
33096,18478,39848
33100,18477,39841
33096,18466,39776
33264,18439,39745
33452,18439,39647
33536,18372,39468
33580,18390,39708
33565,18419,39564
33406,18439,39820
33280,18475,39780
33196,18474,39692
33096,18494,39445
33032,18468,39340
33224,18439,39711
33420,18444,39716
33488,18371,39684
33432,18392,39734
33397,18399,39836
33228,18438,39858
33056,18463,39845
33056,18480,39796
33076,18437,39675
33096,18424,39656
33236,18391,39604
33428,18376,39377
33448,18372,39747
33389,18393,39702
33320,18422,39849
33208,18417,39805
33080,18437,39684
33056,18463,39756
33089,18475,39716
33140,18484,39652
33173,18387,39900
33196,18365,39792
33196,18384,39717
33180,18384,39503
33184,18405,39796
33060,18461,39641
32908,18503,39917
32904,18439,39807
32872,18434,39746
32904,18418,39413
33028,18387,39408
33160,18366,39804
33180,18372,39769
33184,18376,39681
33172,18404,39905
33092,18435,39792
32916,18473,39575
32956,18438,39822
32996,18433,39807
33028,18436,39677
33168,18403,39943
33228,18389,39764
33200,18392,39436
33150,18364,39834
33176,18378,39757
33040,18415,39805
32960,18442,39935
33037,18448,39917
33144,18471,39768
33300,18481,39820
33492,18377,39847
33564,18360,39837
33464,18371,39847
33332,18359,39815
33330,18376,39484
33172,18413,39461
33072,18444,39828
33125,18459,39844
33216,18439,39812
33248,18432,39774
33325,18422,39743
33408,18398,39844
33380,18407,39884
33399,18352,39845
33440,18397,39424
33356,18421,39796
33260,18412,39725
33244,18422,39812
33284,18450,39807
33328,18437,39773
33456,18408,39431
33572,18414,39793
33556,18388,39672
33509,18356,39397
33444,18367,39790
33248,18425,39645
33085,18439,39841
33072,18457,39904
33044,18421,39769
32996,18396,39742
33096,18386,39431
33092,18369,39797
32884,18385,39629
32488,18350,39912
31984,18367,39860
31340,18418,39460
30592,18432,39793
29988,18452,39750
29592,18441,39740
29392,18429,39676
29752,18404,39921
30436,18354,39873
31188,18357,39752
31852,18383,39828
32756,18390,39801
33460,18433,39694
34344,18455,39887
35864,18476,39996
37878,18492,39943
40220,18424,39820
42157,18392,39900
42940,18391,39773
42136,18491,39892
41092,18405,39912
40372,18425,39784
39784,18417,39917
39540,18464,39909
39636,18465,39836
39612,18468,40031
39180,18471,39896
38476,18377,39592
37936,18371,39900
37412,18376,39877
36892,18385,39943
36304,18427,39524
35460,18401,39879
34600,18431,39908
33860,18448,40037
33292,18447,39980
32868,18446,39852
32668,18436,39704
32518,18349,39901
32310,18350,39876
32136,18364,39832
31972,18380,40021
31688,18415,39932
31424,18435,39923
31324,18442,39861
31300,18455,39556
31286,18392,39981
31388,18425,39985
31548,18349,40055
31640,18343,39973
31640,18364,40253
31686,18372,40173
31576,18422,39818
31412,18414,40185
31312,18422,40253
31244,18424,40364
31248,18428,40276
31360,18365,40249
31560,18346,40441
31649,18358,40271
31652,18364,40328
31728,18399,40340
31616,18442,40322
31380,18409,40288
31316,18420,40444
31344,18421,40401
31364,18420,40025
31484,18389,40360
31668,18363,40358
31816,18366,40384
31828,18372,40257
31756,18381,40489
31484,18404,40468
31329,18431,40454
31352,18424,40349
31436,18410,40080
31548,18388,40431
31689,18361,40382
31841,18356,40560
31910,18346,40450
31929,18351,40383
31882,18374,40076
31668,18404,40484
31592,18432,40352
31588,18458,40604
31610,18408,40364
31646,18395,40548
31808,18381,40596
32064,18353,40566
32096,18364,40548
32016,18377,40613
31924,18361,40840
31700,18390,40676
31616,18427,40485
31624,18428,40836
31676,18437,40804
31800,18396,41004
32000,18377,40948
32220,18341,40868
32260,18353,41156
32152,18364,41020
31968,18356,41162
31756,18389,41079
31598,18425,41389
31584,18472,41191
31708,18404,41405
31920,18416,41308
32224,18378,41637
32356,18383,41543
32260,18341,41408
32117,18342,41692
32072,18374,41698
31992,18408,41878
31924,18408,41800
31996,18414,41606
32072,18419,41985
32168,18409,42028
32432,18420,42141
32652,18345,42081
32704,18349,42236
32740,18383,42246
32773,18365,42268
32608,18405,41974
32508,18429,42423
32548,18428,42612
32672,18408,42185
32848,18407,42567
33156,18382,42527
33369,18346,42805
33456,18356,42759
33464,18393,42817
33436,18363,42837
33261,18404,42887
33244,18449,42876
33352,18421,43072
33472,18412,43148
33580,18411,43060
33857,18389,43176
34061,18349,43076
34112,18364,43257
34108,18364,43087
34068,18413,43393
33948,18399,43244
33844,18422,43465
33821,18451,43336
33708,18479,43538
33528,18399,43500
33440,18384,43593
33408,18389,43652
33438,18342,43644
33328,18365,43725
33180,18385,43692
32936,18450,43821
32708,18416,43855
32557,18428,43879
32480,18423,43897
32508,18421,43777
32620,18412,44061
32724,18342,43927
32676,18358,44101
32508,18366,43808
32316,18399,44228
32104,18394,44076
32052,18420,44240
32148,18428,44274
32244,18439,44072
32264,18393,44404
32425,18379,44364
32636,18377,44382
32692,18338,44472
32632,18361,44514
32548,18404,44508
32416,18394,44581
32328,18426,44655
32228,18428,44549
32168,18434,44695
32120,18445,44576
32188,18364,44780
32296,18364,44744
32472,18340,44654
32520,18350,44480
32528,18383,44885
32488,18412,44852
32352,18429,44793
32288,18461,44854
32341,18409,44565
32376,18417,44846
32469,18384,44941
32512,18381,44692
32466,18341,45005
32440,18358,44863
32480,18381,44975
32412,18428,44908
32272,18415,44679
32269,18421,45039
32332,18424,45028
32384,18446,44932
32576,18380,45093
32696,18409,45020
32720,18357,45044
32653,18365,44857
32592,18415,45080
32420,18394,45042
32357,18434,45088
32420,18415,45049
32464,18429,45108
32460,18436,45024
32596,18366,45046
32764,18369,45177
32716,18340,45173
32616,18354,45088
32582,18369,45158
32465,18401,45119
32292,18430,45036
32236,18447,44881
32358,18443,44862
32536,18442,45261
32728,18359,45240
32740,18344,45271
32732,18335,45220
32856,18342,45232
32877,18364,45183
32752,18413,45280
32600,18430,45300
32612,18425,45319
32612,18428,45316
32608,18423,45263
32736,18366,45153
32880,18348,45372
32896,18359,45376
32932,18365,45292
33040,18391,45364
33000,18427,45364
32822,18444,45380
32812,18416,45244
32805,18412,45412
32860,18404,45364
32992,18407,45388
32932,18340,45312
32812,18350,45078
32796,18384,45384
32900,18361,45380
32892,18394,45393
32864,18423,45311
32836,18425,45037
32946,18449,45262
33024,18464,45351
33160,18365,45215
33244,18343,45366
33124,18352,45336
33016,18369,45316
32889,18351,45031
32676,18392,45249
32694,18425,45282
32952,18466,44909
33052,18412,45279
33076,18386,45121
33080,18387,45198
33132,18373,45148
33184,18343,45114
33184,18345,45124
33133,18381,44949
32980,18416,45063
32920,18447,45080
32908,18453,44919
32940,18481,44996
33097,18393,44903
33340,18366,44669
33528,18363,44846
33605,18372,44884
33585,18377,44890
33508,18360,44736
33248,18397,44497
32932,18422,44852
32892,18452,44676
32932,18409,44752
33065,18390,44710
33182,18375,44520
33273,18363,44679
33320,18348,44687
33364,18383,44636
33380,18361,44400
33244,18397,44604
33113,18421,44551
33049,18432,44518
33120,18457,44444
33188,18393,44556
33436,18371,44388
33616,18376,44421
33616,18341,44116
33500,18341,44480
33344,18373,44309
33180,18439,44288
33140,18431,44375
33136,18449,44319
33188,18408,44376
33202,18404,44295
33388,18358,43962
33644,18347,44253
33724,18357,44192
33620,18414,44284
33512,18361,44197
33340,18409,43887
33236,18410,44016
33252,18441,44039
33348,18436,44132
33364,18393,44039
33358,18373,43727
33433,18391,44028
33488,18348,43838
33516,18381,43880
33437,18361,43976
33232,18402,43582
33064,18457,43812
32992,18415,43864
33012,18421,43791
33220,18412,43856
33612,18369,43701
33656,18351,43679
33584,18374,43776
33509,18345,43567
33516,18386,43648
33368,18399,43668
33224,18430,43527
33260,18452,43645
33260,18410,43276
33192,18405,43554
33216,18388,43572
33326,18368,43468
33476,18378,43357
33524,18360,43433
33518,18384,43390
33412,18444,43446
33156,18415,43225
32988,18433,43280
32925,18418,43357
32976,18404,43146
33076,18425,43344
33144,18354,43089
33236,18370,43270
33270,18348,43143
33276,18376,43126
33124,18409,43156
32945,18461,43137
32869,18421,43143
32908,18437,43144
32985,18405,42889
33116,18399,43077
33204,18349,43068
33276,18365,42928
33276,18388,43047
33164,18371,42969
33044,18421,42957
33008,18448,42785
33032,18473,42972
33005,18414,42908
33000,18407,42512
33184,18396,42884
33493,18414,42904
33544,18357,42648
33432,18375,42823
33260,18372,42847
33080,18410,42673
33053,18439,42775
33228,18425,42768
33316,18436,42633
33396,18405,42704
33352,18379,42669
33308,18381,42570
33400,18345,42614
33528,18364,42672
33521,18416,42452
33348,18401,42575
33216,18447,42412
33232,18447,42620
33200,18468,42424
33168,18411,42499
33284,18392,42324
33372,18344,42439
33436,18365,42432
33508,18390,42420
33488,18376,42276
33312,18420,42372
33121,18456,42309
32956,18423,42220
32896,18419,42300
33048,18407,42381
33376,18401,42168
33580,18342,42212
33558,18354,42069
33428,18363,42288
33296,18384,42132
33120,18421,42047
32860,18463,42085
32844,18423,42055
32736,18420,42028
32524,18413,42176
32340,18388,41954
32044,18392,41961
31540,18343,41944
30965,18368,42093
30248,18372,41672
29632,18426,41958
29388,18422,41428
29404,18439,41733
29716,18427,41777
30293,18416,41797
31044,18380,41885
32012,18377,41772
32936,18420,41897
33760,18390,41725
34956,18430,41648
36412,18429,41776
38288,18478,41657
40236,18479,41688
41496,18503,41535
41412,18432,41720
40473,18415,41380
39968,18439,41569
39696,18370,41575
39748,18407,41535
40000,18420,41228
39988,18460,41474
39584,18433,41367
38980,18468,41556
38020,18491,41352
37320,18409,41236
36984,18397,41472
36568,18386,41040
35980,18359,41301
35276,18386,41236
34597,18414,41404
33888,18415,41120
33309,18442,41189
32890,18432,41309
32425,18445,41004
32092,18440,41118
31953,18389,41220
31917,18397,40693
31904,18358,40964
31772,18378,40964
31611,18388,41024
31412,18429,41160
31289,18484,40991
31228,18447,40852
31072,18458,40948
31080,18414,40996
31384,18410,41144
31620,18378,41036
31695,18391,41030
31620,18366,40967
31552,18393,41019
31308,18463,41036
31129,18444,40937
31228,18461,41020
31368,18431,41009
31404,18416,40999
31601,18421,40984
31706,18363,40884
31632,18367,40863
31584,18376,41065
31688,18424,40858
31552,18409,40711
31340,18427,40487
31216,18439,40852
31200,18463,40757
31385,18409,40792
31696,18414,40753
31924,18363,40897
31936,18376,40473
31848,18400,40710
31813,18380,40736
31700,18422,40613
31620,18429,40636
31585,18445,40748
31516,18455,40284
31556,18404,40575
31800,18395,40748
31984,18394,40529
32025,18352,40578
32060,18363,40576
32036,18397,40481
31785,18439,40636
31660,18426,40519
31664,18446,40593
31660,18470,40596
31856,18405,40583
32057,18385,40615
32112,18360,40737
32164,18366,40293
32196,18423,40733
32236,18399,40684
32040,18452,40812
31796,18430,40684
31712,18445,40791
31648,18433,40948
31457,18419,40844
31780,18389,40851
32260,18402,41042
32512,18358,40957
32492,18373,40997
32413,18404,41044
32093,18476,41002
31852,18436,41239
31704,18453,40757
31732,18431,41084
31812,18426,41288
31996,18398,41261
32194,18357,41231
32364,18369,41302
32532,18428,41389
32612,18397,41580
32416,18455,41479
32248,18431,41526
32230,18452,41508
32192,18476,41607
32260,18431,41701
32464,18404,41698
32604,18422,41356
32604,18367,41703
32761,18376,41748
33057,18423,41863
33046,18418,41453
32956,18432,41879
33056,18466,41764
33108,18460,42030
33200,18413,41937
33452,18401,42081
33624,18423,41575
33624,18373,41948
33544,18393,42032
33756,18394,42052
33868,18432,42185
33872,18474,41972
33880,18441,42080
34044,18444,41956
34244,18437,42020
34384,18426,41675
34356,18366,42022
34393,18383,42238
34272,18377,42084
34076,18405,41681
33788,18466,42129
33668,18438,41973
33632,18462,42197
33420,18456,42068
33200,18439,42111
33181,18444,42017
33117,18366,42256
32973,18385,41973
32864,18385,42179
32768,18418,42020
32540,18461,42262
32524,18439,42168
32676,18462,42198
32612,18447,42212
32436,18449,42354
32484,18428,42181
32588,18370,41909
32656,18362,42276
32724,18373,42166
32724,18404,42297
32592,18481,42336
32364,18436,42416
32260,18440,42421
32289,18449,42375
32336,18452,42420
32392,18388,42320
32572,18380,42445
32757,18400,42478
32744,18367,42063
32600,18400,42423
32376,18481,42520
32248,18455,42491
32312,18479,42620
32328,18431,42448
32484,18420,42479
32596,18408,42503
32744,18363,42382
32792,18363,42596
32900,18384,42503
32884,18388,42564
32672,18429,42432
32512,18449,42660
32580,18481,42308
32504,18428,42548
32484,18428,42654
32624,18379,42516
32752,18365,42554
32876,18373,42646
32732,18412,42476
32570,18388,42551
32328,18435,42612
32350,18426,42477
32432,18443,42541
32464,18450,42422
32564,18455,42671
32724,18375,42164
32781,18380,42601
32728,18373,42564
32617,18364,42696
32600,18394,42215
32452,18427,42644
32304,18475,42660
32272,18437,42564
32190,18436,42668
32224,18460,42668
32528,18381,42632
32784,18372,42297
32785,18396,42680
32832,18363,42796
32788,18401,42708
32636,18414,42750
32396,18446,42692
32280,18433,42817
32408,18438,42869
32716,18436,42773
32992,18377,42451
33056,18375,42732
32868,18398,42876
32716,18363,42932
32696,18404,42909
32544,18405,42868
32472,18436,42932
32602,18473,43015
32685,18424,42877
32784,18417,43036
32992,18394,42918
33100,18357,43064
33080,18364,43036
32920,18383,43082
32772,18380,43169
32632,18410,43124
32576,18444,42772
32556,18472,43196
32500,18426,43237
32612,18426,43133
32788,18375,43241
32860,18353,43228
32996,18372,43300
33212,18375,43192
33092,18407,43280
32768,18413,43316
32584,18444,43271
32676,18429,43244
32681,18436,43384
32713,18404,43384
32864,18396,43300
32924,18393,43436
32952,18354,43271
33093,18372,43445
33229,18367,43399
33021,18429,43311
32848,18423,43373
32706,18445,43525
32476,18429,43405
32560,18405,43561
32844,18382,43386
32928,18396,43573
33046,18348,43438
33144,18384,43503
33056,18381,43620
32856,18429,43511
32784,18478,43553
32784,18426,43621
32788,18416,43613
32752,18412,43688
32872,18412,43596
32976,18355,43742
33016,18377,43716
32912,18388,43613
32508,18380,43767
32216,18424,43780
32272,18459,43652
32568,18424,43844
32844,18447,43621
32888,18427,43904
32976,18371,43782
32988,18354,43895
33032,18364,43572
33116,18356,43797
33028,18394,43828
32752,18476,43996
32720,18439,43959
32708,18461,43793
32620,18423,44038
32750,18402,44032
33041,18385,43704
33185,18356,43905
33192,18353,44068
33152,18366,43780
33096,18416,44071
32900,18410,44109
32576,18424,43949
32288,18445,44021
32256,18451,44080
32476,18406,44065
32916,18394,43804
33160,18355,44060
33236,18373,44090
33144,18393,43944
32932,18383,44172
32572,18415,43984
32356,18439,44133
32412,18450,43940
32538,18488,44166
32548,18412,44012
32665,18399,44080
32800,18417,44121
32888,18364,44063
32932,18385,44132
32796,18392,43772
32520,18436,44149
32372,18467,44076
32241,18509,44068
32220,18449,43799
32392,18452,43984
32489,18393,44124
32408,18388,43911
32336,18430,44145
32356,18400,44136
32320,18446,44191
32192,18465,43841
32324,18451,44193
32473,18463,44060
32516,18469,44165
32652,18481,43956
32772,18401,44194
32832,18405,44175
32972,18377,43869
33012,18404,44105
32772,18449,44197
32492,18460,44248
32485,18456,44204
32532,18465,44252
32584,18453,44180
32745,18436,44100
33072,18438,44265
33184,18394,44218
33164,18427,44277
32952,18395,44201
32776,18437,44128
32660,18443,44293
32408,18462,44280
32492,18477,44260
32740,18517,44239
32988,18453,44129
33124,18437,44254
33268,18386,44287
33280,18402,44141
33288,18445,44272
33256,18427,44005
33180,18479,44180
33124,18467,44215
32952,18502,44300
32748,18457,44319
32601,18469,44344
32640,18405,44348
32788,18408,44006
32900,18389,44280
33008,18413,44356
32952,18463,44404
32736,18461,44317
32504,18457,44364
32544,18477,44284
32572,18454,44423
32552,18452,44340
32568,18447,44122
32432,18384,44422
31904,18400,44392
31208,18388,44436
30596,18436,44285
29800,18471,44280
29076,18464,44437
28700,18476,44422
28740,18486,44272
29184,18444,44484
29948,18434,44312
30764,18439,44422
31620,18417,44452
32464,18441,44444
33162,18441,44446
34376,18482,44348
36036,18504,44150
38264,18557,44524
40352,18489,44348
41724,18484,44420
41989,18490,44224
41248,18429,44508
40696,18432,44364
40484,18468,44423
40632,18435,44452
40780,18499,44320
40736,18515,44396
40416,18477,44100
39584,18483,44324
38673,18450,44336
38116,18444,44456
37488,18482,44422
36684,18420,44061
36005,18444,44288
35108,18427,44404
34188,18470,44076
33516,18470,44348
33038,18492,44247
32656,18535,44404
32332,18469,44348
32262,18448,44036
32056,18397,44400
31845,18408,44340
31776,18425,44225
31480,18423,44422
31164,18472,44390
31056,18495,44101
30932,18468,44476
30912,18476,44456
31005,18462,44365
31228,18412,44564
31221,18404,44539
31316,18391,44304
31224,18416,44557
30860,18445,44612
30688,18448,44340
30672,18478,44512
30905,18468,44485
31104,18474,44585
31120,18440,44540
31193,18421,44660
31232,18434,44653
31228,18412,44676
31196,18425,44593
31264,18417,44333
31232,18463,44504
31228,18469,44480
31214,18476,44496
31280,18502,44580
31384,18447,44537
31452,18432,44444
31556,18394,44496
31469,18409,44201
31572,18430,44420
31632,18420,44461
31389,18475,44521
31192,18461,44508
31096,18474,44180
31048,18502,44479
31280,18457,44504
31561,18447,44556
31784,18409,44500
31980,18413,44389
31968,18405,44573
31812,18436,44596
31517,18469,44551
31192,18511,44301
31100,18465,44700
31112,18476,44597
31320,18459,44753
31688,18446,44716
31708,18389,44488
31544,18400,44908
31312,18410,44836
31376,18460,44965
31432,18444,44722
31392,18477,45063
31368,18465,45052
31668,18469,45188
31808,18464,45270
31960,18407,44972
32164,18405,45293
31974,18428,45289
31802,18401,45508
31732,18437,45548
31556,18511,45272
31436,18486,45554
31416,18509,45621
31500,18480,45814
31700,18476,45797
31696,18408,45805
31554,18409,45924
31792,18396,46020
31996,18402,46009
31900,18447,45940
31720,18450,46206
31700,18480,46113
31745,18482,46268
31810,18463,45999
31932,18443,46396
32220,18421,46404
32385,18431,46423
32560,18393,46140
32524,18404,46580
32236,18434,46574
32332,18505,46620
32608,18482,46657
32804,18501,46688
32972,18463,46780
33068,18447,46542
33076,18453,46844
33320,18400,46912
33564,18411,46783
33720,18430,47012
33860,18420,46949
33756,18466,47085
33476,18484,46924
33432,18512,47153
33516,18467,47081
33688,18455,47140
33952,18453,47263
33960,18402,47213
33988,18408,47329
34320,18452,47347
34400,18422,47417
33988,18478,47372
33576,18488,47492
33300,18508,47442
33052,18466,47357
32852,18452,47576
33016,18431,47620
33268,18433,47591
33208,18396,47660
33016,18412,47556
32724,18450,47407
32580,18480,47374
32586,18484,47796
32484,18511,47844
32465,18460,47820
32424,18461,47900
32648,18431,47932
32744,18425,47838
32756,18452,47980
32644,18403,47975
32652,18439,48044
32480,18451,47866
32224,18480,48029
32184,18515,48084
32232,18455,47742
32384,18455,48180
32356,18422,48101
32252,18428,48204
32416,18390,48015
32420,18401,48276
32580,18435,48180
32620,18497,48281
32624,18470,48271
32492,18478,48303
32448,18489,48336
32544,18432,48263
32568,18415,48004
32656,18407,48412
32753,18452,48292
32828,18388,48389
32800,18436,48388
32640,18488,48380
32348,18464,48326
32152,18473,48444
31988,18468,48374
32058,18473,48456
32413,18405,48372
32772,18404,48434
32968,18431,48376
33012,18398,48432
33056,18441,48316
32770,18491,48416
32445,18459,48324
32416,18479,48133
32640,18484,48405
32696,18433,48391
32708,18416,48076
32668,18424,48380
32724,18382,48263
32908,18404,48352
32872,18415,48332
32586,18455,48239
32384,18495,48300
32485,18463,48060
32536,18473,48260
32512,18471,48263
32784,18400,48109
33028,18396,48185
33136,18420,48215
33020,18392,48196
32880,18439,48054
32796,18463,48168
32596,18499,48127
32620,18457,48151
32640,18462,48048
32732,18436,48098
32844,18421,48128
33040,18456,48032
33080,18381,48056
32988,18405,47636
32788,18473,47997
32336,18449,48028
32296,18469,47956
32524,18492,47644
32708,18452,48004
32904,18444,47879
33036,18405,47925
32944,18398,47540
32925,18405,47913
33036,18434,47785
33028,18415,47862
32624,18443,47836
32328,18473,47621
32488,18499,47807
32820,18495,47773
32924,18428,47660
33057,18424,47713
33180,18410,47437
33180,18378,47652
33192,18405,47508
33020,18452,47519
32688,18448,47489
32448,18479,47487
32637,18491,47432
32656,18451,47332
32525,18445,46969
32510,18418,47342
32712,18422,47212
33004,18426,47255
33084,18389,47156
33108,18434,47152
33024,18464,47151
32668,18503,47012
32348,18463,47044
32620,18467,46983
33008,18480,46896
33486,18402,46879
33600,18403,46895
33501,18388,46780
33372,18409,46724
33336,18462,46756
33156,18448,46695
32912,18482,46680
32748,18458,46396
32740,18477,46597
32924,18457,46489
33212,18442,46532
33100,18390,46361
32826,18411,46452
32909,18438,46292
33176,18416,46353
33248,18471,46153
33068,18483,45902
32889,18504,46255
32896,18463,46098
33160,18447,46111
33560,18426,45922
33572,18441,46060
33492,18389,45988
33388,18406,45977
33124,18446,45733
32816,18449,45908
32716,18476,45849
33056,18508,45665
33216,18463,45759
33188,18458,45703
33248,18439,45648
33204,18396,45284
33176,18409,45440
33133,18468,45464
32908,18443,45472
32744,18490,45319
32653,18468,45343
32580,18488,45029
32504,18500,45228
32476,18463,45136
32840,18450,45167
33120,18396,45044
33125,18409,44989
33104,18445,44713
32772,18426,44980
32600,18472,44900
32588,18476,44547
32416,18498,44761
32605,18494,44740
32892,18447,44528
33285,18434,44679
33584,18444,44592
33636,18398,44335
33568,18420,44544
33396,18478,44447
33072,18480,44359
32796,18508,44069
32760,18479,44333
32828,18496,44295
32752,18477,44148
32848,18463,43897
33225,18405,44137
33468,18426,44153
33585,18430,44057
33608,18496,43764
33344,18473,44084
33068,18496,43948
33304,18521,43964
33484,18479,43608
33476,18462,43865
33455,18466,43905
33304,18409,43508
33356,18422,43783
33344,18460,43812
33504,18437,43484
33408,18484,43764
33180,18487,43700
33024,18497,43748
33232,18535,43719
33340,18466,43655
33604,18460,43584
33664,18419,43536
33474,18431,43556
33336,18469,43452
33436,18447,43502
33440,18501,43584
33308,18527,43476
33120,18500,43335
33172,18543,43388
33280,18478,43372
33340,18456,43501
33328,18416,43466
33328,18429,43220
33168,18443,43454
33036,18516,43271
32718,18493,43420
32320,18532,43389
32044,18503,43376
31168,18519,43015
30676,18468,43232
30254,18458,43268
29770,18431,43383
29444,18441,43365
28988,18471,42940
29038,18473,43295
29685,18504,43361
30524,18543,42948
31468,18528,43289
32560,18545,43317
33512,18501,43180
34928,18488,43302
36492,18494,43129
38376,18466,43300
40536,18505,43132
42448,18541,43247
42932,18615,43220
42120,18546,43140
41376,18568,43271
41168,18575,43012
41720,18511,43037
42720,18522,43100
43108,18454,43204
42528,18472,43132
41384,18537,43081
39896,18500,43180
38556,18532,43058
37636,18599,43216
36774,18551,42968
36092,18571,43169
35372,18500,43007
34800,18505,43184
34208,18465,42992
33632,18471,43137
32881,18502,42992
32320,18495,43178
31872,18541,43037
31552,18563,43111
31222,18536,43084
30872,18546,43204
30672,18545,43135
30900,18485,43248
31316,18482,43108
31308,18466,43221
31148,18485,43322
30957,18559,43184
30680,18540,43373
30560,18575,43103
30640,18545,43406
30648,18541,43465
30760,18522,43400
30944,18508,43518
31056,18526,43396
30960,18479,43485
31028,18494,43519
31022,18540,43505
30972,18535,43431
30876,18564,43561
30784,18554,43580
30600,18549,43508
30652,18541,43188
31032,18529,43588
31264,18486,43433
31145,18495,43481
30860,18525,43543
30720,18518,43470
30924,18569,43536
30816,18603,43340
30956,18561,43624
31188,18566,43538
31124,18550,43655
31152,18505,43700
31140,18502,43693
31013,18494,43481
31013,18502,43833
30916,18541,43703
30784,18591,43892
30776,18572,43823
30764,18579,43956
30652,18583,44056
30932,18585,44105
31092,18517,44108
31104,18510,43917
31272,18528,44359
31268,18512,44302
31208,18552,44413
31036,18573,44585
30776,18598,44532
30853,18620,44716
31104,18583,44684
31020,18573,44924
30956,18561,44885
31288,18518,44974
31364,18545,45223
31204,18523,45165
31084,18574,45374
30892,18604,45364
30800,18596,45590
30928,18608,45676
31064,18604,45684
31164,18597,45860
31244,18540,45982
31154,18552,46024
31239,18537,45951
31392,18564,46361
31344,18567,46430
31004,18619,46336
30828,18648,46632
30688,18622,46804
30752,18616,46797
31057,18609,46949
31372,18564,46708
31546,18556,47174
31540,18569,47310
31568,18599,47044
31552,18589,47520
31452,18628,47660
31360,18640,47791
31437,18668,47878
31508,18663,47924
31436,18607,47936
31568,18578,48228
31972,18589,48328
32432,18592,48485
32584,18628,48204
32620,18609,48679
32372,18643,48717
32192,18664,48884
32108,18670,48997
32277,18685,48816
32424,18665,49240
32868,18649,49364
33296,18636,49456
33509,18588,49500
33716,18596,49671
33736,18641,49745
33352,18664,49728
33040,18692,49616
33068,18696,49757
33036,18695,49988
33132,18639,50236
33344,18615,50378
33552,18622,50392
33516,18630,50567
33216,18661,50624
32792,18636,50597
32536,18681,50863
32344,18705,50863
32460,18743,51076
32644,18675,51028
32812,18660,50912
32624,18637,51358
32428,18650,51449
32280,18613,51484
32332,18626,51572
32448,18665,51677
32112,18732,51786
31837,18689,51822
31860,18697,51999
32080,18700,52089
32288,18697,52092
32632,18703,52168
32812,18624,52276
32760,18633,52453
32541,18644,52479
32156,18657,52572
31636,18700,52591
31860,18716,52799
32157,18732,52796
32229,18697,52897
32364,18670,52941
32556,18660,53112
32741,18641,53080
32698,18652,53156
32821,18674,53286
32708,18668,53423
32512,18703,53396
32436,18725,53565
32480,18754,53570
32560,18705,53706
32396,18676,53639
32296,18657,53312
32556,18659,53908
32957,18681,53997
33044,18655,54060
32896,18703,54151
32516,18767,53828
32220,18724,54247
32004,18736,54340
31908,18750,53796
32268,18687,54363
32812,18665,54516
32948,18673,54145
33072,18676,54560
32853,18708,54677
32584,18695,54620
32420,18727,54768
32408,18775,54840
32476,18744,54381
32685,18742,54919
32807,18764,54953
32788,18681,54937
32904,18685,54984
32664,18720,55047
32660,18693,55174
32688,18740,55152
32600,18738,55240
32444,18762,55319
32308,18791,54736
32276,18745,55303
32222,18732,55431
32318,18711,55397
32417,18721,55535
32218,18688,55589
32444,18700,55544
32644,18743,55544
32464,18764,55652
32180,18793,55756
32328,18762,55649
32272,18753,55448
32388,18732,55836
32436,18718,55776
32488,18711,55917
32532,18705,55916
32480,18734,55498
32560,18733,55940
32628,18762,55992
32492,18782,56048
32468,18798,55670
32312,18799,56046
32344,18765,56000
32412,18732,56036
32288,18724,56156
32476,18733,56048
32672,18714,56157
32808,18744,56168
32545,18796,56200
32144,18836,55744
32116,18801,56149
32129,18802,56236
32036,18761,55900
32400,18736,56172
32604,18731,56248
32780,18767,56124
32804,18735,56172
32461,18773,56256
32260,18822,56086
32149,18797,56244
32228,18807,56164
32412,18823,56246
32408,18772,56136
32364,18749,56175
32452,18727,56180
32828,18726,56245
33144,18751,56124
32984,18790,56217
32580,18845,56244
32448,18809,56036
32388,18831,56164
32377,18854,56222
32356,18788,55780
32400,18772,56189
32582,18749,56169
32736,18746,56071
32708,18766,56071
32784,18785,56084
32736,18823,56152
32748,18852,56157
32612,18865,56105
32460,18823,55548
32552,18810,56084
32600,18781,56076
32544,18792,56046
32592,18758,55988
32813,18789,56013
32764,18790,55860
32312,18835,56080
32004,18857,56016
31924,18880,56052
32036,18836,56040
32308,18822,55972
32421,18820,55937
32709,18766,56008
32748,18798,55996
32704,18805,55844
32592,18811,55972
32388,18846,55972
32324,18866,55559
32350,18884,55864
32096,18882,55900
31924,18860,55856
32216,18797,55488
32288,18812,55863
32216,18822,55864
32256,18793,55248
32164,18834,55684
32024,18876,55650
31988,18866,55752
31909,18884,55751
32128,18880,55156
32340,18887,55588
32496,18812,55632
32517,18813,55543
32646,18825,55572
32592,18844,55621
32420,18841,55364
31905,18886,55492
31980,18892,55559
32284,18909,55388
32460,18937,55492
32384,18850,55421
32456,18833,55420
32588,18827,54902
32472,18836,55431
32520,18860,55341
32688,18850,55364
32584,18883,55252
32256,18911,55269
32368,18911,55332
32552,18922,55276
32752,18861,55328
33032,18832,55228
33032,18829,55253
33000,18848,55257
32948,18855,55244
32820,18888,55260
32652,18894,55100
32384,18906,55113
31888,18912,55208
31816,18934,55174
32076,18880,55183
32856,18864,55175
32985,18839,54612
33000,18839,55118
32940,18855,55092
32813,18900,55109
32724,18902,54836
32684,18915,55036
32736,18923,55085
32580,18937,55100
32616,18931,55004
32848,18856,54970
33040,18861,55028
33156,18888,55079
33116,18864,54912
32828,18901,55029
32324,18951,54960
32224,18924,54981
32296,18951,55021
32180,18951,55028
31896,18946,54872
31418,18876,54990
30744,18874,54904
30432,18898,54948
29960,18872,54984
29132,18916,54964
28788,18933,54860
28326,18948,54919
28012,18964,54926
28248,18972,54852
28972,18919,54880
30180,18914,54953
31481,18887,54917
32509,18912,54904
33296,18966,54816
34264,18948,54813
36028,19023,54629
38392,18990,54900
40524,19008,54909
41884,19045,54397
41856,18966,54884
41052,18944,54861
41076,18946,54585
41408,18914,54768
42380,18909,54845
43388,18976,54585
43492,18995,54791
42944,19047,54836
41364,18976,54719
39788,18969,54676
38828,18942,54742
38124,18916,54777
37184,18932,54685
36356,18921,54753
35388,18934,54788
34276,18970,54620
33152,19009,54693
32168,18985,54708
31576,18993,54744
31336,18992,54597
30944,18988,54756
30824,18924,54677
30964,18924,54684
31068,18931,54804
31056,18963,54745
30700,18952,54855
30324,18997,54480
30112,19028,54886
30172,19000,54790
30237,19000,54919
30496,18996,54791
30496,18936,54918
30808,18937,54860
31004,18965,54876
31216,18929,54441
30728,18968,54919
30110,19025,54861
29792,19004,54784
29936,19012,54790
30404,19023,54852
30776,18978,54884
31040,18948,54716
31436,18961,54812
30776,18933,54855
30361,18948,54677
30256,18981,54791
30182,19030,54724
30216,19012,54649
30264,19024,54772
30612,19009,54772
30732,18990,54756
30904,18980,54708
31004,18941,54759
31025,18951,54692
30792,18977,54708
30744,18982,54660
30516,19012,54816
30592,19040,54854
30600,19061,54431
30568,19012,54816
31040,19001,54892
31336,18988,54813
31072,18954,54860
30582,18969,55008
30800,18974,54919
31072,19012,54972
31076,19050,55116
30980,19032,55037
30817,19039,55204
30728,19037,54784
30728,19028,55292
30868,19019,55261
31088,18958,55321
31108,18968,55461
30981,18976,55509
30944,19023,55472
30668,19052,55428
30488,19077,55592
30624,19050,55599
30660,19044,55711
31072,19025,55720
31412,19024,55303
31556,18972,55788
31312,18993,55913
31025,18983,55615
30732,19024,55951
30420,19061,56076
30361,19052,56032
30264,19062,56084
30565,19080,56132
30596,19027,56196
30825,19012,56292
30972,19023,56252
31012,18985,56276
30988,19012,56349
30936,19052,56432
30448,19095,56380
30028,19072,56413
30440,19081,56544
30808,19063,56564
30912,19046,56564
30968,19024,56559
30988,19037,56583
30996,19003,56711
31588,19021,56309
31588,19050,56711
31565,19108,56781
31508,19083,56735
31457,19096,56756
31552,19079,56860
31584,19049,56485
31720,19033,56922
32244,19033,56925
32544,19051,57010
32488,19019,57020
32392,19070,57084
32328,19109,57045
32556,19143,57138
32660,19089,56656
32917,19090,57214
33180,19064,57144
33516,19064,57296
33288,19023,56708
32904,19034,57263
32796,19076,57324
32944,19060,57150
33300,19100,57415
33080,19117,57383
33120,19094,57444
33169,19103,57553
32976,19098,57569
32864,19035,57532
33156,19029,57572
33033,19061,57597
33028,19030,57732
32700,19083,57684
32680,19108,57218
33076,19139,57772
33176,19094,57889
32988,19106,57424
32844,19101,57812
32988,19039,57960
33880,19030,57920
33740,19055,58048
33456,19095,58005
33304,19064,58093
33388,19103,58144
33100,19119,58047
33200,19130,58112
33304,19140,58244
33120,19090,58212
32768,19061,58344
32712,19053,58404
33140,19023,58280
33508,19045,58385
33580,19092,58357
33342,19089,58495
33184,19112,58364
33145,19134,58565
32928,19156,58502
32888,19067,58556
33360,19057,58612
33794,19051,58489
33820,19085,58660
33568,19039,58696
33476,19085,58604
33480,19108,58756
33356,19148,58660
33186,19106,58759
33113,19111,58806
33100,19081,58759
33252,19069,58753
33396,19082,58864
33824,19037,58735
33672,19058,58360
33620,19081,58877
33324,19119,58833
33101,19147,58887
32980,19108,58844
33160,19108,58768
33368,19089,58808
33576,19082,58916
33564,19036,58375
33620,19052,58872
33452,19063,58916
33160,19112,58789
32684,19106,58924
32556,19132,58941
32544,19132,58836
32556,19152,58804
33156,19075,58916
33520,19072,58887
33368,19063,58864
33416,19080,58840
33652,19044,58852
33656,19100,58925
33532,19133,58817
33228,19116,58841
32828,19122,58887
32908,19127,58880
33284,19141,58812
33500,19058,58855
33272,19063,58750
32979,19072,58840
33308,19053,58756
33468,19090,58817
33221,19147,58471
32824,19165,58716
32612,19121,58716
32588,19130,58765
32746,19124,58552
33332,19069,58708
33500,19069,58656
33404,19050,58541
33624,19056,58588
33599,19096,58484
33016,19154,58533
33340,19124,58404
33844,19141,58392
33588,19119,58365
33540,19104,58408
33646,19085,58369
33480,19053,58264
33456,19076,58288
33328,19078,58140
33152,19134,58223
32889,19121,58052
33256,19145,58135
33444,19125,58030
32960,19137,57740
33028,19159,57956
33668,19064,57983
34084,19062,57881
34192,19084,57756
34100,19062,57796
33732,19113,57775
33132,19132,57773
32788,19173,57632
32805,19133,57648
32916,19136,57656
33136,19150,57351
33488,19084,57444
33988,19086,57476
33828,19058,57412
33482,19081,57385
33185,19130,57253
33428,19116,57236
33704,19143,57180
33812,19156,57248
33852,19148,57196
33828,19142,57036
33944,19070,57012
33588,19053,57037
33297,19079,56928
33272,19087,56856
33024,19096,56887
33172,19140,56742
33696,19165,56788
33900,19130,56524
33552,19135,56688
33186,19128,56571
33352,19130,56596
33632,19070,56390
33668,19076,56248
33952,19111,56413
33876,19099,56367
33664,19139,56212
33534,19148,56046
32904,19168,56148
32336,19175,56008
33092,19101,56032
33216,19096,55720
33532,19092,55890
33316,19061,55880
33312,19075,55736
32900,19110,55508
32784,19154,55645
32796,19185,55620
33268,19140,55431
33340,19150,55480
33052,19129,55356
33224,19134,54845
33476,19069,55300
33524,19088,55158
33564,19091,55060
33596,19104,55078
33176,19128,54992
32832,19140,54967
32992,19157,54854
33440,19154,54473
33668,19108,54768
33412,19084,54599
33828,19081,54580
33448,19085,54574
33460,19108,54431
33472,19160,54101
33272,19132,54380
33556,19162,54320
33596,19199,54189
33504,19140,54132
33352,19119,54071
33877,19079,54061
33672,19068,53828
33624,19096,53920
33780,19079,53872
33588,19125,53688
33364,19190,53676
33256,19157,53668
33449,19173,53092
33732,19129,53436
34052,19119,53456
33684,19136,53172
33400,19074,53333
33436,19068,52972
34004,19093,53135
34106,19132,53120
33360,19131,53056
32920,19162,52968
33188,19185,52916
33629,19139,52868
33572,19127,52809
33824,19076,52247
33736,19083,52560
33752,19067,52509
33504,19084,52536
33044,19164,52504
33086,19143,52359
32684,19162,52240
32360,19141,52256
32120,19138,52192
31828,19114,52086
31484,19110,52068
30877,19073,51940
30012,19086,51899
29092,19079,51896
28384,19118,51828
28560,19167,51656
28952,19154,51687
29696,19164,51181
30756,19144,51540
31792,19120,51537
32300,19116,51332
33572,19092,51393
35237,19116,51264
37732,19135,51180
40632,19223,50695
42344,19164,51119
43472,19196,51076
43488,19169,50823
43276,19189,50900
43876,19127,50876
45068,19112,50799
46988,19188,50647
48268,19087,50607
47700,19132,50632
45824,19108,50572
43040,19153,50316
40740,19204,50455
39452,19150,50355
38316,19149,50304
37312,19165,50229
36516,19127,50122
35324,19075,50070
34004,19085,50055
33244,19120,49927
32996,19110,49868
32340,19148,49895
31772,19173,49756
31460,19141,49721
31108,19151,49742
30780,19108,49666
30620,19092,49581
30888,19120,49554
30704,19093,49448
30394,19113,49532
30680,19124,49488
30832,19133,49457
30445,19151,49380
30200,19149,49172
30492,19145,49212
30748,19104,49100
30476,19098,49089
30684,19068,49031
30324,19079,49044
30604,19076,48992
30784,19123,48552
30223,19152,48820
30388,19142,48796
30440,19163,48689
30416,19133,48687
30544,19119,48600
30486,19108,48356
30832,19080,48479
30584,19096,48432
30392,19091,48328
30304,19105,48310
30412,19146,48276
30357,19144,48207
30222,19162,48165
30416,19135,48112
30452,19117,47912
30348,19079,47957
30900,19100,47868
30973,19078,47887
30692,19113,47844
30584,19106,47804
30568,19143,47788
30512,19175,47824
30916,19141,47623
30824,19138,47389
30608,19125,47688
30600,19079,47719
30548,19079,47340
30400,19064,47677
30304,19087,47673
30258,19125,47495
30476,19129,47652
30569,19148,47596
30688,19164,47604
30673,19132,47612
30537,19124,47586
30640,19088,47173
30548,19087,47524
30580,19070,47532
30676,19101,47572
30669,19104,47552
30784,19145,47412
30812,19169,47561
30492,19141,47532
29944,19142,47384
29736,19129,47549
30240,19088,47525
30284,19084,47108
30024,19100,47476
30296,19075,47511
30180,19116,47461
30036,19153,47111
29964,19138,47457
29848,19156,47504
29816,19138,47521
29888,19137,47504
30212,19086,47364
30100,19084,47508
30460,19103,47524
30412,19089,47524
30156,19130,47167
30176,19137,47520
30168,19156,47439
30216,19148,47396
29812,19156,47508
29738,19109,47492
30132,19090,47516
30428,19075,47510
30880,19084,47153
31264,19084,47422
30788,19123,47385
30599,19145,47482
30520,19171,47485
30940,19202,47076
30812,19159,47424
31140,19111,47228
31820,19119,47420
32196,19092,47352
32080,19140,47472
32080,19102,47461
32492,19116,47504
32356,19165,47477
32204,19153,47457
32232,19168,47446
32480,19141,47336
32704,19129,47495
32749,19140,47468
32924,19103,47214
32988,19109,47463
33112,19079,47400
33324,19143,47412
33092,19141,47376
33048,19182,47415
32852,19148,47436
32696,19169,47484
32592,19108,47485
33060,19095,47465
33368,19073,47461
33665,19076,47468
33584,19095,47200
33268,19133,47477
32968,19132,47463
33248,19159,47464
33468,19144,47461
33348,19156,47036
33460,19137,47372
33776,19077,47428
34096,19079,47111
33900,19110,47456
33668,19073,47421
33660,19128,47016
33661,19130,47318
33429,19152,47388
33376,19167,47000
33504,19128,47297
33612,19111,47231
33956,19076,47300
34128,19073,47271
33876,19092,47340
33564,19077,47280
33554,19162,47327
33408,19145,47176
33604,19136,47224
33548,19137,47096
33176,19144,47236
33448,19096,47271
33884,19100,47269
33764,19067,47214
33612,19061,47167
33744,19108,46828
33712,19117,47216
33668,19122,47225
33428,19170,47052
33172,19145,47141
33040,19168,47084
33024,19105,47160
33288,19097,47143
33672,19079,47106
33464,19058,46972
33568,19108,47021
33548,19115,47036
33340,19126,47000
33000,19175,46976
33012,19151,46928
33205,19172,46966
33472,19121,46913
33704,19071,46953
33428,19073,46900
33116,19062,46944
33076,19097,46914
32992,19106,46908
32832,19169,46831
32680,19163,46868
32704,19140,46689
32820,19191,46807
32876,19125,46825
33272,19082,46756
33400,19101,46727
33342,19079,46629
33184,19126,46614
33012,19117,46292
32752,19134,46599
32737,19161,46493
32600,19144,46636
32804,19153,46244
32884,19108,46550
33009,19100,46208
33172,19132,46460
32964,19079,46481
32714,19103,46383
33084,19123,46410
33068,19172,46412
32844,19169,46337
32752,19200,46353
32652,19165,46255
32812,19173,46253
32932,19094,46201
32848,19080,46196
32964,19109,46114
33028,19093,46104
32718,19160,45982
32224,19158,45985
32516,19160,45921
32768,19173,45920
32784,19146,45818
32840,19146,45556
33100,19097,45649
33309,19101,45348
33240,19092,45629
33228,19105,45524
32892,19172,45593
32800,19180,45508
32756,19218,45500
32790,19188,45407
32812,19156,45401
32976,19138,45317
33112,19108,45316
33008,19100,45168
32800,19101,45116
33112,19117,45148
33036,19135,45061
32920,19182,45005
32860,19173,44849
32864,19173,44893
32813,19190,44935
33084,19140,44719
33116,19142,44708
33056,19107,44748
32925,19139,44705
32992,19128,44604
33104,19146,44645
33016,19165,44455
32876,19202,44460
32608,19190,44412
32428,19212,44436
32702,19153,44332
32952,19173,44393
33173,19130,44276
33144,19111,44229
33113,19135,44204
33028,19151,44142
32952,19204,44124
32824,19193,44108
32705,19229,44039
32828,19205,43984
32948,19169,43782
33220,19139,43776
33228,19174,43804
33096,19141,43823
32990,19130,43752
32832,19186,43716
32944,19197,43623
32536,19197,43421
32416,19218,43156
32420,19192,43522
32668,19167,43298
32775,19154,43063
32832,19132,43367
32912,19194,43292
32888,19152,43233
33064,19168,43168
32960,19225,43130
32708,19207,43133
32608,19252,43053
32464,19212,43044
32608,19173,42950
32844,19164,42902
32912,19194,42853
32892,19162,42870
32940,19180,42768
32996,19184,42740
32704,19212,42489
32596,19237,42564
32756,19220,42644
32804,19239,42341
32676,19184,42264
32704,19178,42256
32800,19149,41940
32812,19190,42382
32748,19177,41901
32420,19234,42260
32020,19224,42028
31860,19270,42252
31812,19241,42076
31828,19265,42179
31900,19207,41965
32248,19174,41860
32332,19177,41761
32568,19216,41796
32588,19188,41839
32272,19213,41374
32016,19255,41784
32109,19282,41497
32148,19256,41536
32208,19273,41580
32404,19215,41629
32637,19220,41090
32720,19183,41525
32690,19199,41439
32612,19191,41564
32424,19236,41384
31980,19304,41342
32048,19276,41174
32216,19268,40959
32417,19279,41204
32544,19234,41212
32572,19226,41189
32564,19199,41124
32613,19241,41094
32708,19223,41184
32664,19278,41040
32452,19283,41150
32314,19301,40967
32324,19284,40976
32356,19292,40872
32428,19249,40839
32576,19272,40857
32576,19223,40567
32708,19213,40869
32832,19242,40664
32668,19250,40732
32496,19301,40700
32304,19297,40772
32336,19309,40687
32420,19292,40772
32608,19291,40617
32588,19240,40663
32720,19259,40455
32844,19240,40495
32816,19236,40485
32638,19309,40374
32460,19316,40308
32300,19328,40451
32240,19348,40357
32204,19308,40432
32169,19298,40364
32300,19253,40233
32556,19242,40256
32584,19264,40268
32396,19292,40096
31984,19301,40208
31508,19314,40132
31308,19344,40199
30880,19332,40096
30420,19352,40138
29984,19305,40064
29364,19277,40036
28896,19263,39929
28430,19285,39880
28104,19295,39789
27976,19329,39832
28280,19342,39880
29058,19377,39973
29830,19370,39828
30696,19382,39804
31880,19342,39621
33128,19316,39612
34797,19318,39644
36972,19309,39636
39392,19344,39596
41180,19370,39628
41808,19412,39719
41088,19455,39356
40816,19463,39516
41152,19427,39601
42172,19397,39453
43620,19328,39524
45060,19356,39367
45248,19331,39352
43636,19369,39268
41520,19351,39204
39716,19413,39140
38257,19385,38895
37184,19423,39303
35904,19384,39132
34989,19382,39204
34080,19330,39081
33252,19348,39157
32512,19319,38998
31956,19361,38932
31360,19366,38874
30704,19431,38974
30408,19422,39085
30125,19412,38972
29896,19408,39047
29772,19382,38930
29812,19361,38980
29984,19340,38900
30092,19366,38892
29704,19359,38886
29504,19412,38895
29536,19421,38897
29644,19420,38868
29884,19450,38833
29904,19427,38804
29812,19395,38760
29884,19388,38788
29952,19362,38912
29896,19393,38748
29952,19380,38816
29836,19409,38668
29745,19452,38724
29750,19447,38572
29781,19468,38513
29648,19438,38438
29609,19427,38440
29784,19386,38368
29945,19400,38226
30024,19386,38132
29985,19407,38120
30108,19437,38248
29912,19458,37989
29916,19461,38072
30000,19468,38116
30001,19453,38035
30060,19441,38104
30182,19401,37636
30260,19401,37871
30276,19396,37865
30060,19424,37824
29864,19429,37812
29784,19492,37693
29728,19491,37655
29720,19497,37577
29684,19476,37476
29772,19456,37564
29948,19416,37338
30140,19430,37692
30276,19419,37556
30196,19423,37527
30084,19483,37460
29861,19494,37214
29654,19495,37576
29421,19521,37173
29476,19503,37407
29720,19463,37213
29972,19447,37372
29892,19428,37249
29784,19444,37359
29644,19471,37450
29696,19491,37313
29636,19529,37263
29398,19512,37277
29516,19528,36956
29576,19513,37097
29556,19492,37145
29796,19456,37169
29776,19457,37220
29588,19448,37176
29380,19471,37273
29316,19493,36944
29304,19534,36997
29224,19539,37042
29180,19556,37079
29212,19532,36913
29228,19514,36951
29344,19481,36972
29384,19485,36989
29265,19476,36956
29230,19498,37073
29364,19514,36788
29228,19554,36900
29141,19558,36959
29110,19570,36908
29064,19557,36909
29276,19535,36758
29598,19505,36815
29884,19502,36836
29889,19493,36829
29948,19516,36813
29880,19532,36700
29676,19583,36744
29573,19603,36878
29616,19594,36452
29808,19601,36597
30113,19552,36636
30764,19555,36580
31048,19531,36628
31124,19517,36557
31128,19534,36588
31196,19554,36648
31216,19599,36755
31232,19600,36620
31436,19619,36717
31701,19596,36338
31884,19583,36517
32204,19539,36541
32413,19551,36548
32417,19536,36519
32484,19564,36497
32378,19575,36517
32252,19637,36449
32344,19612,36525
32492,19634,36400
32548,19611,36440
32500,19613,36201
32676,19556,36272
32944,19574,36341
32984,19563,36321
33077,19589,36396
33061,19589,36148
32960,19643,36205
32864,19623,36300
32900,19650,35916
32886,19613,36093
32952,19606,36012
33264,19565,36076
33440,19588,35846
33428,19564,36028
33269,19558,35974
33176,19596,35993
33008,19675,35844
32904,19636,35892
32924,19629,35916
33012,19637,35960
33156,19652,35581
33272,19572,35816
33152,19574,35845
33182,19561,35642
33412,19580,35702
33472,19605,35804
33156,19650,35516
32816,19670,35656
32881,19641,35508
32984,19641,35693
33148,19628,35600
33172,19583,35532
33368,19582,35376
33420,19575,35519
33332,19596,35447
33280,19615,35517
33304,19663,35380
33257,19657,35327
33084,19679,35233
32812,19648,35289
32826,19645,35309
32956,19594,35000
33098,19599,35220
33292,19584,35297
33472,19607,35030
33278,19633,35124
33076,19668,35132
32944,19674,34964
32888,19685,35040
32880,19664,35095
32956,19660,35023
33048,19613,34944
33100,19620,35006
33060,19599,34957
33060,19625,34853
32976,19685,35018
32780,19676,34668
32656,19709,34839
32600,19685,34958
32636,19688,34656
32700,19678,34812
32780,19624,34745
32780,19625,34865
32776,19616,34604
32741,19646,34704
32808,19692,34784
32680,19685,34423
32544,19709,34638
32468,19746,34735
32516,19695,34529
32620,19685,34607
32724,19638,34448
32776,19641,34551
32804,19631,34528
32772,19653,34420
32644,19712,34423
32476,19717,34439
32324,19740,34472
32304,19713,34153
32340,19722,34351
32416,19705,34431
32604,19660,34342
32708,19694,34302
32672,19654,34246
32589,19654,34145
32648,19708,34193
32436,19725,34180
32276,19723,34117
32225,19748,34028
32298,19711,34100
32512,19700,34108
32768,19714,33985
32960,19669,34023
32972,19652,34073
32813,19676,33703
32676,19700,33830
32492,19739,33856
32332,19745,33760
32388,19770,33755
32460,19741,33780
32660,19698,33823
32916,19695,33729
32970,19668,33559
32964,19673,33546
32844,19676,33487
32660,19726,33456
32420,19732,33495
32412,19757,33490
32556,19800,33457
32660,19756,33452
32780,19708,33378
33024,19700,33425
33060,19679,33044
32978,19692,33165
32844,19691,33199
32717,19722,33165
32540,19775,33184
32652,19758,32848
32604,19768,33071
32700,19753,33119
32736,19735,32775
32800,19742,32855
32740,19695,32961
32676,19716,32868
32788,19703,32836
32824,19753,32701
32542,19761,32768
32452,19807,32625
32543,19789,32673
32645,19764,32567
32788,19748,32553
32964,19701,32501
32960,19710,32560
32844,19756,32600
32844,19735,32502
32744,19770,32452
32517,19771,32500
32368,19797,32194
32257,19784,32349
32276,19792,32360
32432,19745,32113
32792,19729,32271
32944,19771,32276
32856,19727,32222
32788,19719,32263
32640,19781,31973
32532,19782,32076
32420,19824,31984
32429,19813,32068
32432,19790,32114
32536,19774,31845
32696,19731,31941
32756,19749,31968
32796,19735,31676
32732,19756,31846
32600,19767,31781
32500,19804,31716
32512,19860,31656
32492,19825,31628
32536,19840,31628
32740,19790,31676
32924,19744,31684
32993,19746,31444
33040,19732,31504
32988,19759,31617
32936,19766,31367
32708,19834,31471
32557,19841,31356
32508,19818,31281
32532,19846,31262
32592,19789,31247
32724,19773,31324
32888,19749,31301
32896,19771,31068
32801,19776,31308
32700,19821,30999
32660,19820,31062
32692,19844,31012
32736,19820,31084
32740,19840,30961
32768,19789,31012
32824,19779,31013
32833,19789,30993
32804,19758,31040
32864,19801,30936
32792,19808,30948
32692,19860,30874
32609,19852,30927
32540,19876,30816
32476,19846,30857
32492,19839,30559
32625,19772,30789
32800,19802,30695
32772,19776,30668
32796,19804,30504
32796,19810,30503
32644,19844,30413
32472,19862,30628
32404,19846,30535
32405,19877,30429
32584,19828,30467
32864,19780,30348
33000,19782,30399
32992,19779,30236
32900,19805,30241
32768,19818,30164
32484,19856,30173
32444,19857,30052
32456,19876,30180
32504,19884,30031
32604,19835,30123
32736,19790,30052
32889,19791,30064
32929,19824,30009
32756,19793,30026
32652,19844,30034
32516,19842,29772
32460,19882,29853
32448,19895,29810
32428,19852,29690
32464,19843,29732
32616,19831,29714
32782,19796,29774
32808,19814,29767
32804,19804,29712
32681,19846,29692
32476,19862,29516
32400,19886,29524
32440,19873,29457
32472,19874,29582
32580,19833,29430
32848,19823,29504
32944,19823,29306
32966,19796,29423
32956,19827,29472
32746,19845,29213
32428,19892,29271
32270,19873,29172
32320,19902,29266
32356,19885,29158
32500,19892,29224
32736,19830,29077
32828,19806,29149
32805,19819,29039
32824,19821,29140
32716,19865,29130
32532,19876,29087
32420,19908,28989
32368,19889,28880
32400,19904,29001
32564,19844,28984
32660,19837,28792
32668,19812,28929
32640,19823,28868
32620,19876,28720
32416,19871,28831
32228,19884,28682
32120,19924,28715
32076,19913,28604
32048,19930,28679
32088,19870,28576
32245,19867,28645
32429,19820,28542
32437,19841,28613
32396,19834,28593
32268,19876,28551
32060,19892,28517
32052,19916,28343
32212,19901,28489
32308,19912,28292
32512,19865,28452
32752,19836,28368
32756,19845,28264
32660,19833,28206
32564,19839,28191
32448,19880,28109
32244,19893,28158
32280,19933,28005
32420,19910,28188
32508,19924,28120
32624,19873,27920
32756,19865,27942
32760,19842,27943
32756,19832,28015
32692,19854,27972
32616,19873,27773
32464,19931,27940
32348,19925,27869
32384,19944,27813
32444,19900,27816
32504,19884,27668
32685,19842,27584
32756,19848,27629
32712,19835,27517
32785,19874,27621
32736,19889,27464
32528,19940,27549
32428,19926,27430
32503,19936,27531
32576,19898,27471
32666,19904,27306
32848,19847,27412
32921,19872,27225
32864,19847,27268
32804,19847,27173
32672,19903,27215
32485,19908,27096
32428,19941,27206
32509,19911,27217
32552,19930,27040
32624,19874,27063
32716,19870,26976
32752,19858,27029
32616,19881,27041
32596,19874,26849
32240,19915,26860
31648,19925,26751
31024,19948,26773
30524,19924,26678
29896,19934,26789
29236,19884,26802
28892,19881,26590
28724,19862,26652
28886,19885,26614
29148,19869,26642
29648,19897,26631
30471,19933,26408
31244,19936,26500
32408,19958,26348
33676,19934,26460
35408,19927,26436
37580,19884,26247
39816,19914,26312
41348,19896,26152
41884,19932,26256
41776,19943,26221
41256,20005,26045
40780,20004,26119
40964,19953,25999
42324,19954,25998
43984,19896,26022
44789,19885,25804
43952,19930,25908
42368,19884,25892
40528,19960,25709
38876,19935,25728
37292,19983,25669
35856,19949,25696
34685,19964,25562
33717,19928,25573
33028,19908,25604
32528,19874,25518
31961,19872,25396
31478,19911,25526
31090,19890,25423
30712,19911,25508
30408,19963,25340
30310,19952,25487
30240,19945,25487
30164,19952,25465
30240,19902,25319
30340,19893,25393
30316,19869,25288
30236,19880,25468
30176,19879,25477
30120,19936,25311
30082,19940,25399
30025,19962,25396
30020,19956,25289
30014,19931,25183
30148,19908,25319
30280,19872,25140
30336,19871,25289
30320,19865,25277
30348,19892,25137
30264,19905,25114
30096,19945,25009
30098,19940,25004
30064,19964,24936
30120,19930,24942
30244,19920,24861
30376,19876,24865
30460,19880,24719
30484,19867,24769
30541,19909,24656
30525,19912,24704
30309,19930,24583
30260,19953,24593
30240,19941,24458
30212,19941,24567
30345,19897,24479
30552,19876,24502
30712,19860,24300
30716,19878,24368
30620,19879,24407
30420,19936,24373
30216,19937,24333
30204,19961,24318
30236,19954,24277
30272,19932,24094
30316,19911,24180
30408,19871,24021
30478,19888,24145
30486,19872,24131
30524,19908,24110
30364,19911,23948
30108,19957,23979
30052,19940,23839
30085,19959,23907
30124,19937,23861
30264,19935,23952
30425,19881,23920
30468,19865,23816
30468,19885,23781
30400,19876,23844
30204,19920,23652
29988,19935,23773
29888,19967,23608
29872,19940,23751
29824,19951,23716
29920,19908,23512
30124,19896,23599
30164,19866,23581
30148,19886,23496
30132,19884,23520
30020,19930,23578
29808,19938,23535
29716,19964,23510
29680,19956,23421
29664,19936,23333
29664,19922,23451
29784,19876,23457
29840,19886,23265
29888,19870,23350
29873,19900,23408
29732,19901,23293
29580,19948,23348
29568,19943,23188
29608,19947,23244
29661,19945,23334
29778,19922,23255
30028,19879,23320
30217,19880,23200
30316,19871,23268
30349,19893,23191
30333,19911,23276
30208,19961,23262
30152,19964,23194
30292,19945,23176
30441,19960,23213
30724,19917,23176
31080,19879,23093
31344,19908,23223
31500,19884,23228
31588,19886,23132
31640,19932,23212
31644,19956,23156
31751,19972,23142
31973,19962,23096
32196,19940,23147
32508,19937,23134
32884,19898,23244
33098,19867,23224
33208,19889,23082
33240,19887,23252
33196,19912,23215
33152,19962,23136
33132,19961,23217
33184,19941,23213
33268,19941,23161
33472,19900,23174
33676,19908,23169
33820,19877,23237
33964,19868,23121
34064,19896,23266
33936,19900,23247
33785,19953,23260
33728,19991,23237
33752,19946,23143
33800,19927,23222
33924,19913,23242
34212,19908,23060
34350,19876,23216
34316,19909,23204
34264,19876,23151
34148,19896,23206
34008,19935,23192
33940,19929,23049
33940,19940,23152
33978,19915,23205
34072,19920,23194
34258,19875,23115
34354,19844,23001
34392,19879,23136
34388,19863,23154
34257,19920,22983
34028,19920,23150
33896,19959,23110
33952,19942,22997
33984,19961,23060
34168,19904,23070
34309,19856,22956
34316,19862,23021
34256,19844,22999
34212,19879,22959
34050,19884,22969
33852,19930,22981
33752,19919,22916
33744,19930,22984
33684,19906,22939
33738,19886,22834
33853,19846,22959
33909,19864,22869
33920,19842,22924
33888,19902,22799
33792,19893,22849
33644,19908,22866
33568,19949,22826
33640,19915,22885
33693,19943,22757
33810,19884,22812
33956,19843,22858
33944,19850,22698
33888,19842,22704
33880,19844,22778
33776,19886,22816
33532,19902,22697
33430,19952,22713
33428,19917,22801
33456,19899,22725
33557,19864,22756
33676,19854,22611
33712,19846,22564
33720,19838,22576
33692,19841,22717
33560,19903,22617
33364,19908,22663
33264,19907,22573
33288,19940,22484
33312,19900,22573
33493,19852,22603
33637,19832,22604
33684,19852,22528
33632,19837,22412
33616,19833,22506
33488,19907,22550
33320,19904,22470
33280,19900,22492
33260,19917,22362
33320,19889,22466
33484,19873,22423
33628,19832,22344
33728,19841,22412
33744,19824,22345
33656,19830,22348
33520,19892,22185
33364,19904,22285
33328,19932,22282
33317,19909,22176
33365,19898,22070
33548,19901,22178
33720,19833,22180
33824,19818,22089
33844,19816,22126
33840,19839,21938
33692,19858,22074
33488,19891,22028
33432,19921,21847
33432,19898,21991
33436,19912,21922
33564,19852,21913
33740,19836,21895
33828,19808,21850
33804,19827,21740
33796,19817,21737
33700,19861,21743
33512,19933,21572
33432,19890,21636
33432,19910,21649
33448,19882,21476
33592,19879,21558
33724,19836,21504
33780,19808,21458
33785,19817,21462
33716,19820,21340
33568,19876,21401
33476,19876,21311
33460,19917,21336
33384,19890,21193
33352,19901,21189
33484,19858,21096
33680,19806,21148
33788,19830,21106
33824,19827,20966
33804,19815,21001
33708,19877,20996
33557,19881,20828
33480,19884,20908
33500,19879,20876
33508,19892,20712
33664,19852,20766
33777,19804,20765
33840,19831,20704
33808,19815,20677
33805,19811,20540
33636,19855,20572
33428,19869,20484
33392,19909,20513
33448,19886,20428
33484,19876,20411
33600,19828,20398
33728,19818,20297
33796,19792,20312
33781,19821,20204
33708,19831,20209
33577,19878,20120
33424,19876,20143
33348,19871,19997
33389,19899,20032
33416,19876,19956
33544,19823,19996
33728,19816,19941
33748,19792,19855
33716,19826,19848
33704,19809,19716
33584,19837,19756
33364,19872,19633
33272,19864,19670
33288,19891,19593
33320,19852,19613
33448,19849,19512
33622,19796,19519
33660,19812,19421
33664,19785,19438
33681,19812,19361
33516,19832,19362
33268,19876,19277
33188,19892,19265
33312,19859,19188
33356,19858,19205
33504,19853,19160
33680,19802,19137
33716,19817,19057
33676,19802,19049
33628,19792,18984
33496,19844,18999
33344,19876,18949
33280,19873,18930
33305,19876,18828
33288,19843,18828
33406,19817,18788
33564,19796,18770
33592,19773,18748
33608,19791,18676
33592,19785,18650
33452,19833,18587
33257,19860,18580
33188,19897,18572
33160,19856,18520
33092,19842,18447
33240,19832,18453
33404,19782,18415
33500,19803,18380
33512,19775,18330
33489,19804,18311
33340,19808,18275
33160,19864,18210
33096,19849,18201
33096,19837,18164
33120,19855,18108
33268,19813,18092
33482,19770,18017
33560,19779,18014
33556,19778,17956
33536,19769,17965
33422,19841,17897
33216,19839,17865
33156,19867,17800
33204,19829,17792
33198,19833,17769
33324,19782,17682
33472,19772,17679
33476,19748,17637
33461,19773,17600
33413,19762,17573
33268,19801,17526
33113,19818,17506
33076,19846,17453
33040,19820,17431
33056,19841,17377
33210,19796,17348
33372,19804,17292
33445,19762,17269
33400,19791,17234
33376,19767,17193
33240,19781,17159
33068,19816,17118
32976,19814,17089
33024,19849,17051
33080,19810,17006
33228,19798,16973
33400,19746,16945
33424,19734,16903
33364,19749,16861
33312,19743,16820
33188,19790,16788
33040,19797,16746
32984,19814,16712
32972,19836,16668
32984,19809,16630
33108,19792,16585
33344,19732,16541
33460,19751,16503
33432,19727,16448
33388,19745,16406
33264,19802,16367
33052,19792,16312
32932,19806,16272
32948,19846,16236
32920,19790,16170
33084,19777,16126
33232,19724,16077
33288,19739,16027
33276,19749,15972
33248,19732,15946
33076,19775,15866
32900,19814,15840
32844,19801,15790
32828,19824,15726
