ECG,EDA,RR
31636,11097,36225
31596,11072,36245
31433,11095,36223
31408,11170,36305
31373,11142,36270
31308,11187,36359
31400,11142,36236
31552,11117,36156
31701,11119,36180
31788,11083,36216
31860,11085,36142
31860,11074,36095
31792,11098,36172
31680,11101,36313
31640,11177,36343
31672,11160,36288
31776,11133,35985
31896,11163,36416
32028,11116,36356
32158,11081,36421
32236,11113,36228
32221,11103,36359
32084,11090,36292
31984,11143,36359
31892,11148,36348
31856,11215,36293
31916,11143,36359
32084,11125,36323
32232,11107,36121
32316,11118,36460
32364,11073,36332
32336,11131,36222
32260,11113,36352
32208,11105,36316
32160,11142,36198
32104,11139,36398
32148,11183,36189
32302,11133,36327
32436,11104,36236
32540,11143,36432
32624,11101,36252
32629,11073,36301
32516,11153,36097
32401,11126,36256
32289,11141,36375
32206,11138,36272
32250,11153,36183
32360,11120,36132
32480,11166,36233
32560,11108,36050
32573,11080,36324
32516,11140,36189
32466,11103,36101
32392,11107,36291
32324,11180,36197
32272,11150,36076
32320,11135,36287
32453,11135,36132
32593,11104,36264
32694,11125,36069
32696,11076,35737
32680,11119,36241
32556,11089,36110
32412,11158,36093
32312,11140,36004
32261,11137,36055
32301,11206,35708
32420,11141,36127
32572,11113,35900
32728,11150,35801
32784,11102,36125
32720,11085,36004
32652,11095,35939
32556,11129,36121
32464,11126,35990
32400,11190,35981
32456,11156,35903
32585,11203,35878
32733,11123,35844
32800,11086,35764
32860,11120,35829
32820,11094,35637
32724,11138,35759
32628,11111,35837
32604,11148,35828
32552,11142,35862
32560,11148,35860
32672,11126,35948
32824,11128,35829
32924,11215,35656
32980,11113,35824
32908,11146,35799
32796,11121,35846
32692,11231,35750
32628,11145,35760
32604,11145,35708
32620,11156,35680
32780,11155,35720
32904,11109,35695
32988,11158,35604
33024,11108,35607
33028,11090,35569
32925,11112,35591
32762,11111,35581
32680,11155,35581
32620,11146,35516
32700,11162,35455
32832,11130,35474
32977,11153,35548
33037,11096,35503
33040,11114,35604
33036,11087,35518
32948,11156,35460
32844,11140,35556
32804,11157,35452
32778,11147,35272
32832,11149,35521
32900,11183,35328
33040,11148,35033
33156,11163,35316
33196,11124,35348
33184,11092,35380
33048,11124,35324
32924,11119,35294
32824,11166,35317
32769,11161,35212
32868,11237,35353
32977,11161,35272
33092,11125,35166
33188,11105,35348
33248,11118,35231
33176,11090,35262
33085,11175,35020
33004,11147,35093
32924,11212,35128
32900,11164,34781
32928,11215,35213
33024,11158,35119
33116,11130,35204
33136,11128,35072
33180,11103,35062
33100,11143,34975
33028,11119,35032
32916,11158,34892
32748,11151,34969
32654,11181,35058
32720,11211,34688
32876,11147,34785
33068,11153,34853
33180,11115,34836
33264,11136,34880
33209,11108,34973
33068,11193,34768
32976,11153,34782
32936,11221,34713
32916,11201,34537
33056,11167,34772
33208,11207,34860
33344,11152,34719
33468,11126,34740
33588,11186,34800
33596,11138,34681
33596,11132,34610
33488,11202,34809
33388,11199,34631
33292,11174,34621
33340,11229,34608
33472,11188,34749
33569,11177,34537
33660,11127,34264
33754,11161,34583
33712,11138,34442
33588,11145,34546
33425,11172,34444
33306,11176,34493
33160,11217,34500
33132,11181,34616
33188,11205,34460
33272,11156,34372
33336,11183,34277
33388,11145,34423
33340,11251,34333
33258,11169,34521
33148,11173,34220
33086,11248,34364
33029,11205,34047
33080,11190,34379
33180,11207,34222
33304,11164,34038
33352,11174,34396
33395,11141,34199
33352,11172,34237
33260,11160,34207
33150,11208,34064
33088,11195,34215
32964,11244,34116
32884,11200,34189
32840,11253,34028
32768,11201,34157
32625,11162,34044
32376,11175,34246
31880,11173,33949
31124,11224,33829
30212,11210,34188
29281,11205,34036
27980,11250,34028
26252,11224,33989
24652,11250,33998
23280,11212,34006
22384,11181,33989
22136,11178,33832
22481,11216,33637
23213,11210,34068
25508,11205,33912
29624,11248,33832
34852,11234,33856
41832,11307,33893
49412,11240,33840
56520,11364,33716
62584,11201,33561
64864,11148,33948
65344,11259,33742
65316,11218,33508
65128,11189,33920
64924,11255,33799
64688,11253,33749
64448,11228,33806
64236,11286,33743
64000,11231,33532
63780,11175,33847
57016,11185,33712
48148,11240,33695
41408,11249,33388
37596,11228,33809
35316,11305,33633
33640,11271,33376
32300,11281,33588
31172,11239,33660
30229,11272,33657
29532,11213,33725
29004,11261,33632
28528,11223,33568
28056,11222,33617
27664,11252,33524
27372,11253,33421
27132,11300,33268
27049,11279,33672
27064,11249,33564
27088,11268,33433
27116,11236,33484
27132,11259,33164
27096,11221,33583
27020,11226,33444
26904,11282,33347
26849,11279,33372
26800,11276,33374
26841,11289,33455
26976,11262,33321
27122,11271,33279
27256,11239,33294
27337,11273,33231
27348,11232,33127
27313,11236,32927
27312,11287,33287
27304,11273,32954
27304,11330,33301
27425,11293,33185
27601,11266,33072
27784,11305,33260
27900,11250,33029
28005,11224,33153
28060,11274,33046
28016,11269,33121
27985,11260,33132
27944,11325,33118
28028,11316,33079
28192,11291,33128
28374,11323,33189
28552,11268,33101
28708,11280,33031
28828,11235,33047
28844,11278,32927
28772,11258,33093
28764,11318,33092
28788,11318,32993
28800,11304,33151
28964,11311,33078
29166,11286,33142
29318,11293,33054
29404,11256,32957
29521,11289,32932
29560,11283,33037
29525,11366,33029
29436,11306,32970
29452,11301,32711
29492,11350,33086
29644,11314,32983
29804,11353,32903
29952,11315,32862
30112,11270,32943
30228,11300,32844
30288,11281,32932
30316,11339,32911
30304,11327,32843
30333,11385,32756
30385,11350,32863
30568,11360,32948
30804,11312,32836
31040,11332,32948
31296,11279,32836
31518,11299,32834
31610,11384,32804
31631,11329,32824
31684,11315,32708
31788,11345,32662
31932,11406,32706
32196,11346,32775
32529,11375,32749
32844,11322,32793
33076,11370,32701
33308,11303,32693
33493,11292,32524
33582,11349,32380
33660,11342,32775
33784,11353,32645
33924,11380,32547
34160,11354,32748
34436,11404,32614
34712,11348,32548
34928,11318,32462
35132,11373,32309
35276,11325,32570
35276,11392,32303
35270,11372,32685
35284,11364,32524
35324,11413,32452
35461,11386,32410
35604,11452,32449
35756,11374,32531
35813,11332,32460
35796,11362,32457
35668,11330,32468
35426,11403,32391
35184,11374,32412
34956,11380,32464
34744,11415,32561
34612,11383,32460
34532,11430,32357
34412,11378,32359
34260,11346,32428
34060,11380,32354
33790,11359,32232
33356,11359,32100
33022,11405,32391
32752,11453,32079
32464,11417,32287
32276,11451,32085
32196,11420,32444
32144,11373,32300
32084,11393,32148
31996,11378,32404
31841,11354,32271
31668,11414,32192
31424,11418,32215
31254,11477,31975
31120,11439,32269
31104,11469,32244
31160,11423,32271
31224,11387,32071
31260,11388,31924
31276,11358,32300
31180,11388,32200
31073,11388,32093
30996,11452,32039
30884,11434,31882
30824,11440,32217
30896,11429,32008
31010,11416,31877
31133,11451,32178
31196,11412,32013
31228,11463,31869
31160,11408,32076
31076,11465,32116
31000,11443,32230
30985,11435,32124
30924,11458,32143
30964,11440,32076
31143,11431,32072
31276,11461,32060
31376,11425,32072
31440,11407,32074
31404,11456,32161
31328,11426,32047
31232,11433,31991
31184,11489,32016
31212,11460,32036
31268,11499,32006
31432,11476,31767
31524,11435,32004
31596,11462,32036
31660,11426,31934
31616,11431,32116
31544,11503,31988
31436,11469,31933
31352,11472,32122
31324,11553,31996
31392,11516,31806
31504,11480,32076
31604,11526,32007
31672,11458,32028
31728,11433,31992
31733,11485,31903
31650,11468,32092
31544,11477,31725
31514,11525,31852
31496,11566,31900
31608,11533,31836
31720,11489,31976
31868,11503,32044
31960,11464,31892
32032,11503,31789
32000,11474,32022
31896,11558,31994
31841,11507,31944
31784,11517,31973
31762,11560,31968
31872,11525,31971
32016,11561,31975
32134,11525,31909
32240,11537,31855
32292,11499,31989
32268,11479,31957
32192,11599,31796
32085,11542,32030
32032,11535,31949
32012,11612,32053
32076,11557,31936
32168,11529,31889
32308,11544,31920
32429,11501,31880
32524,11545,31876
32428,11527,31802
32324,11515,31740
32238,11557,31616
32216,11554,31998
32181,11629,31818
32240,11580,31579
32328,11584,31828
32448,11534,31871
32592,11524,31812
32684,11538,31812
32625,11529,31812
32552,11540,31849
32465,11591,31780
32452,11588,31571
32448,11583,31741
32529,11635,31820
32688,11584,31789
32812,11556,31751
32880,11565,31620
32880,11535,31566
32825,11553,31696
32712,11556,31760
32596,11589,31876
32496,11599,31757
32460,11624,31660
32524,11605,31637
32600,11626,31457
32716,11610,31700
32764,11557,31720
32776,11614,31700
32709,11583,31436
32664,11581,31672
32542,11620,31425
32468,11657,31817
32420,11636,31719
32520,11621,31685
32640,11629,31692
32705,11596,31618
32768,11635,31636
32756,11589,31691
32704,11586,31766
32580,11625,31657
32468,11617,31588
32392,11702,31716
32348,11663,31700
32384,11643,31804
32517,11664,31700
32612,11621,31751
32698,11671,31692
32740,11621,31746
32700,11655,31471
32608,11621,31545
32514,11676,31558
32476,11691,31807
32449,11666,31646
32516,11703,31424
32636,11680,31804
32708,11748,31677
32776,11643,31613
32801,11620,31588
32724,11684,31684
32630,11668,31733
32512,11668,31552
32468,11727,31700
32484,11722,31614
32616,11689,31803
32748,11708,31713
32880,11667,31760
32956,11695,31609
32984,11663,31572
32940,11719,31831
32872,11684,31716
32756,11689,31612
32668,11753,31592
32652,11743,31696
32700,11719,31653
32776,11739,31613
32856,11689,31447
32968,11707,31828
33004,11674,31677
32976,11720,31649
32904,11721,31532
32812,11811,31684
32736,11755,31602
32696,11747,31637
32745,11755,31585
32848,11730,31610
32936,11726,31571
32964,11697,31749
33036,11703,31584
32992,11720,31675
32854,11716,31603
32770,11761,31599
32696,11763,31479
32720,11770,31765
32745,11781,31660
32857,11753,31585
32956,11780,31503
33029,11755,31365
33080,11718,31765
32980,11839,31632
32828,11799,31540
32740,11783,31749
32684,11792,31583
32668,11796,31391
32728,11845,31633
32844,11798,31613
32953,11789,31604
32996,11747,31333
33020,11787,31686
32950,11780,31567
32804,11769,31493
32680,11824,31665
32604,11833,31590
32580,11821,31484
32628,11839,31421
32664,11831,31588
32712,11790,31629
32752,11793,31566
32820,11788,31422
32792,11773,31685
32744,11897,31544
32720,11847,31290
32692,11861,31675
32644,11917,31564
32677,11849,31440
32820,11829,31676
32960,11810,31391
33072,11841,31550
33196,11821,31440
33253,11793,31481
33225,11839,31397
33148,11832,31638
33072,11903,31519
33068,11883,31414
33132,11856,31620
33208,11893,31524
33332,11835,31527
33429,11855,31452
33480,11843,31484
33400,11892,31592
33332,11865,31366
33308,11881,31501
33272,11876,31383
33191,11939,31572
33228,11911,31597
33310,11882,31396
33364,11855,31476
33332,11884,31221
33308,11851,31498
33224,11845,31452
33124,11914,31468
33040,11905,31230
33012,11902,31471
32996,11988,31532
33024,11916,31457
33168,11910,31463
33304,11874,31451
33368,11927,31452
33372,11884,31487
33272,11868,31376
33140,11878,31576
33044,11943,31403
33017,11937,31481
32980,11955,31388
33068,11923,31314
33204,11940,31477
33240,11911,31376
33192,11935,31472
33072,11904,31478
32824,11880,31381
32546,11915,31320
32174,11914,31460
31768,11998,31386
31252,11969,31364
30576,11995,31372
29833,11942,31325
28910,11959,31353
27440,11926,31516
25728,11901,31461
23965,11929,31368
22588,11929,31365
21736,11973,31184
21622,11979,31578
21992,11979,31422
23638,11991,31191
27280,11957,31556
31997,11984,31413
38360,11952,31298
45804,11993,31568
53224,11944,31474
60012,11922,31527
64116,11978,31438
65152,11976,31203
65272,12065,31549
65145,11993,31461
64926,12060,31517
64712,12004,31413
64488,11939,31213
64244,11978,31563
64028,11935,31473
63796,12016,31255
63576,11995,31473
53524,12121,31461
45173,12037,31416
39372,12017,31472
36181,12014,31421
34230,11983,31364
32760,11991,31428
31456,12008,31460
30310,11972,31451
29332,12015,31444
28590,12005,31546
28036,12043,31611
27617,12085,31558
27342,12036,31648
27196,12038,31552
27076,12004,31576
26996,12004,31524
26912,11983,31448
26772,12027,31386
26620,12025,31256
26500,12019,31601
26445,12062,31246
26420,12051,31349
26512,12052,31411
26614,12028,31329
26704,12058,31284
26780,12005,31312
26884,12035,31184
26884,12005,31375
26844,12064,31234
26776,12035,31375
26777,12076,31445
26792,12058,31428
26928,12089,31335
27094,12044,31324
27308,12060,31175
27465,12004,31298
27574,12025,31207
27583,12008,31292
27560,12025,31564
27540,12060,31435
27576,12068,31444
27632,12080,31346
27780,12108,31308
27945,12060,31204
28068,12064,31356
28200,12019,31223
28284,12028,31385
28296,12026,31469
28274,12053,31352
28232,12089,31493
28204,12081,31473
28240,12125,31348
28368,12079,31367
28544,12091,31542
28684,12092,31542
28852,12032,31578
28992,12062,31532
29000,12039,31638
28932,12069,31535
28924,12072,31620
28942,12105,31535
28961,12100,31660
29074,12112,31537
29240,12120,31544
29408,12066,31274
29565,12074,31396
29669,12064,31524
29685,12054,31630
29661,12098,31516
29640,12087,31440
29652,12151,31397
29760,12137,31524
29972,12113,31532
30168,12119,31420
30322,12087,31278
30488,12116,31630
30628,12087,31461
30676,12072,31311
30704,12105,31623
30768,12101,31501
30820,12135,31441
30933,12129,31346
31168,12147,31236
31469,12110,31449
31696,12151,31444
31948,12108,31479
32176,12075,31381
32292,12144,31586
32376,12124,31461
32488,12176,31367
32621,12158,31577
32804,12142,31428
33092,12165,31360
33428,12133,31550
33732,12177,31356
33989,12111,31157
34192,12085,31423
34256,12153,31297
34320,12116,31340
34424,12170,31261
34488,12152,31318
34592,12224,31431
34820,12163,31425
35069,12196,31525
35232,12146,31422
35388,12157,31494
35452,12100,31145
35424,12125,31263
35368,12231,31150
35252,12148,31340
35132,12192,31297
35060,12173,31356
35072,12170,31488
35064,12187,31380
34988,12135,31471
34856,12134,31144
34628,12181,31300
34334,12133,31432
34005,12179,31365
33678,12155,31470
33416,12191,31097
33176,12186,31223
33008,12190,31279
32884,12213,31291
32780,12155,31238
32676,12182,31198
32532,12141,31300
32288,12208,31375
32036,12177,31272
31788,12223,31282
31574,12186,31318
31444,12213,31421
31401,12178,31309
31433,12191,31401
31453,12149,31292
31468,12154,31201
31416,12128,31127
31285,12148,31165
31132,12158,31385
31068,12181,31276
30944,12195,31375
30896,12196,31006
30984,12214,31376
31080,12174,31271
31140,12185,31183
31218,12143,31143
31216,12153,31007
31156,12222,31276
31080,12175,30991
31016,12221,31208
31004,12196,31126
31021,12227,31102
31108,12190,31037
31264,12199,31308
31404,12165,31269
31512,12158,31377
31524,12189,31261
31482,12180,31015
31380,12210,31196
31308,12184,31151
31300,12252,31228
31324,12205,30981
31388,12220,31262
31532,12185,30980
31688,12178,31200
31780,12197,30988
31768,12144,31270
31726,12180,30976
31612,12164,31351
31580,12203,31264
31532,12261,31301
31532,12215,30996
31612,12231,31193
31745,12187,30992
31852,12188,31331
31908,12153,31271
31941,12166,31324
31884,12217,31266
31808,12186,31174
31770,12246,31285
31700,12215,31254
31666,12255,31372
31712,12211,31271
31844,12207,31158
31972,12237,31200
32064,12166,31293
32084,12191,31343
32040,12165,31282
31956,12190,31232
31864,12238,31314
31820,12213,31360
31804,12249,31326
31922,12253,31405
32072,12209,31309
32164,12185,31079
32262,12193,31367
32316,12162,31165
32272,12226,31300
32161,12188,31422
32066,12240,31311
32016,12229,31304
32032,12284,31297
32124,12240,31332
32232,12278,31330
32324,12200,31305
32382,12173,31206
32396,12187,31311
32356,12170,31340
32266,12207,31275
32104,12209,31234
32060,12236,31327
32089,12245,31444
32207,12282,31333
32344,12213,31429
32440,12227,31332
32508,12177,31396
32560,12187,31323
32512,12240,31273
32412,12216,31232
32332,12284,31039
32292,12259,31436
32284,12297,31331
32356,12239,31204
32481,12321,31236
32609,12218,31268
32720,12229,31318
32764,12178,31418
32700,12217,31052
32556,12199,31331
32489,12227,31056
32468,12321,31383
32445,12250,31279
32510,12303,31220
32637,12220,31234
32704,12216,31173
32788,12248,31239
32844,12197,31188
32772,12282,31124
32672,12227,31174
32592,12271,31170
32501,12256,31084
32512,12276,31125
32620,12241,31239
32708,12239,31271
32804,12262,31274
32870,12197,31260
32896,12234,31221
32817,12195,31239
32684,12256,31210
32624,12231,31141
32566,12300,31074
32524,12260,31297
32612,12240,31260
32784,12265,31333
32872,12223,31220
32948,12231,31196
32952,12191,31172
32872,12214,31069
32748,12309,31343
32654,12242,31035
32580,12277,31396
32568,12259,31304
32680,12266,31225
32788,12277,31305
32865,12324,31433
32948,12203,31325
32976,12229,31425
32900,12211,31357
32788,12239,31324
32676,12240,31304
32600,12281,31111
32576,12269,31485
32660,12292,31362
32772,12311,31489
32864,12236,31172
32932,12249,31460
33004,12209,31393
32924,12244,31516
32821,12295,31160
32688,12252,31425
32576,12288,31264
32604,12331,31360
32693,12276,31333
32785,12316,31316
32872,12260,31325
32904,12293,31399
32940,12231,31385
32904,12255,31400
32858,12251,31398
32752,12271,31434
32696,12287,31367
32736,12297,31316
32808,12311,31260
32948,12265,31561
33044,12271,31495
33160,12232,31382
33204,12251,31457
33108,12311,31488
32984,12260,31508
32884,12306,31576
32780,12294,31529
32741,12305,31540
32832,12356,31525
32978,12284,31637
33096,12317,31518
33157,12246,31545
33128,12289,31504
33052,12245,31503
32940,12277,31541
32833,12370,31662
32752,12322,31556
32748,12382,31534
32789,12328,31525
32924,12320,31642
33036,12267,31581
33124,12258,31658
33108,12265,31579
33056,12299,31692
32924,12282,31609
32839,12366,31592
32788,12333,31570
32776,12349,31607
32816,12304,31607
32908,12320,31639
33036,12311,31625
33136,12252,31671
33156,12255,31648
33100,12285,31748
32994,12349,31653
32928,12293,31722
32876,12351,31628
32840,12319,31565
32932,12338,31589
33056,12381,31587
33108,12285,31638
33168,12293,31613
33093,12254,31591
32972,12295,31612
32888,12324,31604
32868,12300,31605
32832,12312,31729
32864,12332,31825
32980,12316,31733
33078,12329,31733
33152,12327,31736
33204,12264,31865
33268,12266,31585
33260,12295,31719
33220,12343,31663
33212,12303,31716
33226,12337,31524
33224,12389,31884
33364,12315,31504
33552,12324,31748
33684,12290,31575
33761,12287,31837
33768,12263,31705
33676,12321,31538
33522,12291,31908
33396,12333,31792
33277,12329,31661
33290,12356,31724
33400,12370,31647
33520,12309,31692
33620,12317,31741
33585,12303,31852
33536,12289,31751
33380,12322,31751
33224,12356,31837
33137,12309,31879
33071,12349,31852
33004,12441,31806
33052,12348,31745
33120,12336,31735
33185,12351,31780
33300,12388,31975
33332,12292,31921
33268,12302,32012
33148,12346,31940
33076,12311,32039
32988,12332,31710
32964,12356,32031
33054,12329,31983
33188,12346,32076
33312,12352,31992
33380,12284,31916
33332,12301,31895
33152,12407,31911
32961,12325,31877
32764,12352,31832
32540,12336,32066
32348,12360,32038
32168,12338,31952
31917,12348,32173
31516,12309,32036
30853,12339,31964
30068,12300,32175
29016,12334,32084
27364,12336,32173
25532,12333,32012
23766,12372,31876
22402,12364,32164
21644,12367,32128
21701,12376,32129
22164,12332,32135
23724,12341,32057
27097,12312,32276
31574,12352,32168
37568,12319,32225
44804,12373,32180
52220,12428,32172
59124,12347,31932
63808,12370,32085
65056,12426,32168
65248,12322,32255
65132,12368,32352
64928,12313,32232
64720,12379,32292
64464,12379,32125
64248,12338,31992
64032,12391,32322
63796,12461,32222
63596,12360,32279
54620,12375,32445
46108,12431,32324
39976,12322,32440
36512,12342,32244
34292,12399,32359
32617,12353,32353
31144,12388,32398
29944,12383,32344
29070,12405,32417
28492,12423,32481
28152,12372,32340
27840,12380,32354
27572,12332,32429
27304,12352,32471
27001,12338,32330
26757,12368,32249
26540,12369,32598
26352,12412,32477
26244,12393,32570
26264,12411,32484
26364,12368,32457
26449,12371,32186
26544,12331,32492
26532,12361,32479
26480,12342,32568
26409,12383,32485
26368,12369,32581
26276,12409,32196
26352,12417,32317
26528,12453,32454
26720,12373,32485
26896,12372,32597
27061,12337,32487
27165,12342,32557
27188,12383,32513
27148,12356,32615
27124,12388,32516
27164,12408,32489
27224,12408,32324
27345,12422,32652
27540,12370,32571
27758,12393,32567
27872,12349,32420
27960,12349,32508
27932,12404,32561
27904,12376,32519
27896,12413,32515
27880,12403,32516
27944,12439,32564
28085,12397,32647
28296,12412,32792
28464,12361,32708
28609,12356,32801
28708,12395,32726
28680,12370,32775
28621,12419,32745
28617,12396,32745
28640,12469,32747
28720,12412,32686
28832,12455,32716
29008,12376,32613
29160,12381,32698
29316,12408,32709
29420,12345,32762
29398,12380,32577
29360,12364,32904
29361,12414,32814
29344,12402,32817
29441,12439,32694
29664,12391,32750
29852,12397,32748
30004,12361,32548
30168,12364,32775
30228,12345,32834
30237,12390,32972
30252,12366,32849
30304,12427,32895
30384,12406,32856
30512,12428,32876
30778,12397,32887
31036,12411,32996
31286,12419,32884
31432,12364,32990
31740,12399,32641
31836,12368,33016
31752,12407,32641
31872,12393,32839
32056,12441,32774
32228,12412,32903
32493,12420,32809
32877,12435,32928
33233,12374,33102
33592,12357,32887
33876,12376,32945
33944,12433,32986
33930,12407,33065
34064,12449,33196
34152,12417,32903
34152,12432,33090
34304,12477,33108
34632,12391,33249
34777,12401,33375
35080,12369,33322
35264,12368,33470
35204,12369,33429
35184,12396,33584
35220,12406,33532
35236,12428,33662
35336,12542,33646
35236,12433,33823
35264,12458,33760
35524,12387,33868
35392,12409,33793
35256,12365,33924
34990,12404,33969
34724,12388,34101
34393,12455,34096
33941,12425,34372
33728,12451,34020
33652,12484,34249
33588,12416,34464
33412,12415,34582
33264,12367,34671
33080,12375,34631
32653,12408,34759
32288,12388,34881
32100,12428,34949
31845,12492,35012
31668,12449,34972
31792,12467,35029
31896,12407,35093
31720,12422,34969
31668,12381,35463
31584,12364,35436
31468,12388,35455
31384,12386,35424
31164,12420,35315
30784,12421,35796
30592,12438,35748
30756,12413,35876
30980,12412,35849
30940,12381,35837
30936,12382,35908
31224,12406,35979
31232,12369,36009
30880,12425,36040
30736,12414,36116
30776,12475,35879
30924,12434,36395
31072,12453,36320
30708,12397,36472
30984,12393,36085
31300,12407,36278
31356,12358,36348
31320,12391,36340
31313,12461,36463
31340,12407,36453
31375,12456,36492
31376,12418,36492
31264,12433,36272
31304,12399,36791
31364,12430,36535
31400,12374,36685
31572,12358,36756
31273,12401,36660
31404,12388,36659
31670,12443,36743
31644,12422,36388
31388,12459,36708
31600,12410,36518
31904,12437,36625
31948,12386,36656
32120,12377,36717
32144,12409,36837
31892,12379,36692
31836,12422,36732
31804,12405,36668
31652,12441,36694
31534,12479,36636
31652,12426,36640
31920,12421,36573
31964,12381,36649
32028,12388,36484
31884,12404,36560
31952,12372,36413
31872,12438,36308
31854,12404,36340
31866,12436,36359
31812,12421,36226
31784,12434,36292
31944,12455,36132
31900,12374,36184
32048,12368,35905
31804,12425,35916
31674,12396,35866
31692,12447,35821
31480,12426,35745
31800,12470,35636
31641,12426,35516
31584,12462,35508
31797,12418,35125
32085,12452,35404
32100,12388,35319
31852,12411,35286
31648,12396,35180
31608,12375,35036
31660,12436,35125
31888,12415,34951
32052,12442,34981
32308,12415,34789
32288,12475,34613
32292,12398,34703
32432,12381,34543
32300,12412,34572
31968,12374,34324
31724,12376,34173
31980,12422,34049
32172,12412,33988
32181,12436,33922
32244,12400,33814
31984,12423,33644
32428,12368,33616
32660,12379,33444
32572,12351,33264
32664,12383,33242
32702,12385,33015
32684,12461,33287
32724,12433,32857
32722,12465,32882
32492,12401,32748
32660,12406,32699
32448,12370,32524
32656,12375,32337
32836,12345,32132
32686,12407,32334
32704,12388,32116
32836,12479,31901
32968,12418,31808
33008,12405,31739
32788,12418,31695
32580,12381,31464
33104,12420,31156
33101,12369,31308
32916,12453,31055
32740,12366,30813
32812,12471,30607
32568,12418,30599
32397,12476,30581
32700,12418,30340
32909,12413,30154
32836,12380,30060
32853,12395,29830
32854,12344,29750
33065,12360,29565
32664,12397,29497
32244,12370,29337
32288,12417,29220
32432,12399,29070
32660,12424,28921
32444,12447,28875
32412,12393,28636
32574,12441,28527
32480,12357,28318
32788,12342,28038
32768,12401,28098
32784,12380,27845
32648,12385,27780
32432,12437,27660
32732,12402,27436
32928,12451,27183
33140,12388,27284
33268,12358,27100
33348,12361,26962
33336,12339,26797
33037,12373,26532
32748,12357,26564
32956,12392,26231
32981,12476,26284
33088,12415,26155
33280,12442,26071
33404,12376,25903
33588,12383,25797
33549,12338,25649
33397,12363,25583
33300,12389,25218
33308,12369,25341
33438,12421,25129
33076,12394,25033
33016,12436,24884
33204,12388,24633
33333,12409,24515
33502,12352,24366
33672,12350,24370
33377,12404,24134
33437,12352,24109
33201,12381,23860
33360,12379,23893
33284,12410,23617
33156,12394,23570
33320,12450,23564
33360,12392,23280
33544,12349,23244
33609,12364,23047
33548,12425,23028
33375,12361,22824
33272,12423,22764
33428,12380,22602
33492,12423,22572
33314,12394,22405
33448,12415,22489
33532,12366,22362
33446,12401,22080
33512,12340,22072
33364,12388,21916
33372,12353,21999
33232,12413,21892
33353,12388,21660
33304,12447,21668
33208,12393,21444
33360,12415,21456
33572,12369,21449
33444,12406,21180
33368,12366,21188
33140,12343,21188
33440,12376,20920
33257,12369,20936
33181,12424,20862
32992,12425,20901
33156,12398,20821
33328,12418,20580
33536,12376,20641
33592,12372,20447
33644,12348,20452
33528,12386,20348
33560,12383,20405
33492,12476,20233
33125,12402,20190
33108,12456,20093
33108,12423,20170
33332,12453,20110
33300,12413,19994
33412,12423,19990
33476,12357,19736
33564,12396,19771
33412,12362,19628
33292,12388,19771
33264,12397,19529
33256,12442,19643
33393,12415,19484
33584,12425,19481
33684,12389,19365
33800,12393,19479
33844,12359,19261
33881,12370,19385
33821,12360,19252
33796,12422,19285
33708,12419,19262
33632,12484,19283
33608,12445,19248
33680,12516,19033
33788,12410,19135
33764,12373,19087
33792,12383,19069
33836,12357,19026
33880,12380,19037
33616,12458,19002
33477,12400,19093
33372,12436,18999
33312,12423,19113
33317,12421,19060
33383,12494,19121
33452,12404,19094
33528,12364,19128
33400,12378,19017
33372,12369,19152
33184,12397,19197
33293,12406,19045
33148,12450,19150
33144,12436,19280
33164,12473,19196
33184,12408,19334
33388,12380,19199
33400,12383,19368
33436,12479,19364
33312,12401,19424
33141,12458,19475
33080,12428,19614
32825,12429,19675
32928,12437,19562
32925,12415,19751
32880,12452,19865
32801,12392,19786
32512,12367,19917
32181,12395,19973
31684,12377,20172
30964,12425,20230
30252,12413,20351
29390,12445,20401
28184,12438,20397
26756,12458,20465
25493,12416,20525
24561,12411,20645
24104,12389,20708
24353,12402,20837
24548,12437,20871
25557,12424,21145
27988,12450,21280
31408,12445,21373
36124,12506,21305
42072,12461,21600
48200,12435,21696
54028,12480,21655
59632,12405,21790
63632,12379,21870
64716,12480,22072
64860,12402,22064
64732,12452,22360
64524,12538,22504
64320,12444,22408
64088,12472,22580
63864,12410,22606
63652,12437,22853
61192,12399,22804
53620,12417,22996
46456,12509,23023
40620,12466,23258
36948,12448,23204
34560,12481,23411
32884,12466,23557
31548,12512,23596
30520,12470,23706
29652,12430,23660
29304,12430,23804
28901,12413,23861
28484,12432,24087
28096,12516,24012
27809,12478,24130
27608,12479,24132
27536,12502,24388
27464,12463,24424
27424,12499,24333
27456,12452,24420
27364,12413,24461
27232,12434,24569
27136,12434,24576
27086,12483,24880
27032,12467,24880
26980,12480,24823
27054,12513,24945
27136,12484,25071
27261,12505,25174
27336,12461,25196
27380,12468,25268
27416,12434,25182
27384,12476,25407
27380,12476,25373
27350,12532,25629
27365,12488,25452
27468,12556,25774
27604,12486,25790
27792,12460,25949
27908,12452,25805
27996,12452,26029
27996,12428,26033
27969,12452,25980
27968,12456,26276
27998,12501,26138
28048,12494,26309
28200,12528,26319
28368,12486,26453
28502,12521,26457
28636,12472,26675
28712,12432,26820
28752,12458,26785
28722,12445,26948
28684,12485,26924
28656,12482,27030
28668,12517,27082
28770,12496,27164
28904,12513,27241
29100,12472,27331
29256,12491,27324
29440,12453,27621
29484,12494,27485
29430,12477,27764
29360,12468,27863
29310,12500,27997
29304,12506,28012
29408,12516,27988
29608,12494,28100
29800,12513,28041
29948,12468,28447
30108,12492,28433
30146,12452,28592
30144,12486,28602
30132,12469,28783
30160,12513,28530
30180,12508,28948
30252,12546,28935
30456,12509,29071
30680,12529,29084
30904,12479,29110
31036,12452,29126
31168,12501,29319
31184,12480,29484
31234,12484,29500
31273,12541,29493
31336,12519,29659
31516,12573,29657
31773,12540,29959
32068,12505,29924
32376,12515,29903
32640,12473,30001
32820,12462,30052
32888,12508,30277
32925,12492,30324
32992,12547,30506
33053,12529,30506
33152,12582,30675
33356,12538,30660
33732,12587,30847
34008,12497,30812
34228,12462,30954
34360,12487,30948
34389,12483,31116
34416,12514,31094
34405,12517,31274
34416,12564,31256
34468,12527,31413
34572,12547,31118
34689,12500,31407
34696,12496,31458
34694,12468,31548
34644,12499,31564
34532,12492,31570
34372,12551,31521
34204,12542,31980
34008,12529,31905
33804,12547,32069
33633,12523,32049
33525,12527,32073
33372,12492,32159
33192,12497,32272
33028,12475,32309
32796,12508,32380
32512,12504,32439
32192,12541,32484
31796,12537,32457
31532,12570,32529
31456,12530,32612
31408,12564,32626
31340,12521,32652
31320,12485,32685
31224,12509,32903
31069,12489,32656
30932,12535,33111
30908,12529,33044
30814,12560,33146
30600,12544,33164
30538,12580,33340
30534,12535,33279
30520,12555,33421
30552,12511,33393
30492,12542,33431
30400,12505,33484
30228,12550,33612
30248,12527,33622
30268,12557,33783
30372,12594,33692
30448,12548,33796
30560,12547,33548
30640,12510,33967
30716,12528,33941
30804,12497,34004
30728,12529,34037
30596,12522,34186
30573,12558,34135
30540,12556,34194
30564,12581,34160
30688,12546,34180
30808,12540,34260
30896,12584,34247
31040,12512,34516
31024,12501,34276
30964,12524,34585
30896,12584,34376
30810,12544,34612
30716,12575,34733
30748,12620,34782
30837,12580,34805
30952,12542,34808
31084,12533,34774
31156,12506,34885
31136,12517,34877
31108,12516,35161
31052,12573,35199
30916,12554,35223
30881,12580,35305
30948,12616,35357
31036,12572,35405
31188,12576,35381
31396,12526,35500
31576,12516,35413
31532,12548,35536
31344,12522,35605
31260,12556,35712
31236,12620,35752
31228,12583,35870
31280,12599,35847
31368,12615,35740
31472,12545,36036
31500,12547,35976
31524,12571,35928
31560,12524,36019
31488,12555,36160
31401,12546,36299
31280,12581,36204
31292,12587,36268
31412,12595,35989
31508,12572,36368
31556,12574,36376
31544,12620,36412
31580,12550,36191
31608,12574,36393
31582,12550,36247
31528,12588,36575
31400,12570,36772
31236,12611,36725
31261,12586,36831
31364,12604,36836
31464,12657,36960
31585,12554,36740
31744,12559,36953
31756,12531,37100
31604,12553,37050
31484,12554,37156
31384,12597,36772
31312,12651,37160
31384,12620,37209
31500,12654,37267
31664,12592,37278
31840,12551,37348
31961,12574,37087
31888,12535,37591
31736,12578,37548
31601,12617,37545
31512,12584,37487
31492,12620,37685
31512,12599,37654
31572,12624,37870
31741,12586,37668
31832,12617,37868
31936,12549,37930
31988,12606,37977
31884,12564,38016
31764,12572,38199
31670,12596,37727
31580,12605,38228
31572,12620,38021
31716,12655,38124
31900,12591,38372
32016,12599,38393
32124,12549,38565
32128,12593,38501
32060,12567,38505
31948,12674,38577
31860,12620,38757
31828,12709,38719
31844,12632,38877
31972,12652,38821
32125,12610,38965
32265,12571,38913
32349,12567,38919
32332,12553,38928
32224,12579,38791
32108,12583,39158
32048,12642,39161
32004,12630,39160
32096,12658,39264
32248,12610,39324
32364,12612,39392
32384,12570,39564
32364,12585,39470
32364,12556,39508
32240,12584,39415
32188,12673,39535
32168,12630,39452
32085,12675,39781
32144,12631,39388
32264,12654,39742
32436,12621,39902
32564,12583,40096
32622,12590,39601
32580,12625,40053
32470,12593,39649
32376,12599,40244
32320,12642,39892
32296,12679,40127
32308,12626,40335
32406,12653,40252
32548,12604,40380
32636,12610,40343
32700,12573,40428
32708,12607,40492
32632,12588,40615
32508,12649,40813
32464,12644,40698
32388,12693,40791
32432,12665,40719
32464,12623,40455
32540,12638,41030
32630,12600,40876
32736,12626,40960
32720,12591,40992
32660,12641,41054
32536,12629,41007
32434,12677,41071
32317,12643,41062
32364,12667,41207
32520,12636,41213
32636,12667,41173
32685,12612,41382
32729,12657,41356
32717,12615,41545
32577,12674,40953
32560,12622,41329
32548,12666,41485
32536,12654,41536
32536,12670,41711
32653,12677,41112
32784,12628,41532
32876,12628,41701
32965,12653,41624
32936,12610,41791
32908,12642,41189
32892,12634,41594
32840,12668,41559
32816,12663,41604
32960,12694,41637
33092,12706,41568
33113,12640,41689
33200,12630,41735
33216,12608,41873
33202,12640,41751
33100,12625,41796
33024,12661,41725
33004,12660,41846
32984,12699,41743
33060,12729,41889
33210,12693,41756
33260,12728,41876
33316,12645,41742
33316,12621,41812
33160,12652,41732
32968,12692,41884
32864,12662,41717
32776,12706,41772
32764,12684,41676
32840,12704,41780
32932,12679,41184
33092,12692,41788
33168,12640,41655
33228,12651,41724
33200,12632,41351
33092,12670,41473
32948,12663,41258
32912,12707,41589
32880,12730,41502
32950,12696,41479
33064,12739,41049
33216,12670,41381
33285,12676,41476
33332,12744,41517
33198,12661,41596
32976,12688,41479
32692,12674,41594
32448,12704,41429
32160,12772,41318
31848,12724,41390
31417,12740,41372
30849,12687,41545
30144,12697,41351
29284,12692,41380
27808,12659,41084
26018,12694,41160
24316,12730,40916
22971,12719,41180
22216,12753,40895
22334,12735,41252
23152,12748,41247
24320,12731,41197
26736,12699,41312
31096,12708,41142
37221,12692,41140
44352,12682,41068
51440,12728,40924
57976,12704,41090
63484,12769,40900
65480,12730,40960
65535,12777,41010
65535,12730,41052
65535,12801,41081
65404,12708,41233
65164,12732,40580
64924,12799,40905
64696,12757,41004
64460,12828,41047
58472,12764,41164
49757,12784,40920
42832,12835,40976
39016,12745,41084
37000,12736,41001
35480,12775,41005
34192,12723,40601
32828,12774,40901
31596,12765,40916
30488,12812,40881
29604,12786,41028
28989,12822,40928
28588,12774,41071
28270,12773,40438
28064,12741,40885
27941,12740,40372
27702,12726,41012
27412,12774,40847
27172,12756,40953
27022,12802,40794
26870,12794,40793
26852,12803,40360
26948,12780,40652
27085,12792,40772
27188,12789,40240
27292,12755,40759
27280,12778,40307
27196,12757,40438
27116,12814,40388
27085,12802,40483
27064,12843,40492
27188,12810,40468
27305,12812,40421
27476,12784,40369
27640,12790,40388
27780,12822,40455
27893,12766,39980
27909,12796,40316
27894,12790,39956
27956,12834,40272
27968,12870,40059
28092,12840,40132
28268,12834,40313
28485,12879,40264
28661,12788,40160
28713,12808,40165
28752,12778,40140
28744,12818,39852
28768,12807,40220
28768,12861,40143
28748,12852,40263
28832,12887,40129
28980,12852,40199
29172,12820,40101
29318,12819,40115
29436,12797,40082
29524,12814,40175
29472,12863,40040
29480,12831,40131
29516,12882,39996
29537,12861,40047
29592,12873,39979
29800,12881,40066
30025,12836,39943
30192,12836,40047
30372,12812,39888
30389,12825,39839
30340,12894,39701
30308,12864,39573
30356,12919,39828
30392,12895,39364
30596,12905,39647
30822,12876,39389
31036,12877,39676
31160,12876,39510
31352,12831,39591
31469,12852,39591
31468,12852,39512
31488,12887,39415
31566,12889,39532
31680,12921,39167
31864,13004,39621
32164,12908,39174
32464,12880,39687
32736,12883,39559
33036,12959,39636
33208,12866,39505
33317,12908,39593
33428,12889,39444
33552,12941,39516
33697,12931,38980
33952,12940,39340
34276,12974,39496
34596,12901,39209
34892,12905,39249
35184,12876,39260
35380,12892,39296
35500,12967,39409
35592,12924,39223
35696,12992,39191
35744,12980,39044
35937,12946,39183
36188,12948,39133
36380,12926,39042
36516,12927,38705
36637,12897,39132
36688,12927,38689
36652,12951,38996
36532,12927,39006
36396,12993,38876
36249,12964,38776
36168,13018,39133
36124,12980,39008
36004,12985,38960
35848,12934,38816
35648,12908,38535
35344,12945,39060
34936,12929,38524
34502,12960,38948
34132,12963,38901
33772,13005,38780
33500,13024,38804
33304,12975,38780
33100,12978,38893
32912,12989,38519
32689,12920,38832
32452,12948,38932
32104,12983,38815
31812,12974,38848
31584,13028,38744
31356,12990,38813
31260,13000,38774
31232,13045,38862
31184,12965,38732
31124,12972,38860
31032,12935,38736
30936,12949,38808
30776,13007,38304
30628,12972,38601
30552,13031,38306
30476,13005,38569
30500,13010,38652
30704,13026,38646
30716,12972,38685
30768,12971,38652
30828,13036,38664
30821,12966,38652
30736,12963,38663
30644,12991,38817
30592,12994,38693
30576,13060,38365
30648,13028,38804
30776,13000,38676
30876,13043,38687
30941,13001,38648
31048,12962,38551
31020,13006,38286
30948,12978,38710
30884,13041,38395
30876,13015,38556
30872,13046,38653
30949,13026,38653
31104,13029,38663
31224,12996,38556
31286,12994,38316
31352,13020,38836
31342,12994,38724
31228,13042,38508
31160,13022,38836
31104,13026,38687
31028,13056,38317
31024,13034,38801
31113,13069,38588
31212,13031,38692
31268,12993,38741
31305,13008,38589
31269,12980,38317
31180,13030,38864
31052,13012,38761
31012,13075,38799
30976,13055,38722
31065,13093,38696
31220,13047,38781
31344,13062,38750
31500,13007,38854
31590,13019,38759
31576,12996,38740
31516,13039,38759
31470,13019,38812
31448,13070,38886
31412,13056,38772
31429,13087,38687
31567,13047,38775
31700,13074,38804
31800,13024,38983
31916,13035,38856
31916,13030,38932
31868,13018,38799
31786,13072,38843
31761,13055,38951
31741,13088,38857
31804,13068,38823
31937,13109,38999
32064,13053,38873
32168,13065,38872
32276,13030,38864
32312,13084,38840
32208,13048,38780
32140,13051,38823
32108,13084,38818
32092,13081,38977
32168,13112,38853
32292,13095,38685
32472,13053,38919
32560,13054,38814
32616,13032,38916
32644,13045,38764
32598,13046,38717
32472,13076,38727
32341,13180,38361
32280,13105,38885
32348,13149,38767
32472,13091,38837
32652,13111,38710
32752,13063,38732
32848,13049,38500
32828,13105,38663
32761,13069,38696
32684,13071,38736
32616,13123,38628
32568,13099,38693
32612,13115,38617
32684,13150,38660
32824,13086,38636
32949,13097,38636
32992,13047,38564
32960,13085,38572
32869,13071,38479
32808,13124,38429
32660,13109,38597
32584,13162,38581
32615,13122,38727
32736,13135,38556
32848,13092,38640
32908,13122,38429
32996,13071,38432
32993,13088,38500
32901,13078,38551
32788,13106,38548
32709,13189,38502
32644,13123,38628
32680,13150,38133
32828,13147,38385
32952,13093,38509
32996,13101,38436
33073,13065,38535
33048,13100,38468
32906,13131,38577
32772,13097,38082
32692,13133,38407
32644,13132,38376
32688,13149,38477
32828,13124,38286
32988,13106,38369
33096,13111,38450
33162,13165,38383
33120,13098,38501
33005,13124,38345
32908,13113,38255
32832,13151,38031
32732,13198,38168
32788,13139,38328
32868,13169,38153
32964,13114,38253
33048,13109,38244
33112,13146,38380
33112,13089,38241
33014,13117,38265
32900,13173,38295
32776,13165,38116
32720,13157,37916
32736,13189,38297
32832,13139,37857
32960,13159,38359
33064,13107,38221
33140,13157,38276
33012,13124,38222
32904,13116,38221
32796,13153,38205
32720,13207,38196
32684,13176,38084
32645,13181,38140
32644,13194,38177
32724,13140,38283
32806,13139,38158
32944,13167,38122
32984,13117,38103
32904,13143,38116
32864,13181,38151
32720,13170,38104
32632,13208,38161
32736,13229,38028
32968,13164,38023
33164,13164,37989
33312,13197,37968
33456,13132,37880
33484,13162,37830
33428,13246,37945
33404,13175,38039
33344,13226,37999
33276,13192,38127
33304,13220,37652
33400,13218,37917
33500,13244,38068
33536,13167,37943
33585,13166,37924
33580,13140,37510
33516,13165,37844
33476,13250,37804
33384,13213,37847
33300,13209,37796
33356,13220,37740
33464,13244,37764
33516,13183,37716
33544,13201,37431
33564,13145,37676
33484,13178,37788
33385,13210,37767
33264,13184,37829
33205,13224,37756
33140,13216,37840
33184,13241,37709
33280,13257,37657
33380,13191,37633
33456,13193,37612
33489,13164,37668
33436,13188,37676
33336,13202,37765
33236,13195,37639
33181,13220,37571
33173,13239,37572
33228,13281,37614
33294,13214,37716
33284,13223,37300
33236,13202,37546
33092,13172,37652
32799,13205,37517
32408,13233,37417
31936,13212,37465
31292,13248,37471
30508,13315,37599
29676,13242,37247
28708,13241,37409
27116,13269,37454
25264,13209,37408
23336,13217,37484
21732,13204,37380
20400,13224,37508
19744,13254,37149
19936,13265,37222
21688,13290,36973
25630,13260,37196
31064,13277,37244
38733,13269,37293
47584,13309,37417
56592,13188,37108
63272,13217,37125
65240,13309,37237
65535,13274,37212
65535,13320,37229
65400,13273,37236
65176,13325,37364
64928,13309,37157
64696,13400,37184
64464,13283,37220
64220,13271,37221
64024,13376,37249
63781,13277,36908
56092,13351,37108
46752,13296,36924
39780,13333,37016
35840,13304,36820
33712,13315,37108
32150,13303,37116
30796,13261,37177
29756,13267,37312
28836,13281,37175
28053,13310,37030
27456,13285,37092
26984,13324,37086
26552,13343,37208
26284,13378,37157
26201,13311,37225
26152,13319,36759
26094,13274,37181
26044,13274,37094
25948,13290,37041
25840,13314,37151
25748,13300,37079
25644,13335,37148
25592,13336,37020
25660,13347,37076
25790,13361,37020
25954,13310,37116
26078,13307,36954
26168,13284,36949
26164,13297,36717
26128,13314,36829
26111,13320,36807
26140,13351,36789
26212,13390,36871
26308,13353,36884
26509,13355,36983
26720,13329,36888
26848,13316,36944
26964,13301,36868
27002,13320,36795
27014,13322,36784
26988,13352,36709
26976,13361,36865
27025,13390,36817
27145,13374,36927
27313,13372,36845
27496,13347,36833
27688,13357,36798
27837,13326,36759
27880,13376,36718
27841,13349,36743
27816,13394,36862
27844,13380,36514
27797,13407,36733
27870,13388,36818
28056,13402,36929
28233,13368,36807
28420,13388,36743
28557,13349,36665
28568,13380,36615
28524,13375,36784
28464,13423,36788
28400,13412,36812
28428,13444,36593
28584,13414,36720
28748,13411,36845
28928,13458,36768
29072,13383,36676
29201,13437,36652
29248,13380,36736
29196,13426,36847
29160,13405,36420
29172,13461,36665
29212,13433,36525
29352,13460,36540
29593,13427,36346
29800,13430,36649
30004,13393,36276
30216,13399,36629
30308,13437,36556
30344,13427,36532
30388,13474,36244
30453,13448,36520
30564,13481,36271
30800,13459,36495
31108,13462,36486
31412,13456,36535
31720,13479,36537
31964,13417,36548
32128,13479,36453
32260,13450,36622
32368,13449,36524
32512,13480,36628
32668,13480,36495
32925,13500,36553
33244,13469,36484
33588,13472,36462
33900,13443,36404
34148,13477,36316
34256,13442,36455
34337,13488,36340
34405,13476,36524
34497,13524,36404
34612,13503,36340
34780,13516,36306
34996,13497,36332
35208,13511,36260
35392,13578,36055
35562,13471,36457
35544,13537,36343
35472,13492,36377
35366,13533,36359
35228,13513,36464
35084,13544,36337
34996,13582,36172
34924,13517,36016
34868,13534,36280
34792,13484,36216
34652,13490,36287
34377,13543,36396
34080,13503,36232
33812,13556,36103
33552,13545,36185
33188,13591,36194
33020,13550,36289
32972,13544,35881
32917,13576,36041
32836,13501,36268
32784,13505,36020
32637,13545,36162
32348,13513,36242
32104,13564,36140
31970,13549,36178
31853,13578,36004
31844,13631,36052
31880,13553,36173
31902,13549,35735
31916,13553,35952
31908,13511,36048
31796,13535,36003
31640,13530,36009
31496,13554,36046
31368,13619,36140
31332,13582,35666
31436,13594,35828
31497,13602,36016
31620,13549,35982
31721,13547,35976
31726,13597,35876
31708,13534,35952
31628,13567,35916
31500,13564,35895
31464,13590,35568
31460,13620,35755
31536,13668,35898
31648,13586,35887
31772,13605,35837
31888,13551,35785
31968,13565,35847
31909,13595,35862
31836,13566,35847
31732,13624,35893
31668,13607,35822
31656,13648,35920
31710,13618,35641
31844,13615,35752
31964,13595,35493
32100,13599,35788
32132,13602,35601
32088,13565,35664
32020,13610,35693
31917,13602,35616
31872,13661,35446
31840,13638,35694
31880,13654,35656
32013,13624,35631
32153,13639,35463
32224,13590,35664
32288,13596,35556
32240,13589,35588
32164,13620,35452
32008,13620,35569
31912,13661,35476
31836,13658,35732
31844,13707,35714
32020,13650,35764
32088,13631,35657
32184,13627,35668
32272,13647,35682
32231,13607,35645
32144,13657,35660
32056,13636,35759
32040,13680,35685
31976,13670,35769
32056,13686,35390
32140,13657,35488
32236,13679,35553
32280,13624,35609
32312,13658,35580
32348,13625,35614
32268,13651,35716
32188,13716,35568
32168,13694,35702
32128,13739,35573
32238,13705,35670
32334,13712,35252
32424,13663,35487
32458,13671,35444
32520,13695,35498
32512,13651,35615
32436,13717,35503
32292,13685,35579
32244,13764,35476
32200,13716,35421
32264,13772,35111
32357,13708,35555
32436,13741,35084
32520,13670,35268
32612,13675,35460
32576,13706,35079
32456,13673,35348
32413,13723,35417
32344,13724,35344
32348,13770,35400
32481,13725,35303
32644,13749,35382
32768,13723,35271
32832,13745,35300
32884,13696,35244
32814,13761,35204
32740,13704,35148
32632,13716,35120
32586,13763,35140
32576,13749,35004
32648,13763,35172
32753,13728,35153
32904,13736,35104
32968,13693,34973
32980,13705,34777
32901,13693,35145
32810,13742,34980
32708,13738,34780
32661,13800,35073
32688,13770,35055
32748,13833,35157
32900,13765,35053
33029,13733,35072
33136,13727,35020
33150,13760,34873
33132,13714,35036
33025,13753,35012
32892,13746,35079
32772,13797,34680
32712,13777,35004
32740,13791,34896
32860,13832,34945
32988,13775,34984
33110,13786,34956
33156,13733,34996
33128,13757,34936
33012,13741,34951
32948,13785,34909
32937,13855,35005
32928,13810,34905
32928,13844,34933
33056,13796,34567
33156,13799,34817
33229,13754,34872
33288,13772,34870
33204,13756,34777
33124,13811,34764
33000,13785,34772
32948,13832,34862
32860,13810,34857
32908,13826,34748
33030,13802,34774
33196,13814,34845
33276,13826,34832
33297,13785,34927
33216,13770,34818
33156,13796,34908
33049,13799,34487
32944,13843,34644
32885,13835,34581
32900,13849,34635
32960,13821,34676
33004,13829,34655
33078,13793,34653
33120,13817,34676
33060,13788,34654
32905,13835,34653
32704,13825,34656
32552,13885,34647
32568,13855,34695
32708,13892,34679
32880,13855,34767
33072,13897,34661
33196,13824,34735
33228,13839,34325
33116,13817,34588
33152,13916,34311
33116,13847,34740
33124,13856,34629
33108,13892,34647
33173,13918,34300
33366,13861,34648
33592,13871,34311
33748,13820,34504
33848,13841,34500
33784,13826,34581
33616,13885,34295
33452,13860,34518
33420,13915,34520
33338,13881,34559
33476,13890,34684
33625,13945,34618
33724,13865,34695
33776,13842,34596
33880,13857,34700
33856,13873,34463
33720,13853,34581
33538,13873,34588
33344,13933,34254
33244,13921,34688
33288,13958,34573
33412,13911,34674
33440,13865,34564
33536,13872,34653
33540,13884,34216
33492,13852,34492
33389,13895,34392
33300,13909,34500
33240,13952,34293
33208,13939,34583
33264,13909,34429
33366,13924,34404
33476,13887,34532
33516,13904,34420
33565,13881,34329
33484,13860,34401
33368,13905,34389
33232,13904,34273
33100,13961,34360
32892,13924,34324
32816,13938,34425
32760,13997,34327
32624,13900,34365
32452,13896,34288
32088,13870,34220
31440,13903,34124
30512,13933,33934
29464,13904,34225
28136,13953,33932
26288,13959,34060
24420,13969,34094
22716,13936,34005
21496,13934,33865
20736,13905,34264
20528,13901,34148
21117,13921,34195
23232,13915,34108
27344,13944,34004
32888,13998,33956
40680,13944,33924
49496,13953,34014
58176,14011,33872
63848,13912,33944
65380,13951,34021
65535,13892,34158
65535,14000,34023
65340,13942,33951
65112,13926,33881
64888,14001,33821
64648,13965,34115
64416,13995,34002
64184,13941,33927
63976,13980,33940
62760,14016,33936
52428,13929,33905
43848,13981,33715
38128,13949,33949
34960,14007,33948
33104,13994,34005
31612,14037,33924
30364,14015,33764
29426,14020,34047
28784,13968,33953
28332,13993,33940
27880,13961,33822
27440,13977,33757
27078,13961,34037
26680,14002,33964
26449,13995,34033
26256,14021,33956
26222,14008,33972
26260,14021,33932
26317,13981,33876
26377,13970,33904
26392,13948,33886
26364,13973,33761
26312,13970,33716
26208,13999,33960
26164,14036,33568
26205,14028,33821
26318,14012,33677
26444,14014,33552
26572,13983,33844
26704,13993,33813
26884,13960,33857
26924,13988,33776
26824,13987,33667
26749,14001,33848
26740,14036,33781
26804,14027,33754
26900,14029,33745
27100,14018,33669
27296,14009,33608
27440,13980,33639
27548,13979,33660
27584,13980,33591
27500,14015,33578
27468,14008,33664
27488,14048,33700
27548,14042,33741
27628,14052,33728
27800,14084,33744
27996,14017,33590
28160,14010,33705
28272,13982,33780
28280,13999,33703
28260,14009,33761
28232,14045,33684
28200,14088,33714
28232,14061,33512
28308,14095,33474
28482,14062,33489
28648,14056,33620
28776,14013,33495
28866,14023,33511
28888,14076,33543
28812,14033,33471
28720,14089,33447
28721,14061,33500
28768,14100,33512
28836,14065,33533
29060,14079,33484
29232,14043,33415
29388,14059,33340
29532,14039,33166
29630,14025,33543
29580,14052,33432
29564,14053,33381
29576,14115,33341
29634,14103,33092
29752,14087,33444
29985,14109,33272
30232,14084,33326
30492,14037,33405
30718,14052,33327
30852,14040,33271
30920,14089,33212
31012,14080,33012
31140,14129,33269
31324,14100,33252
31596,14123,33360
31924,14085,33236
32216,14120,33119
32552,14079,33220
32796,14047,33196
32998,14060,33140
33133,14063,33094
33252,14097,32877
33396,14097,33223
33604,14136,33087
33868,14112,32836
34126,14155,33168
34384,14098,33048
34660,14059,32973
34836,14078,32901
34926,14057,32767
34920,14121,33140
34908,14109,33008
34940,14109,32896
35029,14137,32816
35160,14117,32802
35316,14122,32886
35432,14086,32941
35456,14100,32937
35460,14068,32920
35308,14119,32908
35092,14087,32933
34833,14139,32820
34584,14120,32647
34336,14160,32876
34164,14119,32849
34040,14139,32872
33912,14091,32788
33816,14100,32696
33604,14157,32695
33401,14079,32760
33116,14082,32823
32820,14129,32719
32581,14144,32448
32404,14125,32799
32318,14147,32660
32285,14115,32476
32248,14181,32764
32204,14085,32644
32084,14059,32692
31952,14087,32605
31760,14079,32621
31612,14103,32576
31500,14189,32624
31462,14129,32529
31470,14167,32606
31518,14119,32471
31576,14087,32392
31612,14089,32412
31632,14056,32452
31544,14084,32354
31402,14077,32292
31312,14128,32185
31296,14109,32161
31240,14148,32234
31336,14162,32169
31492,14119,32086
31681,14134,31940
31760,14077,32204
31792,14100,32172
31808,14091,32046
31664,14164,31992
31533,14119,32108
31480,14117,32125
31492,14137,32052
31589,14119,31967
31728,14116,31917
31840,14087,31977
31982,14100,32063
32056,14060,31916
32056,14081,31999
31900,14079,31663
31800,14123,31876
31792,14174,31560
31784,14135,31897
31888,14121,31788
32013,14118,31824
32096,14134,31740
32174,14071,31780
32232,14085,31434
32164,14108,31608
32037,14085,31540
31944,14122,31615
31844,14140,31640
31800,14120,31312
31868,14130,31414
31964,14160,31375
32044,14114,31461
32128,14118,31205
32204,14067,31377
32148,14085,31228
32100,14146,31238
32016,14101,31366
31972,14153,31358
31964,14151,31292
31980,14185,31268
32048,14137,31238
32165,14153,31205
32316,14102,31112
32380,14126,31179
32328,14094,31177
32218,14126,31146
32117,14098,31196
32060,14151,31093
32024,14126,31168
32124,14141,31043
32228,14108,31117
32340,14109,30989
32428,14077,30862
32476,14134,30799
32373,14092,30908
32230,14082,30986
32180,14132,30855
32097,14120,30807
32057,14145,30818
32132,14158,30829
32268,14107,30654
32412,14113,30748
32536,14117,30813
32616,14064,30439
32548,14084,30551
32428,14144,30624
32376,14103,30605
32265,14144,30597
32233,14127,30327
32340,14133,30380
32514,14111,30400
32628,14119,30340
32716,14081,30215
32764,14121,30416
32732,14075,30292
32628,14111,30373
32532,14099,30391
32448,14159,30329
32421,14129,30390
32480,14156,30268
32552,14108,30310
32672,14114,30244
32788,14073,30320
32832,14076,29973
32804,14071,30143
32708,14097,29924
32624,14105,30122
32548,14165,30101
32536,14183,29957
32645,14132,29940
32764,14156,29950
32852,14091,30018
32912,14088,29797
32956,14062,29857
32912,14078,29868
32752,14134,29956
32724,14101,30032
32692,14129,29930
32696,14177,29825
32780,14122,29799
32926,14132,29895
33032,14095,29956
33100,14073,29759
33144,14079,29841
33064,14132,29940
32933,14077,29694
32816,14112,29809
32784,14177,29895
32712,14144,29589
32758,14185,29856
32892,14124,29552
33008,14144,29699
33076,14069,29643
33128,14105,29678
33076,14071,29719
32952,14129,29821
32828,14116,29728
32736,14151,29807
32692,14124,29693
32772,14135,29740
32924,14111,29447
33013,14111,29626
33052,14149,29552
33072,14069,29656
33008,14086,29544
32904,14086,29517
32790,14109,29591
32748,14192,29639
32736,14152,29606
32934,14192,29696
32992,14126,29380
33056,14158,29581
33124,14098,29360
33220,14061,29541
33164,14082,29455
33072,14082,29446
32984,14113,29436
32968,14124,29495
32949,14138,29510
33036,14124,29528
33148,14127,29520
33236,14089,29515
33264,14111,29527
33276,14095,29424
33144,14133,29368
33064,14103,29326
32944,14108,29234
32848,14149,29564
32784,14136,29463
32780,14173,29498
32840,14127,29445
32924,14153,29448
32952,14095,29416
33005,14117,29412
32900,14078,29394
32676,14106,29351
32548,14148,29266
32513,14127,29326
32568,14145,29226
32700,14125,29334
32864,14124,29374
33048,14154,29335
33180,14092,29312
33144,14134,29217
33112,14077,29268
33052,14096,29077
32960,14148,29241
32949,14125,29242
33008,14167,29233
33160,14128,29221
33336,14137,29235
33480,14095,29303
33616,14092,28985
33604,14066,29053
33524,14089,29028
33432,14084,29167
33288,14136,29148
33177,14132,29104
33222,14183,28965
33284,14148,28862
33461,14163,29173
33580,14121,29069
33660,14076,29058
33656,14083,28928
33532,14072,28901
33384,14101,28935
33168,14155,28756
33012,14120,28836
32956,14152,28738
33068,14124,29017
33194,14199,28806
33316,14116,28908
33348,14068,28775
33410,14084,28772
33368,14069,28853
33252,14125,28724
33180,14110,28792
33128,14157,28804
33121,14125,28757
33174,14143,28660
33264,14102,28618
33340,14133,28701
33436,14093,28580
33488,14059,28706
33396,14128,28553
33216,14114,28656
33038,14127,28639
32812,14123,28631
32629,14164,28504
32512,14135,28695
32356,14158,28609
32129,14109,28465
31700,14075,28572
31000,14084,28536
30040,14077,28528
28936,14105,28480
27264,14114,28382
25372,14148,28350
23528,14146,28264
22142,14154,28404
21348,14129,28393
21124,14132,28220
21481,14105,28495
23148,14117,28396
26641,14098,28261
31392,14105,28232
38168,14137,28202
46328,14124,28288
54580,14184,28312
61892,14136,28341
64856,14205,28264
65532,14153,28130
65535,14093,28356
65396,14129,28121
65180,14141,28224
64952,14109,28017
64712,14106,28084
64488,14186,28228
64260,14145,28175
64032,14185,28052
63800,14115,28024
53600,14196,28140
44984,14124,28036
39152,14098,28105
35844,14156,28100
33696,14125,28063
32024,14180,28078
30653,14162,28096
29576,14200,28039
28832,14158,27908
28320,14143,27938
28013,14137,27790
27693,14101,28005
27408,14117,27972
27064,14102,27828
26748,14136,27899
26468,14137,27737
26236,14146,27997
26060,14164,27877
26080,14148,27797
26200,14145,27709
26232,14113,27610
26324,14119,27725
26453,14088,27564
26496,14111,27608
26400,14108,27526
26312,14139,27572
26264,14141,27673
26288,14160,27708
26432,14140,27641
26622,14145,27484
26790,14121,27618
26946,14125,27562
27050,14084,27624
27080,14108,27344
27052,14103,27553
27004,14148,27511
26960,14145,27356
26992,14144,27332
27140,14149,27260
27380,14120,27395
27612,14112,27233
27656,14085,27381
27788,14091,27196
27814,14089,27345
27728,14124,27252
27680,14151,27356
27662,14140,27239
27700,14177,27244
27853,14136,27200
28044,14148,27397
28156,14109,27359
28276,14110,27281
28372,14096,27297
28364,14088,27141
28272,14120,27351
28270,14159,27172
28330,14144,27394
28372,14170,27146
28488,14143,27386
28700,14153,27296
28884,14108,27196
29021,14103,27153
29104,14084,27309
29140,14105,27295
29192,14107,27231
29121,14153,27161
29112,14165,27071
29148,14149,27353
29352,14159,27255
29613,14121,27122
29808,14133,27227
29977,14137,27101
30060,14104,27196
30056,14165,27237
30040,14123,27027
30072,14117,27255
30120,14160,27215
30184,14184,27284
30388,14147,27193
30540,14172,27057
30784,14127,27088
31100,14137,27150
31280,14108,27170
31316,14135,27157
31424,14110,27031
31536,14153,27045
31673,14140,27020
31832,14157,27210
32088,14189,27131
32344,14123,27165
32700,14137,27124
32968,14089,27044
33205,14101,27076
33324,14180,26908
33392,14124,27179
33448,14119,26984
33596,14146,26917
33688,14145,27177
33934,14148,27110
34216,14125,26972
34412,14170,27078
34601,14095,27120
34780,14077,26976
34824,14111,27119
34804,14111,27137
34788,14161,27038
34784,14144,27115
34796,14195,26964
34916,14145,27182
35045,14117,27140
35104,14116,27200
35116,14075,27117
35012,14107,26956
34824,14082,27199
34584,14141,27152
34216,14136,27212
33976,14223,27176
33724,14151,27116
33668,14121,27169
33612,14119,27127
33512,14086,27173
33384,14080,27056
33224,14062,27153
32960,14121,27215
32716,14106,27294
32429,14098,27213
32200,14132,27176
32030,14120,27223
32004,14130,27188
31988,14101,27108
31964,14100,27145
31952,14058,27143
31893,14104,27031
31736,14082,27257
31520,14075,27181
31404,14132,27221
31280,14119,27100
31236,14111,27229
31284,14123,27060
31412,14085,27311
31528,14110,27230
31560,14067,27044
31608,14041,27317
31489,14068,27252
31332,14065,27281
31224,14126,27238
31200,14107,27117
31192,14107,27135
31292,14116,27247
31452,14076,27285
31596,14109,27124
31724,14066,27239
31784,14039,27324
31760,14063,27277
31628,14055,27185
31525,14092,27156
31458,14087,27070
31448,14127,27332
31524,14097,27295
31720,14116,27284
31856,14079,27265
31961,14032,27116
31964,14048,27220
31876,14031,27116
31764,14082,27340
31672,14089,27261
31608,14082,27332
31614,14113,27380
31670,14076,27359
31776,14113,27271
31984,14070,27237
31958,14026,27164
32092,14041,27367
32032,14023,27385
31904,14085,27272
31828,14084,27318
31776,14076,27223
31784,14116,27518
31884,14093,27436
32004,14055,27316
32076,14090,27440
32144,14035,27364
32240,14017,27455
32189,14030,27353
31990,14035,27431
31880,14088,27468
31885,14073,27504
31832,14132,27480
31912,14081,27289
32048,14045,27526
32189,14072,27509
32260,14026,27372
32280,14068,27472
32196,14033,27536
32093,14041,27406
32040,14109,27534
32005,14084,27548
32012,14061,27655
32096,14084,27570
32216,14046,27444
32268,14073,27461
32400,14021,27376
32473,13997,27621
32388,14016,27612
32224,14016,27481
32192,14122,27648
32136,14078,27638
32122,14068,27519
32186,14097,27535
32281,14047,27500
32461,14019,27780
32560,14037,27716
32592,14016,27756
32532,14056,27738
32438,14038,27811
32296,14075,27751
32132,14048,27776
32324,14079,27686
32528,14044,27765
32452,14045,27847
32512,14009,27865
32632,14004,27934
32525,13983,27921
32412,14000,28012
32452,14093,27768
32480,14028,28011
32508,14041,27865
32660,14054,27943
32720,14029,27906
32820,14039,27977
32820,13999,27976
32808,14021,28057
32833,13980,28160
32912,14002,28210
32880,13992,28291
32756,14021,28142
32797,14065,28312
32746,14030,28324
32798,14034,28223
32900,14058,28376
33036,13988,28516
33154,13993,28292
33140,13966,28527
33064,13991,28319
32928,13991,28630
32720,14036,28458
32725,14020,28601
32812,14085,28565
32892,14041,28642
32993,13997,28623
33184,13996,28733
33264,13967,28681
33196,13983,28833
33156,14017,28786
33096,13983,28914
33056,14028,28918
32956,14020,28996
32928,14060,29031
33032,14009,29072
33148,14023,29191
33272,13985,29135
33397,14014,29136
33456,13963,29094
33316,14035,29141
33184,13991,29199
33140,14065,29229
33052,14015,29345
32984,14036,29425
33196,13998,29467
33263,13999,29592
33340,14003,29308
33344,13947,29476
33385,13967,29639
33396,13982,29646
33256,13963,29736
33160,13995,29492
33104,14051,29685
33150,14001,29849
33188,14015,29856
33316,13978,29987
33444,13984,29693
33556,13977,29837
33544,13931,29881
33440,13965,30046
33293,13995,30156
33190,14026,29895
33132,13995,30017
33140,14020,29941
33172,13982,30293
33248,13977,30249
33376,14002,30317
33488,13937,30316
33546,13942,30426
33512,13986,30301
33349,13964,30302
33248,14011,30367
33164,13981,30476
33104,14023,30471
33140,13981,30436
33289,14011,30378
33374,13972,30627
33397,13970,30449
33345,13920,30784
33216,13945,30730
33124,13939,30725
33000,13964,30748
32992,13973,30700
32924,13991,30733
32942,13970,30642
32996,13975,30981
33072,13935,30676
33128,13933,31048
33336,13908,30975
33306,13947,31108
33200,14022,31036
33092,13975,31118
32980,13966,31081
32984,13983,31204
33132,13961,30918
33324,13960,31013
33500,14000,30948
33608,13935,31140
33636,13952,31117
33620,13928,31350
33524,13925,31279
33518,13992,31191
33460,13965,31263
33405,14050,31239
33520,13961,31378
33584,13932,31384
33752,13930,31537
33808,13897,31447
33800,13908,31449
33756,13959,31501
33629,13923,31588
33552,13997,31549
33433,13958,31618
33344,13951,31580
33416,13948,31565
33449,13925,31525
33468,13936,31656
33546,13933,31724
33600,13895,31438
33484,13967,31704
33376,13914,31702
33300,14013,31817
33192,13959,31502
33164,13942,31858
33304,13957,31788
33452,13937,31694
33416,13985,31825
33500,13897,31793
33592,13873,31849
33544,13925,31711
33412,13907,31845
33273,13909,31759
33160,13983,31984
33020,13967,31739
33080,13946,31855
33192,13924,31649
33196,13894,31892
33032,13888,31798
32788,13867,31920
32433,13930,31838
31887,13900,32053
31208,13905,31921
30380,13983,31692
29556,13963,31878
28540,13928,31940
26948,13909,31956
25196,13926,31873
23488,13880,31929
22236,13869,31964
21396,13906,31894
21322,13911,32085
21773,13919,31864
23700,13930,31740
27648,13927,31964
32888,13934,31972
40348,13892,31904
48736,13952,31920
56688,13880,32030
63004,13840,32000
65024,13927,32020
65416,13906,32167
65360,14012,32057
65176,13957,32026
64960,13965,31992
64728,13904,32078
64504,13967,32026
64264,13890,31925
64048,13943,31825
63824,13897,32100
59416,13951,32084
49600,13882,32164
41732,13938,32126
37116,13922,32226
34504,13958,32118
32820,13918,32029
31480,13924,32076
30378,13882,32137
29460,13880,32148
28744,13932,32229
28133,13885,31911
27580,13921,32141
27178,13913,32161
26832,13951,32248
26584,13924,32201
26452,13908,32276
26408,13900,32156
26349,13871,32088
26336,13885,32297
26301,13856,32194
26264,13887,32164
26160,13888,32036
26092,13888,31926
26070,13921,32231
26116,13911,32141
26238,13937,31995
26336,13892,32252
26516,13865,32142
26612,13859,32048
26644,13843,32113
26676,13884,32144
26644,13880,32050
26600,13927,32039
26572,13907,31882
26620,13900,32149
26821,13944,32098
26992,13894,32128
27092,13853,32093
27308,13882,32279
27568,13849,32167
27520,13843,32230
27312,13883,32096
27232,13873,32094
27164,13926,32149
27190,13904,31959
27428,13880,32262
27640,13898,32224
27753,13860,32251
27944,13828,32149
28072,13856,32260
28078,13842,32292
28064,13917,32284
28013,13876,32257
27924,13886,32322
27996,13903,32343
28160,13884,32292
28437,13897,32263
28672,13860,32229
28766,13822,32369
28872,13843,32324
28870,13830,32292
28824,13889,32397
28824,13876,32298
28845,13903,32406
28938,13876,32254
29105,13890,32384
29312,13860,32421
29496,13875,32260
29676,13837,32138
29761,13867,32497
29728,13831,32378
29628,13842,32308
29616,13869,32304
29704,13876,32135
29720,13906,32482
29860,13882,32332
30101,13858,32425
30404,13847,32394
30620,13895,32313
30744,13829,32208
30764,13868,32544
30816,13856,32460
30881,13924,32380
30968,13892,32533
31176,13879,32468
31449,13915,32303
31716,13878,32468
31980,13924,32477
32280,13836,32380
32456,13810,32359
32600,13863,32217
32612,13846,32612
32736,13855,32501
32890,13887,32420
33044,13876,32423
33264,13916,32517
33549,13861,32528
33856,13831,32519
34112,13831,32492
34288,13806,32516
34297,13834,32474
34340,13831,32511
34368,13862,32573
34412,13865,32554
34469,13895,32492
34612,13856,32448
34810,13892,32585
35056,13828,32711
35145,13860,32592
35147,13831,32543
35034,13814,32556
34836,13871,32647
34640,13847,32634
34452,13912,32511
34316,13867,32564
34296,13887,32529
34300,13854,32668
34256,13826,32661
34138,13831,32647
33948,13861,32485
33664,13836,32733
33364,13872,32444
33060,13841,32783
32792,13884,32687
32608,13853,32727
32532,13887,32684
32540,13858,32612
32512,13852,32546
32460,13807,32399
32356,13795,32758
32165,13828,32693
31964,13814,32775
31749,13871,32696
31557,13868,32690
31472,13900,32668
31496,13853,32676
31588,13860,32677
31660,13804,32775
31664,13828,32660
31632,13792,32579
31608,13796,32509
31470,13835,32623
31377,13821,32407
31308,13863,32556
31297,13884,32652
31376,13848,32596
31502,13816,32565
31640,13816,32580
31732,13821,32562
31756,13797,32630
31640,13844,32372
31546,13829,32749
31432,13865,32380
31377,13835,32528
31436,13877,32364
31556,13823,32489
31700,13827,32481
31832,13796,32536
31976,13787,32540
31976,13769,32573
31780,13805,32362
31684,13839,32587
31612,13832,32631
31648,13828,32636
31680,13855,32646
31760,13854,32671
31908,13803,32354
32026,13798,32487
32069,13764,32546
32032,13799,32559
31916,13788,32440
31856,13791,32701
31778,13831,32639
31725,13823,32697
31748,13873,32623
31838,13827,32590
31905,13799,32647
32004,13809,32745
32116,13817,32367
32140,13764,32485
31924,13803,32464
31904,13799,32604
31853,13859,32623
31804,13831,32676
31680,13823,32620
31821,13834,32572
32130,13795,32476
32352,13823,32479
32352,13761,32548
32292,13801,32343
32216,13767,32588
32110,13816,32336
31992,13795,32581
31952,13841,32457
32005,13821,32594
32100,13823,32528
32204,13794,32697
32288,13828,32621
32352,13772,32637
32396,13841,32612
32380,13788,32591
32228,13848,32321
32132,13822,32639
32116,13838,32515
32156,13898,32493
32252,13816,32490
32388,13793,32393
32446,13814,32583
32597,13783,32312
32600,13760,32678
32488,13787,32572
32380,13785,32462
32336,13860,32669
32264,13839,32516
32290,13818,32460
32400,13855,32421
32492,13796,32439
32564,13826,32401
32804,13773,32252
32744,13765,32480
32660,13782,32276
32584,13781,32512
32488,13823,32233
32444,13820,32561
32428,13841,32519
32596,13810,32549
32772,13844,32452
32846,13792,32249
32864,13808,32377
32848,13769,32357
32760,13822,32404
32644,13789,32319
32556,13831,32344
32500,13831,32247
32516,13862,32594
32602,13827,32505
32712,13852,32487
32812,13791,32359
32904,13763,32188
32932,13775,32390
32804,13824,32372
32708,13798,32430
32616,13842,32476
32557,13826,32468
32644,13849,32567
32752,13832,32463
32832,13817,32487
32936,13834,32439
33008,13779,32365
33024,13815,32388
32856,13788,32175
32704,13832,32391
32596,13824,32424
32608,13827,32356
32676,13859,32349
32784,13829,32141
32932,13861,32510
33052,13797,32412
33080,13766,32297
33096,13782,32383
32992,13772,32386
32940,13807,32359
32797,13807,32316
32792,13845,32333
32860,13896,32415
32908,13834,32348
32912,13806,32425
32975,13801,32345
33200,13772,32253
33216,13785,32269
32904,13840,32299
32846,13805,32327
32804,13892,32263
32784,13851,32273
32872,13887,32277
32944,13844,32188
33036,13805,32196
33136,13819,32262
33204,13784,32256
33188,13772,32109
33172,13804,32056
33128,13819,32293
32928,13816,32237
32812,13847,32330
32860,13831,32233
32948,13860,32204
33053,13829,32142
33148,13878,32079
33333,13786,32185
33408,13772,32169
33192,13837,32064
33040,13839,32010
32960,13844,32116
32880,13836,32173
32885,13859,32134
32988,13827,32204
33072,13821,32111
33104,13796,32015
33284,13825,31928
33280,13787,31980
33180,13845,31917
33028,13813,31808
32900,13816,32155
32781,13853,32045
32772,13837,32117
32880,13838,32031
33000,13810,32128
33096,13804,31778
33181,13829,31892
33121,13800,31783
32908,13847,31868
32708,13815,31717
32688,13870,31829
32668,13851,31724
32775,13884,31919
32984,13831,31924
33185,13846,32041
33248,13819,31959
33284,13841,32029
33268,13804,31936
33204,13828,32023
33172,13810,31920
33152,13841,32007
33134,13839,31902
33172,13871,31964
33308,13840,31874
33516,13815,31780
33679,13814,31945
33773,13779,31892
33760,13790,31980
33638,13789,31897
33444,13823,31977
33356,13923,31908
33256,13868,31982
33304,13843,31912
33456,13857,31944
33648,13818,31635
33729,13818,31888
33728,13786,31907
33708,13800,31941
33640,13799,31837
33444,13860,31712
33248,13855,31941
33124,13897,31895
33248,13857,32000
33234,13907,31893
33172,13830,31913
33304,13807,31863
33608,13830,31788
33736,13796,31837
33444,13841,31601
33212,13824,31856
33168,13868,31667
33076,13846,31712
33064,13890,31641
33208,13844,31892
33364,13916,31831
33433,13831,31749
33464,13788,31704
33464,13826,31606
33304,13796,31772
32992,13811,31677
32774,13853,31720
32548,13848,31751
32340,13881,31706
32093,13845,31661
31732,13879,31566
31296,13826,31869
30528,13800,31761
29642,13802,31797
28240,13883,31751
26344,13851,31660
24500,13848,31706
22900,13885,31649
21941,13875,31784
21652,13892,31747
21953,13857,31759
23230,13833,31737
26276,13823,31693
30756,13807,31649
36628,13832,31622
44240,13817,31636
52056,13940,31678
59320,13876,31792
64008,13848,31696
65240,13931,31676
65424,13890,31646
65296,13828,31521
65096,13838,31540
64876,13798,31505
64644,13853,31527
64424,13836,31437
64172,13893,31577
63964,13958,31567
63620,13903,31519
53344,13932,31540
44788,13858,31525
39136,13885,31542
36064,13838,31680
34076,13885,31653
32456,13863,31742
31005,13920,31664
29860,13889,31737
28952,13893,31648
28337,13911,31577
27961,13927,31587
27748,13887,31622
27489,13873,31735
27292,13836,31723
26996,13887,31735
26756,13860,31648
26592,13858,31472
26480,13911,31790
26348,13893,31457
26328,13912,31588
26364,13885,31614
26500,13887,31717
26592,13885,31732
26724,13850,31702
26756,13869,31718
26705,13847,31417
26640,13871,31597
26604,13910,31724
26576,13897,31653
26597,13909,31572
26796,13888,31438
26936,13887,31761
27230,13855,31683
27433,13852,31693
27420,13841,31616
27300,13876,31649
27248,13876,31783
27236,13922,31685
27276,13920,31566
27361,13903,31565
27484,13924,31456
27680,13880,31550
27892,13883,31588
28020,13848,31647
28098,13862,31617
28101,13895,31733
28072,13878,31836
28044,13924,31717
28012,13924,31826
28104,13976,31719
28268,13914,31661
28496,13889,31623
28653,13900,31535
28744,13878,31879
28832,13855,31791
28804,13887,31806
28752,13884,31821
28716,13913,31925
28692,13918,31554
28762,13940,31809
28970,13913,31817
29160,13940,31957
29285,13907,31801
29428,13879,31573
29468,13865,31893
29488,13914,31808
29514,13910,31717
29502,13948,31773
29432,13953,31844
29551,13982,31957
29748,13941,31856
30024,13911,31751
30196,13891,31751
30348,13886,31631
30404,13873,31788
30416,13900,31596
30404,13900,31889
30452,13949,31856
30492,13949,31772
30628,14013,31758
30808,13946,31720
31068,13930,31949
31392,13900,31841
31598,13918,31775
31753,13893,31760
31804,13897,31604
31856,13927,31846
31944,13932,31837
32160,13988,31732
32360,13959,31739
32617,13933,31822
32896,13957,31807
33176,13904,31798
33450,13916,31799
33629,13889,31824
33696,13951,31655
33796,13927,31848
33896,13933,31808
33968,14013,31701
34148,13967,31884
34304,13946,31810
34558,13925,31681
34776,13945,31719
34946,13895,31607
34964,13948,31877
34968,13914,31773
34888,13997,31796
34836,13953,31771
34700,14000,31788
34697,13956,31765
34860,13989,31809
34920,13956,31720
34932,13975,31652
34920,13921,31599
34768,13958,31613
34480,13923,31588
34244,13924,31450
33948,13959,31672
33624,13958,31584
33372,13967,31672
33157,14017,31733
33092,13951,31676
33216,13981,31735
33129,13911,31429
32828,13897,31789
32532,13922,31447
32296,13926,31629
32021,13953,31421
32036,13956,31692
32084,13975,31434
31964,13943,31773
31884,13965,31686
31912,13924,31743
32000,13955,31647
32020,13912,31575
31760,13908,31516
31564,13943,31572
31416,13935,31639
31396,13985,31570
31412,13971,31623
31444,14014,31394
31456,13943,31720
31540,13911,31401
31664,13909,31751
31576,13892,31657
31524,13954,31565
31404,13936,31653
31292,13939,31584
31280,13970,31621
31276,13956,31589
31384,13968,31598
31444,13942,31536
31540,13968,31584
31648,13910,31421
31620,13940,31481
31509,13911,31397
31461,13996,31721
31448,13959,31608
31367,14018,31535
31372,13980,31541
31440,13945,31359
31480,13951,31689
31624,13915,31588
31744,13957,31496
31756,13920,31601
31544,13909,31599
31572,13941,31714
31584,13953,31614
31316,14010,31712
31360,13984,31599
31518,13948,31668
31532,13947,31620
31680,13919,31655
31920,13968,31596
31908,13917,31521
31684,13913,31494
31604,13975,31517
31548,13959,31601
31556,13961,31391
31589,13975,31650
31716,13951,31650
31872,13978,31644
31900,13927,31653
31993,13916,31772
32009,13937,31571
31960,13919,31599
31884,13960,31543
31785,13966,31751
31732,14032,31674
31804,13989,31747
31909,13955,31676
32046,13937,31428
32164,13956,31751
32198,13924,31585
32136,13908,31672
32036,13944,31641
32112,13936,31655
32092,13991,31616
31936,13990,31602
31904,13969,31404
32008,13988,31751
32244,13968,31659
32245,13927,31532
32436,13933,31530
32584,13921,31639
32388,14013,31719
32264,13964,31632
32176,13961,31549
32088,14036,31678
32148,13989,31660
32245,13971,31552
32328,14005,31533
32460,13955,31638
32580,13916,31740
32521,13951,31631
32405,13930,31538
32344,14033,31684
32280,13988,31617
32316,13984,31495
32300,14056,31634
32408,13977,31623
32561,13950,31685
32664,13959,31581
32820,13922,31517
32780,13956,31564
32736,13932,31564
32708,14020,31477
32638,13993,31609
32532,14005,31539
32580,13983,31589
32644,14022,31589
32796,13983,31604
32892,13943,31676
32900,13927,31511
32898,13949,31428
32796,13940,31721
32685,13950,31566
32584,14025,31622
32464,13998,31623
32408,13981,31570
32540,14045,31633
32774,13988,31526
32837,13952,31612
32928,13973,31405
32940,13935,31629
32876,13933,31589
32834,13982,31420
32688,13982,31743
32476,13989,31614
32553,13995,31568
32864,14018,31700
32944,13965,31640
32916,14019,31555
33040,13951,31604
33012,13925,31633
32921,13956,31449
32808,13955,31835
32692,14037,31713
32608,14023,31620
32612,14003,31766
32764,13994,31660
32774,14003,31488
32864,13967,31703
33116,13937,31651
33080,13920,31783
32869,14007,31684
32816,13980,31908
32760,13985,31743
32652,13985,31564
32680,14015,31873
32785,13994,31668
32912,13957,31823
32988,13981,31708
33064,13943,31815
33028,13959,31925
32980,13945,31873
32824,13952,31773
32744,14031,31834
32708,14001,31766
32836,13991,31954
32920,13979,31700
32996,13995,31869
33142,13964,31753
33272,13925,31852
33204,13975,31858
33088,13958,31599
32920,13959,31924
32845,14039,31829
32792,14008,31600
32832,13983,31998
32816,14022,31847
32972,13984,31664
33118,13941,31873
33176,13965,31852
33172,13947,31878
33132,13988,31956
33108,13956,31887
33008,14008,31869
32888,13988,31797
32876,14000,31816
32929,13977,31697
33024,13988,31912
33036,13942,31645
33048,13956,31899
33033,13949,31897
32886,13943,31973
32821,13989,31857
32732,13973,31719
32629,14019,31864
32648,13991,31890
32672,14023,32016
32780,13988,31901
32784,13940,31823
32836,13968,31954
33108,13952,31928
33132,13943,31820
32996,14014,31964
32944,13993,31934
32780,13988,31826
32764,14018,31799
32908,13992,31930
33092,14020,31966
33268,13970,31730
33408,13990,31878
33564,13941,31937
33524,13941,31997
33276,13974,31964
33184,13992,31900
33214,14024,31966
33260,14009,32006
33336,13976,31913
33440,14002,31689
33520,13952,32015
33608,13951,31828
33686,13924,31736
33616,13961,32079
33496,13951,31972
33401,14004,32085
33232,14012,31982
33284,13984,31996
33354,13990,31989
33332,13956,32065
33336,13951,31993
33472,13925,31969
33428,13985,31961
33312,13952,31881
33176,13946,31825
33172,13996,31806
33092,13978,31911
33052,14034,31997
33108,13997,32015
33240,13955,31901
33344,13959,31772
33400,13923,32001
33384,13940,32004
33272,13932,32116
33172,13961,32020
33077,13967,32036
32996,13988,32020
33056,13980,32124
33016,13980,31765
32928,14036,32129
32900,13949,31751
32892,13962,31891
32540,13933,31932
32096,13933,31878
31562,13959,31931
30856,13969,32004
30020,13997,31996
29112,13983,32007
27748,13980,31964
26100,13997,32021
24512,13956,31952
23476,13928,31904
22556,13965,31768
22197,13955,32064
22404,13966,32047
23721,14000,32067
26804,14010,32031
31332,13982,31940
37345,14029,31948
45032,13961,31776
52696,13921,32108
59632,13997,32040
64104,13959,32040
65276,14069,31991
65416,13972,31936
65288,13962,31920
65080,14014,31940
64864,13970,31897
64628,14071,31784
64408,13992,32160
64168,13938,32065
63936,13921,31997
61016,14024,32164
51260,13972,32036
43112,13964,31962
38192,14045,32119
35432,14018,32052
33572,14001,31960
32164,13978,32200
31048,14011,32001
30101,13960,31870
29308,13941,32221
28660,13975,32124
28137,13972,32020
27616,13975,32242
27250,13983,32146
26952,14028,32157
26876,14009,32091
26808,13998,31872
26808,14010,32259
26920,13948,32165
26920,13927,32056
26780,13957,32016
26664,13952,31968
26582,13956,32200
26541,13989,32168
26536,13989,32194
26584,14026,32116
26708,13976,32053
26841,13956,32065
26984,13973,32175
27084,13929,32157
27088,13927,32026
27096,13969,31904
26996,13971,32174
26906,13967,32191
26873,14012,32101
27068,13989,32263
27316,13971,32060
27432,13953,31956
27526,13959,32241
27828,13937,32096
27844,13919,32247
27702,13969,32347
27720,13961,32245
27620,13965,32196
27584,14006,32286
27844,13986,32212
28098,13961,32230
28148,13976,32124
28288,13927,32233
28432,13919,32380
28528,13946,32329
28484,13930,32397
28384,13984,32340
28389,13978,32329
28389,14016,32297
28500,13984,32348
28700,13959,32225
28842,13980,32564
28948,13929,32256
29088,13956,32613
29205,13928,32544
29136,13922,32472
29080,13970,32439
29108,13976,32570
29160,13975,32583
29297,13998,32495
29536,13964,32421
29756,13944,32527
29976,13965,32589
30052,13921,32638
30033,13917,32436
29972,13935,32566
29908,13939,32718
29944,13972,32599
29976,13965,32605
30202,14020,32519
30390,13969,32562
30668,13944,32596
30888,13957,32556
31064,13909,32661
31108,13957,32540
31112,13933,32482
31344,13937,32448
31380,13975,32432
31396,13966,32476
31680,14014,32281
31936,13961,32581
32212,13977,32379
32440,13919,32624
32696,13949,32519
32864,13926,32301
32896,13919,32632
32972,13959,32503
33096,13951,32588
33148,13977,32231
33356,14016,32412
33608,13954,32437
33880,13989,32459
34188,13926,32453
34368,13903,32441
34416,13915,32455
34292,13929,32342
34268,13927,32437
34414,13969,32533
34492,13959,32428
34584,13984,32440
34848,13949,32420
35040,13944,32519
35108,13913,32396
35176,13908,32313
35272,13940,32141
35064,13906,32336
34896,13940,32372
34648,13989,32374
34452,13964,32425
34316,13952,32334
34312,13953,32357
34260,13923,32331
34184,13914,32329
34037,13892,32088
33824,13908,32153
33484,13900,32196
33084,13955,32132
32852,13943,32164
32645,13948,32126
32524,13960,32090
32517,13933,32287
32492,13915,32237
32396,13925,32268
32300,13887,32200
32140,13927,32135
31908,13921,32063
31688,13911,32052
31528,13946,32192
31352,13947,32175
31222,13980,32220
31316,13933,32165
31516,13954,32239
31420,13914,32128
31429,13872,32157
31509,13903,32020
31366,13887,31986
31244,13917,32047
31156,13927,31988
31000,13932,31972
31084,13948,32110
31224,13925,32082
31376,13940,32184
31483,13889,32076
31584,13863,32100
31524,13893,32028
31428,13872,32013
31248,13915,31988
31232,13911,31950
31268,13957,31878
31296,13937,32001
31332,13905,32121
31428,13915,32006
31596,13870,32047
31748,13894,32004
31716,13868,31884
31516,13864,31838
31392,13903,31876
31348,13901,31812
31296,13935,31940
31341,13911,31972
31373,13921,32015
31580,13877,31943
31680,13905,31993
31668,13860,31842
31641,13918,31821
31864,13876,31679
31728,13876,32050
31540,13919,31738
31457,13903,31802
31460,13934,31660
31608,13889,31843
31789,13919,31784
31925,13865,32009
31988,13841,31926
31928,13871,32020
31864,13853,31913
31744,13904,31988
31584,13892,31924
31620,13948,32025
31736,13905,31886
31836,13924,31905
31945,13873,31649
31988,13923,32020
32040,13856,31892
32036,13833,31815
31968,13894,31836
31824,13881,31890
31998,13925,32013
32005,13920,31909
31908,13947,32008
31956,13899,31644
32164,13884,31919
32300,13852,31641
32420,13830,32036
32384,13852,31920
32330,13836,31866
32234,13870,31932
32184,13877,31916
32128,13914,31903
32200,13887,31772
32404,13897,31836
32528,13852,31942
32588,13852,31990
32524,13827,31959
32556,13841,31959
32616,13834,31948
32632,13849,31814
32604,13902,31681
32456,13877,32052
32476,13896,31959
32600,13863,32057
32732,13860,31985
32832,13925,32089
32940,13821,31975
32936,13837,32060
32796,13826,31726
32692,13861,32041
32608,13860,31988
32608,13906,32078
32628,13895,31992
32812,13855,31878
32949,13887,32007
32964,13842,32015
33040,13808,31916
32988,13835,31924
32893,13818,31905
32745,13884,32061
32608,13865,32036
32726,13864,32084
32936,13878,32036
32948,13842,32044
32924,13882,31892
32989,13837,32036
33044,13800,31983
33028,13815,31972
32944,13809,31853
32780,13854,32142
32676,13847,32070
32625,13880,32124
32665,13872,31936
32889,13834,32071
33046,13853,32133
33045,13816,32004
33100,13845,31837
33120,13818,32208
32964,13891,32117
32880,13850,32023
32856,13897,32012
32734,13873,31916
32740,13848,32196
32852,13855,32045
32996,13815,31888
33132,13821,32196
33160,13786,32180
33100,13787,32121
32977,13818,32060
32904,13808,32100
32784,13858,32116
32692,13837,32121
32762,13847,32183
32960,13825,32117
33093,13821,32092
33140,13791,32064
33102,13802,32263
33000,13805,32207
33009,13789,32043
32924,13838,32252
32840,13823,31983
32728,13863,32359
32716,13840,32261
32840,13843,32246
32940,13800,32277
32976,13801,32386
33064,13816,32053
33128,13769,32128
33012,13799,32165
32928,13796,32143
32852,13854,32271
32776,13831,32265
32808,13879,32131
32904,13829,32007
33080,13895,32388
33153,13788,32276
33216,13764,32194
33208,13791,32206
33132,13782,32276
33052,13848,32316
32836,13838,32253
32788,13915,32182
33000,13826,32156
33196,13800,32278
33336,13815,32384
33260,13765,32303
33292,13786,32407
33332,13757,32029
33224,13789,32175
33112,13788,32148
33004,13814,32201
32884,13855,32357
32836,13808,32052
32984,13806,32221
33140,13780,32166
33212,13773,32305
33224,13749,32300
33174,13764,32349
33080,13767,32296
32948,13793,32391
32805,13885,32144
32692,13821,32273
32752,13887,32101
32932,13812,32134
33088,13868,31994
33172,13766,32376
33248,13744,32262
33268,13793,32181
33144,13781,32366
32980,13775,32256
32976,13885,32056
32996,13825,32127
33053,13852,32158
33260,13807,32164
33436,13767,31997
33524,13766,32388
33678,13732,32217
33604,13771,32206
33468,13750,32273
33392,13777,32356
33317,13823,32032
33204,13792,32198
33238,13802,31980
33308,13774,32159
33472,13778,32012
33606,13741,32336
33710,13749,32250
33752,13732,32233
33556,13764,32223
33389,13760,31972
33220,13814,32339
33068,13787,32236
32976,13844,32080
32972,13783,32351
33080,13755,32189
33191,13755,32004
33224,13720,32326
33137,13767,32188
33072,13743,31971
33084,13806,32312
32993,13791,32207
32920,13872,32033
32936,13807,32180
33096,13826,32199
33224,13771,32209
33340,13796,32149
33368,13738,32169
33300,13770,32134
33164,13751,32145
33028,13743,32199
32864,13828,32036
32692,13796,31876
32796,13766,32165
32780,13790,31996
32556,13739,31853
32396,13778,32060
32133,13725,32205
31526,13713,32033
30556,13771,31813
29672,13748,32124
28532,13793,31953
26740,13795,32032
25036,13775,31924
23680,13788,32104
22852,13765,31958
22644,13730,31973
22976,13732,31878
23729,13725,31913
25900,13756,31937
29632,13746,32044
34404,13776,31911
41072,13767,31798
48452,13797,31796
55444,13816,31583
61856,13744,31884
64612,13705,31751
65244,13750,31527
65248,13695,31856
65092,13756,31765
64861,13744,31672
64628,13782,31652
64412,13892,31696
64184,13789,31678
63960,13747,31604
63740,13772,31555
55452,13806,31616
46792,13726,31636
40440,13781,31562
36920,13746,31412
34596,13799,31565
32820,13779,31551
31348,13771,31452
30241,13794,31376
29448,13759,31249
28976,13764,31485
28580,13723,31500
28276,13749,31395
27908,13722,31586
27500,13728,31457
27186,13775,31301
26932,13765,31559
26760,13808,31460
26728,13774,31351
26768,13748,31504
26828,13756,31407
26880,13716,31357
26900,13715,31422
26868,13708,31413
26792,13732,31273
26736,13732,31414
26664,13759,31399
26617,13761,31428
26689,13792,31391
26890,13759,31184
27060,13759,31358
27252,13721,31398
27348,13734,31473
27352,13709,31420
27344,13737,31517
27270,13732,31431
27232,13774,31348
27257,13773,31509
27402,13780,31420
27588,13748,31456
27799,13720,31306
27977,13710,31200
28084,13688,31576
28108,13714,31487
28096,13716,31226
28080,13788,31583
28068,13754,31477
28072,13746,31332
28204,13775,31548
28376,13740,31533
28536,13746,31576
28700,13694,31445
28788,13704,31348
28756,13687,31508
28672,13716,31303
28648,13781,31468
28664,13753,31476
28732,13769,31586
28893,13737,31588
29056,13735,31601
29312,13721,31645
29464,13711,31580
29648,13726,31511
29640,13686,31620
29592,13713,31592
29510,13709,31629
29536,13744,31612
29581,13781,31575
29669,13736,31556
29864,13731,31660
30016,13753,31706
30189,13697,31676
30364,13703,31712
30416,13702,31670
30417,13687,31684
30384,13732,31437
30364,13730,31827
30398,13782,31703
30556,13753,31636
30780,13767,31708
30976,13711,31495
31208,13708,31612
31472,13672,31668
31616,13704,31622
31684,13682,31609
31684,13725,31690
31709,13724,31591
31846,13753,31684
32104,13725,31724
32412,13734,31824
32672,13785,31631
32744,13689,31729
32832,13711,31621
32940,13676,31999
32964,13709,31784
33028,13767,31772
33156,13729,31620
33294,13800,32015
33488,13748,31925
33722,13793,31879
33948,13696,31888
34104,13701,31879
34209,13658,31921
34201,13665,32028
34212,13696,31951
34128,13695,32025
34057,13743,31960
34092,13774,31984
34217,13713,31960
34380,13737,32046
34508,13689,31946
34589,13687,32036
34604,13659,31977
34476,13670,32046
34246,13669,31933
33936,13713,31952
33672,13762,31924
33494,13743,31892
33408,13791,31900
33324,13722,31750
33164,13728,31862
32972,13674,31879
32836,13697,31996
32449,13679,31720
32110,13710,31959
31888,13703,31973
31728,13751,32057
31604,13725,31745
31546,13756,31997
31532,13696,31717
31536,13708,31988
31488,13650,31838
31416,13663,31862
31249,13645,31887
31060,13665,31887
30892,13749,31836
30711,13687,31918
30584,13735,31861
30632,13694,31948
30704,13721,31979
30793,13673,31879
30876,13719,31832
30936,13641,31956
30949,13641,32007
30884,13644,31986
30816,13699,31953
30768,13700,31895
30772,13685,31909
30816,13689,31956
30898,13668,32021
31024,13676,32125
31061,13626,32038
31118,13628,32093
31124,13623,32013
30992,13665,31945
30896,13653,32000
30856,13681,31799
30836,13672,32196
30940,13700,32105
31133,13654,32020
31244,13696,32091
31296,13636,32149
31372,13613,32072
31296,13661,32031
31180,13638,32203
31068,13639,32106
31056,13698,32183
31100,13680,32004
31268,13705,32302
31456,13660,32276
31632,13629,32269
31684,13624,32301
31712,13603,32226
31568,13639,32263
31455,13627,32096
31360,13684,32487
31316,13679,32405
31352,13663,32348
31390,13687,32263
31524,13657,32409
31648,13683,32577
31724,13621,32484
31856,13596,32512
31872,13643,32469
31780,13633,32431
31748,13628,32455
31696,13673,32534
31640,13655,32576
31604,13664,32288
31686,13628,32669
31818,13637,32553
31893,13606,32631
31980,13646,32572
31900,13636,32502
31776,13612,32524
31680,13679,32369
31653,13655,32688
31641,13648,32647
31736,13671,32620
31892,13631,32525
32024,13647,32487
32121,13597,32789
32176,13633,32716
32094,13609,32665
31985,13701,32590
31856,13646,32487
31812,13643,32804
31816,13646,32740
31960,13678,32530
32160,13638,32788
32224,13632,32818
32216,13587,32780
32176,13636,32540
32068,13611,32835
31938,13605,32601
31865,13625,32976
31772,13631,32862
31712,13685,32721
31785,13651,32993
31890,13620,32899
31972,13631,32933
32016,13584,32951
32100,13612,32877
32165,13606,32877
32124,13647,32741
32096,13621,33111
32045,13680,33062
32006,13650,33004
32079,13640,33060
32224,13619,33124
32300,13649,33029
32384,13603,33124
32400,13578,33189
32288,13631,33168
32140,13609,33176
32048,13609,33273
31972,13670,33316
32004,13653,33264
32148,13636,33084
32316,13643,33431
32440,13604,33430
32540,13632,33444
32580,13598,33445
32564,13672,33423
32468,13613,33543
32360,13615,33572
32224,13626,33517
32180,13658,33645
32270,13642,33657
32476,13620,33613
32573,13610,33649
32616,13590,33765
32620,13668,33713
32564,13611,33955
32489,13595,33877
32492,13647,33948
32485,13640,33902
32456,13632,33655
32484,13664,33988
32556,13624,34019
32714,13598,34069
32808,13632,34028
32872,13583,34269
32792,13582,34132
32668,13591,34208
32576,13684,34233
32512,13667,34417
32424,13643,34285
32492,13637,34369
32640,13608,34311
32800,13654,34549
32881,13599,34472
32908,13567,34469
32844,13670,34519
32744,13605,34558
32680,13600,34727
32625,13669,34640
32608,13639,34368
32696,13620,34778
32800,13647,34712
32844,13591,34671
32872,13575,34756
32880,13617,34944
32808,13582,34820
32628,13583,34766
32580,13653,34885
32572,13632,34838
32469,13625,34976
32568,13641,35118
32692,13612,35023
32824,13591,35060
33000,13605,35024
33034,13569,35104
33004,13637,35149
32940,13593,35069
32808,13597,35264
32672,13640,35231
32720,13623,35220
32844,13668,35300
32992,13617,35262
33144,13588,35244
33288,13610,35271
33376,13572,35316
33312,13572,35348
33280,13651,35292
33160,13646,35373
33092,13638,35509
33072,13636,35364
33104,13618,35447
33216,13647,35376
33318,13612,35513
33384,13585,35497
33444,13562,35470
33388,13603,35528
33308,13612,35460
33152,13599,35596
33044,13665,35700
32960,13641,35477
32936,13617,35600
32968,13679,35540
33068,13627,35711
33125,13581,35695
33120,13569,35599
33064,13567,35679
32940,13575,35471
32832,13632,35772
32776,13633,35796
32741,13634,35655
32804,13614,35785
32968,13687,35476
33116,13634,35750
33182,13578,35892
33240,13559,35823
33164,13613,35670
33080,13600,36004
32968,13602,35772
32912,13613,35943
32917,13674,35946
32972,13634,36092
33016,13601,35940
33004,13625,35700
32888,13573,36174
32752,13557,36028
32472,13558,36040
31948,13631,36119
31308,13631,36120
30557,13623,36020
29748,13627,36161
28888,13615,36302
27704,13643,36116
26284,13611,36202
24893,13583,36263
24008,13596,36324
23624,13588,36417
24161,13592,36268
25352,13604,36358
26900,13653,36278
29616,13641,36494
34452,13629,36508
41140,13598,36416
47680,13717,36384
53752,13606,36416
59416,13568,36504
63760,13596,36156
65364,13559,36447
65535,13680,36493
65535,13647,36680
65360,13660,36424
65136,13616,36556
64900,13676,36535
64664,13614,36749
64440,13565,36548
57496,13553,36652
49616,13655,36486
43024,13624,36732
39260,13601,36589
37344,13663,36701
35852,13628,36805
34636,13646,36712
33616,13609,36644
32549,13630,36715
31712,13591,36756
30944,13563,36532
30208,13599,36837
29550,13588,36708
29000,13648,36528
28544,13650,36719
28193,13647,36849
27980,13643,36671
27968,13605,36740
27920,13579,36752
27916,13564,36664
27872,13604,36822
27797,13589,36657
27626,13594,36708
27508,13596,36655
27496,13680,36535
27513,13646,36641
27584,13621,36611
27765,13596,36471
27912,13624,36633
28029,13571,36532
28084,13556,36684
28062,13561,36525
28004,13596,36412
27960,13611,36660
27964,13607,36533
28072,13625,36512
28216,13618,36352
28492,13635,36374
28681,13583,36516
28824,13557,36448
28852,13607,36316
28839,13568,36449
28796,13572,36432
28772,13633,36405
28824,13620,36396
28892,13629,36367
29040,13645,36317
29274,13624,36229
29534,13601,36308
29700,13552,36326
29713,13542,36431
29628,13592,36151
29552,13588,36262
29472,13579,36355
29452,13621,36256
29484,13609,36278
29648,13679,36137
29856,13617,36197
30073,13585,36161
30248,13549,36020
30400,13610,36140
30404,13576,35918
30336,13570,36204
30272,13581,36080
30276,13640,35708
30388,13629,35965
30580,13622,36129
30748,13579,35858
30916,13628,35975
31068,13572,35660
31200,13549,35966
31260,13549,35761
31266,13562,35896
31256,13611,35940
31256,13605,35700
31368,13605,35820
31548,13591,35780
31797,13631,35468
32014,13594,35695
32236,13557,35860
32396,13575,35743
32496,13559,35358
32516,13551,35780
32520,13617,35591
32628,13600,35645
32800,13594,35537
33024,13641,35693
33324,13585,35489
33604,13558,35532
33972,13543,35422
34181,13576,35607
34308,13552,35348
34424,13554,35448
34464,13644,35093
34540,13629,35270
34692,13613,35359
34948,13610,35452
35224,13564,35272
35488,13604,34965
35704,13564,35373
35888,13529,35241
35937,13533,35200
35920,13608,34867
35924,13578,35207
35880,13594,35201
35898,13618,34973
36000,13572,35079
36164,13609,35141
36196,13560,34919
36240,13539,35004
36204,13529,34786
35972,13530,35076
35676,13575,34916
35372,13580,34782
35096,13572,35000
34848,13612,34852
34660,13585,34733
34456,13551,34807
34241,13601,34729
34024,13536,34526
33780,13509,34727
33480,13553,34353
33116,13545,34733
32764,13549,34606
32437,13581,34653
32176,13565,34535
32012,13600,34397
31864,13563,34336
31724,13587,34311
31712,13529,34345
31546,13590,34381
31316,13526,34347
31076,13556,34352
30873,13539,34273
30700,13591,34244
30632,13567,34199
30621,13591,34100
30668,13563,33980
30728,13568,34044
30728,13515,34013
30628,13501,34029
30574,13502,33958
30468,13537,33927
30392,13532,33877
30304,13600,33857
30280,13585,33786
30348,13551,33716
30421,13579,33789
30513,13532,33884
30608,13496,33687
30694,13487,33422
30620,13495,33601
30490,13528,33632
30344,13541,33620
30276,13543,33342
30304,13629,33546
30368,13577,33633
30473,13542,33381
30596,13501,33170
30696,13534,33503
30778,13492,33397
30724,13488,33416
30552,13511,33335
30392,13516,33260
30324,13582,33125
30314,13544,33204
30388,13527,33256
30560,13543,33121
30728,13500,32876
30836,13515,33149
30868,13473,33087
30788,13522,33159
30692,13501,33040
30652,13581,33076
30612,13553,32953
30664,13533,32952
30780,13562,32908
30964,13532,32765
31116,13489,32987
31212,13471,32804
31252,13503,32721
31200,13499,32763
31160,13487,32753
31128,13538,32769
31112,13548,32671
31136,13524,32584
31288,13554,32750
31480,13511,32628
31632,13490,32493
31768,13502,32669
31832,13483,32538
31776,13465,32415
31724,13526,32604
31672,13519,32420
31655,13527,32433
31664,13577,32440
31789,13530,32327
31960,13522,32357
32108,13493,32258
32172,13466,32425
32156,13475,32294
32112,13461,32218
32004,13510,32125
31952,13506,32209
31936,13601,32253
31980,13532,32120
32096,13513,32146
32228,13551,32052
32309,13492,32150
32452,13453,32067
32492,13501,31952
32432,13472,32097
32360,13476,31879
32268,13589,31977
32156,13531,32047
32132,13512,31785
32252,13509,31932
32448,13508,31798
32606,13468,31863
32764,13486,31854
32813,13463,31740
32760,13457,31914
32644,13507,31773
32524,13496,31508
32412,13505,31876
32392,13519,31730
32448,13500,31564
32516,13543,31828
32584,13485,31700
32628,13444,31580
32720,13466,31526
32673,13449,31441
32592,13513,31751
32512,13490,31552
32460,13503,31620
32496,13505,31408
32569,13515,31644
32684,13501,31601
32772,13552,31469
32801,13464,31677
32814,13438,31564
32717,13494,31432
32596,13491,31495
32440,13477,31534
32444,13545,31434
32469,13523,31517
32545,13505,31495
32688,13533,31402
32772,13476,31404
32832,13437,31281
32900,13470,31594
32804,13455,31453
32636,13455,31236
32592,13548,31479
32532,13521,31407
32528,13507,31428
32676,13517,31469
32832,13469,31344
32928,13495,31460
32940,13465,31458
32956,13430,31354
32917,13461,31365
32828,13483,31452
32700,13471,31324
32644,13533,31462
32668,13498,31460
32800,13479,31444
32928,13508,31420
33033,13464,31448
33088,13429,31193
33104,13525,31412
32974,13455,31313
32864,13454,31460
32780,13540,31367
32720,13503,31555
32716,13487,31472
32836,13539,31300
32972,13493,31534
33104,13449,31485
33196,13474,31380
33156,13446,31596
33084,13439,31495
32868,13526,31489
32688,13475,31444
32664,13481,31303
32632,13510,31590
32672,13505,31358
32784,13460,31506
32880,13503,31239
32928,13441,31556
32928,13418,31448
32853,13475,31236
32680,13461,31502
32540,13474,31441
32476,13479,31524
32492,13480,31421
32580,13516,31421
32780,13470,31620
32972,13440,31490
33108,13481,31367
33080,13461,31628
33012,13447,31474
32940,13439,31276
32885,13501,31496
32840,13488,31668
32908,13476,31493
33100,13522,31560
33248,13468,31396
33373,13439,31667
33500,13444,31506
33504,13424,31301
33376,13492,31677
33240,13458,31567
33112,13451,31470
33040,13498,31485
33036,13487,31588
33185,13469,31492
33372,13473,31460
33486,13436,31429
33552,13417,31575
33504,13447,31551
33317,13450,31614
33220,13435,31582
33148,13476,31500
33016,13472,31397
32980,13525,31704
33097,13476,31639
33208,13449,31561
33256,13460,31517
33320,13412,31389
33348,13480,31769
33236,13471,31551
33068,13457,31669
32960,13471,31661
32868,13471,31604
32876,13490,31589
32976,13488,31708
33140,13444,31600
33244,13468,31777
33364,13436,31700
33360,13406,31599
33224,13461,31813
33050,13451,31694
32816,13461,31604
32622,13464,31751
32456,13468,31596
32264,13481,31868
32052,13460,31676
31606,13430,31762
30976,13413,31683
30128,13490,31899
29101,13449,31647
27520,13448,31748
25558,13461,31792
23605,13477,31542
21980,13477,31774
20956,13502,31763
20732,13478,31781
21026,13449,31808
22264,13425,31743
25404,13420,31908
30108,13452,31830
36480,13460,31733
44600,13435,31936
52968,13558,31841
60680,13475,31824
64500,13464,31708
65440,13569,31653
65524,13476,31738
65376,13495,31809
65176,13450,31724
64952,13426,31852
64712,13476,31943
64492,13483,31776
64256,13596,31643
64032,13496,31996
63800,13446,31860
55196,13532,31632
46272,13472,31903
40016,13417,32021
36576,13481,31790
34332,13446,31927
32628,13457,31952
31136,13471,31941
29896,13477,31872
28993,13480,31878
28388,13513,32103
27932,13471,31869
27624,13447,31990
27348,13420,31903
27081,13452,32124
26768,13445,31978
26456,13447,31740
26224,13449,31932
26065,13509,32111
26056,13488,32007
26162,13460,31834
26232,13484,32077
26312,13441,31994
26405,13423,31978
26464,13412,32074
26433,13450,31932
26354,13452,31879
26246,13465,31983
26244,13464,31948
26300,13471,31686
26472,13488,31974
26640,13452,31792
26772,13429,31943
26916,13408,31913
27028,13434,31800
27031,13422,31955
26976,13446,31805
26932,13446,32049
26916,13506,31908
27012,13479,31687
27188,13474,32020
27388,13441,31941
27566,13461,31688
27728,13443,31944
27792,13412,31987
27728,13414,31992
27608,13429,32012
27598,13441,31926
27694,13487,32116
27781,13471,31935
27924,13449,31823
28153,13477,32109
28256,13430,32046
28353,13403,31965
28402,13439,32007
28384,13413,31878
28302,13473,32004
28264,13450,31844
28281,13460,32127
28350,13456,31975
28560,13480,32111
28792,13448,31922
28900,13413,32213
29084,13417,32053
29128,13394,31841
29052,13452,31991
28996,13433,32076
29012,13439,32100
29008,13486,32111
29068,13463,32047
29252,13495,31957
29476,13442,32028
29664,13418,32048
29824,13429,31896
29912,13409,32108
29936,13410,31991
29921,13442,31912
29920,13441,31919
29956,13491,31980
30032,13482,31857
30276,13492,31884
30574,13434,31751
30792,13415,31844
31028,13406,31964
31208,13420,31844
31268,13410,31644
31320,13460,31975
31400,13465,31751
31517,13454,31840
31740,13510,31725
32000,13479,31806
32372,13430,31797
32740,13460,31591
33044,13421,31676
33180,13389,31837
33292,13467,31716
33358,13455,31602
33468,13451,31677
33532,13456,31704
33696,13483,31596
33908,13450,31668
34164,13485,31679
34376,13436,31548
34644,13396,31751
34688,13455,31500
34672,13428,31597
34656,13415,31600
34628,13479,31588
34654,13467,31703
34709,13452,31472
34780,13518,31574
34884,13453,31580
34941,13439,31340
34944,13394,31457
34816,13434,31572
34592,13426,31404
34348,13418,31525
34088,13469,31529
33818,13467,31252
33636,13446,31412
33516,13453,31503
33413,13426,31431
33344,13471,31479
33208,13410,31215
33076,13384,31523
32800,13448,31335
32516,13432,31435
32256,13502,31326
32108,13462,31524
32064,13447,31408
32005,13485,31172
32038,13428,31470
32028,13481,31393
31988,13412,31428
31894,13380,31221
31784,13420,31340
31632,13418,31325
31520,13510,31188
31420,13469,31345
31404,13464,31228
31454,13490,31169
31508,13420,31070
31556,13392,31412
31624,13397,31256
31636,13375,31183
31568,13422,31244
31408,13407,31073
31336,13413,31382
31284,13445,31244
31356,13431,31028
31436,13448,31313
31588,13403,31285
31732,13416,31257
31856,13381,31165
31892,13433,31020
31840,13389,31393
31712,13391,31276
31644,13408,31034
31616,13458,31293
31620,13444,31188
31744,13415,31300
31902,13440,31137
31972,13392,31340
32024,13357,31156
31968,13352,31300
31912,13407,31157
31764,13413,31388
31688,13402,31175
31660,13457,31335
31724,13446,31232
31832,13421,31288
31940,13394,31340
32028,13428,31093
32132,13381,31418
32156,13356,31308
32072,13426,31356
31936,13390,31486
31864,13403,31346
31796,13462,31264
31780,13423,31272
31905,13407,31415
32040,13418,31332
32096,13381,31543
32220,13364,31300
32228,13353,31428
32124,13423,31455
31970,13401,31521
31904,13415,31377
31876,13413,31483
31908,13455,31557
31996,13431,31448
32188,13381,31265
32284,13409,31562
32358,13355,31517
32384,13403,31428
32300,13378,31662
32192,13397,31397
32104,13387,31542
32053,13460,31318
32096,13443,31477
32204,13421,31685
32352,13382,31436
32452,13419,31570
32544,13370,31356
32552,13363,31551
32428,13353,31688
32288,13425,31566
32277,13401,31468
32224,13407,31684
32261,13410,31573
32408,13445,31571
32540,13391,31552
32624,13359,31493
32688,13400,31586
32712,13358,31349
32602,13353,31633
32516,13406,31575
32485,13408,31372
32460,13399,31538
32509,13445,31601
32616,13398,31558
32716,13379,31316
32793,13398,31677
32884,13354,31533
32944,13335,31300
32868,13403,31613
32748,13396,31524
32676,13380,31348
32596,13453,31648
32604,13425,31516
32718,13389,31556
32817,13426,31448
32916,13369,31652
32912,13337,31471
32948,13375,31284
32856,13367,31619
32740,13358,31528
32664,13431,31550
32588,13410,31296
32660,13386,31505
32760,13434,31578
32832,13396,31549
32884,13407,31463
32948,13357,31524
32940,13337,31623
32876,13416,31540
32789,13382,31596
32760,13389,31488
32708,13390,31687
32714,13404,31589
32828,13377,31505
32948,13387,31668
33024,13359,31605
33124,13327,31623
33061,13376,31529
32924,13348,31694
32848,13353,31529
32788,13422,31652
32720,13402,31482
32738,13390,31718
32860,13378,31572
32992,13372,31652
33084,13343,31581
33144,13396,31797
33124,13357,31552
32960,13356,31676
32844,13351,31565
32766,13415,31737
32721,13394,31553
32720,13401,31687
32868,13370,31428
33002,13409,31595
33100,13355,31806
33180,13319,31645
33164,13380,31696
33044,13362,31536
32916,13374,31725
32836,13363,31660
32776,13432,31660
32804,13388,31474
32956,13363,31757
32996,13428,31556
33068,13352,31645
33127,13317,31650
33140,13341,31574
33052,13334,31618
32920,13394,31554
32816,13388,31576
32756,13373,31561
32692,13392,31356
32745,13369,31678
32848,13401,31543
32980,13362,31276
33088,13360,31596
33084,13335,31391
33068,13333,31528
32945,13343,31276
32868,13374,31606
32824,13405,31367
32840,13372,31516
33024,13372,31405
33220,13345,31556
33404,13395,31456
33572,13328,31521
33586,13311,31417
33540,13414,31565
33500,13367,31484
33445,13356,31326
33356,13422,31602
33400,13378,31513
33508,13354,31572
33508,13369,31432
33612,13343,31550
33712,13305,31724
33736,13364,31552
33720,13344,31670
33580,13340,31588
33432,13423,31808
33364,13378,31599
33400,13360,31760
33380,13379,31738
33486,13336,31700
33556,13342,31599
33560,13300,31972
33541,13324,31895
33472,13312,31821
33349,13405,32044
33260,13364,31964
33248,13362,31751
33248,13380,32081
33300,13353,32061
33380,13358,32135
33488,13393,32119
33560,13309,32089
33542,13296,32013
33444,13338,31942
33340,13328,32342
33180,13385,32245
33048,13385,32256
33048,13357,32212
33084,13380,32292
33016,13342,32367
32964,13305,32345
32856,13349,32432
32516,13311,32420
31945,13308,32486
31180,13381,32416
30292,13365,32588
29342,13366,32524
28060,13356,32601
26256,13383,32509
24432,13338,32772
22784,13317,32663
21597,13324,32444
20948,13317,32864
20836,13317,32718
21653,13356,32769
24229,13356,32850
28644,13365,32736
34564,13354,32864
42652,13384,32776
51332,13353,33024
59480,13290,32944
64224,13326,32686
65444,13338,33005
65535,13297,33004
65416,13505,33024
65288,13398,32769
65040,13400,33037
64824,13442,32964
64580,13369,33124
64360,13335,32984
64132,13334,33228
63896,13293,33166
58272,13397,33120
48576,13345,33220
41116,13333,33142
36852,13427,33344
34325,13391,33220
32632,13380,33226
31268,13351,32996
30252,13376,33196
29336,13343,33369
28702,13307,33200
28104,13337,33326
27540,13336,33222
27080,13329,33441
26688,13385,33263
26373,13375,33340
26192,13358,33276
26152,13381,33481
26153,13342,33369
26136,13381,33269
26172,13316,33463
26168,13305,33327
26077,13343,33148
26016,13335,33399
25956,13348,33318
25889,13389,33324
25946,13372,33222
26076,13349,33252
26264,13341,33309
26388,13313,33266
26504,13321,33292
26506,13306,33287
26472,13344,33218
26444,13348,33397
26433,13346,33268
26434,13379,33052
26504,13367,33281
26656,13396,33212
26868,13349,33302
27036,13310,33227
27212,13328,33332
27266,13313,33319
27192,13313,33165
27172,13351,33406
27188,13350,33193
27188,13384,33348
27336,13377,33263
27572,13359,33439
27788,13349,33349
27944,13312,33375
28062,13317,33317
28046,13303,33510
28056,13314,33341
28012,13359,33425
28036,13357,33399
28049,13401,33389
28148,13372,33348
28332,13349,33380
28544,13348,33431
28704,13318,33452
28784,13346,33285
28758,13316,33439
28773,13328,33348
28752,13407,33385
28716,13368,33422
28776,13372,33306
28913,13363,33455
29114,13408,33517
29268,13377,33383
29420,13330,33356
29568,13303,33381
29596,13355,33286
29548,13337,33482
29604,13340,33252
29632,13424,33345
29620,13380,33353
29732,13369,33212
29932,13432,33347
30160,13354,33125
30328,13319,33365
30492,13346,33324
30636,13323,33300
30752,13323,33304
30828,13337,33412
30877,13389,33172
30924,13376,33286
31188,13420,33295
31512,13386,33209
31820,13343,33014
32128,13358,33332
32349,13342,33237
32562,13311,33239
32733,13421,33276
32860,13384,33028
32966,13376,33164
33092,13381,33309
33356,13370,33342
33677,13431,33183
33956,13373,33207
34156,13416,33285
34408,13325,33207
34520,13316,33049
34556,13379,33268
34624,13358,33032
34600,13365,33186
34616,13381,33188
34812,13420,32908
34968,13380,33086
35064,13358,33241
35220,13339,33023
35308,13358,33173
35200,13342,32871
35000,13357,33056
34936,13357,33252
34792,13376,33054
34516,13414,33148
34332,13412,32868
34148,13371,33100
34092,13403,33097
34080,13363,32968
33956,13339,33109
33685,13353,33093
33304,13341,32999
33032,13413,33212
32896,13403,33210
32780,13396,33183
32628,13385,33002
32528,13410,33095
32557,13371,32987
32520,13346,33132
32449,13328,33193
32273,13327,32927
32096,13343,33031
31958,13383,32800
31796,13390,32956
31628,13401,33159
31588,13382,32889
31580,13372,32985
31664,13404,33018
31717,13355,32981
31808,13373,32933
31808,13337,32775
31688,13333,32919
31520,13391,33071
31484,13390,32960
31428,13435,32860
31457,13398,33069
31584,13397,32842
31748,13351,32976
31848,13378,32985
31929,13332,32899
31888,13319,33063
31792,13365,32941
31664,13354,32780
31600,13408,33077
31552,13402,32860
31628,13380,32983
31745,13380,32892
31877,13353,33058
31992,13381,32889
32076,13337,32997
31992,13325,32885
31965,13384,33127
31920,13363,32872
31876,13362,32999
31816,13430,32996
31854,13406,33092
31956,13366,32875
32016,13383,33017
32077,13340,32809
32136,13367,33156
32112,13348,32919
31996,13363,33041
31928,13351,33070
31812,13366,32932
31765,13445,33102
31833,13421,33188
31896,13374,33065
32025,13357,33047
32156,13413,33082
32240,13355,32989
32168,13330,33076
32078,13332,33223
31960,13414,33117
31940,13385,33046
31886,13404,33092
31920,13380,33083
32085,13361,32857
32212,13396,33005
32268,13344,33081
32304,13327,33077
32285,13415,33013
32184,13364,33076
32104,13366,33081
32048,13384,32888
31992,13380,33133
32004,13422,32884
32168,13383,33009
32301,13363,33007
32417,13330,32908
32473,13313,32992
32444,13417,33105
32320,13431,33108
32228,13383,32841
32148,13386,32964
32173,13374,32700
32220,13430,32868
32352,13385,33004
32508,13360,32972
32620,13336,32918
32680,13319,32855
32704,13318,32881
32776,13388,32718
32622,13393,32762
32504,13381,32833
32476,13385,32956
32590,13374,32903
32692,13362,32757
32808,13437,32640
32848,13350,32737
32884,13330,32766
32852,13317,32752
32800,13366,32633
32660,13372,32796
32580,13386,32668
32544,13370,32650
32556,13372,32670
32712,13404,32669
32934,13356,32484
33052,13325,32604
33125,13361,32739
33064,13355,32556
32940,13351,32559
32825,13359,32596
32760,13391,32293
32712,13374,32348
32748,13371,32453
32836,13393,32532
33000,13359,32548
33049,13320,32516
33118,13312,32420
33088,13349,32476
32968,13348,32368
32860,13396,32548
32796,13375,32416
32784,13368,32431
32865,13442,32316
32978,13372,32519
33076,13339,32405
33140,13324,32110
33148,13345,32295
33120,13319,32469
32984,13384,32321
32784,13368,32152
32764,13358,32444
32900,13385,32270
33033,13365,32331
32972,13351,32066
33185,13380,32205
33317,13347,32423
33324,13306,32167
33232,13350,32294
33100,13327,32409
33024,13380,32292
32960,13355,32325
32856,13428,32240
32972,13384,32184
33048,13359,32401
33172,13357,32169
33337,13321,32263
33356,13389,32188
33244,13318,32262
33133,13318,32282
32956,13360,32273
32864,13357,32257
32844,13382,32201
32932,13425,32213
33125,13375,32082
33272,13338,32336
33320,13334,32245
33356,13301,32020
33332,13329,32341
33233,13327,32110
33156,13383,32249
33132,13375,32229
33088,13408,32229
32980,13372,32001
33096,13356,32292
33222,13360,32141
33314,13315,32248
33496,13354,32151
33444,13330,32354
33362,13420,32218
33153,13350,32129
33000,13357,32231
32892,13380,32239
32984,13359,32135
33192,13388,32303
33276,13356,32079
33320,13402,32051
33376,13318,32284
33216,13374,32196
33112,13338,31964
32912,13334,32345
32908,13375,32148
32924,13360,32231
33061,13400,32208
33192,13377,32196
33292,13334,31999
33300,13341,32221
33328,13307,32132
33364,13362,32218
33292,13364,32161
33240,13365,32213
33208,13380,32367
33280,13361,32303
33464,13413,32107
33596,13358,32263
33732,13331,32245
33832,13313,32256
33900,13342,32176
33784,13335,32377
33592,13325,32182
33480,13349,32270
33392,13352,32281
33393,13419,32009
33476,13375,32232
33628,13351,32398
33756,13422,32164
33834,13345,32277
33825,13311,32284
33746,13375,32078
33512,13348,32337
33408,13331,32402
33344,13418,32153
33198,13378,32237
33224,13370,32260
33416,13343,32279
33685,13369,32270
33708,13338,32074
33600,13301,32177
33540,13350,32389
33552,13333,32224
33516,13348,32135
33340,13352,32221
33172,13410,32252
33218,13370,32244
33360,13352,31989
33484,13329,32161
33552,13363,32272
33484,13321,32365
33384,13308,32188
33164,13348,32153
32888,13346,32300
32636,13353,32160
32292,13386,32223
31988,13381,32222
31616,13345,32132
31016,13375,32301
30240,13327,32343
29245,13307,32126
27532,13362,32221
25516,13349,32057
23466,13356,32112
21892,13369,32325
20884,13406,32100
20532,13382,32192
20889,13364,32236
22664,13348,32012
26300,13324,32232
31332,13337,32260
38424,13310,32237
46740,13313,31956
55088,13380,32133
62172,13389,32348
64860,13346,32076
65440,13441,32252
65437,13397,32164
65280,13321,32304
65064,13403,32130
64844,13335,32255
64596,13299,31986
64360,13371,32297
64140,13378,32220
63904,13349,32192
63384,13463,32260
52896,13399,32181
44276,13364,32396
38744,13410,32220
35648,13365,32205
33687,13321,32380
32092,13366,32296
30668,13354,32332
29492,13353,32084
28584,13432,32252
27938,13401,32468
27508,13378,32309
27196,13398,32361
27012,13357,32244
26848,13328,32292
26724,13371,32409
26468,13353,32317
26284,13349,32392
26064,13353,32148
26000,13375,32302
25944,13412,32487
25964,13384,32287
26053,13378,32321
26064,13345,32391
26204,13380,32405
26520,13333,32327
26524,13338,32382
26288,13335,32486
26162,13385,32502
26104,13397,32431
26094,13391,32338
26200,13369,32401
26481,13388,32439
26668,13362,32354
26802,13329,32484
26896,13315,32560
26913,13334,32397
26924,13342,32464
26972,13412,32377
26972,13387,32537
26945,13387,32552
27136,13366,32412
27334,13368,32513
27484,13341,32388
27664,13367,32589
27758,13335,32599
27760,13337,32428
27709,13332,32572
27728,13414,32332
27716,13396,32504
27648,13388,32663
27796,13389,32461
27960,13352,32620
28097,13367,32349
28256,13330,32589
28352,13325,32770
28348,13319,32518
28292,13343,32665
28260,13356,32556
28273,13364,32761
28344,13388,32580
28482,13382,32647
28616,13350,32560
28884,13384,32735
29072,13337,32484
29188,13333,32622
29205,13321,32640
29156,13329,32485
29140,13384,32743
29086,13386,32564
29104,13370,32348
29225,13398,32680
29333,13363,32556
29512,13377,32302
29668,13336,32618
29880,13308,32532
29924,13340,32561
29944,13348,32310
29988,13351,32500
29984,13380,32519
30074,13375,32486
30312,13422,32508
30576,13376,32463
30832,13351,32289
31064,13321,32449
31232,13386,32565
31352,13335,32383
31389,13349,32417
31461,13351,32390
31604,13418,32293
31732,13390,32492
32024,13374,32229
32324,13408,32076
32636,13372,32367
32901,13318,32263
33072,13367,32301
33241,13332,32220
33305,13335,32409
33468,13360,32276
33564,13460,32215
33608,13386,32095
33892,13367,32229
34116,13377,32205
34337,13345,32252
34572,13399,32158
34701,13372,32188
34768,13340,31909
34766,13335,32165
34712,13406,32150
34660,13381,32145
34600,13380,32127
34668,13389,32080
34745,13352,32004
34704,13380,32198
34652,13329,32101
34624,13382,31824
34404,13370,31976
34180,13359,32164
33916,13371,31982
33664,13366,31794
33473,13369,31982
33364,13412,31958
33260,13372,31821
33177,13333,32100
33216,13370,31885
33100,13337,31992
32888,13343,31703
32654,13333,31894
32444,13338,32051
32280,13414,31788
32128,13387,31943
32032,13383,31823
32008,13348,32012
31976,13375,31889
32056,13320,31780
32221,13312,31762
32032,13305,31840
31701,13374,31785
31552,13359,31689
31528,13383,31835
31564,13378,31628
31566,13359,31908
31656,13363,31741
31740,13339,31524
31820,13311,31813
31800,13346,31600
31708,13319,31745
31705,13326,31635
31572,13335,31700
31532,13400,31684
31560,13386,31424
31656,13377,31718
31736,13335,31524
31908,13391,31660
31932,13337,31425
31969,13318,31729
31972,13293,31509
31884,13316,31636
31792,13351,31543
31756,13357,31597
31748,13349,31583
31816,13409,31463
31888,13351,31652
32048,13316,31557
32132,13346,31557
32084,13323,31693
32109,13296,31551
32058,13365,31304
31884,13375,31516
31801,13369,31564
31792,13377,31560
31944,13349,31300
32021,13333,31445
32116,13381,31639
32180,13322,31470
32178,13305,31541
32184,13297,31336
32105,13311,31456
31980,13381,31637
31868,13361,31508
31852,13360,31500
31900,13357,31406
32060,13329,31591
32200,13357,31476
32261,13308,31263
32220,13294,31556
32160,13295,31430
32101,13339,31376
31980,13347,31477
31900,13417,31374
31896,13360,31476
31936,13345,31393
32004,13413,31584
32204,13333,31398
32312,13296,31205
32388,13283,31433
32343,13339,31456
32233,13316,31460
32116,13317,31372
32088,13337,31468
32044,13369,31438
32064,13335,31452
32197,13345,31380
32336,13313,31224
32500,13289,31500
32536,13329,31324
32448,13301,31380
32276,13303,31429
32196,13380,31260
32137,13351,31362
32342,13340,31309
32541,13386,31205
32581,13335,31124
32624,13302,31404
32673,13381,31308
32782,13301,31225
32708,13307,31421
32638,13298,31300
32520,13339,31181
32484,13335,31255
32544,13366,31009
32637,13333,31319
32720,13323,31154
32892,13335,31247
33020,13310,31152
33088,13336,31231
33008,13309,30976
32916,13295,31330
32793,13331,31234
32681,13333,31212
32664,13372,31097
32700,13336,30996
32876,13357,31108
32992,13300,30972
33056,13349,31207
33116,13285,31071
33012,13274,31219
32924,13315,31210
32896,13311,31160
32800,13417,30949
32704,13348,31270
32832,13324,31216
32992,13391,31032
33096,13309,31332
33200,13275,31201
33253,13309,31139
33200,13297,31072
33060,13395,31197
32912,13334,31111
32772,13345,31321
32690,13330,31200
32848,13377,30970
33108,13321,31310
33172,13292,31195
33212,13310,31122
33216,13269,31121
33132,13321,31105
33024,13294,31347
32833,13301,31248
32760,13339,31337
32816,13340,31246
33012,13356,31141
33076,13326,31183
33144,13379,31176
33252,13286,31082
33224,13260,31136
33208,13295,31221
33048,13282,31231
32952,13323,31236
32836,13324,31204
32830,13423,31206
32928,13335,31146
33056,13294,31101
33132,13308,31079
33260,13269,31260
33284,13317,31231
33100,13286,31292
33028,13282,31207
32948,13335,31150
32898,13338,31143
32940,13323,30992
33064,13357,31311
33060,13327,31213
33068,13284,31000
33152,13301,31350
33104,13279,31251
32956,13263,31133
32997,13309,31129
33020,13307,30967
32940,13311,31349
32856,13366,31239
32944,13321,31327
33070,13348,31239
33128,13293,31310
33244,13260,31172
33300,13255,31207
33204,13305,31112
33076,13282,31168
32952,13363,31122
32900,13324,31073
32920,13316,30947
32972,13348,31154
33136,13309,30940
33268,13327,31157
33324,13264,31193
33328,13283,31260
33257,13274,31216
33036,13271,31172
32888,13335,31061
32828,13337,30954
32820,13412,31198
32800,13320,30956
32846,13288,31335
32968,13316,31225
33080,13285,31095
33120,13252,31343
32928,13317,31208
32776,13297,30975
32650,13294,31261
32765,13340,31121
32781,13343,31265
32876,13321,31200
33076,13375,31166
33168,13290,31065
33112,13259,31308
33178,13292,31297
33176,13262,31433
33162,13327,31333
33096,13304,31329
33088,13307,31298
33180,13344,31270
33268,13311,31486
33488,13285,31388
33576,13334,31292
33628,13276,31505
33800,13267,31450
33829,13254,31303
33658,13313,31471
33432,13305,31472
33304,13302,31329
33356,13377,31614
33508,13329,31513
33636,13311,31268
33785,13269,31629
33828,13304,31543
33760,13258,31422
33671,13252,31686
33396,13315,31592
33260,13310,31424
33217,13300,31751
33204,13327,31674
33288,13298,31652
33416,13312,31631
33500,13284,31620
33528,13248,31818
33536,13277,31687
33470,13260,31653
33372,13269,31869
33248,13321,31708
33128,13312,31672
33112,13305,31831
33176,13344,31788
33320,13297,31657
33422,13292,31940
33480,13249,31734
33448,13242,31646
33300,13288,31945
33041,13277,31864
32768,13280,31795
32520,13348,31892
32244,13321,31872
31956,13319,31925
31544,13287,31800
30910,13266,31955
30224,13247,31956
29216,13279,31946
27520,13254,31884
25561,13272,32100
23720,13314,31860
22304,13316,32007
21284,13321,31738
21140,13318,31944
21642,13295,32119
23504,13284,32151
27256,13255,32084
32250,13253,32010
39232,13312,31784
47416,13282,32124
55472,13289,31972
62316,13277,32086
64880,13382,31845
65432,13329,32016
65408,13332,32126
65256,13290,32226
65024,13248,32176
64824,13248,32053
64576,13346,32079
64332,13303,32132
64116,13308,32044
63880,13426,32220
61104,13346,31992
51108,13348,32132
43020,13297,32172
38180,13410,32143
35456,13288,32254
33596,13262,32152
32044,13266,32183
30680,13320,32001
29577,13318,32105
28736,13328,32198
28128,13321,32157
27716,13357,32151
27408,13306,32209
27256,13279,32070
27104,13258,32304
26881,13284,32092
26596,13274,32144
26418,13291,32169
26276,13292,31983
26121,13307,32080
26056,13311,32156
26049,13340,32069
26184,13310,32114
26349,13287,32004
26432,13274,32181
26509,13245,32048
26484,13293,31777
26428,13294,32048
26356,13301,31861
26296,13316,31997
26342,13303,31929
26376,13344,31826
26612,13303,31956
26820,13273,31841
26953,13245,32028
27048,13241,31760
27044,13262,31660
26945,13271,31938
27004,13280,31773
26936,13333,31854
26976,13304,31767
27208,13293,31712
27437,13277,31762
27673,13305,31823
27769,13247,31855
27864,13238,31673
27808,13242,31780
27768,13260,31805
27644,13270,31538
27568,13332,31797
27656,13303,31668
28000,13285,31801
28220,13273,31559
28316,13301,31799
28476,13255,31695
28522,13249,31803
28464,13255,31557
28420,13253,31857
28416,13303,31721
28397,13292,31554
28448,13291,31922
28636,13327,31742
28760,13275,31599
28908,13255,31801
29052,13309,31686
29137,13244,31532
29124,13252,31838
29068,13248,31700
29036,13265,31758
28997,13321,31792
29004,13303,31681
29080,13290,31868
29344,13265,31780
29580,13280,31673
29728,13238,31852
29920,13221,31784
29992,13278,31691
29952,13263,31719
29924,13265,31757
30112,13282,31681
30304,13341,31728
30396,13305,31744
30540,13271,31631
30876,13265,31854
31120,13284,31749
31340,13229,31796
31416,13232,31581
31440,13246,31725
31576,13298,31623
31764,13302,31588
31904,13333,31440
32104,13286,31715
32436,13254,31645
32733,13292,31672
33012,13242,31692
33320,13220,31540
33340,13327,31692
33352,13284,31416
33368,13281,31716
33484,13272,31607
33596,13333,31681
33772,13310,31428
34204,13272,31740
34304,13253,31674
34424,13220,31680
34492,13258,31596
34534,13230,31790
34496,13230,31665
34580,13296,31588
34580,13300,31616
34636,13268,31668
34652,13319,31609
34664,13256,31572
34736,13228,31677
34768,13319,31432
34616,13246,31567
34416,13222,31719
34148,13253,31691
33936,13242,31672
33680,13308,31559
33556,13274,31634
33460,13265,31769
33388,13234,31602
33422,13275,31660
33276,13217,31559
33089,13197,31684
32852,13200,31552
32544,13263,31629
32361,13260,31540
32180,13347,31509
32160,13263,31623
32260,13241,31525
32189,13228,31693
32128,13235,31562
32053,13206,31425
32056,13234,31689
32058,13213,31619
31885,13245,31683
31612,13223,31588
31548,13254,31681
31512,13242,31610
31712,13281,31484
31940,13244,31688
31928,13225,31537
31896,13176,31582
31884,13237,31310
31760,13211,31650
31704,13197,31418
31616,13272,31572
31496,13263,31324
31460,13250,31548
31676,13226,31552
31772,13241,31558
31952,13215,31461
32076,13162,31676
32008,13215,31504
31912,13189,31540
31844,13191,31511
31876,13259,31551
31854,13229,31577
31752,13224,31463
31904,13268,31616
32048,13229,31570
32184,13196,31316
