ECG,EDA,RR
33813,16042,32186
33976,15971,32114
34237,15977,32288
34336,15939,32101
34316,15941,32160
34020,15975,32047
33813,15940,32164
33601,15971,31984
33394,15966,32119
33181,15994,32012
33045,15980,32083
33045,15996,32194
33033,15957,32002
32908,15952,32063
32680,15983,32039
32358,15932,31947
32092,15957,32142
31912,15993,32034
31676,15965,31868
31648,15994,32034
31716,16005,31869
31768,15973,31985
31768,15963,31908
31752,15950,31836
31716,15961,31721
31936,15991,32065
31524,15935,31949
31000,15973,31940
31044,15987,31808
30924,15983,31932
30816,15991,31828
31412,15994,32018
32064,16010,31882
32096,15939,31751
31924,15920,31973
31812,15924,31900
31772,15945,31812
31756,15970,31841
31672,15996,31681
31529,15994,31904
31620,15994,31889
31742,15994,31643
31796,15975,31896
31784,15985,31743
31578,15925,31876
31272,15922,31788
31234,15940,31919
31452,15957,31879
31701,15986,31781
31684,16017,31916
32028,15978,31861
32236,15965,31616
32340,15973,31844
32471,15958,31860
32464,15990,31843
32304,15917,31746
32144,15950,31871
32188,15971,31812
32248,16000,31855
32028,15981,31759
32024,15981,31852
32202,15970,31844
32258,15971,31823
32448,15973,31700
32412,15968,31620
32372,15919,31777
32180,15940,31914
31960,15977,31813
31986,15961,31608
31905,15984,31860
31997,15997,31671
32156,16012,31808
32280,15956,31741
32308,15937,31758
32360,15925,31793
32298,15940,31669
32172,15947,31872
32080,15985,31724
32112,15964,31769
32088,15991,31652
32096,15996,31810
32244,15972,31679
32313,15963,31740
32328,15957,31634
32112,15957,31833
32168,15965,31742
32312,15933,31677
32268,15952,31609
32304,15985,31729
32200,15988,31540
32380,16007,31606
32492,15997,31802
32552,16002,31708
32632,15947,31572
32652,15927,31751
32506,15930,31700
32436,15972,31583
32348,16018,31633
32244,15967,31679
32049,15984,31683
32132,15984,31647
32208,15990,31424
32460,15980,31678
32572,15972,31504
32532,15973,31444
32280,15929,31592
32164,15951,31671
32232,15993,31620
32248,15965,31391
32432,15999,31509
32592,16030,31696
32720,15973,31497
32900,15986,31580
33025,15982,31475
33096,15932,31668
33064,15927,31540
32932,15948,31397
32728,16002,31685
32585,15985,31453
32444,16009,31356
32341,16055,31654
32564,15990,31559
32916,15972,31565
33156,15972,31460
32921,15994,31617
32888,15924,31564
33023,15959,31447
32736,15975,31623
32552,16023,31501
32708,16010,31570
32816,16033,31396
32932,15977,31445
33050,15988,31673
33240,15969,31557
33348,15969,31436
33221,15927,31653
33056,15961,31444
32788,15956,31394
32668,16007,31633
32601,15982,31441
32648,15996,31540
32832,16017,31613
33024,16030,31640
33188,15942,31536
33236,15926,31527
33268,15923,31567
32949,15943,31645
32872,15988,31463
32908,15961,31725
32880,15989,31668
32713,16010,31585
32821,16013,31629
33012,15957,31676
33100,15953,31445
33312,15951,31751
33228,15924,31558
33065,15935,31701
32968,15961,31596
32972,15988,31700
33016,15982,31721
33025,15988,31476
33064,15992,31712
33168,15998,31645
33168,15944,31484
33064,15922,31788
32940,15928,31711
32896,15954,31655
32836,15965,31660
32829,16005,31532
33092,15981,31855
33280,15985,31724
33068,15992,31773
33152,16003,31613
33332,15938,31855
33380,15948,31724
33276,15962,31776
33136,15931,31660
33028,15972,31780
32744,15957,31751
32584,15984,31806
32832,16009,31599
33041,16033,31836
33232,15957,31733
33477,15964,31822
33616,15922,31588
33660,15940,31750
33516,15971,31864
33324,15953,31925
33212,15989,31805
33364,15977,31793
33452,15996,31860
33330,15974,31853
33328,15967,31652
33316,15944,31780
33170,15939,31988
32868,15954,31740
32676,15933,31879
32472,15959,31892
32720,15962,31652
33032,16007,31701
33341,16001,31660
33420,16021,31668
33625,15954,31812
33780,15958,31845
33884,15913,32012
33925,15929,32031
33729,15978,31871
33580,15944,31924
33404,15974,31953
33284,16018,31833
33148,15976,32036
33088,15983,31937
33143,15956,31836
33256,15945,31973
33420,15942,31889
33364,15969,31973
33312,15926,32085
33336,15961,31869
33180,15995,31988
33088,15979,32020
33148,15996,31909
33264,16027,32039
33368,15958,32020
33248,15960,31991
33268,15920,32020
33308,15917,32062
32800,15950,31917
32428,15970,32057
32752,15958,32030
32916,15985,31965
33132,15980,32002
33352,15978,32104
33616,16002,32095
33856,15957,31983
33910,15952,32007
33880,15919,32082
33560,15948,31836
33288,16000,31836
33052,15970,31983
33104,16002,32028
33380,15973,32060
33412,15983,32101
33408,15967,32164
33520,15948,32111
33452,15962,32011
33384,15916,32116
33264,15943,31860
32992,15973,32021
32854,15955,32007
32728,15988,32202
32780,15979,32222
33064,15992,32020
33312,15976,32140
33438,15938,31895
33308,15930,32121
33152,15964,32166
33076,15948,32230
33092,15982,32079
32900,15956,32140
32744,15985,32148
32820,15975,32134
33037,15988,32142
33153,15954,32159
33140,15945,32146
33356,15961,32049
33640,15913,32252
33396,15941,32129
33180,15944,32250
33316,15994,32263
33372,15986,32046
33336,16015,32156
33344,15972,32173
33550,15975,31959
33605,15937,32045
33680,15933,32206
33724,15935,32016
33524,15929,32144
33440,15953,32183
33406,16000,31912
33252,15985,31956
33044,15975,31988
33048,15974,32205
33316,15950,32268
33104,15959,32116
33088,15911,32145
33372,15939,32163
33572,15921,32164
33512,15972,31930
33560,15959,32082
33484,15999,32268
33100,15973,32079
33252,15979,32169
33444,15947,32079
33340,15952,32122
32996,15912,32284
33033,15946,32066
33196,15922,32177
33340,15949,31933
33356,16023,32263
33220,15973,32100
33288,15987,31981
33384,16038,32166
33404,15957,32128
33376,15957,32197
33464,15912,32096
33424,15935,32253
33168,15964,32142
32856,15954,32189
32845,15997,31927
32696,15969,32191
32441,15988,32281
32068,15965,32217
31772,15975,32279
31236,15940,32242
30617,15914,32164
29988,15947,32053
28732,15918,32111
27169,15957,32124
25824,15956,32200
24672,15992,32238
23910,15975,32085
23984,15982,32128
24512,15959,32127
25532,15959,32129
27981,15926,32124
31392,15949,32141
35848,15917,32167
41348,15962,32132
47256,15933,32064
53048,15992,32264
58444,16021,32036
62888,15935,31908
64320,15966,32153
64560,15953,32025
64484,15894,32156
64280,15929,32159
64080,15916,31972
63853,15972,32144
63636,15998,32121
63420,15956,32116
61872,16040,32142
53900,15953,32165
47152,15988,32112
41536,15968,32034
37800,15914,32178
35552,15925,31945
33800,15988,32201
32200,15942,32138
31012,15969,32196
30204,15974,32081
29558,15995,32305
29144,15984,32204
28817,15955,32060
28521,15946,32281
28248,15957,32156
28136,15921,32202
28001,15932,32180
27781,15965,32048
27573,15954,32191
27408,15994,31935
27273,15975,32100
27188,15989,32262
27192,15950,32058
27486,15954,32143
27637,15914,32188
27728,15915,31924
27382,15916,32068
27184,15940,32194
27333,15975,32108
27460,15971,32168
27728,15991,31972
27884,15964,32216
27972,15952,32103
28128,15942,32216
28228,15948,32148
28216,15910,32245
28164,15924,32219
28128,15948,32050
28072,15975,32341
28036,15992,32270
28053,15967,32160
28186,15963,32325
28372,15980,32152
28484,15928,32061
28572,15916,32230
28476,15927,32443
28628,15910,32305
28648,15939,32314
28562,15973,32348
28741,15963,32308
28730,15983,32481
28768,15991,32372
28976,15940,32380
29236,15935,32404
29216,15942,32212
29172,15900,32354
29344,15934,32398
29440,15977,32463
29432,15961,32348
29424,15986,32457
29344,15962,32196
29445,15961,32364
29664,15975,32388
29800,15926,32536
29921,15913,32589
29933,15944,32405
29884,15909,32340
29636,15938,32484
29416,15939,32501
29296,15966,32482
29612,16005,32248
29984,15969,32257
30105,15973,32413
30412,15928,32438
30648,15921,32624
30753,15900,32432
30720,15906,32550
30548,15943,32391
30300,16005,32508
30365,15967,32580
30481,16004,32660
30648,15961,32437
31085,15952,32591
31445,15921,32568
31396,15924,32502
31336,15907,32647
31536,15938,32604
31492,15970,32533
31116,15935,32712
31056,15961,32632
31661,15982,32551
32200,15953,32740
32416,15947,32660
32640,15948,32471
32925,15898,32797
33129,15908,32662
33260,15921,32444
33312,15916,32703
33360,15949,32752
33456,15949,32582
33544,15982,32727
33264,15982,32509
33244,15941,32644
33748,15953,32825
34096,15912,32857
34140,15928,32631
34168,15898,32765
34136,15942,32789
33876,15958,32647
33636,15942,32528
33760,15961,32751
34196,15960,32671
34284,15981,32536
34240,15908,32856
34220,15916,32665
33976,15912,32796
33614,15975,32788
33620,15914,32700
33592,15978,32805
33360,15965,32550
33292,15980,32804
33128,15956,32804
33084,15924,32764
32944,15923,32836
32645,15885,32658
32413,15905,32920
32148,15935,32720
31936,15902,32838
31912,15962,32591
31852,15940,32751
31680,15962,32932
31620,15926,32912
31756,15927,32866
31760,15930,32676
31796,15876,32940
31728,15879,32756
31481,15896,32909
31248,15933,32879
31200,15909,32860
31148,15924,32911
31028,15931,32951
31055,15943,32911
31268,15979,32949
31500,15891,32844
31720,15880,33044
31772,15905,32833
31700,15874,33005
31552,15893,32826
31364,15927,33024
31368,15918,33141
31312,15932,33092
31284,15954,33031
31336,15901,33056
31420,15890,33074
31588,15903,33125
31652,15862,33017
31572,15876,33121
31369,15925,33061
30980,15904,33177
30894,15936,33083
31074,15916,33194
31204,15921,33233
31392,15895,32975
31513,15889,33136
31333,15854,33273
31468,15868,33366
31736,15858,33345
31712,15879,33247
31861,15927,33348
31752,15906,33268
31684,15922,33471
31952,15943,33276
32136,15888,33372
32236,15884,33420
32104,15855,33208
32033,15860,33340
31917,15854,33492
31853,15887,33612
31864,15929,33572
31828,15924,33396
31804,15956,33542
31876,15911,33575
31900,15914,33489
31812,15862,33677
31988,15885,33732
31981,15840,33585
31892,15873,33533
31840,15857,33628
31656,15903,33684
31552,15895,33476
31680,15910,33735
31708,15940,33726
31768,15877,33756
31848,15877,33535
31956,15876,33865
32024,15838,33660
31912,15855,33824
31744,15891,33744
31748,15877,33813
31656,15890,33895
31524,15919,33815
31552,15928,33973
31713,15867,33799
31913,15865,33965
32112,15832,33732
32046,15836,34052
31520,15864,33972
31316,15847,34045
31940,15864,34042
32168,15898,34130
32140,15883,34023
32472,15900,34124
32656,15865,34127
32676,15871,34073
32356,15869,34285
31673,15829,34063
31100,15857,34192
31552,15837,34240
32008,15879,34260
32252,15919,34417
32256,15879,34279
32468,15879,34332
32772,15903,34380
33072,15843,34409
33120,15836,34399
32933,15814,34460
32772,15832,34239
32720,15885,34361
32732,15857,34523
32613,15896,34583
32468,15871,34548
32601,15882,34614
32720,15900,34371
32730,15841,34605
32808,15837,34833
32828,15813,34677
32720,15823,34623
32700,15828,34789
32504,15863,34832
32356,15908,34808
32300,15869,35020
32321,15874,34935
32416,15846,34823
32577,15836,35015
32616,15855,34819
32528,15812,35008
32584,15841,35188
32664,15826,35143
32540,15857,35119
32276,15909,35207
32144,15871,35144
32002,15879,35301
32004,15853,35348
32648,15845,35471
32884,15864,35238
33080,15813,35324
33292,15858,35424
33052,15833,35495
32564,15872,35239
32382,15872,35468
32496,15903,35599
32860,15920,35725
32968,15855,35600
32832,15845,35549
32837,15883,35636
32820,15817,35721
32832,15857,35744
32936,15833,35796
32928,15874,35839
32924,15865,35625
32980,15885,35813
33042,15927,35969
33144,15873,36060
33220,15874,36080
33228,15819,35892
33152,15821,36020
33044,15868,36096
32848,15847,36092
32584,15903,36147
32408,15877,35942
32220,15908,36132
32148,15863,36228
32452,15871,36388
32888,15857,36258
33108,15810,36343
33204,15831,36251
33220,15831,36500
33064,15876,36288
32936,15846,36460
32792,15876,36161
32616,15904,36455
32640,15858,36512
32844,15883,36478
32954,15836,36359
32976,15852,36324
33004,15813,36368
32996,15830,36645
32789,15825,36784
32680,15840,36775
32556,15869,36740
32354,15904,36838
32429,15857,36871
32641,15865,36902
32721,15825,36935
32848,15821,36953
32952,15805,36657
32964,15821,36679
33124,15818,36871
33010,15847,36992
32704,15858,37072
32668,15871,37147
32960,15850,37164
32952,15848,37268
32998,15821,37229
32988,15849,37353
33012,15805,37253
33084,15832,37167
32976,15821,37396
32924,15836,37471
32929,15867,37476
32844,15855,37493
32876,15857,37255
33016,15869,37432
33140,15813,37468
33124,15820,37300
33061,15794,37511
33044,15830,37516
32847,15806,37357
32688,15848,37468
32453,15844,37417
32332,15877,37552
32260,15849,37568
32548,15867,37638
32968,15809,37735
33241,15826,37822
33284,15787,37853
33208,15836,37729
33092,15821,37677
32816,15887,37660
32556,15852,37805
32482,15904,37863
32580,15855,37856
32508,15823,37546
32616,15813,37833
32900,15786,37888
33080,15800,38052
33024,15831,38041
32968,15800,37996
32844,15829,37639
32700,15833,37679
32624,15847,38014
32772,15834,38144
33004,15831,38151
33052,15838,38135
32884,15780,38111
32656,15789,38164
32564,15783,37794
32796,15817,38132
32736,15844,38285
32544,15828,38336
32608,15864,38374
32708,15824,38388
32868,15825,38132
33132,15795,38151
33360,15803,38279
33436,15770,38478
33192,15808,38471
32904,15788,38379
32800,15838,38268
32884,15844,38311
32886,15829,38367
32976,15847,38399
33079,15824,38407
33160,15789,38386
33220,15801,38559
33236,15775,38631
33096,15767,38633
32940,15818,38536
32752,15798,38700
32644,15829,38679
32546,15821,38621
32536,15852,38725
32701,15820,38766
32821,15781,38791
32912,15781,38808
33108,15772,38791
33072,15764,38652
32916,15816,38672
32762,15806,38680
32636,15857,38720
32564,15830,38550
32672,15808,38748
32741,15820,38832
32840,15801,38833
32940,15755,38838
32936,15783,38663
32840,15774,38869
32776,15769,38888
32749,15815,38866
32673,15808,38861
32692,15853,38847
32721,15810,38877
32652,15836,38830
32452,15786,38840
32204,15799,38953
32480,15752,38926
33068,15751,38872
33352,15775,38892
33360,15781,38903
33312,15813,39184
33320,15808,39092
33340,15849,39020
33308,15803,39057
33408,15800,39168
33460,15748,39217
33464,15773,39238
33140,15769,39168
32724,15841,39140
32737,15785,39157
32752,15797,39271
32716,15825,39340
32761,15850,39344
32880,15791,39380
32856,15759,39375
32916,15769,39383
33120,15729,39423
33192,15764,39393
33049,15756,39456
32833,15816,39476
32577,15794,39440
32600,15856,39525
32724,15797,39513
32676,15771,39529
32852,15776,39455
33148,15732,39473
33232,15772,39419
33085,15758,39496
32862,15799,39548
32741,15775,39554
32548,15852,39628
32444,15806,39662
32316,15825,39517
32208,15781,39400
32040,15790,39559
31748,15728,39583
31313,15744,39249
30590,15730,39637
29716,15773,39676
28697,15765,39750
27156,15815,39775
25532,15798,39504
24364,15805,39581
23732,15776,39684
23510,15775,39716
23804,15735,39431
24340,15743,39700
25326,15734,39730
27944,15760,39790
31804,15757,39892
36860,15794,39957
42784,15772,39929
48772,15788,39836
54284,15732,39744
59496,15767,39832
63456,15701,39781
64592,15756,39796
64740,15699,39958
64616,15769,39980
64428,15759,39960
64201,15761,39861
63992,15841,39908
63760,15813,40089
63548,15844,39943
56976,15768,40073
49696,15776,40128
43428,15716,40132
39321,15780,40172
36576,15744,40185
34610,15756,40221
33056,15787,40245
31841,15780,40259
30832,15785,40288
29981,15759,40277
29300,15747,40318
28830,15722,39917
28649,15730,40288
28412,15721,40336
28000,15738,40357
27610,15750,40361
27340,15776,40455
27312,15773,40484
27404,15784,40484
27386,15759,40497
27436,15759,40601
27633,15712,40532
27704,15714,40503
27612,15748,40495
27444,15737,40556
27184,15775,40548
27101,15774,40572
27202,15788,40655
27204,15759,40677
27372,15758,40281
27593,15723,40380
27740,15732,40326
27788,15708,40772
27804,15701,40804
27785,15735,40824
27700,15732,40860
27608,15768,40887
27632,15755,40887
27732,15769,40549
27756,15737,40909
27516,15742,41047
27621,15697,41103
28082,15708,40999
28496,15722,41082
28632,15711,41091
28508,15753,41086
28356,15751,41136
28416,15751,41165
28650,15756,41202
28844,15732,41212
28948,15727,41205
29136,15699,40784
29326,15689,41199
29256,15713,41408
29176,15708,41407
29196,15759,41428
29100,15757,41281
29145,15781,41266
29216,15759,41335
29404,15767,41325
29405,15727,41311
29344,15721,41020
29568,15694,40952
29884,15701,41374
29896,15733,41296
29965,15719,41357
29936,15759,41513
29900,15739,41423
29736,15749,41348
29680,15717,41383
30168,15732,41396
30636,15685,41372
30680,15698,41327
30640,15687,41412
30688,15716,41549
30740,15725,41492
30758,15767,41540
30736,15750,41416
30776,15780,41516
31020,15731,41361
31176,15743,41325
31450,15684,41286
31692,15695,41342
31736,15679,41324
31756,15721,41324
31768,15707,41308
31720,15757,41091
31872,15727,40892
32196,15762,40900
32484,15726,41089
32640,15741,41205
32729,15684,41197
32840,15665,41183
33152,15701,41214
33328,15687,41358
33408,15731,41348
33684,15732,41328
33768,15727,41220
33968,15738,41213
34072,15700,41300
33984,15697,41038
33764,15671,41157
33782,15704,41077
34056,15670,40948
34232,15729,40991
34476,15719,40904
34548,15708,40916
34553,15758,40967
34700,15714,40992
34756,15719,40985
34692,15687,40938
34668,15711,40522
34656,15678,40724
34360,15659,40836
33988,15713,40857
33765,15708,40812
33637,15712,40797
33488,15724,40813
33312,15789,40932
33108,15711,40783
32952,15722,40615
32920,15675,40597
32768,15649,40657
32384,15681,40549
31924,15719,40583
31664,15699,40637
31560,15739,40596
31372,15719,40277
31332,15737,40507
31348,15685,40629
31446,15685,40671
31317,15652,40652
31124,15654,40623
30944,15717,40408
30576,15685,40441
30492,15724,40290
30616,15714,40336
30688,15701,40398
30608,15705,40400
30529,15677,40357
30441,15700,40348
30560,15661,40222
30888,15697,40152
31044,15662,40132
31016,15695,40229
30816,15692,40240
30644,15683,40232
30660,15717,40212
30664,15693,40175
30594,15706,40172
30636,15652,40157
31016,15656,40119
31184,15630,39728
31124,15674,39773
31044,15659,39943
30956,15700,40055
30720,15685,40004
30632,15682,39916
30584,15684,39999
30640,15704,40136
30812,15653,39853
31008,15669,39805
30828,15624,39908
30416,15620,40029
30377,15673,40036
30806,15654,39943
30808,15706,40006
30805,15681,39998
30938,15704,39918
31032,15661,39940
31000,15638,39919
31024,15645,39868
31240,15625,39791
31324,15614,39776
31212,15647,39788
31032,15642,39777
30908,15702,39697
30840,15684,39721
30952,15704,39742
31129,15669,39788
31178,15670,39669
31230,15631,39733
31220,15602,39701
31041,15640,39684
30938,15624,39548
30764,15679,39591
30949,15681,39661
31333,15662,39633
31368,15698,39525
31428,15659,39372
31528,15623,39197
31764,15652,39424
31956,15620,39046
31961,15603,39396
31908,15639,39389
31808,15633,39100
31736,15670,39268
31736,15657,39268
31932,15667,39253
32036,15632,39308
31948,15645,39329
31988,15595,39356
32140,15629,39286
32220,15618,39260
32040,15657,39239
31904,15631,39248
31896,15690,39130
31820,15670,39063
32024,15643,39093
32328,15658,39111
32428,15618,39015
32436,15629,38906
32412,15596,38965
32356,15583,39113
32247,15630,39076
32074,15622,39042
31952,15677,39044
31924,15660,38988
32068,15637,38948
32280,15631,39040
32460,15653,38876
32512,15605,38948
32532,15580,38990
32372,15586,38964
32113,15609,38855
32120,15609,38672
32208,15650,38663
32200,15639,38616
32225,15628,38856
32294,15623,38589
32420,15591,38673
32500,15593,38696
32173,15568,38718
31736,15593,38521
31784,15588,38636
32172,15616,38719
32348,15620,38697
32528,15644,38748
32576,15676,38605
32732,15623,38568
32920,15633,38565
32960,15597,38564
32928,15604,38577
32800,15591,38516
32684,15583,38225
32605,15602,38455
32404,15615,38271
32092,15643,38343
32156,15609,38454
32256,15637,38488
32438,15606,38492
32456,15551,38533
32464,15580,38609
32420,15611,38332
32244,15603,38428
32088,15636,38446
32072,15626,38425
32192,15655,38204
32245,15610,38345
32508,15615,38468
32846,15573,38436
32748,15564,38217
32702,15547,38317
32768,15588,38213
32670,15579,38183
32488,15581,38299
32408,15623,38161
32380,15602,38260
32468,15605,38287
32592,15587,38033
32672,15577,38196
32808,15545,38199
32912,15559,38295
32836,15580,38123
32612,15556,38215
32489,15591,37822
32409,15589,37933
32504,15620,38066
32564,15589,38141
32672,15595,38252
32756,15631,37984
32776,15564,38056
32824,15607,38079
32632,15556,38076
32584,15554,38022
32544,15596,37956
32500,15621,38088
32384,15591,38022
32200,15607,37895
32164,15592,37961
32396,15564,37889
32580,15559,38063
32813,15526,37892
32792,15558,37925
32509,15615,37573
32452,15577,37585
32568,15584,37783
32436,15613,37781
32396,15582,37848
32728,15574,37884
32956,15567,37760
32832,15607,37780
32812,15532,37556
32840,15585,37500
32801,15555,37672
32688,15603,37852
32597,15599,37784
32636,15628,37552
32524,15579,37668
32436,15589,37671
32704,15546,37595
32896,15552,37665
33048,15516,37765
32988,15537,37516
32936,15537,37623
32912,15565,37383
32876,15568,37559
32848,15590,37661
32928,15625,37573
33008,15557,37455
33152,15561,37478
33096,15524,37477
32892,15567,37457
32596,15526,37488
32256,15577,37097
32028,15567,37239
32545,15609,37413
32789,15564,37390
32873,15601,37252
33096,15573,37238
33196,15534,37204
33289,15529,37226
33468,15500,37334
33312,15524,37113
33056,15525,37048
32940,15554,37204
32837,15556,37280
32804,15593,37349
32784,15594,37189
32795,15541,37175
32868,15540,37108
33068,15559,37284
33076,15521,37098
32924,15505,36997
32880,15552,37069
32748,15561,37076
32660,15627,37029
32613,15580,36908
32742,15584,37042
32932,15537,36672
32880,15532,36924
32896,15501,36894
33000,15503,36996
33060,15552,36942
32941,15529,36775
32884,15569,36900
32836,15554,36855
32680,15595,36778
32749,15543,36916
32900,15553,36861
33004,15513,36752
33156,15518,36644
33150,15491,36776
32980,15509,36653
32928,15539,36757
33033,15532,36584
32952,15598,36613
32694,15567,36644
32677,15582,36629
32929,15522,36527
33116,15528,36616
33198,15487,36689
33268,15495,36431
33264,15563,36559
33156,15502,36239
32888,15525,36567
32600,15586,36495
32636,15557,36308
32876,15591,36410
32888,15539,36432
32868,15554,36396
32862,15503,36065
32748,15522,36257
32822,15496,36277
33044,15548,36237
32856,15537,36335
32608,15529,36405
32732,15553,36154
32804,15568,36260
32958,15517,36219
33328,15549,36197
33452,15502,35864
33584,15513,36084
33508,15476,36246
33376,15503,35988
33060,15588,36119
32804,15546,35919
32856,15561,36148
33304,15521,36135
33464,15524,36144
33452,15536,36114
33480,15485,36121
33608,15462,36117
33656,15502,35937
33600,15485,35896
33356,15524,35903
33272,15519,35918
33164,15535,35901
33085,15518,35573
33220,15519,35550
33366,15487,35620
33420,15479,35773
33400,15527,35928
33296,15464,35718
33284,15499,35718
33056,15553,35752
32664,15527,35746
32620,15557,35590
32921,15508,35679
33160,15540,35620
33220,15483,35756
33188,15491,35756
33284,15454,35569
33344,15471,35565
33208,15513,35286
32960,15495,35492
32588,15552,35538
32486,15537,35573
32768,15569,35495
33013,15502,35449
33156,15516,35468
33116,15465,35374
32980,15452,35428
32677,15488,35497
32288,15473,35381
31917,15504,35311
31252,15505,35348
30424,15524,35252
29782,15533,35399
29036,15486,35217
27837,15492,35252
26462,15494,35164
25135,15457,35316
24004,15471,35172
23252,15500,34927
22853,15498,35192
23172,15521,35028
24458,15540,34964
27372,15517,35212
31316,15495,35063
36556,15498,35064
42832,15438,34751
49272,15458,34936
55160,15532,35101
60536,15478,35028
64208,15513,34950
65156,15503,34640
65252,15528,34854
65112,15580,35034
64892,15477,34789
64684,15497,34866
64448,15530,34580
64224,15438,34938
63996,15495,34804
61744,15550,34832
53176,15487,34570
45520,15552,34732
39788,15508,34861
36540,15521,34669
34684,15499,34740
33448,15482,34453
32404,15487,34711
31256,15449,34682
30198,15465,34721
29396,15477,34608
28856,15495,34687
28448,15503,34784
28053,15520,34520
27884,15500,34605
27777,15505,34609
27656,15471,34596
27552,15470,34333
27464,15445,34495
27410,15476,34621
27288,15461,34469
27084,15493,34484
26896,15524,34182
26874,15503,34447
27020,15510,34452
27196,15480,34361
27304,15470,34124
27494,15461,34408
27572,15437,34184
27508,15451,34342
27300,15463,34222
27260,15508,34373
27336,15495,34375
27448,15512,34224
27522,15489,34263
27660,15485,34025
27865,15455,34118
27864,15447,34020
27940,15431,34131
27916,15444,34173
27950,15489,34289
27740,15474,34025
27569,15490,34010
27928,15510,34119
28429,15485,34149
28773,15491,34125
28832,15450,34101
28984,15457,34104
29168,15423,34015
29200,15441,34108
29084,15486,34198
28910,15481,34117
28909,15537,33909
28816,15505,33935
28864,15535,34020
29088,15476,34020
29345,15453,34004
29456,15446,33981
29632,15427,33756
29578,15446,33854
29258,15442,33961
29077,15468,34007
29154,15473,34020
29230,15492,33741
29524,15510,33836
29952,15463,33865
30158,15485,33860
30228,15448,33839
30292,15462,33830
30324,15439,33780
30186,15474,33684
29973,15456,33733
30048,15493,33853
30144,15482,33617
30240,15486,33700
30432,15532,33709
30814,15460,33412
31240,15447,33761
31367,15418,33549
31156,15455,33617
31044,15460,33652
30944,15453,33342
31108,15488,33501
31264,15478,33669
31444,15483,33415
31870,15456,33548
32068,15462,33552
32170,15422,33298
32408,15445,33458
32584,15474,33606
32636,15447,33335
32668,15483,33469
32780,15474,33434
32880,15505,33340
32984,15469,33537
33372,15470,33319
33772,15508,33388
34008,15436,33092
33928,15415,33086
33840,15435,33244
33997,15519,33362
34188,15460,33336
34248,15472,33389
34312,15495,33129
34440,15521,33212
34636,15479,33221
34784,15489,33182
34928,15429,33094
35008,15443,33208
34984,15417,32996
34837,15442,33081
34656,15447,33096
34580,15509,33013
34548,15495,32964
34496,15463,33124
34493,15500,33119
34508,15442,33117
34560,15427,32948
34416,15407,32724
33996,15444,32655
33692,15436,32865
33304,15519,32866
33072,15480,32838
32796,15472,32828
32741,15535,32802
32676,15461,32743
32596,15439,32740
32596,15415,32788
32468,15416,32708
32190,15409,32612
31972,15471,32574
31692,15455,32396
31542,15458,32373
31418,15502,32404
31316,15476,32452
31425,15466,32559
31328,15427,32508
31285,15422,32421
31588,15396,32461
31532,15428,32474
31261,15455,32191
31444,15430,32333
31620,15463,32478
31501,15458,32356
31468,15476,32327
31490,15481,32332
31385,15422,32233
31400,15428,32263
31436,15390,32391
31510,15412,32270
31672,15413,32184
31652,15448,32119
31396,15446,32212
31308,15468,32216
31640,15502,32001
31764,15438,32076
31816,15453,32151
31796,15397,32244
31954,15398,31985
32024,15443,32128
31792,15415,31852
31724,15455,31977
31601,15438,32177
31392,15461,31981
31444,15442,32000
31732,15437,32028
32072,15415,31992
32268,15406,31840
32349,15435,31900
32248,15391,32040
32040,15430,31837
31916,15422,31864
31828,15463,31911
31940,15508,31879
31980,15453,31674
32080,15428,31623
32208,15440,31774
32264,15438,31920
32308,15393,31904
32196,15462,31860
32048,15419,31781
31981,15413,31671
31897,15452,31708
31841,15487,31504
31929,15455,31580
32088,15461,31668
32280,15412,31713
32305,15409,31700
32312,15381,31567
32264,15407,31593
32100,15427,31424
32152,15492,31600
32113,15461,31604
32160,15445,31545
32517,15456,31450
32776,15428,31428
32648,15428,31434
32646,15438,31184
32856,15396,31239
32784,15455,31285
32746,15422,31258
32556,15462,31353
32532,15437,31417
32604,15483,31175
32688,15444,31248
32671,15461,31256
32772,15426,31253
32892,15436,31236
32940,15392,31186
32904,15457,31195
32968,15417,31165
32688,15442,30977
32564,15495,31189
32428,15470,31210
32492,15441,31135
32828,15439,31051
32940,15408,31024
33017,15415,30917
33252,15380,30978
33304,15397,31000
33180,15401,30972
33012,15441,30972
32888,15447,30889
32745,15440,30886
32734,15448,30905
32896,15444,30887
33048,15428,30871
32992,15388,30844
32764,15399,30605
32684,15388,30711
32808,15412,30816
32848,15461,30900
32852,15438,30656
33148,15459,30695
33268,15493,30744
33416,15433,30717
33532,15437,30598
33516,15389,30682
33652,15399,30628
33642,15409,30686
33440,15448,30567
33310,15416,30754
33212,15456,30596
33028,15494,30589
33008,15438,30625
33188,15440,30380
33416,15481,30549
33388,15417,30685
33312,15428,30561
33212,15388,30479
33072,15427,30517
33132,15418,30468
33140,15447,30548
33080,15489,30540
33160,15440,30332
33440,15439,30487
33444,15462,30628
33360,15396,30590
33624,15406,30401
33620,15391,30372
33589,15424,30437
33400,15453,30473
33228,15439,30492
33160,15458,30497
33120,15471,30417
33312,15508,30561
33552,15439,30564
33664,15430,30424
33720,15388,30352
33624,15413,30455
33492,15407,30452
33252,15451,30465
33140,15439,30455
33140,15464,30279
33249,15497,30309
33372,15437,30445
33506,15428,30352
33534,15430,30416
33468,15391,30181
33392,15419,30256
33516,15443,30381
33368,15430,30316
33136,15466,30344
33268,15501,30367
33444,15452,30120
33532,15460,30231
33484,15487,30308
33636,15415,30413
33684,15439,30424
33832,15429,30334
33701,15419,30233
33476,15447,30180
33277,15468,30130
33156,15463,30213
33308,15473,30353
33640,15445,30334
33856,15481,30360
33848,15442,30343
33872,15456,30142
33837,15437,30257
33652,15473,30019
33612,15442,30152
33448,15476,30252
33364,15508,30193
33444,15469,30017
33588,15465,30272
33752,15509,30057
33789,15442,30185
33876,15460,30005
33872,15425,30173
33772,15450,30037
33632,15501,30139
33516,15471,29920
33364,15493,30128
33440,15477,30120
33616,15484,29992
33736,15453,30075
33932,15458,30092
34036,15460,29981
33896,15427,30125
33716,15464,29993
33664,15495,30080
33661,15532,30047
33460,15494,29992
33504,15517,30048
33788,15527,29932
33880,15465,30117
33836,15461,29892
33968,15487,30019
33912,15440,29886
33764,15473,29926
33644,15524,29977
33532,15496,29773
33548,15513,29873
33616,15544,30028
33733,15495,29961
33756,15497,29830
33684,15516,29904
33444,15454,29928
33428,15474,29797
33368,15479,29796
33192,15516,29822
33220,15558,29892
33560,15523,29940
33933,15529,29790
33738,15519,29865
33712,15524,29784
34040,15525,29800
33976,15524,29844
33768,15480,29791
33821,15488,29777
33953,15525,29804
33968,15576,29813
33910,15538,29703
33921,15551,29826
34056,15550,29684
34076,15553,29801
34056,15500,29652
33972,15515,29744
33945,15516,29641
33820,15597,29776
33632,15531,29644
33572,15568,29767
33512,15559,29818
33396,15577,29700
33436,15553,29613
33720,15542,29729
33980,15552,29737
34000,15513,29732
33760,15536,29702
33580,15588,29532
33552,15584,29489
33456,15581,29484
33568,15604,29472
33788,15637,29494
33740,15588,29469
33680,15559,29460
33780,15557,29468
33950,15540,29554
33788,15559,29548
33460,15567,29541
33592,15596,29571
33724,15601,29527
33684,15631,29577
33848,15609,29518
33920,15645,29439
33900,15593,29508
33904,15595,29687
33908,15567,29676
33668,15593,29614
33472,15596,29640
33428,15636,29462
33512,15683,29551
33520,15653,29584
33428,15687,29575
33304,15644,29580
33520,15655,29575
33888,15618,29568
33932,15612,29553
33824,15625,29565
33880,15630,29564
33780,15665,29545
33548,15692,29541
33484,15685,29489
33696,15713,29471
34085,15670,29532
34188,15692,29535
34208,15650,29500
34212,15677,29300
34096,15649,29441
33964,15677,29601
33852,15693,29473
33708,15735,29497
33748,15762,29489
33757,15722,29381
33841,15730,29551
34014,15700,29567
33994,15711,29392
34028,15735,29360
33984,15717,29352
33988,15752,29475
34032,15748,29463
33692,15795,29351
33544,15762,29463
33708,15785,29564
33652,15815,29377
33728,15751,29464
34096,15763,29237
34309,15727,29365
34104,15758,29498
33888,15799,29528
33688,15788,29520
33524,15833,29360
33472,15808,29452
33592,15832,29321
33644,15830,29471
33632,15785,29540
33824,15785,29308
33996,15811,29439
34034,15777,29436
34098,15825,29437
33860,15818,29220
33448,15863,29319
33460,15855,29232
33760,15862,29399
33754,15866,29519
33708,15830,29467
33812,15844,29515
33760,15819,29494
33433,15840,29328
32908,15898,29372
32453,15879,29409
31800,15932,29191
30999,15913,29282
30304,15931,29308
29160,15905,29357
27820,15908,29472
26328,15908,29335
24904,15888,29369
24024,15905,29360
23832,15935,29256
23964,15944,29301
24772,15977,29446
27092,15975,29284
30860,16004,29348
35648,16006,29364
41520,15941,29192
47752,15950,29324
53756,15924,29405
59464,15970,29253
62764,16036,29360
63564,15979,29164
63652,16061,29428
63516,16082,29240
63316,16026,29348
63116,16066,29371
62908,16071,29224
62704,15989,29413
62500,16016,29390
62296,16074,29318
58079,16022,29364
49836,16084,29220
42780,16132,29350
38188,16104,29447
35702,16120,29284
33956,16092,29260
32358,16101,29377
31328,16090,29162
30704,16069,29248
30128,16089,29444
29648,16152,29428
29185,16132,29248
28500,16180,29345
28137,16172,29364
28468,16192,29365
28606,16167,29188
28480,16183,29141
28296,16149,29180
28344,16132,29127
28304,16159,29324
28085,16161,29167
27956,16197,29159
27796,16213,29169
27664,16241,29188
27912,16231,29197
28143,16262,29103
28116,16225,29185
28153,16206,29197
28208,16220,29377
28304,16209,29358
28194,16247,29222
28104,16282,29318
28032,16289,29314
28016,16335,29319
28048,16313,29322
28112,16290,29112
28313,16293,29200
28688,16271,29325
28850,16303,29316
28716,16290,29375
28704,16334,29407
28677,16325,29257
28732,16379,29264
28597,16375,29364
28656,16402,29374
28903,16364,29209
29343,16372,29268
29492,16343,29387
29485,16350,29396
29465,16388,29447
29408,16377,29380
29300,16409,29407
29300,16463,29407
29260,16457,29224
29340,16468,29191
29376,16436,29286
29572,16460,29396
29728,16421,29479
29889,16434,29481
30000,16424,29403
29912,16457,29329
29762,16468,29364
29972,16508,29381
29812,16554,29349
29664,16538,29216
29888,16543,29330
30000,16504,29403
29884,16519,29285
29920,16487,29332
30188,16516,29389
30368,16524,29388
30536,16569,29239
30636,16574,29396
30642,16598,29322
30784,16639,29359
30924,16612,29367
31057,16581,29376
31252,16583,29197
31356,16571,29237
31298,16582,29255
31260,16634,29376
31176,16625,29310
31128,16665,29361
31192,16711,29231
31416,16671,29221
31776,16687,29348
32050,16682,29202
32128,16650,29350
32180,16660,29373
32412,16663,29220
32508,16701,29305
32461,16749,29316
32505,16741,29084
32600,16789,29178
32856,16753,29320
33152,16781,29377
33338,16752,29317
33480,16783,29212
33558,16740,29247
33714,16737,29263
33744,16782,29268
33784,16780,29262
33856,16845,29260
33932,16826,29251
34204,16848,29040
34376,16819,29106
34360,16836,29101
34548,16825,29208
34660,16853,29204
34844,16826,29197
34836,16836,28989
34692,16887,28977
34452,16900,29165
34344,16900,29159
34368,16921,29161
34436,16893,28948
34344,16937,28972
34232,16900,28929
34113,16879,28918
33936,16898,28908
33860,16945,29177
33708,16932,29029
33141,16973,29092
32864,16972,29093
32928,17007,29086
32900,16975,29071
32886,16995,28898
32832,16960,28932
32709,16997,28994
32424,16970,29020
32204,16980,29076
32104,17015,29089
32012,17028,29055
31872,17068,29081
31844,17063,29098
32108,17085,29073
32246,17044,29058
32200,17028,29001
32176,17034,28874
32060,17026,28981
31968,17065,28992
31768,17070,28814
31608,17105,28894
31548,17139,29021
31556,17125,28941
31576,17124,28844
31842,17103,28951
32084,17088,28956
32028,17108,28758
31940,17141,28820
31748,17115,29021
31596,17150,28921
31604,17200,28748
31640,17181,28800
31812,17208,28996
31956,17181,28880
32060,17177,28934
32124,17152,28935
32196,17168,28931
32165,17161,28741
31989,17202,28870
31836,17207,29000
31769,17245,28801
31712,17248,28887
31798,17276,28932
31892,17274,28904
31908,17237,28764
32016,17257,28785
32237,17234,28860
32190,17277,28840
31964,17263,28884
31852,17307,28991
31892,17299,28864
31941,17335,28804
32042,17321,28877
31972,17331,28919
32060,17332,28921
32292,17292,28902
32452,17335,28715
32472,17315,28804
32340,17336,28949
32178,17334,28877
32064,17367,28919
31996,17420,28756
32088,17386,28890
32136,17399,28812
32236,17366,28924
32312,17367,28725
32248,17344,28775
32232,17369,28989
32104,17375,28833
31809,17396,28750
31360,17439,28981
31432,17481,28904
31880,17446,28760
32249,17433,28757
32360,17431,28861
32472,17452,28856
32708,17425,28912
32720,17452,28896
32596,17449,28903
32300,17501,28716
32224,17497,28828
32220,17528,28984
32285,17510,28807
32458,17525,28929
32568,17495,28724
32556,17502,28784
32640,17478,28783
32608,17469,28812
32432,17492,28941
32350,17505,28980
32292,17540,28817
32104,17575,28912
32224,17548,28871
32336,17554,28888
32576,17571,28932
32652,17520,28785
32620,17545,28800
32504,17526,28821
32313,17535,28945
32192,17572,28813
32198,17578,28935
32508,17606,28967
32756,17588,28860
32879,17593,28982
33020,17573,28775
33012,17577,28892
33028,17591,29049
33132,17566,28882
32848,17597,29006
32622,17605,28996
32540,17660,28839
32488,17641,29058
32604,17671,28974
32792,17633,29002
32948,17629,28849
33016,17641,28992
32981,17601,29129
32864,17627,28943
32712,17626,28977
32612,17676,29062
32548,17689,29088
32324,17685,29101
32324,17695,28913
32628,17662,28959
32553,17668,29014
32548,17651,29159
32756,17676,29244
32800,17653,29055
32792,17705,29191
32814,17703,29213
32828,17711,29237
32760,17757,29061
32684,17726,29276
32644,17748,29210
32908,17700,29278
33060,17722,29316
33116,17684,29344
33089,17687,29364
32996,17701,29372
32824,17748,29399
32672,17757,29425
32569,17798,29244
32644,17777,29350
32764,17811,29362
32856,17759,29396
32864,17724,29388
32996,17728,29567
33048,17749,29608
32784,17740,29481
32436,17769,29617
32524,17783,29640
32736,17812,29660
32908,17794,29687
32908,17813,29716
33156,17772,29737
33252,17781,29756
33332,17751,29765
33312,17770,29605
33160,17814,29681
33060,17814,29693
32956,17868,29716
32844,17841,29657
32800,17841,29672
32876,17883,29896
32964,17829,29945
33012,17797,29965
32921,17785,29972
32592,17811,29981
32489,17817,29985
32760,17828,30025
32764,17865,30119
32692,17862,30157
32868,17884,30183
33084,17855,30196
33204,17875,30220
33280,17825,30144
33300,17816,30271
33216,17833,30272
33128,17852,30108
33048,17861,30245
32910,17910,30249
32856,17897,30076
33000,17890,30158
33112,17920,30316
33245,17892,30364
33272,17865,30348
33312,17848,30332
33280,17860,30449
33113,17877,30438
32976,17883,30530
32748,17932,30551
32516,17927,30557
32485,17978,30588
32692,17921,30615
32948,17957,30468
33256,17892,30441
33488,17919,30569
33472,17897,30604
33366,17956,30614
33312,17926,30624
33208,17934,30652
33134,17960,30682
33120,17950,30705
33152,17958,30727
33108,17937,30748
33036,17908,30772
33092,17945,30797
33260,17930,30808
33048,17988,30816
32788,17960,30836
32848,17966,30876
32852,18015,30885
32816,17988,30793
32881,17965,30855
33104,18001,31006
33308,17952,31024
33428,17922,30922
33276,17956,31094
33044,17961,31128
33056,17962,31032
33001,18002,30957
32924,18021,30912
32928,17996,31108
33060,18035,31143
33138,18000,31161
33044,17973,31262
32892,18004,31265
33080,17961,31289
33196,17969,31294
32992,17996,31332
32897,18008,31253
32884,18044,31312
32966,18020,31346
33028,18027,31372
33185,17996,31169
33328,17997,31211
33312,17975,31413
33140,18020,31469
32940,18006,31477
32724,18015,31468
32637,18069,31536
32636,18071,31652
32437,18049,31622
32421,18046,31694
32812,18063,31539
33044,18021,31549
32925,18057,31565
32970,18037,31606
33044,18029,31612
33112,18072,31690
33076,18081,31762
32780,18089,31834
32623,18105,31832
32764,18090,31959
33036,18068,31945
33352,18077,31922
33292,18061,31828
33112,18092,31861
33112,18082,31880
33044,18100,31787
33012,18114,32049
32936,18176,31962
33070,18150,31982
33084,18128,32141
33132,18146,32246
33145,18105,32189
33160,18125,32134
33021,18104,32101
32936,18155,32166
32807,18164,32137
32608,18166,32321
32488,18204,32417
32444,18185,32421
32554,18212,32388
32732,18179,32288
32897,18151,32230
32952,18201,32206
32900,18164,32224
32840,18175,32252
32712,18207,32412
32572,18246,32486
32572,18236,32544
32656,18257,32533
32692,18221,32566
32684,18238,32561
32756,18187,32688
32944,18209,32660
32932,18188,32711
32790,18233,32740
32648,18230,32693
32460,18281,32809
32364,18261,32896
32456,18285,32916
32622,18252,32800
32728,18263,32788
32876,18224,32881
33056,18230,32895
33108,18220,32670
33048,18273,32817
32976,18276,32862
32940,18280,33040
32708,18313,33048
32600,18327,32950
32708,18290,32938
32956,18302,33021
33128,18268,33031
33188,18247,32933
33196,18287,33048
33100,18270,33057
33064,18268,33084
32940,18316,33129
32837,18362,33146
32932,18319,32917
33022,18300,33079
32925,18300,33165
32884,18312,33280
32960,18266,33319
32973,18265,33325
32924,18312,33215
32704,18319,33319
32592,18318,33330
32528,18354,33209
32550,18340,33196
32832,18348,33364
33012,18314,33405
33064,18323,33376
33084,18282,33364
32976,18323,33476
32876,18309,33493
32644,18316,33495
32292,18362,33399
32196,18351,33469
32460,18376,33381
32644,18359,33406
32556,18321,33404
32448,18319,33423
32380,18295,33429
32224,18322,33561
31944,18348,33697
31512,18336,33681
30948,18376,33572
30245,18372,33512
29536,18388,33538
28838,18365,33625
27876,18343,33569
26433,18340,33676
24809,18321,33734
23588,18337,33748
22880,18348,33777
22636,18362,33785
22889,18386,33774
23872,18400,33749
26696,18389,33812
30600,18388,33876
35500,18352,33616
41408,18352,33813
47648,18404,33996
53432,18360,33893
58640,18396,33940
62176,18349,33976
63084,18401,33924
63188,18408,33886
63064,18458,33968
62872,18431,33988
62680,18358,34100
62464,18374,34198
62268,18476,34183
62056,18364,34116
61848,18344,34100
54160,18430,34208
46564,18448,33978
40380,18418,34316
36685,18431,34177
34580,18409,34336
33104,18398,34116
31840,18376,34330
30740,18380,34528
29780,18373,34332
28993,18390,34461
28348,18404,34492
27852,18432,34532
27456,18451,34282
27244,18439,34488
27205,18437,34597
27236,18413,34708
27220,18388,34582
27153,18388,34671
26952,18381,34415
26761,18407,34608
26688,18412,34698
26550,18441,34780
26652,18449,34786
26828,18445,34860
26905,18437,34893
27064,18413,34868
27252,18410,34932
27372,18389,34993
27300,18404,35017
27148,18407,34914
27036,18420,35108
27064,18451,35020
27088,18469,34917
27216,18454,35033
27412,18439,35065
27472,18434,35147
27401,18429,35183
27477,18396,35224
27715,18402,35194
27784,18429,35188
27748,18439,35165
27797,18456,35256
27788,18495,35296
27697,18477,35372
27784,18453,35352
28136,18461,35332
28324,18429,35496
28472,18407,35552
28624,18428,35695
28576,18431,35687
28488,18463,35725
28396,18468,35761
28313,18502,35788
28292,18486,35792
28272,18469,35736
28368,18482,35740
28521,18453,35652
28696,18428,35743
28964,18453,35621
29156,18453,35612
29230,18460,35911
29084,18495,35942
28887,18494,35964
28996,18514,35964
29180,18484,36020
29276,18493,36036
29402,18458,36065
29589,18439,36068
29576,18460,35828
29536,18464,35917
29528,18479,36017
29413,18520,35901
29388,18528,36059
29740,18505,36125
30126,18504,36252
30256,18490,36336
30496,18513,36324
30756,18468,36384
30768,18466,36310
30608,18487,36277
30424,18542,36336
30180,18526,36288
30125,18566,36432
30400,18543,36500
30741,18518,36439
30884,18519,36356
30748,18484,36340
30332,18509,36325
30444,18492,36336
31120,18498,36404
31921,18528,36503
32200,18535,36543
32592,18579,36285
33093,18562,36466
33504,18576,36630
33696,18544,36697
33764,18506,36644
33844,18517,36714
33904,18509,36735
33840,18515,36735
33748,18557,36704
33688,18551,36757
33672,18583,36580
33808,18566,36542
33912,18580,36640
33912,18538,36668
33936,18550,36680
33984,18524,36717
34004,18543,36417
34004,18539,36652
33888,18561,36805
33836,18612,36668
33732,18588,36759
33721,18586,36871
33752,18596,36607
33848,18608,36677
33816,18564,36615
33756,18589,36634
33476,18549,36769
33136,18554,36790
32560,18604,36758
32012,18609,36701
31928,18630,36804
31912,18598,36832
31908,18612,36647
31944,18607,36772
31856,18563,36785
31678,18580,36499
31392,18569,36521
31092,18592,36727
30784,18589,36852
30622,18622,36927
30432,18610,36792
30240,18614,36832
30428,18604,36804
30649,18607,36832
30688,18569,36871
30736,18564,36805
30632,18595,36804
30396,18587,36612
30325,18620,36767
30336,18617,36869
30172,18655,36965
30044,18620,36716
30292,18605,36716
30540,18598,36833
30340,18578,36788
30060,18585,36788
29984,18569,36852
30276,18605,36881
30352,18601,36871
30244,18608,36884
30184,18648,36884
30256,18633,36901
30330,18605,36917
30352,18604,36612
30540,18574,36607
30648,18597,36895
30528,18573,36663
30396,18577,36710
30276,18603,36862
30188,18616,36941
30168,18645,36961
30352,18620,37060
30564,18631,37068
30692,18607,37052
30857,18618,37012
30932,18573,36957
30876,18575,36870
30708,18617,36929
30560,18610,36911
30396,18650,36945
30289,18636,37088
30432,18652,37137
30588,18612,37003
30676,18609,36760
30740,18609,36752
30792,18569,36996
30700,18596,37147
30660,18593,37213
30592,18637,37173
30448,18631,37041
30348,18629,37056
30380,18646,37130
30664,18618,37032
30848,18623,37013
30784,18588,37089
30901,18592,37237
30766,18584,37276
30764,18612,37157
30796,18605,37039
30764,18658,37157
30760,18644,37204
31012,18665,37213
31252,18623,37117
31356,18629,37264
31400,18588,37300
31444,18584,37172
31340,18616,36916
31168,18596,37195
30948,18636,37257
30772,18633,37356
30761,18662,37117
30824,18639,37255
31092,18635,36948
31348,18609,37101
31604,18606,37222
31752,18577,37388
31552,18592,37255
31296,18600,37149
31200,18621,37269
31094,18637,37300
30900,18665,37288
30900,18644,37162
31041,18658,37263
31297,18615,37424
31472,18622,37276
31604,18588,37237
31582,18621,37268
31520,18615,37294
31381,18645,37356
31413,18634,37023
31544,18657,37290
31601,18651,37300
31796,18651,37375
31808,18620,37508
31848,18614,37332
31896,18597,37321
31776,18608,37356
31572,18612,37370
31576,18640,37445
31528,18647,37125
31170,18676,37336
31124,18654,37348
31349,18670,37425
31688,18634,37541
31828,18638,37649
31972,18598,37433
31946,18617,37548
31789,18612,37565
31718,18635,37666
31696,18671,37652
31534,18660,37497
31612,18668,37639
31780,18700,37700
31889,18639,37716
31940,18610,37742
32020,18623,37424
31997,18607,37556
31772,18654,37684
31656,18644,37892
31666,18676,37741
31600,18665,37852
31600,18674,37881
31760,18681,37777
31844,18639,37884
31900,18634,38044
31780,18609,38032
31637,18613,38008
31400,18617,37964
31304,18644,37968
31160,18653,38049
30816,18677,38109
30744,18708,38120
31192,18655,37799
31676,18631,37895
32068,18623,38120
32464,18601,38164
32648,18615,38300
32516,18619,38350
32224,18647,38407
32130,18652,38240
32024,18689,38393
32092,18660,38227
32270,18675,38284
32360,18633,38399
32417,18623,38438
32420,18653,38303
32218,18623,38449
32056,18650,38612
31865,18637,38456
31828,18671,38516
31784,18670,38540
31853,18681,38535
31864,18692,38724
31856,18650,38584
31904,18644,38614
32153,18605,38656
32372,18620,38388
32272,18622,38448
32145,18650,38676
32132,18704,38860
32060,18674,38873
31988,18668,38894
32040,18660,38672
32158,18674,38852
32184,18623,38723
32160,18626,38924
32192,18620,39021
32092,18640,39034
31900,18650,38969
31893,18673,38887
31940,18717,38777
31948,18693,38756
32028,18704,39009
32180,18647,39168
32328,18656,39089
32456,18625,38976
32416,18645,39120
32120,18639,39148
31769,18680,39140
31725,18687,38813
31704,18725,38876
31845,18695,39237
32044,18718,39356
32192,18678,39236
32412,18660,39260
32600,18677,39263
32468,18640,39183
32344,18672,39262
32316,18668,39381
32268,18701,39468
32128,18742,39282
32220,18709,39332
32292,18710,39399
32376,18673,39400
32380,18687,39399
32264,18658,39406
32200,18678,39444
32254,18661,39464
32169,18695,39456
32032,18703,39492
32077,18735,39489
32360,18711,39108
32425,18711,39241
32464,18681,39236
32600,18692,39161
32478,18677,39520
32084,18658,39542
31993,18688,39543
32146,18681,39521
32294,18727,39544
32192,18719,39556
32156,18727,39270
32368,18749,39590
32668,18685,39676
32680,18671,39449
32526,18677,39556
32552,18660,39583
32544,18671,39391
32352,18689,39640
32284,18713,39625
32225,18735,39457
32268,18741,39566
32377,18698,39388
32480,18697,39512
32528,18672,39588
32544,18653,39601
32520,18661,39671
32428,18692,39686
32225,18684,39620
32032,18708,39528
31944,18756,39405
32052,18730,39394
32109,18727,39532
32176,18679,39535
32244,18676,39372
32500,18681,39476
32668,18654,39622
32560,18682,39645
32388,18676,39524
32360,18713,39382
32224,18759,39408
32176,18710,39493
32352,18723,39476
32608,18681,39488
32640,18687,39456
32680,18644,39393
32616,18660,39525
32414,18689,39548
32156,18698,39366
32070,18725,39364
32032,18704,39400
32164,18711,39245
32332,18695,39359
32464,18687,39479
32764,18691,39498
32888,18641,39263
32716,18662,39368
32464,18689,39303
32224,18670,39495
32214,18700,39220
32148,18699,39204
32172,18710,39188
32316,18689,39247
32516,18687,39309
32609,18680,39295
32669,18639,39196
32613,18660,39215
32524,18647,39201
32548,18683,39199
32421,18689,39204
32280,18704,39324
32373,18727,39344
32568,18684,39169
32888,18685,39205
33060,18685,39172
32989,18637,38857
32788,18660,38813
32576,18654,38819
32576,18703,38768
32500,18696,39128
32504,18699,38816
32736,18701,39040
32984,18711,39163
33060,18668,39119
33018,18657,38917
33033,18675,39020
32936,18655,39045
32780,18682,39047
32534,18669,39047
32365,18683,39012
32346,18702,38709
32536,18690,38663
32720,18689,38735
32792,18661,38733
32804,18656,38768
32832,18629,38879
32720,18639,38893
32628,18648,38910
32532,18679,38954
32434,18734,39031
32288,18707,38985
32308,18687,38868
32456,18703,38885
32648,18658,38948
32804,18670,38944
32868,18647,38875
32757,18628,38791
32588,18661,38685
32312,18669,38533
32072,18676,38722
31804,18717,38389
31708,18706,38448
31444,18677,38558
31137,18679,38605
30724,18653,38613
30240,18628,38575
29726,18656,38517
28660,18656,38535
27036,18662,38526
25416,18692,38600
23788,18702,38615
22728,18700,38518
22404,18689,38460
22864,18669,38372
23544,18652,38344
25057,18636,38336
28096,18644,38396
32117,18641,38436
37460,18666,38400
43680,18659,38429
49908,18741,38280
55704,18684,38321
61084,18648,38216
64528,18708,38272
65348,18636,38185
65400,18686,38209
65256,18655,38303
65040,18700,38279
64824,18646,38209
64596,18745,38172
64352,18705,38032
64128,18665,38187
58268,18693,38292
50136,18653,38256
43160,18688,38253
38624,18657,38261
36032,18668,38279
34224,18639,38124
32704,18676,38165
31328,18672,38138
30140,18678,38148
29324,18695,38093
28864,18671,38052
28524,18645,38068
28144,18647,38072
27876,18621,38031
27532,18617,38030
27198,18640,37894
26886,18651,37928
26706,18670,38007
26610,18677,37967
26498,18668,37876
26596,18661,37932
26776,18637,38000
26724,18632,37996
26736,18609,37989
26732,18604,37917
26600,18622,37960
26654,18633,37956
26736,18649,37895
26848,18671,37916
26972,18660,37884
26928,18634,37900
26884,18628,37872
27068,18602,37821
27336,18593,37613
27352,18585,37620
27348,18614,37568
27392,18616,37593
27336,18629,37653
27368,18653,37572
27576,18636,37695
27722,18641,37689
27892,18617,37684
27996,18617,37684
28064,18586,37660
28076,18564,37424
28152,18598,37528
28132,18624,37348
28040,18626,37533
27824,18649,37367
27744,18631,37605
27944,18611,37597
28288,18615,37560
28620,18583,37524
28896,18563,37412
29000,18578,37400
29004,18599,37481
29064,18591,37508
29100,18625,37504
29028,18634,37479
29048,18613,37423
29156,18617,37455
29308,18584,37220
29392,18575,37414
29564,18579,37480
29568,18565,37288
29552,18563,37271
29512,18591,37196
29550,18603,37284
29508,18623,36997
29560,18636,36940
29788,18601,37156
29960,18602,37197
30069,18567,37326
30154,18569,37231
30257,18548,37101
30416,18583,37037
30450,18583,37044
30362,18605,37100
30220,18599,36757
30368,18631,37054
30800,18597,37036
31060,18567,37024
31264,18567,36982
31428,18533,36656
31505,18544,36895
31704,18551,36924
31836,18569,36956
31912,18581,36943
32084,18603,36913
32322,18585,36908
32640,18595,36812
32840,18559,36852
33024,18567,36804
33228,18530,36793
33337,18550,36496
33404,18540,36518
33540,18580,36541
33624,18577,36524
33568,18616,36500
33520,18582,36498
33796,18575,36172
34244,18585,36228
34568,18552,36351
34684,18564,36412
34748,18525,36473
34727,18561,36454
34608,18551,36378
34453,18577,36220
34400,18608,36231
34481,18579,36225
34520,18595,35900
34544,18540,35980
34528,18535,36137
34504,18569,36133
34440,18521,36178
34248,18549,36037
33860,18534,35845
33640,18572,35930
33368,18594,35940
33232,18567,35876
33248,18549,35800
33116,18552,35909
32850,18508,35866
32557,18518,35836
32040,18498,35711
31600,18540,35598
31456,18531,35530
31341,18568,35560
31124,18568,35605
31240,18548,35581
31454,18557,35532
31600,18512,35505
31562,18510,35481
31424,18480,35453
31241,18501,35300
30868,18495,35280
30568,18531,35300
30464,18530,35188
30493,18560,35172
30492,18547,35125
30592,18546,35117
30680,18518,35086
30638,18478,35289
30664,18477,35273
30693,18466,35237
30484,18496,35221
30284,18494,35203
30324,18541,35176
30272,18530,35030
30272,18519,34927
30472,18516,34896
30584,18489,34874
30640,18479,35017
30820,18472,34807
30928,18460,34876
30812,18478,34891
30714,18483,34865
30685,18509,34847
30560,18519,34799
30592,18520,34796
30697,18499,34766
30740,18509,34759
30780,18482,34740
30876,18480,34439
30764,18467,34436
30664,18463,34683
30672,18494,34655
30564,18497,34639
30532,18530,34613
30736,18517,34564
30912,18530,34532
31132,18484,34477
31232,18450,34644
31208,18464,34601
30996,18463,34462
30796,18488,34397
30936,18487,34386
31048,18527,34359
30988,18505,34232
31034,18495,34156
31060,18500,34144
31152,18463,34294
31256,18461,34297
31292,18460,34397
31236,18438,34460
31224,18475,34444
31192,18461,34392
31156,18505,34420
31057,18504,34399
31104,18487,34344
31380,18493,34284
31520,18457,34229
31636,18455,34228
31840,18439,34252
31836,18428,34293
31644,18447,34306
31484,18453,34293
31505,18479,34260
31490,18483,34239
31468,18486,34182
31580,18465,34164
31716,18469,34064
31897,18461,34020
32112,18425,34043
32101,18450,34037
31960,18434,34036
31840,18465,33746
31792,18460,33911
31733,18492,33985
31820,18500,33925
31928,18460,33952
32000,18453,33685
32164,18471,33805
32336,18428,33793
32282,18436,33952
32131,18429,33959
31973,18469,33943
31764,18467,33858
31660,18465,33812
31880,18473,33781
32128,18449,33769
32196,18460,33663
32100,18421,33729
32144,18398,33649
31975,18416,33639
31840,18407,33559
32048,18454,33639
32292,18444,33640
32236,18476,33655
32289,18454,33636
32532,18432,33527
32564,18445,33614
32636,18410,33708
32644,18437,33620
32356,18404,33575
32076,18399,33525
31972,18425,33630
32048,18471,33616
32140,18449,33636
32224,18438,33477
32424,18424,33363
32660,18423,33493
32805,18380,33484
32804,18403,33479
32728,18379,33440
32568,18380,33438
32448,18409,33421
32348,18411,33358
32260,18448,33302
32256,18427,33478
32404,18436,33476
32484,18404,33494
32564,18409,33492
32596,18367,33297
32562,18356,33156
32369,18404,33143
32096,18400,33375
32018,18401,33140
32080,18423,33237
32252,18402,33172
32516,18411,33105
32748,18374,33103
32798,18394,33330
32888,18349,33093
32864,18382,33082
32625,18356,33239
32376,18401,33234
32238,18391,33079
32261,18401,33065
32468,18421,33063
32536,18393,33303
32556,18393,33071
32680,18347,33273
32776,18367,33292
32592,18348,33287
32424,18381,33276
32376,18389,33260
32272,18384,33256
32293,18411,33254
32416,18395,33237
32641,18412,33207
32696,18389,32964
32840,18396,33116
32968,18353,33100
32828,18349,33092
32660,18348,33093
32440,18390,33052
32432,18391,33045
32492,18429,33062
32520,18408,33188
32636,18384,33182
32776,18380,33185
32960,18370,33143
33144,18335,33097
33040,18359,33148
32880,18345,33228
32762,18405,33191
32576,18391,33183
32436,18393,33185
32376,18405,33117
32293,18398,33165
32320,18357,33116
32564,18354,33044
32808,18325,33060
32830,18373,33060
32964,18356,32925
32888,18373,32801
32780,18367,32764
32625,18413,33015
32668,18397,32981
32928,18359,32858
33037,18376,32997
33080,18350,33064
33160,18316,33057
33157,18329,32942
33048,18326,33047
32892,18386,33012
32760,18369,32940
32669,18368,32834
32704,18404,32679
32788,18365,32920
32944,18335,32758
33048,18333,32995
33020,18304,32913
32848,18329,32932
32700,18327,32853
32700,18331,32735
32676,18356,32700
32616,18356,32580
32588,18373,32804
32680,18343,32823
32868,18370,32778
33032,18325,32757
33172,18311,32888
33192,18293,32844
32890,18317,32766
32684,18319,32663
32625,18375,32495
32648,18355,32727
32652,18346,32740
32588,18350,32732
32732,18314,32700
32960,18332,32653
33032,18296,32566
33109,18279,32782
33248,18325,32687
32804,18326,32600
32248,18316,32548
32220,18387,32652
32524,18356,32625
32672,18332,32628
32844,18297,32572
33068,18291,32524
33230,18268,32577
33092,18287,32633
33096,18292,32705
33072,18349,32697
33076,18325,32655
33112,18321,32589
33006,18357,32565
32988,18318,32471
33133,18287,32508
33241,18294,32572
33292,18275,32448
33166,18256,32448
32977,18298,32396
32873,18303,32420
32804,18299,32361
32748,18322,32367
32656,18313,32485
32664,18336,32503
32804,18291,32263
32912,18252,32245
33104,18258,32463
33136,18253,32480
32984,18291,32468
32832,18285,32230
32772,18284,32329
32688,18319,32247
32670,18293,32289
32728,18311,32340
32980,18281,32325
33176,18244,32248
33197,18250,32174
33184,18236,32212
33020,18276,32181
32756,18276,32383
32680,18275,32378
32664,18304,32377
32660,18291,32377
32796,18303,32357
32932,18261,32366
32944,18240,32228
33008,18220,32437
32916,18233,32306
32688,18224,32243
32510,18293,32313
32452,18281,32279
32408,18277,32217
32508,18304,32165
32532,18273,32175
32772,18278,32252
33070,18241,32263
33336,18206,32274
33366,18220,32263
33372,18215,32254
33260,18252,32247
33200,18255,32239
33056,18257,32215
33184,18275,32184
33376,18248,32080
33430,18228,32295
33584,18209,32231
33592,18212,32128
33500,18207,31999
33294,18206,31956
33153,18236,32037
33164,18229,32035
33132,18265,32015
33200,18245,31921
33272,18225,31875
33372,18237,31927
33316,18206,31848
33260,18212,31831
33262,18188,31820
33068,18189,32047
32988,18253,31959
33032,18236,31951
32852,18245,32103
32940,18224,32103
33224,18239,32060
33364,18204,32025
33152,18174,31861
32844,18160,31836
32774,18178,31849
32820,18171,31844
32832,18209,31833
32832,18206,31860
32936,18244,31815
33245,18216,31807
33368,18248,31781
33400,18183,31801
33452,18152,31751
33448,18171,31760
33244,18147,31660
32920,18197,31660
32528,18185,31655
32232,18225,31658
31808,18220,31615
31496,18199,31804
30980,18214,31785
30372,18176,31792
29616,18194,31776
28392,18148,31740
26812,18147,31641
25089,18145,31620
23580,18174,31705
22516,18190,31814
22176,18204,31743
22522,18201,31597
23512,18187,31456
26006,18165,31668
29753,18169,31669
34360,18130,31648
40401,18202,31644
46936,18146,31628
53192,18130,31628
58996,18214,31609
64120,18204,31568
65535,18302,31564
65535,18179,31508
65535,18144,31596
65535,18186,31504
65535,18142,31620
65408,18269,31564
65180,18147,31430
64940,18180,31519
64704,18136,31540
58024,18233,31524
49648,18208,31497
42616,18236,31512
38020,18172,31509
35436,18124,31507
33596,18126,31480
32020,18117,31454
30792,18172,31384
29740,18161,31521
28784,18162,31538
28228,18178,31348
27748,18159,31393
27532,18169,31449
27480,18139,31432
27409,18123,31328
27456,18091,31508
27264,18107,31434
27021,18108,31399
26704,18138,31312
26560,18143,31140
26808,18153,31364
26828,18162,31350
26648,18148,31316
26736,18120,31260
26860,18103,31414
26916,18085,31397
26936,18095,31365
26750,18095,31252
26452,18108,31176
26384,18140,31117
26394,18144,31284
26645,18137,31296
27128,18117,31250
27641,18113,31278
27936,18091,31281
28084,18064,31263
28148,18084,31261
28024,18078,31267
27876,18092,31254
27700,18127,31218
27676,18132,31213
27784,18116,31348
28016,18124,31253
28168,18103,31037
28292,18073,31263
28433,18055,31257
28376,18078,31249
28236,18070,31258
28144,18078,31239
28226,18115,31193
28192,18107,31165
28340,18109,31256
28556,18089,31117
28756,18102,31236
28934,18076,31132
29008,18049,31300
29020,18054,31125
28878,18052,31088
28840,18084,30976
28868,18099,31204
28788,18090,31175
28992,18104,31124
29190,18084,31261
29388,18058,31119
29476,18047,31031
29580,18031,30941
29596,18030,31140
29396,18054,31111
29388,18069,31000
29390,18071,31200
29484,18105,31184
29656,18087,30981
29808,18072,30871
30016,18044,31057
30064,18031,31153
30328,18037,30996
30364,18037,30940
30288,18023,30824
30344,18062,31027
30392,18069,31036
30436,18068,30997
30628,18111,31100
30868,18065,31060
30953,18037,31038
31032,18048,30975
31405,18025,30781
31605,18021,30980
31672,18020,30975
31740,18044,30964
31845,18048,30961
31876,18077,30924
32176,18052,30864
32676,18075,30820
32868,18047,30904
32956,17999,30953
33108,18007,31004
33356,17996,30919
33556,18028,30948
33548,18015,30964
33560,18077,30913
33710,18055,30951
33844,18071,30876
34008,18039,30753
34112,18050,30708
34232,18009,30800
34488,18016,30792
34596,17987,30808
34496,18029,30802
34388,18015,30776
34421,18019,30656
34306,18060,30677
34292,18030,30785
34624,18052,30802
34790,18003,30689
34950,18024,30737
34960,17982,30781
34800,17963,30735
34508,18045,30557
34192,18015,30468
33928,18029,30649
33640,18013,30634
33437,18042,30601
33320,18021,30492
33252,17982,30668
33020,18009,30439
32848,17958,30560
32730,17962,30460
32516,18008,30521
32169,17985,30589
31904,17991,30560
31865,18007,30574
32040,18035,30361
32112,17984,30391
32072,17961,30349
32096,17953,30436
32133,17970,30421
31916,17954,30420
31712,17973,30196
31462,17971,30173
31328,18022,30183
31197,17986,30149
31305,17979,30178
31436,17973,30148
31434,17940,30223
31428,17940,30151
31520,17911,30293
31498,17911,30295
31440,17940,30284
31460,17937,30245
31432,17987,30167
31252,17971,30236
31128,17989,30239
31236,17950,30221
31452,17957,30013
31513,17924,30204
31636,17893,30191
31616,17927,30193
31556,17925,30169
31508,17924,30152
31276,17948,30148
31364,17948,30141
31752,17958,30132
31816,17925,30128
31772,17940,30128
31880,17902,30118
31908,17918,30105
31864,17888,30095
31804,17892,30052
31848,17945,29980
31756,17944,30145
31677,17952,30086
31768,17927,30029
31924,17912,29902
32002,17922,29814
31996,17877,29840
32024,17869,30006
31840,17875,29996
31688,17877,29956
31736,17919,29876
31732,17919,30021
31636,17927,29985
31688,17908,29880
31908,17938,29792
31912,17890,29808
31864,17901,29880
32044,17850,29979
32230,17878,29962
32084,17875,29876
31960,17920,29796
31996,17911,29690
31844,17927,29838
31708,17902,29797
31964,17906,29700
32220,17879,29790
32476,17896,29853
32508,17848,29738
32361,17844,29637
32132,17851,29545
31944,17892,29541
31905,17889,29725
31996,17893,29697
32229,17934,29660
32512,17889,29569
32578,17857,29660
32664,17863,29638
32660,17846,29664
32452,17827,29496
32260,17854,29404
32125,17853,29582
32068,17906,29576
31960,17888,29512
32024,17885,29557
32218,17871,29532
32364,17847,29440
32504,17861,29453
32728,17831,29516
32548,17813,29517
32448,17849,29442
32433,17887,29460
32245,17865,29456
32132,17868,29428
32288,17868,29236
32526,17848,29204
32580,17836,29253
32789,17813,29341
33140,17820,29390
33248,17804,29294
32996,17809,29167
32828,17855,29228
32646,17861,29319
32548,17917,29302
32564,17869,29244
32640,17836,29159
32625,17863,29276
32728,17809,29324
32748,17846,29305
32744,17806,29254
32784,17851,29300
32621,17836,29257
32480,17871,29261
32600,17865,29214
32728,17840,29058
32820,17858,28967
32912,17825,29160
32780,17791,29143
32628,17812,29049
32764,17781,29122
32800,17828,29133
32680,17828,29119
32662,17871,29125
32516,17839,29108
32496,17829,29103
32832,17839,29079
33001,17796,29093
33060,17813,29076
33058,17767,29095
32944,17788,29090
32844,17775,29081
32812,17806,28876
32780,17813,29063
32636,17817,29071
32624,17820,29074
32832,17804,29045
32889,17820,29048
32820,17767,29052
32900,17769,29060
33006,17753,28866
32956,17773,28911
32848,17777,28983
32708,17805,29006
32656,17803,29052
32804,17828,29036
32944,17799,29022
32933,17815,29088
32974,17768,29088
32989,17775,28916
32904,17755,28932
32892,17773,28958
32908,17765,29000
32732,17804,28992
32684,17798,28975
32933,17823,28807
33040,17777,28772
33200,17764,28828
33264,17745,28908
33276,17746,29028
33300,17733,29020
33148,17749,28881
33060,17817,28816
33040,17784,28821
32720,17783,28805
32620,17808,28993
32813,17788,28838
33048,17751,28743
33294,17756,28740
33332,17737,28892
33400,17714,28783
33304,17767,28949
33156,17765,28742
33100,17761,28707
32976,17807,28679
33028,17781,28860
33204,17757,28821
33256,17740,28788
33168,17743,28895
33198,17715,28761
33172,17711,28688
33128,17749,28644
33008,17740,28814
32932,17754,28807
32832,17759,28772
32864,17788,28861
32976,17764,28804
33104,17725,28646
33196,17710,28787
33253,17755,28716
33176,17730,28852
33100,17726,28636
32974,17726,28628
32792,17777,28633
32724,17759,28759
32880,17743,28767
33088,17766,28746
33304,17739,28724
33404,17698,28743
33464,17698,28692
33328,17685,28676
33121,17726,28613
33008,17710,28740
32712,17744,28545
32584,17737,28564
32840,17767,28713
33144,17743,28710
33284,17703,28521
33402,17701,28556
33580,17679,28572
33612,17711,28664
33511,17688,28728
33304,17730,28581
33072,17722,28669
32972,17767,28666
33084,17733,28650
33176,17753,28700
33232,17709,28505
33260,17738,28556
33244,17672,28750
33144,17714,28700
33128,17696,28736
33056,17748,28634
32912,17717,28573
32936,17717,28598
32996,17753,28583
33112,17719,28660
33240,17736,28685
33354,17677,28679
33424,17650,28687
33340,17684,28679
33228,17674,28692
33176,17724,28517
33088,17713,28502
33004,17741,28524
33060,17717,28555
33182,17695,28512
33288,17691,28500
33340,17658,28549
33392,17656,28560
33412,17649,28554
33292,17652,28520
33096,17683,28562
32912,17686,28584
32940,17716,28577
33054,17694,28596
33149,17727,28580
33341,17689,28590
33424,17641,28594
33404,17664,28565
33352,17645,28728
33181,17646,28768
33053,17657,28745
32952,17695,28684
32924,17691,28714
32980,17726,28790
33140,17690,28845
33280,17649,28857
33352,17665,28828
33400,17635,28849
33284,17621,28837
33160,17671,28881
33000,17670,28844
32824,17665,28893
32706,17690,28763
32728,17673,28724
32784,17689,28778
32904,17647,28775
32824,17648,28828
32956,17610,28874
33092,17632,28694
33118,17620,28725
32892,17670,28702
32848,17664,28725
32800,17666,28756
32868,17689,28762
32980,17655,28820
33048,17637,28800
33024,17633,28886
33264,17604,28900
33356,17607,28836
33360,17647,28838
33368,17642,28863
33272,17654,28875
33216,17717,28860
33337,17687,28865
33360,17653,28908
33344,17671,28928
33428,17622,28924
33481,17591,28916
33552,17637,28942
33460,17623,28909
33180,17637,29124
32921,17641,29128
32940,17687,29156
33216,17660,29172
33346,17637,29182
33444,17652,29205
33444,17609,29229
33440,17588,29237
33360,17609,29261
33220,17600,29252
33052,17653,29110
32856,17645,29157
32805,17687,29191
32932,17657,29318
33112,17671,29411
33200,17638,29460
33190,17603,29484
33194,17614,29511
33188,17604,29532
33160,17601,29567
33100,17617,29440
33042,17679,29413
32832,17671,29388
32801,17656,29386
32928,17652,29612
33024,17612,29433
33022,17648,29540
32789,17614,29501
32545,17605,29575
32160,17605,29616
31744,17637,29649
31004,17640,29789
30124,17646,29852
29353,17665,29927
28113,17649,29977
26590,17624,29917
25184,17593,30044
24152,17600,30022
23324,17604,30073
23000,17612,30103
23052,17636,30138
24153,17652,30176
26956,17655,30161
30928,17672,30253
36096,17634,30276
42440,17652,30300
49148,17604,30265
55364,17692,30244
61104,17592,30308
64816,17580,30336
65535,17686,30391
65535,17653,30496
65535,17624,30577
65535,17704,30564
65272,17657,30583
65020,17716,30581
64800,17629,30628
64560,17616,30681
64320,17562,30772
56008,17582,30608
47712,17686,30646
40960,17662,30592
36648,17654,30820
33854,17646,30791
32148,17665,30888
31224,17628,30885
30600,17598,30876
30112,17620,30977
29480,17598,31125
28701,17604,30937
27552,17616,30868
26956,17634,31133
27104,17652,31148
27404,17641,31164
27564,17621,31199
27657,17631,31112
27520,17601,31214
27176,17581,31341
26956,17607,31263
27076,17612,31084
27311,17615,31336
27229,17629,31361
27160,17650,31390
27104,17634,31368
27260,17618,31308
27418,17623,31527
27552,17590,31564
27704,17570,31596
27760,17585,31530
27669,17593,31636
27489,17597,31655
27428,17631,31631
27482,17634,31551
27604,17620,31540
27636,17628,31568
27560,17597,31532
27800,17572,31544
28144,17575,31604
28192,17565,31600
28176,17592,31704
28160,17593,31740
28192,17605,31631
28120,17629,31681
28180,17615,31735
28320,17629,31958
28404,17588,31884
28428,17582,31934
28568,17555,32073
28681,17591,32069
28602,17574,32161
28424,17581,32225
28437,17606,32096
28544,17608,32218
28692,17629,32287
28924,17605,32260
29100,17580,32217
29264,17593,32137
29416,17555,32196
29408,17551,32197
29292,17584,32096
29128,17592,32367
28932,17580,32388
28820,17620,32417
28958,17604,32431
29295,17607,32456
29728,17583,32476
30064,17607,32500
30304,17552,32510
30312,17551,32536
30360,17567,32551
30324,17605,32407
30273,17609,32487
30236,17606,32519
30348,17613,32564
30525,17627,32708
30532,17599,32697
30624,17597,32568
30868,17564,32665
30912,17588,32714
30888,17577,32727
30944,17580,32761
31072,17623,32537
31312,17605,32692
31461,17632,32766
31649,17596,32816
31892,17604,32903
32113,17566,32909
32336,17582,32791
32460,17565,32865
32480,17561,32853
32438,17599,32916
32432,17601,32948
32432,17639,32965
32556,17623,32980
32925,17630,33018
33328,17584,33028
33576,17600,33044
33777,17556,33044
33892,17591,32978
33932,17575,32985
33960,17612,33135
33996,17593,33225
33988,17623,33058
34108,17608,33153
34297,17604,32946
34504,17582,33060
34616,17572,33087
34752,17551,33268
34820,17561,33308
34756,17564,33308
34580,17597,33082
34372,17599,33167
34132,17626,33255
34076,17646,33247
34180,17612,33100
34250,17632,33061
34148,17580,33016
34068,17603,33094
33944,17564,33068
33696,17558,33124
33444,17616,33039
33088,17605,33198
32716,17648,33308
32500,17619,33383
32464,17593,33305
32284,17591,33185
32149,17552,33319
32148,17578,33335
31949,17561,33343
31560,17593,33086
31392,17598,33281
31200,17623,33460
31129,17604,33224
31205,17634,33344
31441,17599,33340
31636,17571,33393
31624,17574,33412
31640,17538,33149
31552,17559,33181
31408,17552,33350
31232,17591,33375
30936,17603,33276
30716,17594,33430
30880,17625,33245
31060,17580,33371
31252,17596,33428
31384,17548,33529
31432,17575,33652
31385,17550,33671
31344,17551,33708
31208,17601,33695
31120,17603,33636
31088,17593,33542
31112,17610,33543
31164,17579,33637
31160,17585,33710
31156,17543,33727
31260,17545,33479
31456,17527,33558
31468,17577,33570
31230,17567,33620
31100,17574,33586
31072,17596,33598
31276,17596,33863
31480,17617,33616
31596,17562,33657
31769,17543,33934
31909,17558,33937
31980,17545,33791
31899,17532,33815
31824,17588,33953
31808,17586,34112
31808,17577,34150
31865,17601,34172
31872,17581,34191
31984,17549,34189
32038,17551,34129
32006,17519,34044
31858,17542,34081
31688,17529,34158
31508,17568,33908
31392,17591,34258
31476,17580,34138
31668,17602,34177
31680,17565,34254
31868,17577,34119
32044,17531,34337
32140,17527,34197
32180,17548,34015
31936,17533,34306
31705,17558,34221
31688,17613,34341
31749,17577,34325
31864,17583,34336
31932,17578,34285
32004,17539,34405
32086,17531,34408
32160,17509,34396
32130,17521,34391
31984,17558,34161
31860,17540,34493
31764,17574,34326
31576,17609,34490
31568,17564,34446
31788,17572,34540
31980,17537,34492
32005,17542,34517
31925,17543,34476
32016,17516,34644
32090,17559,34677
32287,17547,34446
32404,17598,34604
32388,17585,34497
32424,17602,34727
32500,17564,34528
32620,17530,34617
32464,17525,34661
32409,17564,34628
32260,17530,34823
32208,17564,34657
32376,17539,34746
32353,17571,34652
32332,17557,34728
32476,17577,34743
32192,17543,34844
32084,17540,34933
32400,17506,34732
32584,17503,34868
32644,17502,34589
32700,17519,34813
32717,17525,34896
32640,17549,35019
32616,17604,34881
32656,17559,34848
32788,17539,34951
32896,17553,34988
32880,17528,35015
32865,17493,35022
32804,17526,35051
32660,17509,35108
32568,17587,35102
32404,17547,35133
32316,17551,35172
32368,17565,34932
32504,17535,34916
32576,17540,34968
32604,17503,34960
32720,17505,35177
32820,17493,35220
32740,17548,35246
32576,17543,35237
32528,17548,35257
32496,17549,35108
32544,17587,35415
32636,17546,35444
32848,17525,35408
32988,17502,35372
32952,17550,35492
32960,17516,35668
32857,17519,35511
32756,17528,35497
32660,17552,35627
32532,17547,35525
32544,17592,35647
32688,17556,35797
32824,17524,35812
32896,17504,35772
32988,17524,35666
32964,17504,35481
32832,17511,35772
32592,17564,35828
32428,17561,35825
32440,17572,35824
32617,17551,35864
32864,17568,35773
33004,17530,35793
32985,17538,35853
32964,17503,35956
33040,17492,35996
33104,17538,36080
32968,17537,36129
32828,17584,36154
32616,17564,36205
32620,17553,36127
32877,17535,35982
33128,17535,35915
33168,17501,36093
33109,17496,36242
33004,17528,36321
32844,17508,36312
32872,17516,36356
32864,17573,36359
32865,17554,36352
33038,17543,36324
33192,17567,36238
33288,17527,36268
33300,17495,36329
33328,17497,36327
33272,17486,36364
33102,17529,36381
32892,17538,36287
32708,17527,36151
32548,17570,36281
32692,17543,36278
32908,17572,36373
33166,17529,36396
33332,17489,36246
33380,17496,36438
33360,17481,36508
33284,17513,36420
33140,17515,36541
32941,17525,36560
32848,17573,36644
32956,17542,36485
33084,17528,36688
33120,17549,36709
33196,17508,36727
33356,17515,36430
33302,17496,36566
33168,17538,36727
33132,17518,36735
33049,17529,36762
32977,17532,36583
32998,17544,36695
33096,17518,36567
33208,17498,36915
33373,17487,36623
33488,17463,36636
33288,17503,36967
33060,17503,36998
32888,17501,37008
32852,17545,37012
32860,17532,36981
32868,17524,37152
32942,17544,37174
32988,17506,37140
33073,17474,37057
33108,17490,37068
33068,17473,37070
32948,17472,37192
32780,17522,37197
32729,17517,37084
32716,17514,37281
32472,17518,37326
32105,17524,37208
32424,17502,37145
33116,17461,37329
33424,17488,37351
33492,17459,37348
33398,17476,37315
33368,17480,37316
33185,17547,37260
32714,17526,37248
32400,17508,37297
32465,17533,37406
32848,17495,37421
32864,17464,37441
32852,17460,37477
33108,17445,37568
33554,17497,37562
33408,17494,37615
33280,17542,37712
33284,17518,37677
33288,17503,37648
33512,17494,37593
33540,17487,37661
33404,17450,37818
33444,17464,37796
33304,17442,37721
33336,17487,37648
33456,17489,37663
33408,17487,37764
33344,17515,37823
33380,17495,37854
33437,17509,37885
33432,17474,37880
33448,17446,37927
33500,17472,37612
33420,17446,37877
33272,17453,37655
33232,17525,37839
33168,17497,37936
32996,17497,37864
32840,17488,38016
32752,17498,37991
32892,17471,37991
33116,17487,38062
33348,17440,38202
33376,17431,38215
33232,17478,38263
33068,17474,38151
32928,17474,38189
32801,17523,38279
32776,17500,38297
33032,17537,38181
33116,17467,38113
33068,17433,38191
33072,17444,38087
33124,17428,38204
32966,17476,38277
32804,17456,38292
32721,17477,38264
32792,17481,38256
33020,17490,38289
33244,17465,38277
33396,17485,38332
33608,17449,38335
33824,17413,38313
33540,17444,38343
32913,17440,38356
32685,17479,38180
32976,17470,38380
33308,17501,38455
33332,17491,38407
33516,17508,38236
33600,17455,38356
33780,17425,38389
33988,17434,38361
33856,17410,38311
33536,17455,38389
33305,17445,38432
33285,17505,38356
33208,17485,38420
33032,17468,38380
32680,17471,38357
32724,17449,38072
33336,17423,38060
33680,17437,38060
33580,17407,38357
33336,17457,38332
33144,17444,38311
33072,17445,38330
32904,17476,38352
32885,17466,38062
33144,17510,38132
33256,17454,38052
33076,17424,38233
32924,17441,38365
33060,17418,38357
33150,17406,38292
33174,17448,38325
33080,17444,38310
32804,17489,38340
32684,17453,38453
32656,17454,38508
32676,17428,38471
32396,17439,38525
32132,17404,38516
31548,17433,38474
30648,17417,38326
29877,17426,38358
28832,17461,38332
27220,17457,38372
25616,17484,38370
24324,17460,38304
23466,17439,38364
23022,17418,38316
23325,17415,38332
23944,17415,38236
25172,17417,38208
28104,17449,38228
32364,17446,38304
37932,17496,38303
44492,17460,38272
50964,17420,38288
56924,17432,38320
62280,17385,38276
65000,17452,38284
65535,17422,38317
65535,17505,38308
65452,17474,38279
65236,17484,38277
65004,17447,38233
64760,17485,38208
64524,17461,38189
64304,17406,38397
59312,17444,38372
50752,17424,38304
43592,17481,38225
39148,17439,38044
36532,17444,38236
34648,17444,38244
33068,17481,38258
31716,17471,38248
30574,17439,38249
29860,17452,38232
29380,17416,38220
29072,17407,38183
28808,17393,38173
28229,17437,38092
27800,17430,38142
27592,17439,38292
27380,17476,38215
27268,17461,38272
27372,17439,38244
27469,17415,38213
27505,17399,38181
27572,17396,38040
27536,17391,37696
27448,17410,38056
27333,17408,38023
27220,17445,37997
27156,17448,37965
27241,17437,37946
27418,17441,37860
27560,17408,37919
27696,17416,37954
27824,17400,37957
27856,17381,37740
27761,17388,37554
27620,17431,37895
27548,17431,37895
27456,17435,37833
27544,17460,37796
27688,17428,37705
28065,17413,37824
28348,17412,37711
28488,17377,37791
28328,17372,37889
28056,17383,37848
28118,17413,37820
28220,17425,37743
28305,17429,37648
28444,17450,37432
28594,17420,37772
28888,17396,37767
29204,17400,37406
29444,17367,37668
29468,17391,37796
29420,17376,37781
29332,17411,37700
29188,17407,37573
28984,17442,37627
29044,17418,37543
29342,17431,37493
29552,17404,37545
29664,17374,37494
29804,17373,37511
29780,17358,37526
29744,17399,37479
29876,17396,37444
30008,17439,37455
29908,17434,37469
29936,17445,37424
30312,17410,37156
30668,17431,37058
30948,17382,37361
31060,17356,37359
31060,17392,37330
31100,17388,37311
31108,17385,37255
30997,17412,37244
30996,17471,37231
31156,17423,37205
31412,17399,37172
31644,17399,37135
31666,17360,36951
31812,17385,37021
31926,17365,36976
31912,17362,36944
31948,17388,37016
32080,17400,37012
32308,17426,36794
32580,17411,36853
32972,17415,36871
33392,17377,36831
33648,17360,36811
33700,17376,36766
33777,17352,36615
33988,17392,36636
34132,17388,36600
34253,17399,36580
34436,17447,36620
34748,17425,36705
34916,17472,36604
35056,17386,36421
35360,17357,36462
35576,17376,36462
35620,17361,36441
35460,17418,36420
35261,17394,36072
35180,17423,36288
35136,17429,36245
35254,17476,36229
35372,17410,36332
35480,17439,36288
35576,17362,36179
35604,17391,36223
35464,17353,36100
35184,17359,36023
34792,17397,36048
34520,17431,36093
34364,17412,35982
34256,17468,36071
34224,17391,36028
34220,17361,35992
34080,17366,35804
33818,17339,35781
33360,17366,35749
32844,17353,35708
32508,17394,35551
32216,17404,35598
31892,17437,35637
31724,17405,35580
31677,17381,35559
31664,17398,35508
31492,17359,35344
31264,17353,35502
31040,17334,35508
30942,17377,35376
30852,17369,35275
30776,17374,35234
30632,17415,35036
30589,17396,35252
30568,17373,34956
30789,17353,35193
30736,17346,35177
30588,17341,35124
30569,17324,34836
30628,17364,34934
30704,17354,34956
30512,17392,35037
30408,17397,34929
30572,17379,34949
30789,17394,34841
30876,17357,34868
30912,17356,34956
30951,17314,34772
30884,17339,34749
30736,17342,34719
30496,17377,34695
30108,17378,34616
29952,17378,34590
30249,17390,34618
30504,17357,34554
30744,17384,34479
30904,17335,34468
31116,17309,34457
31256,17327,34393
31292,17324,34460
31120,17345,34452
31056,17354,34423
30964,17388,34429
30948,17420,34413
30916,17372,34340
30952,17343,34208
31072,17336,34295
31224,17307,34410
31148,17353,34294
30970,17344,34148
30900,17349,34055
30904,17350,34180
30948,17408,34144
30852,17382,34012
30888,17352,34229
31072,17332,34141
31136,17313,33981
31468,17316,33973
31602,17312,33783
31485,17361,33759
31456,17339,33705
31412,17340,33855
31180,17396,33914
31040,17360,33666
31244,17342,33888
31692,17348,33863
31772,17318,33786
31709,17300,33757
31760,17319,33877
31776,17303,33861
31724,17358,33721
31738,17363,33737
31472,17353,33660
31516,17380,33479
31880,17348,33452
32056,17329,33584
32140,17312,33425
32256,17287,33581
32317,17291,33543
32276,17336,33444
32052,17324,33485
31936,17373,33422
31756,17354,33366
31562,17341,33273
31616,17362,33220
31804,17325,33061
32037,17299,33088
32209,17339,33049
32408,17317,33213
32492,17321,33177
32436,17308,33149
32388,17342,32929
32357,17337,32958
32294,17382,32807
32364,17334,32792
32317,17306,33018
32352,17328,32750
32540,17296,32719
32556,17280,32758
32382,17316,32668
32224,17325,32868
32296,17319,32876
32368,17362,32845
32416,17340,32815
32557,17323,32667
32672,17303,32684
32668,17304,32650
32640,17268,32681
32392,17273,32606
32252,17294,32609
32224,17300,32639
32144,17360,32583
32252,17347,32476
32584,17324,32472
32704,17346,32444
32808,17308,32489
32878,17274,32528
32932,17290,32526
32852,17289,32613
32708,17277,32519
32532,17320,32516
32452,17320,32358
32330,17326,32197
32336,17318,32174
32553,17329,32263
32776,17315,32399
32965,17274,32382
33188,17274,32377
33216,17273,32356
32996,17281,32330
32704,17311,32129
32476,17310,32069
32372,17327,32220
32556,17316,32382
32776,17327,32161
33004,17282,32262
33128,17286,32239
33132,17249,32244
33084,17276,32000
32968,17312,32254
32820,17287,32318
32804,17359,32066
32825,17318,32189
32848,17373,32160
32760,17315,32071
33072,17303,32213
33336,17261,32135
33392,17287,32100
33372,17255,32128
33220,17268,32124
32916,17274,31996
32696,17312,32080
32544,17303,31965
32568,17327,32032
32940,17301,31988
33162,17278,31932
33292,17285,31902
33247,17264,31813
33072,17248,31990
32980,17306,32001
32932,17284,31964
32832,17290,31879
32912,17333,31949
32917,17306,31904
32908,17356,31916
33127,17301,32020
33334,17271,31993
33472,17279,31838
33412,17263,31772
33256,17295,31874
33112,17272,31860
33024,17329,31879
32900,17308,31864
32908,17290,31860
33032,17300,31627
33132,17278,31813
33144,17285,31582
33232,17246,31696
33150,17280,31727
32976,17250,31796
32865,17303,31880
32604,17293,31852
32538,17316,31631
32989,17291,31623
33140,17293,31708
33255,17261,31725
33358,17264,31479
33156,17276,31559
32896,17235,31713
32944,17273,31772
33076,17257,31532
33124,17291,31631
33080,17285,31647
32964,17301,31630
33020,17268,31623
33136,17273,31596
33276,17286,31368
33476,17237,31468
33640,17248,31623
33536,17238,31648
33360,17287,31612
33176,17278,31556
32982,17305,31384
32937,17281,31484
33018,17292,31506
33104,17294,31487
33164,17244,31264
33316,17255,31366
33326,17223,31415
33109,17253,31476
32808,17252,31388
32704,17308,31317
32776,17289,31295
32964,17318,31470
33124,17276,31469
33252,17284,31465
33344,17231,31332
33393,17235,31228
33408,17220,31230
33260,17244,31307
33084,17309,31329
32912,17274,31320
32844,17301,31308
32944,17276,31147
33030,17284,31246
33001,17288,31348
33044,17230,31326
33329,17242,31122
33328,17223,31221
33200,17228,31196
33160,17251,31201
33164,17264,31207
33040,17311,31109
33052,17287,31265
33232,17260,31269
33400,17273,31217
33508,17247,31253
33424,17208,31212
33344,17234,31141
33252,17225,31152
33068,17277,31206
33076,17263,31133
33029,17307,31003
33028,17289,31017
33132,17269,30992
33192,17257,31014
33312,17217,31064
33366,17231,31042
33288,17218,30932
33132,17222,31073
32884,17256,31125
32692,17257,30973
32520,17308,30997
32714,17268,31023
32968,17248,30975
33162,17249,30967
33176,17213,30901
33196,17211,30949
33112,17208,30981
33020,17236,30776
33048,17276,30860
32940,17253,30991
32968,17293,31061
32986,17281,30948
33244,17249,30893
33460,17254,30926
33472,17234,30913
33412,17198,30932
33260,17207,30916
33356,17207,30804
33280,17229,30960
32988,17248,30893
32836,17263,30791
32944,17252,30862
33060,17253,30893
33176,17218,30861
33320,17226,30651
33417,17190,30816
33468,17211,30911
33364,17196,30828
33336,17249,30871
33300,17237,30627
33268,17288,30741
33200,17257,30716
33241,17235,30735
33400,17231,30756
33564,17201,30911
33684,17204,30884
33654,17188,30684
33556,17215,30799
33528,17210,30591
33400,17267,30568
33272,17268,30571
33256,17277,30727
33280,17237,30847
33328,17281,30845
33340,17204,30834
33372,17245,30628
33337,17194,30727
33240,17193,30751
33096,17240,30740
32980,17226,30745
32916,17254,30621
32996,17233,30738
33088,17236,30798
33172,17209,30582
33145,17202,30590
33125,17176,30628
33196,17196,30621
33176,17190,30604
33044,17235,30664
32968,17223,30665
32781,17260,30433
32652,17236,30513
32708,17246,30532
32988,17206,30533
33268,17228,30453
33236,17197,30437
32993,17174,30432
32856,17197,30391
32257,17202,30388
31710,17241,30599
31124,17236,30420
30478,17252,30375
29832,17214,30461
28820,17209,30500
27388,17233,30531
25816,17185,30556
24320,17190,30598
23148,17196,30620
22440,17217,30578
22373,17234,30520
22976,17252,30382
25125,17236,30471
28740,17239,30488
33232,17204,30484
39188,17191,30485
45840,17159,30450
52472,17201,30452
58440,17168,30438
63444,17248,30448
65028,17252,30416
65324,17223,30309
65228,17247,30316
65048,17200,30375
64840,17245,30414
64588,17295,30404
64372,17187,30380
64144,17152,30359
63904,17200,30372
60924,17191,30372
51884,17240,30365
44105,17232,30277
38736,17298,30392
35836,17236,30432
34008,17205,30408
32672,17201,30388
31452,17172,30414
30408,17188,30413
29516,17188,30384
28752,17209,30183
28164,17222,30185
27726,17245,30228
27408,17228,30337
27024,17241,30273
26796,17201,30234
26932,17204,30373
27180,17183,30348
27090,17192,30330
26908,17197,30312
26764,17230,30328
26846,17220,30296
26831,17251,30264
26808,17229,30108
26954,17210,30050
26996,17214,30025
26932,17181,30222
27017,17189,30234
27152,17169,30206
27252,17193,30052
27264,17192,30113
27296,17225,30292
27297,17247,30343
27421,17223,30334
27484,17220,30141
27518,17189,30254
27572,17180,30259
27644,17188,30306
27718,17173,30303
27770,17206,30096
27876,17188,30335
27748,17222,30365
27592,17219,30382
27540,17219,30272
27844,17227,30367
28304,17186,30402
28573,17199,30404
28768,17167,30212
28748,17156,30205
28616,17172,30412
28453,17214,30492
28356,17215,30533
28369,17233,30349
28457,17212,30436
28577,17219,30404
28773,17187,30491
28924,17180,30508
29200,17203,30296
29215,17160,30295
29145,17166,30408
28993,17195,30408
28990,17205,30439
28977,17228,30536
28916,17211,30558
29213,17222,30607
29446,17188,30630
29528,17196,30641
29649,17166,30609
29572,17157,30565
29460,17177,30542
29376,17184,30551
29440,17223,30416
29642,17218,30440
29873,17245,30484
30136,17214,30516
30396,17236,30545
30581,17175,30517
30800,17151,30500
30916,17181,30525
30908,17177,30520
30889,17217,30548
30852,17216,30528
30863,17215,30482
30992,17260,30461
31148,17209,30484
31334,17180,30481
31648,17197,30471
31880,17151,30533
31966,17173,30524
32036,17169,30516
32040,17216,30517
32148,17216,30527
32292,17278,30511
32544,17229,30516
32848,17252,30508
33052,17188,30511
33284,17209,30277
33528,17162,30383
33628,17195,30396
33553,17184,30374
33448,17218,30429
33516,17215,30432
33868,17250,30513
34176,17225,30512
34416,17261,30436
34532,17199,30409
34588,17201,30500
34688,17151,30500
34800,17185,30495
34820,17156,30505
34729,17192,30447
34532,17192,30361
34508,17216,30375
34516,17202,30357
34524,17223,30262
34536,17175,30244
34468,17204,30440
34320,17157,30296
34044,17141,30356
33744,17174,30313
33385,17236,30282
33136,17197,30184
32932,17229,30261
32788,17196,30276
32764,17207,30265
32745,17191,30103
32536,17147,30153
32448,17170,30204
32436,17133,30269
32276,17158,30303
31952,17162,30273
31681,17188,30129
31508,17253,30058
31392,17195,30037
31328,17173,30113
31429,17173,30156
31340,17137,30134
31268,17135,29933
31344,17127,30023
31380,17156,30183
31216,17196,30125
30969,17176,30061
30920,17209,30084
31032,17177,30064
31176,17192,29868
31248,17151,29927
31340,17158,29927
31296,17124,29980
31252,17155,30060
31160,17143,30069
31036,17183,29889
30932,17169,29932
30864,17201,29991
30948,17180,29998
31132,17193,29983
31296,17159,29972
31392,17153,29830
31476,17106,29861
31332,17125,29982
31192,17127,30038
31192,17146,30020
31260,17156,30016
31242,17180,30002
31281,17199,29807
31304,17150,29891
31420,17154,29902
31476,17145,29709
31533,17100,29822
31642,17124,29805
31582,17122,29831
31448,17159,29849
31374,17156,29885
31308,17198,29773
31425,17167,29736
31616,17150,29781
31736,17147,29703
31824,17118,29694
31776,17099,29668
31724,17127,29668
31632,17120,29676
31648,17170,29740
31656,17161,29829
31604,17191,29758
31588,17158,29716
31760,17193,29702
31892,17143,29612
31952,17113,29604
31948,17130,29671
31909,17124,29653
31836,17109,29668
31780,17136,29644
31781,17145,29622
31732,17156,29512
31766,17180,29558
31912,17157,29531
32068,17123,29589
32164,17113,29524
32136,17092,29442
32112,17109,29446
32100,17104,29495
32016,17164,29510
31928,17150,29539
31826,17155,29488
31560,17149,29428
31532,17146,29381
31984,17116,29406
32306,17117,29405
32452,17084,29367
32532,17121,29284
32428,17107,29323
32344,17113,29260
32244,17151,29270
32124,17139,29338
32132,17176,29252
32196,17149,29205
32220,17111,29196
32316,17115,29268
32488,17079,29256
32506,17110,29246
32400,17113,29208
32309,17115,29124
32264,17138,29191
32252,17135,29186
32200,17155,29183
32268,17123,29172
32465,17126,29117
32664,17094,29084
32828,17116,29085
32952,17093,29196
32828,17093,29063
32672,17141,28964
32388,17133,28913
32240,17135,28872
32260,17178,28866
32441,17129,28852
32492,17116,29047
32620,17082,28949
32756,17117,29068
32856,17087,28888
32852,17089,28823
32712,17138,28831
32708,17133,28822
32648,17133,28980
32608,17166,28953
32608,17115,28823
32620,17111,29017
32644,17114,28905
32980,17063,28903
32956,17077,28922
32768,17078,28746
32757,17117,28910
32656,17106,28884
32576,17134,28748
32640,17189,28727
32916,17124,28749
33104,17135,28785
33164,17086,28788
33340,17098,28936
33304,17063,28925
33096,17105,28847
32900,17087,28743
32781,17138,28735
32704,17121,28802
32676,17130,28845
32768,17102,28844
32900,17116,28829
32996,17068,28831
33016,17089,28812
32976,17058,28804
32888,17098,28813
32740,17094,28814
32484,17124,28612
32284,17183,28785
32444,17135,28863
32708,17144,28863
32897,17084,28698
33013,17075,28748
33124,17101,28780
33216,17061,28650
33113,17089,28572
32784,17077,28627
32472,17108,28700
32381,17111,28613
32584,17132,28605
32768,17095,28720
32844,17111,28741
32920,17058,28705
33144,17074,28728
33245,17060,28677
33216,17106,28660
33152,17076,28674
33060,17124,28694
33038,17106,28703
33076,17141,28695
33172,17117,28682
33192,17109,28476
33181,17061,28500
33228,17071,28524
33244,17044,28568
33040,17068,28588
32928,17068,28621
32836,17111,28671
32732,17148,28634
32852,17099,28572
32960,17103,28599
33080,17072,28630
33188,17076,28635
33302,17077,28605
33236,17063,28605
33072,17051,28615
32940,17087,28606
32749,17094,28588
32628,17098,28471
32760,17127,28476
32968,17093,28657
33140,17067,28630
33244,17084,28580
33298,17044,28557
33284,17038,28645
33204,17077,28573
33072,17063,28476
32984,17099,28540
32889,17103,28532
32906,17096,28557
32964,17091,28548
33152,17069,28614
33172,17088,28580
33200,17047,28585
33268,17095,28617
33168,17058,28604
33072,17059,28605
32928,17124,28463
32692,17102,28389
32564,17090,28423
32620,17106,28375
32856,17063,28368
33024,17098,28311
33232,17054,28508
33300,17033,28489
33180,17095,28376
33044,17078,28444
32836,17100,28573
32804,17159,28551
33004,17097,28532
33176,17076,28438
33244,17077,28435
33304,17039,28345
33532,17048,28364
33594,17033,28405
33448,17079,28397
33304,17076,28328
33096,17077,28340
32969,17106,28324
33144,17088,28324
33294,17098,28436
33350,17073,28423
33356,17041,28356
33474,17053,28409
33448,17048,28413
33232,17038,28317
33097,17086,28308
32952,17094,28316
32868,17148,28396
32840,17095,28393
32888,17071,28406
33077,17076,28413
33180,17033,28265
33105,17060,28236
33048,17034,28248
32862,17077,28365
32708,17076,28455
32756,17070,28399
32796,17125,28460
32924,17092,28452
33092,17061,28455
33276,17084,28439
33296,17029,28341
33344,17053,28371
33189,17042,28361
32972,17031,28369
32732,17055,28364
32428,17065,28368
32224,17094,28343
32388,17077,28345
32644,17097,28348
32756,17055,28348
33104,17076,28159
33425,17025,28183
33396,17012,28159
33248,17049,28145
33116,17039,28175
32960,17085,28184
32852,17071,28212
32965,17093,28206
33078,17053,28301
33156,17064,28244
33224,17044,28197
33228,17015,28172
33185,17024,28229
33052,17023,28386
32816,17071,28385
32544,17057,28189
32408,17100,28239
32428,17076,28224
32652,17058,28271
32920,17048,28308
33102,17086,28305
33188,17014,28115
33232,17009,28159
33120,17037,28128
32976,17033,28135
32860,17076,28133
32732,17061,28117
32776,17065,28105
32964,17062,28133
33093,17093,28176
33194,17031,28348
33350,17051,28349
33389,17028,28247
33312,17014,28226
33144,17065,28353
33044,17063,28270
32984,17061,28157
33048,17079,28148
33172,17051,28090
33344,17047,28148
33504,17024,28123
33444,17037,28183
33444,17012,28295
33334,17029,28295
33184,17051,28252
32956,17046,28332
32764,17091,28350
32884,17078,28318
33044,17109,28293
33204,17052,28206
33344,17012,28284
33456,17006,28107
33364,17003,28140
33096,17039,28142
32952,17023,28296
33016,17075,28337
33044,17061,28293
33132,17092,28276
33173,17060,28244
33300,17077,28165
33301,17028,28268
33456,17063,28279
33488,17005,28274
33344,17012,28088
33088,17035,28125
32904,17038,28164
32809,17064,28316
32724,17047,28228
32736,17067,28175
32660,17042,28148
32537,17005,28149
32430,17013,28207
32156,16996,28260
31592,17053,28268
30752,17044,28261
29780,17034,28077
29014,17065,28104
28033,17059,28178
26568,17055,28285
25082,17030,28319
23917,17022,28159
23136,17001,28246
22788,17009,28261
22860,17021,28068
23824,17038,28172
26333,17055,28239
30128,17058,28300
35476,17065,28296
41896,17028,28210
48672,17036,28273
55252,16973,28136
61356,17008,28286
64512,16997,28286
65256,17080,28346
65304,17064,28208
65128,17151,28196
64924,17079,28269
64704,17049,28279
64468,17117,28288
64252,17065,28284
64028,17092,28287
63800,17010,28293
57240,16992,28272
48784,17070,28280
41600,17033,28288
37180,17093,28113
34796,17076,28139
33192,17085,28277
31800,17045,28340
30664,17060,28364
29908,17019,28358
29361,17032,28201
28752,17012,28280
28244,17055,28176
27752,17043,28270
27384,17066,28292
27046,17057,28086
26912,17075,28108
26900,17044,28117
26976,17041,28167
26968,17010,28316
26912,17007,28129
26888,17015,28241
26772,17003,28226
26692,17035,28044
26672,17039,28149
26644,17058,28137
26776,17068,28206
26905,17040,28191
27073,17033,28065
27226,17004,28134
27337,16999,28283
27304,16990,28228
27152,17008,28151
27132,17018,28102
27068,17048,28189
27040,17045,28225
27244,17049,28030
27492,17053,28254
27756,17020,28097
27956,17009,28233
28104,17008,28079
28092,16983,28277
27996,17004,28145
27904,17012,28232
27752,17043,28261
27645,17070,28078
27824,17043,28192
28148,17044,28324
28260,17016,28198
28304,16996,28356
28548,16999,28197
28684,16988,28194
28696,17022,28305
28692,17012,28309
28685,17057,28133
28693,17055,28200
28788,17085,28209
28916,17040,28167
29112,17009,28188
29044,17002,28287
28938,16980,28309
29050,17001,28260
29205,17005,28218
29084,17009,28176
29150,17044,28190
29140,17037,28325
29320,17057,28348
29632,17036,28343
29836,17051,28224
29924,16999,28254
29988,16978,28268
29928,17013,28392
29857,17007,28344
29786,17008,28316
29900,17062,28271
29877,17061,28167
29932,17045,28120
30200,17025,28290
30492,17018,28300
30692,16988,28290
30905,17009,28276
30968,16983,28284
30848,17023,28281
30764,17009,28273
30852,17052,28109
31044,17036,28112
31276,17074,28116
31520,17041,28055
31764,17009,28253
32004,17021,28226
32232,16989,28132
32353,17016,28204
32364,16991,28232
32157,17023,28216
32056,17089,28021
32398,17042,28086
32829,17052,28232
33184,17093,28164
33516,17032,28071
33821,16993,28092
34092,17001,28186
34176,17040,28178
34080,17002,27981
33928,17044,27965
33952,17024,28042
34116,17049,28117
34252,17037,28020
34416,17021,28133
34676,17028,27973
34840,16986,27944
34916,16994,27971
34886,16979,27953
34754,17020,27942
34652,17002,28005
34532,17031,28135
34356,17092,27947
34288,17039,27958
34240,17063,27910
34160,17028,27945
33981,16987,27920
33852,17011,27886
33740,16989,27911
33572,17029,27953
33240,17019,27874
33032,17059,27854
32748,17045,27860
32580,17029,27828
32416,17045,27815
32392,17005,27813
32364,17012,27809
32360,16976,27803
32284,17011,27833
32076,16994,27877
31836,17031,27817
31556,17018,27783
31350,17052,27820
31328,17028,27852
31521,17028,27703
31725,16989,27732
31616,16988,27892
31472,16960,27771
31448,16974,27686
31352,16971,27799
31140,17009,27796
30948,17012,27792
30984,17054,27782
31020,17021,27768
31064,17042,27592
31133,17008,27586
31212,17026,27580
31308,16973,27594
31388,16956,27580
31308,16981,27562
31108,16983,27566
30820,17021,27573
30688,17016,27663
30952,17021,27783
31312,16999,27775
31401,16996,27745
31538,17028,27617
31728,16967,27676
31776,16956,27782
31752,17007,27740
31692,16999,27767
31524,17052,27780
31400,17018,27602
31552,17047,27698
31640,17004,27721
31740,17020,27724
31836,16967,27707
31934,16983,27552
31908,16955,27532
31784,16986,27573
31657,16980,27620
31588,17026,27758
31540,17025,27709
31552,17003,27685
31608,17010,27789
31748,16980,27612
31869,16986,27604
31981,16965,27620
31926,16996,27660
31776,16983,27655
31752,16976,27696
31776,17005,27708
31784,17071,27524
31828,17023,27573
31928,17046,27652
32041,16980,27748
32168,16981,27654
32119,16950,27532
32024,16954,27551
31980,16954,27540
31972,16987,27637
31872,16988,27600
31732,17049,27596
31768,17013,27631
32029,16991,27620
32229,17041,27664
32400,16964,27711
32480,16943,27636
32416,16959,27588
32260,16957,27588
32156,17003,27685
32048,17013,27655
32022,17047,27630
32060,17010,27726
32172,16987,27720
32349,16985,27620
32272,16957,27572
32112,16963,27604
32004,16939,27554
32237,16982,27540
32284,16997,27576
32264,16990,27560
32308,17009,27600
32428,16999,27602
32592,17007,27673
32728,16979,27685
32800,16996,27668
32816,16940,27532
32664,16972,27562
32420,16972,27545
32156,17030,27544
32132,16999,27552
32105,17059,27635
32192,17004,27760
32404,16983,27708
32704,17012,27567
32913,16974,27564
32908,16937,27572
32884,16951,27568
32816,16997,27768
32433,16972,27749
32132,17013,27628
32356,16996,27713
32649,17028,27644
32884,16999,27701
33032,16964,27645
33132,16991,27698
33140,16949,27823
33140,16932,27810
32924,16975,27640
32620,16978,27650
32512,17027,27658
32480,17017,27638
32592,17060,27647
32652,16998,27844
32748,16971,27860
32868,16945,27836
32896,16952,27791
32840,16929,27876
32745,16983,27873
32762,16971,27886
32630,16975,27820
32524,17007,27842
32512,16991,27901
32452,17006,27881
32452,16980,27941
32684,16940,27877
32980,16940,27910
33062,16996,27933
32984,16948,27962
32824,16970,27988
32760,16997,28042
32757,17036,28033
32832,17005,28033
32924,17026,28098
33012,16966,28060
33048,16941,28092
33092,16945,28097
33052,16919,28108
32941,16949,28128
32784,16955,28220
32744,16972,28253
32744,17001,28080
32820,16979,28159
32821,16994,28340
32852,17004,28308
32957,16961,28348
33047,16925,28271
32964,16941,28263
32996,16939,28275
32860,16972,28351
32740,16972,28309
32729,17025,28327
32764,16994,28353
32932,16959,28413
33040,16965,28585
33164,16977,28433
33276,16937,28453
33199,16921,28556
33056,16953,28581
32912,16944,28450
32804,16977,28512
32744,16976,28636
32532,17024,28605
32388,16989,28725
32544,16943,28749
32912,16938,28697
33116,16989,28740
33172,16934,28599
33142,16925,28661
33000,16954,28662
32872,16965,28852
32680,16991,28910
32748,16971,28802
32976,17028,28894
33176,16961,28821
33352,16925,28873
33404,16948,28844
33364,16927,28828
33213,16965,28944
33096,16966,28984
32980,16957,29021
32885,16988,29025
32756,16972,29047
32756,16957,29079
32992,16975,29084
33220,16932,29088
33250,16905,29116
33264,16931,29149
33200,16926,29177
33056,16961,28992
32908,16954,29001
32760,16994,29029
32780,16969,29055
32884,16998,29069
33165,16946,29101
33376,16921,29186
33312,16930,29303
33266,16925,29365
33268,16984,29380
33172,16967,29373
33068,16962,29309
32964,16967,29350
32904,16996,29399
32932,16956,29469
33084,16932,29514
33280,16951,29503
33380,16913,29548
33308,16943,29452
33184,16927,29535
33128,16928,29581
33032,16979,29598
32948,16960,29486
32876,16973,29548
32792,16948,29687
32896,16950,29760
33072,16911,29650
33216,16932,29665
33210,16924,29717
33096,16963,29738
32968,16943,29585
32860,16947,29599
32761,16991,29680
32724,16969,29703
32880,16963,29729
33068,16929,29741
33212,16935,29807
33260,16900,29981
33152,16931,29953
33024,16909,29869
33060,16943,29959
33056,16942,29980
32988,16988,29996
33044,16956,30009
33176,16974,29815
33241,16924,29935
33032,16925,29952
32946,16892,29978
32904,16915,30092
33036,16948,30084
33096,16930,30092
32984,16973,30125
32844,16953,30257
32848,16977,30276
33132,16933,30136
33296,16934,30106
33274,16973,30177
33296,16909,30272
33332,16933,30272
33296,16922,30084
33124,16944,30200
32896,16939,30364
32736,16963,30385
32664,16941,30447
32812,16949,30476
33004,16919,30463
33292,16927,30484
33317,16884,30365
33304,16911,30373
33144,16900,30332
32884,16960,30505
32828,16943,30468
32908,16945,30488
33004,16985,30623
32980,16937,30635
33180,16913,30532
33420,16916,30532
33536,16879,30550
33572,16900,30618
33384,16899,30631
33164,16938,30741
32992,16927,30760
32820,16975,30788
32832,16943,30707
32916,16967,30694
33096,16919,30749
33188,16913,30540
33184,16879,30548
33217,16903,30708
33081,16938,30854
32832,16911,30929
32684,16956,30791
32584,16940,30830
32628,16956,30896
32844,16927,30675
32976,16919,30757
33132,16890,30841
33300,16891,31055
33240,16901,30844
33044,16937,30985
32888,16908,30896
32760,16939,31063
32724,16980,30904
32809,16932,31049
32928,16935,31081
33228,16945,30873
33356,16908,30992
33324,16928,31009
33292,16881,31246
33173,16894,31162
33061,16895,31187
32984,16934,30960
33020,16932,31089
33106,16949,31277
33276,16914,31311
33408,16913,31126
33436,16954,31284
33534,16876,31111
33128,16898,31319
32788,16886,31256
32916,16921,31325
32884,16919,31365
32736,16949,31176
32812,16924,31300
33088,16932,31388
33305,16900,31461
33472,16892,31386
33544,16892,31470
33496,16868,31316
33349,16900,31396
33180,16937,31552
33004,16922,31573
32809,16934,31548
32904,16960,31455
33032,16915,31620
33072,16933,31596
33156,16875,31614
33253,16880,31396
33308,16863,31625
33288,16895,31751
33204,16936,31557
33028,16925,31700
32817,16993,31607
32653,16937,31733
32495,16948,31564
32406,16908,31542
32304,16911,31563
32184,16865,31716
31772,16903,31780
31056,16894,31774
30204,16946,31788
29316,16927,31857
28012,16929,32000
26476,16937,31821
25108,16936,31920
23960,16908,31957
23237,16898,31969
23126,16871,31761
23476,16884,31762
24076,16889,31842
26048,16924,31950
29528,16929,31975
33864,16976,32160
39864,16928,32160
46585,16896,32030
53108,16902,32076
58892,16941,32166
63544,16890,32192
64936,17002,32212
65180,16906,32229
65072,16875,32263
64876,16952,32271
64656,16917,32037
64432,16979,32092
64208,16913,32095
63980,16937,32160
63764,16868,32356
58028,16930,32312
49704,16900,32272
42620,16936,32407
37896,16909,32464
35232,16956,32549
33401,16954,32542
32064,16996,32616
31032,16921,32672
30256,16902,32652
29792,16903,32685
29368,16872,32726
28880,16892,32780
28392,16896,32703
27848,16896,32685
27418,16928,32749
27096,16924,32828
26988,16943,32828
27116,16913,32756
27240,16911,32767
27268,16877,32860
27332,16889,32881
27188,16869,32885
26964,16879,32647
26812,16913,32729
26920,16913,32853
26832,16957,32892
26776,16932,32991
26928,16910,33048
27205,16914,33089
27356,16889,33124
27449,16891,33207
27436,16873,32992
27380,16871,33067
27328,16892,33133
27252,16900,33196
27240,16940,33236
27344,16923,33271
27564,16943,33287
27776,16897,33329
27720,16875,33079
27839,16874,33144
28032,16865,33151
28196,16900,33177
28112,16890,33331
28044,16902,33381
28140,16940,33330
28332,16920,33487
28582,16928,33588
28756,16889,33720
28864,16896,33767
28916,16862,33753
28936,16852,33806
28884,16894,33841
28836,16895,33864
28768,16895,33796
28784,16925,33732
28904,16913,33712
29077,16924,33825
29192,16892,33895
29198,16865,33918
29222,16876,33920
29280,16867,33732
29298,16862,33708
29397,16892,33724
29468,16896,33780
29432,16908,33968
29545,16916,33967
29804,16896,34009
29980,16906,34055
30136,16871,34160
30268,16848,34260
30304,16866,34025
30143,16856,34152
29876,16886,34230
29852,16895,34253
29972,16935,34240
30444,16903,34007
30836,16910,34192
31076,16881,34375
31300,16873,34430
31476,16909,34265
31524,16861,34320
31516,16903,34342
31482,16895,34369
31444,16933,34399
31504,16925,34412
31736,16900,34396
32056,16926,34311
32313,16884,34308
32556,16863,34500
32750,16877,34479
32816,16863,34535
32952,16855,34604
33080,16886,34492
33140,16932,34389
33304,16921,34388
33652,16916,34511
33976,16885,34551
34280,16903,34477
34488,16864,34687
34569,16843,34671
34668,16891,34633
34784,16879,34695
34780,16868,34684
34736,16911,34712
34754,16901,34724
34832,16980,34744
34968,16903,34622
35073,16869,34604
35133,16850,34612
35160,16881,34652
35040,16845,34681
34888,16852,34708
34660,16884,34719
34472,16879,34719
34256,16916,34620
34184,16894,34773
34164,16911,34839
34081,16867,34679
33976,16886,34660
33752,16850,34729
33488,16838,34768
33200,16865,34792
32864,16883,34799
32520,16876,34807
32236,16905,34812
32100,16892,34521
32072,16900,34754
32040,16875,34693
31892,16842,34708
31544,16846,34821
31252,16828,34844
31152,16854,34855
31117,16893,34925
30933,16888,34967
30824,16924,34823
30956,16877,34781
31060,16903,34911
31153,16862,34927
31144,16836,34988
31093,16829,34999
30972,16820,34809
30792,16846,34896
30493,16848,34968
30300,16886,34981
30272,16881,34996
30334,16877,34948
30528,16881,34972
30780,16852,34997
30914,16862,34980
30993,16828,35007
30992,16823,35052
30833,16835,35148
30672,16869,35135
30616,16857,35015
30585,16881,35097
30644,16866,35135
30784,16894,35117
30884,16851,34991
31012,16822,35103
31056,16844,35091
30944,16820,35046
30848,16821,35068
30748,16873,35069
30688,16873,35120
30684,16917,35233
30780,16871,35252
31062,16890,34975
31176,16853,35165
31256,16815,35175
31416,16816,35205
31485,16799,35236
31432,16831,35292
31344,16826,35249
31278,16878,35265
31292,16865,35300
31286,16878,35413
31284,16854,35207
31328,16888,35408
31404,16823,35396
31480,16803,35412
31408,16825,35370
31236,16816,35304
31308,16824,35471
31432,16854,35583
31388,16857,35620
31452,16876,35621
31676,16855,35495
31832,16830,35460
31944,16858,35272
32040,16807,35580
32020,16798,35585
31872,16826,35600
31737,16820,35612
31672,16864,35608
31548,16852,35556
31604,16871,35557
31772,16844,35577
31940,16844,35748
32056,16806,35700
32096,16806,35568
32004,16798,35568
31792,16826,35564
31656,16822,35582
31608,16871,35703
31672,16859,35844
31776,16849,35824
31868,16891,35798
32032,16844,35748
32180,16849,35629
32228,16796,35725
32196,16825,35781
32048,16802,35583
31937,16839,35705
31876,16834,35864
31876,16869,35897
31964,16846,35719
32144,16855,35719
32269,16823,35813
32376,16819,35813
32468,16789,35817
32436,16813,35545
32193,16800,35718
31905,16852,35684
31840,16843,35504
31846,16846,35549
31920,16873,35601
32076,16836,35710
32252,16863,35752
32440,16805,35759
32472,16782,35814
32352,16820,35816
32184,16807,35544
32165,16820,35845
32184,16828,35847
32076,16871,35881
32108,16852,35847
32340,16864,35885
32516,16825,35906
32716,16795,35876
32766,16803,35888
32613,16780,35919
32404,16826,35936
32365,16811,35616
32334,16844,35855
32116,16844,35868
32184,16877,35940
32537,16839,36040
32740,16847,36073
32677,16815,36045
32596,16774,36008
32588,16820,35895
32504,16804,35709
32372,16806,35784
32176,16865,36020
32020,16857,35888
32184,16839,35740
32361,16843,35765
32464,16807,36087
32612,16830,36096
32757,16780,36101
32849,16775,36117
32705,16827,36124
32464,16802,36051
32309,16869,36068
32318,16840,36068
32436,16829,36183
32660,16852,36212
32860,16805,36285
32888,16784,36226
32884,16790,36142
32728,16773,36164
32616,16812,36236
32460,16808,36180
32256,16813,36052
32256,16864,36221
32448,16834,36256
32640,16809,36252
32729,16824,36264
32704,16805,36248
32656,16767,36206
32665,16765,36149
32633,16807,36324
32612,16814,36391
32480,16815,36261
32396,16823,36160
32584,16840,36174
32820,16811,36221
32896,16831,36241
33008,16791,36228
33193,16766,36420
33144,16788,36421
32968,16780,36351
32812,16837,36164
32565,16825,36277
32384,16818,36300
32472,16837,36296
32692,16807,36289
32900,16823,36076
33060,16780,36071
33136,16817,36140
32924,16783,36235
32660,16842,36328
32612,16800,36284
32746,16802,36396
32824,16839,36433
32824,16817,36255
32812,16847,36364
32860,16812,36302
33060,16766,36164
33222,16785,36292
33077,16759,36176
32909,16806,36249
33061,16807,36343
32936,16868,36140
32716,16826,36244
32753,16809,36253
32984,16826,36272
33128,16792,36269
33172,16763,36140
33112,16791,36132
33081,16777,36158
33048,16812,36224
32984,16788,36241
32821,16799,36260
32760,16823,36276
32796,16808,36253
32902,16820,35929
32984,16785,36224
33108,16796,35917
33204,16748,36146
33180,16787,36068
33088,16772,35899
32918,16772,35924
32784,16816,35900
32648,16820,35889
32617,16809,35952
32708,16830,36172
32957,16788,36175
33188,16760,36103
33264,16791,36103
33184,16769,36108
33112,16759,36010
33044,16812,35961
32888,16807,36028
32832,16880,35951
32937,16817,35949
33068,16789,36058
33180,16796,36052
33276,16757,36053
33336,16777,36029
33320,16765,36024
33188,16756,35968
33054,16840,35839
32888,16805,35861
32792,16817,35988
32844,16798,36057
32912,16814,36012
32876,16794,36037
32829,16753,36015
33013,16785,35905
33244,16766,35823
33092,16765,35709
32985,16768,35533
32900,16820,35521
32848,16817,35558
33072,16795,35497
33152,16817,35500
33096,16788,35748
33172,16747,35437
33436,16761,35724
33481,16734,35689
33380,16774,35589
33220,16767,35605
33129,16775,35559
32984,16804,35644
32976,16791,35560
32997,16775,35491
33036,16796,35520
33172,16757,35511
33240,16785,35504
33088,16775,35549
32920,16751,35553
32844,16749,35521
32788,16808,35455
32752,16794,35445
32776,16830,35423
32848,16780,35415
32996,16756,35428
33092,16757,35316
33277,16730,35369
33280,16778,35387
33132,16743,35472
32964,16757,35344
32964,16769,35239
32976,16822,35028
33152,16793,35289
33260,16780,35276
33444,16750,35236
33596,16772,35109
33628,16737,35191
33538,16728,35100
33332,16730,35124
33044,16781,35268
33136,16777,35228
33252,16774,35223
33360,16840,35167
33532,16790,35068
33632,16759,35012
33748,16723,35004
33812,16743,34935
33724,16735,34953
33548,16772,35079
33304,16752,35070
33024,16765,35053
32736,16772,35028
32712,16784,34908
32908,16764,34924
33228,16800,34977
33381,16752,34866
33476,16725,34636
33392,16716,34508
33044,16773,34765
32796,16751,34772
32840,16757,34717
32897,16825,34677
32948,16781,34565
33181,16761,34607
33352,16772,34749
33460,16743,34752
33520,16711,34640
33356,16748,34535
33056,16743,34370
32828,16797,34479
32784,16774,34399
32660,16775,34221
32453,16794,34489
32301,16767,34488
32252,16815,34436
32044,16745,34407
31564,16722,34356
30820,16752,34353
29981,16751,34311
28740,16753,34468
27036,16785,34376
25276,16805,34260
23864,16797,34214
23014,16774,34383
22785,16773,34346
23224,16744,34333
24022,16740,34324
25612,16767,34329
28698,16751,34285
32844,16811,34280
38352,16800,34244
44924,16848,34200
51468,16812,34036
57584,16818,34072
62960,16738,34104
64968,16802,34100
65380,16740,34049
65316,16719,34054
65132,16795,34021
64920,16741,34055
64688,16803,34020
64468,16779,33983
64232,16828,33972
64012,16761,33992
59784,16784,33709
51124,16752,33756
43796,16761,33873
38980,16742,33884
35928,16760,33864
33808,16843,33870
32381,16794,33855
31316,16797,33911
30364,16812,33864
29686,16799,33761
29301,16766,33902
29088,16775,33904
28768,16741,33892
28329,16771,33874
27864,16758,33872
27525,16760,33884
27316,16790,33876
27114,16796,33863
27072,16806,33828
27084,16791,33841
27112,16763,33820
27069,16752,33811
27136,16730,33772
27142,16738,33692
27022,16740,33662
27096,16766,33663
27144,16780,33548
27016,16815,33548
27120,16796,33635
27324,16816,33664
27509,16769,33761
27552,16769,33788
27812,16728,33669
27872,16744,33648
27778,16741,33716
27768,16779,33671
27720,16774,33500
27646,16810,33519
27772,16788,33573
27962,16799,33572
28156,16769,33484
28328,16737,33476
28436,16750,33543
28476,16738,33569
28454,16741,33512
28388,16763,33439
28352,16813,33549
28380,16799,33582
28468,16782,33580
28685,16789,33568
28744,16756,33548
28760,16754,33287
29040,16727,33391
29196,16759,33526
29122,16746,33528
29053,16751,33516
29228,16816,33455
29144,16791,33464
28876,16789,33328
28936,16767,33508
29332,16758,33429
29760,16733,33543
30014,16750,33486
30040,16733,33433
30104,16740,33457
30040,16765,33437
29868,16767,33476
29822,16799,33452
29920,16782,33373
30192,16793,33438
30589,16766,33428
30793,16734,33284
30950,16749,33021
31012,16740,33284
30981,16791,33281
30936,16772,33111
30912,16765,33117
30972,16820,33264
31124,16785,33319
31268,16767,33274
31456,16777,33090
31772,16745,32908
31992,16723,33156
32064,16745,33009
32064,16745,33226
32108,16751,33004
32128,16780,32887
32202,16781,32979
32352,16791,32871
32688,16771,33038
33080,16807,33000
33365,16745,32973
33593,16791,32961
33688,16745,32956
33784,16730,32831
33900,16786,32952
33956,16784,33007
34036,16853,32945
34236,16799,32780
34484,16770,32660
34757,16826,32824
34940,16743,32812
35084,16719,32812
35140,16741,32761
35054,16737,32759
34956,16801,32736
34989,16784,32743
34992,16845,32688
34952,16798,32695
35012,16774,32660
35060,16748,32556
35036,16757,32684
35265,16728,32679
35212,16718,32617
34972,16756,32577
34696,16741,32559
34400,16799,32511
34076,16785,32409
33780,16769,32300
33648,16788,32293
33656,16747,32356
33604,16730,32316
33425,16729,32263
33192,16712,32292
32924,16733,32399
32532,16785,32386
32164,16775,32337
31908,16818,32360
31804,16791,32343
31756,16753,32205
31712,16765,32111
31564,16728,32078
31472,16737,31921
31340,16721,32001
31116,16722,31868
30905,16777,31847
30800,16776,31884
30740,16812,31944
30812,16781,32045
30912,16754,32085
31096,16740,31900
31184,16745,31896
31212,16711,31926
31089,16736,31926
30869,16719,31888
30804,16770,31868
30788,16757,31731
30656,16791,31737
30686,16760,31855
30799,16768,31853
30908,16735,31887
30949,16728,31744
30952,16701,31625
30984,16720,31734
31040,16758,31710
30921,16740,31519
30816,16780,31610
30792,16780,31653
30800,16757,31678
30932,16755,31660
31225,16729,31647
31392,16743,31559
31500,16706,31341
31556,16699,31556
31434,16743,31544
31260,16729,31548
31065,16771,31281
31040,16759,31345
31040,16768,31400
31140,16746,31555
31360,16728,31444
31568,16722,31217
31716,16711,31421
31632,16754,31422
31537,16728,31400
31508,16725,31388
31392,16757,31375
31240,16756,31359
31256,16783,31346
31456,16761,31325
31508,16728,31200
31622,16738,31334
31624,16710,31236
31504,16735,31201
31544,16731,31294
31552,16721,31324
31456,16780,31253
31420,16768,31239
31497,16756,31271
31696,16758,31280
31872,16724,31282
31976,16733,31133
32064,16708,31137
32061,16703,31230
31952,16732,31191
31690,16736,31012
31540,16746,30897
31548,16759,31082
31576,16780,30975
31664,16745,31036
31992,16746,31040
32240,16716,31006
32308,16703,30876
32269,16716,30942
32116,16711,31017
31900,16765,31021
31848,16773,31010
31828,16757,30970
32044,16769,30975
32208,16748,30982
32396,16757,30864
32536,16712,30796
32636,16737,30828
32672,16720,30815
32552,16749,30839
32400,16742,30820
32249,16783,30848
32172,16779,30876
32188,16801,30780
32312,16753,30597
32492,16799,30661
32580,16729,30792
32668,16696,30776
32688,16731,30767
32588,16719,30756
32381,16732,30696
32266,16764,30657
32229,16761,30704
32244,16765,30580
32392,16815,30555
32473,16752,30582
32540,16762,30340
32788,16709,30336
32840,16756,30408
32745,16726,30296
32496,16731,30300
32388,16764,30287
32380,16761,30343
32444,16775,30321
32512,16748,30455
32620,16775,30405
32713,16725,30438
32817,16700,30503
32836,16712,30498
32712,16710,30463
32608,16742,30374
32496,16745,30324
32408,16789,30278
32468,16775,30180
32538,16750,30378
32608,16755,30382
32689,16709,30373
32804,16728,30369
32760,16726,30229
32596,16784,30269
32544,16745,30320
32480,16823,30342
32428,16774,30344
32468,16812,30227
32576,16758,30316
32700,16735,30092
32612,16749,30100
32540,16727,30092
32604,16704,30090
32684,16750,30316
32724,16735,30096
32637,16794,30082
32560,16784,30296
32664,16764,30294
32876,16776,30268
32980,16749,30279
32948,16716,30265
32848,16749,30271
32784,16720,30310
32884,16713,30279
32888,16774,30150
32684,16763,30058
32596,16765,30028
32744,16799,30254
32920,16776,30224
33040,16740,30218
33080,16739,30215
33189,16725,30189
33264,16711,30149
33037,16764,30224
32762,16754,30268
32601,16766,30294
32412,16785,30285
32560,16793,30161
32764,16777,30074
32820,16740,30016
32954,16777,30031
33088,16732,29997
33052,16727,30178
32936,16724,30172
32852,16749,30173
32838,16762,30168
32778,16772,30160
32772,16801,30138
32896,16765,30137
33088,16780,30151
33254,16753,30140
33312,16731,30144
33208,16743,30141
33100,16770,29911
33028,16743,30001
32848,16793,30000
32790,16780,30025
32832,16812,29996
32917,16774,30030
32996,16815,29989
33004,16745,30010
33172,16722,30101
33176,16727,30180
32912,16772,29942
32836,16747,30087
32744,16773,29889
32630,16802,29981
32724,16776,30132
33056,16777,29932
33240,16785,30036
33382,16734,30047
33384,16758,30012
33271,16724,30021
33165,16772,30037
33020,16764,30023
32936,16809,30030
32852,16784,30026
32844,16814,30022
32985,16768,29790
33044,16772,29855
33073,16789,29933
33272,16730,30071
33264,16750,30069
33140,16735,29918
33169,16777,29868
33072,16773,29869
32928,16826,29868
32788,16788,29886
32882,16789,29975
33088,16761,29972
33258,16751,29964
33424,16729,29961
33407,16741,29946
33272,16745,29935
33138,16768,29944
33042,16779,29951
32858,16805,29928
32904,16780,29931
33068,16789,29927
33189,16788,29821
33252,16785,29984
33316,16738,29837
33280,16757,29921
33152,16749,29697
33081,16769,29877
32924,16796,29969
32744,16796,29856
32724,16817,29807
32892,16823,29865
33020,16783,29892
33192,16778,29911
33326,16734,29727
33104,16747,29897
32872,16797,29990
32845,16773,29780
32961,16803,29892
32952,16796,29900
32992,16802,29908
33092,16784,29907
33241,16789,29713
33364,16756,29673
33460,16768,29774
33400,16745,29898
33240,16764,29957
33008,16834,29782
32671,16800,29900
32485,16834,29676
32832,16800,29780
33068,16812,29792
33204,16775,29852
33384,16794,29844
33484,16751,29826
33484,16788,29814
33336,16765,29823
33048,16768,29815
32812,16801,29860
32708,16875,29958
32868,16822,29935
33028,16789,29888
33004,16808,29842
32965,16766,29796
33106,16788,29790
33160,16749,29798
33084,16785,29916
32830,16778,29830
32536,16837,29761
32464,16828,29732
32616,16805,29929
32817,16843,29788
33172,16799,29903
33292,16756,29799
33304,16783,29863
33332,16776,30009
33217,16763,29980
33020,16820,30007
32940,16825,29980
32884,16871,30018
32999,16818,29975
33189,16797,30016
33312,16800,29946
33376,16767,29813
33400,16764,29922
33312,16751,29911
33226,16788,29804
33164,16804,29872
33076,16801,29905
33052,16825,29912
33280,16854,29744
33528,16818,29788
33664,16788,29750
33596,16792,29842
33480,16796,29921
33528,16782,30008
33396,16811,29774
33316,16788,29900
33296,16835,29900
33164,16816,29703
33133,16827,29861
33192,16848,29933
33384,16799,29848
33444,16806,29905
33488,16756,29737
33440,16773,29853
33260,16775,29965
33032,16805,29936
32908,16838,29833
32808,16820,29886
32952,16843,29777
33060,16842,29929
33244,16791,29825
33381,16791,29884
33452,16761,29862
33438,16792,29684
33228,16776,29785
33052,16835,29879
32908,16813,29775
32676,16846,29820
32600,16825,29826
32602,16838,29870
32372,16801,29681
32056,16816,29738
31704,16775,29804
31000,16788,29953
30108,16781,29731
29040,16828,29748
27616,16834,29838
25896,16842,29768
24332,16836,29916
23368,16834,29917
22764,16815,29752
22768,16802,29816
23220,16783,29846
24496,16787,29624
27168,16820,29733
30992,16827,29736
36408,16878,29804
42912,16829,29888
49712,16861,29765
56348,16802,29848
62276,16836,29644
64632,16769,29729
65136,16824,29847
65128,16788,29948
64940,16856,29878
64732,16821,29742
64512,16888,29861
64292,16836,29872
64056,16903,29846
63832,16820,29732
63608,16848,29764
55952,16796,29948
47704,16836,29928
41036,16792,29836
36944,16840,29884
34468,16818,29904
32752,16876,29912
31336,16852,29926
30216,16889,29918
29416,16860,29925
28924,16860,29702
28508,16808,29804
28172,16807,29918
27741,16801,29937
27368,16829,29905
27160,16829,29904
26953,16869,30017
26776,16875,29863
26772,16877,29895
26752,16847,29919
26757,16845,29755
26796,16812,29817
26904,16807,29926
26876,16797,29887
26809,16813,29904
26704,16840,29781
26756,16844,29940
26896,16870,29886
26948,16871,29888
27001,16844,29791
27148,16844,29956
27262,16834,29808
27442,16801,29924
27484,16804,29710
27412,16820,29968
27304,16828,30004
27316,16857,29863
27318,16886,29929
27416,16863,29957
27584,16868,29983
27772,16834,29845
27896,16834,29893
27956,16805,30019
27860,16824,30095
27845,16814,30108
27820,16849,29983
27673,16848,29914
27816,16881,30024
28092,16860,30073
28281,16865,29852
28368,16837,29906
28472,16835,29988
28592,16801,30140
28700,16823,29952
28784,16822,30080
28800,16843,29882
28769,16876,29978
28807,16860,30135
28872,16876,30005
28868,16855,30116
28828,16849,29908
29036,16853,30140
29368,16814,30189
29512,16842,30116
29508,16830,30005
29424,16865,30117
29428,16857,29916
29405,16892,30034
29431,16864,30182
29548,16869,30066
29756,16873,30108
29976,16838,29880
30048,16841,30101
30016,16814,30119
30036,16847,30068
30049,16859,30098
30000,16888,29945
29952,16873,30156
30124,16885,29952
30338,16866,30065
30573,16870,30073
30740,16831,29959
30932,16825,30020
31081,16845,30085
31144,16835,29950
31188,16866,30084
31220,16871,30109
31168,16887,30016
31256,16900,30059
31524,16930,29917
31988,16868,30021
32296,16892,30088
32508,16833,30012
32688,16866,29929
32728,16845,30008
32820,16868,30055
32925,16870,29818
33052,16911,29996
33272,16930,30101
33485,16900,30116
33824,16936,30116
34060,16853,30089
34268,16869,29989
