ECG,EDA,RR
32552,19906,41376
32412,19900,41221
32150,19893,41026
31965,19899,40676
31950,19849,40620
31816,19849,40607
31716,19860,40442
31628,19917,40401
31572,19917,40238
31552,19911,40061
31600,19904,39896
31604,19896,39662
31444,19896,39477
31361,19847,39325
31484,19845,39087
31636,19849,39073
31850,19867,38909
32128,19869,38740
32456,19875,38582
32548,19872,38432
32493,19878,38253
32493,19863,38106
32412,19866,37711
32364,19858,37669
32372,19859,37424
32492,19868,37229
32532,19867,37202
32628,19866,37100
32660,19871,37063
32298,19864,36743
31816,19860,36556
31872,19853,36449
31837,19848,36028
31936,19844,36089
32132,19844,36027
32360,19847,35809
32520,19869,35629
32364,19867,35520
32054,19872,35398
32052,19865,35196
32149,19859,35045
32309,19861,34808
32416,19876,34660
32480,19890,34512
32700,19874,34356
32960,19888,34191
33216,19848,33927
33324,19858,33633
33084,19881,33324
32625,19872,33145
32061,19888,33092
31960,19882,32996
32093,19876,32860
32308,19867,32711
32478,19860,32582
32616,19876,32422
32790,19908,32207
32992,19855,31893
33076,19859,31761
32984,19871,31622
32772,19866,31397
32577,19888,31212
32320,19887,31038
32256,19883,30913
32478,19881,30907
32840,19872,30590
33452,19869,30513
33908,19870,30169
34084,19862,30062
34104,19854,29997
33901,19854,29941
33592,19913,29612
33152,19892,29569
32537,19872,29240
31508,19864,29125
30829,19872,28982
31448,19868,29015
32300,19876,28775
32668,19864,28605
32564,19876,28508
32448,19871,28361
32384,19855,28218
32480,19858,28065
32652,19844,27764
32824,19853,27609
32962,19839,27655
33068,19850,27436
33264,19909,27220
33388,19910,27012
33392,19892,27035
33252,19869,26812
33088,19855,26720
32932,19861,26412
32866,19841,26431
33033,19836,26165
33232,19840,26119
33388,19847,25874
33524,19913,25648
33468,19912,25596
33192,19902,25494
32893,19909,25404
32884,19844,25252
33028,19843,25012
33198,19839,24933
33485,19840,24825
33628,19839,24707
33552,19914,24454
33745,19902,24342
34016,19903,24272
34000,19896,24193
33660,19873,24090
33096,19863,23884
32892,19865,23684
32788,19860,23653
32937,19846,23612
33167,19852,23521
33192,19848,23440
32940,19858,23260
33080,19855,23074
33240,19852,23095
33116,19850,23071
33016,19897,22936
32936,19892,22878
32944,19864,22653
33092,19863,22604
33348,19863,22590
33480,19858,22519
33640,19869,22401
33780,19854,22228
33732,19856,22285
33640,19902,22189
33366,19888,22062
33260,19856,21921
33228,19851,21862
33268,19848,21928
33524,19841,21806
33692,19904,21783
33812,19892,21589
33900,19876,21540
33828,19876,21601
33624,19873,21550
33377,19861,21449
33208,19849,21433
33112,19840,21330
33192,19879,21369
33348,19858,21303
33508,19862,21186
33620,19855,21137
33556,19861,21197
33408,19853,21164
33220,19912,21043
33096,19900,21062
32976,19893,21082
32928,19881,21031
32948,19883,21032
33004,19860,20913
33150,19870,20900
33300,19865,20952
33364,19871,20922
33564,19856,20888
33468,19853,20888
33264,19847,20760
33049,19839,20725
33048,19842,20679
33052,19860,20658
33120,19883,20628
33296,19887,20667
33528,19900,20717
33640,19904,20673
33616,19921,20628
33566,19910,20590
33398,19849,20572
33324,19908,20552
33272,19839,20444
33304,19844,20373
33229,19847,20436
33016,19849,20441
32868,19855,20396
32565,19862,20344
32248,19874,20316
32120,19873,20285
32240,19863,20280
32172,19855,20204
32164,19854,20108
32212,19860,20133
32344,19862,20145
32480,19865,20143
32616,19862,20073
32704,19874,20061
32620,19874,20036
32530,19873,20016
32404,19869,19980
32220,19858,19868
32320,19859,19886
32460,19853,19860
32566,19854,19857
32648,19856,19735
32908,19908,19806
33149,19879,19749
33120,19872,19676
32984,19869,19604
32828,19870,19617
32716,19853,19580
32736,19842,19564
32704,19844,19456
32776,19850,19424
32864,19909,19432
32980,19911,19361
33012,19912,19321
32976,19906,19268
32824,19876,19162
32676,19864,19149
32528,19852,19092
32492,19846,18954
32560,19908,18976
32684,19900,18888
32764,19908,18837
32882,19885,18767
32902,19882,18665
32792,19885,18573
32640,19881,18504
32489,19879,18490
32345,19865,18426
32266,19860,18337
32420,19862,18252
32588,19874,18177
32730,19880,18104
32892,19892,18036
32952,19899,17961
32828,19917,17878
32644,19928,17803
32536,19908,17729
32440,19900,17644
32374,19906,17556
32408,19849,17469
32492,19853,17399
32632,19863,17314
32870,19861,17236
33016,19868,17151
32980,19868,17080
32956,19866,17003
32908,19860,16917
32822,19858,16821
32836,19913,16735
32888,19909,16645
32944,19918,16555
33080,19876,16462
33420,19873,16372
33740,19870,16300
33936,19879,16214
34104,19932,16100
34256,19911,16012
34344,19889,15922
34728,19896,15829
35240,19889,15737
35728,19899,15626
36420,19884,15524
37052,19894,15463
37544,19886,15340
38052,19876,15220
38784,19861,15140
39236,19860,15023
39504,19951,14958
39428,19918,14876
39009,19929,14711
38368,19941,14629
37589,19940,14516
36621,19923,14447
35540,19892,14366
34520,19897,14203
33561,19893,14085
32764,19871,13992
32244,19915,13952
32032,19906,13768
32002,19912,13647
32116,19894,13521
32238,19892,13458
32368,19908,13346
32316,19908,13234
32188,19901,13090
32044,19891,13029
31940,19874,12908
31904,19920,12679
31904,19918,12634
31992,19885,12495
32092,19886,12429
32296,19888,12290
32596,19894,12046
32736,19885,11969
32730,19888,11820
32680,19887,11704
32584,19880,11595
32564,19889,11460
32748,19884,11351
32896,19875,11284
32636,19876,11116
31520,19934,10876
30740,19892,10742
30704,19944,10691
30780,19937,10498
30844,19930,10494
30932,19911,10319
31102,19896,10151
31280,19888,9979
31476,19893,10005
31736,19930,9761
31908,19940,9652
32120,19919,9500
32132,19908,9484
32044,19912,9411
31820,19908,9278
31660,19913,9180
31608,19901,9009
31608,19892,8825
31642,19947,8786
31769,19917,8677
32000,19913,8663
32188,19965,8443
32216,19928,8324
32230,19922,8347
32097,19915,8308
31916,19906,8076
31792,19908,7968
31814,19947,8036
31900,19936,7877
32088,19946,7844
32256,19945,7644
32468,19959,7606
32601,19935,7688
32600,19937,7545
32538,19927,7397
32432,19927,7404
32302,19932,7379
32292,19948,7298
32405,19905,7229
32660,19909,7220
32932,19914,7074
33200,19916,7013
33336,19933,6988
33516,19920,7138
33484,19916,6998
33438,19905,6966
33356,19911,6919
33380,19965,6836
33228,19929,6887
33252,19928,6965
33108,19922,6854
32504,19920,6797
32094,19924,6860
32305,19895,6835
32604,19959,6838
32669,19933,6747
32676,19914,6815
32712,19908,6739
32916,19911,6846
33184,19967,6828
33384,19975,6730
33468,19950,6710
33320,19940,6773
33132,19944,6879
33136,19934,6781
33192,19920,6732
33196,19917,6706
33206,19958,6906
33312,19950,6795
33440,19934,6871
33500,19933,6801
33616,19933,6944
33728,19930,6888
33812,19922,6889
33804,19925,6916
33665,19924,6866
33460,19916,6980
33404,19913,7016
33500,19921,7119
33628,19924,7146
33836,19926,7141
34029,19987,7094
34164,19985,7110
34216,19994,7098
34252,19981,7204
34092,19976,7339
33888,19975,7361
33908,19974,7325
33893,19981,7309
33948,19920,7323
34096,19999,7329
34048,19992,7456
33616,19998,7392
33060,19984,7400
32984,19981,7479
33017,19972,7519
32804,19975,7649
32680,19954,7641
32620,19957,7576
32784,19973,7594
33048,19974,7716
33390,19956,7626
33508,19953,7787
33540,19980,7717
33390,19988,7725
33200,19968,7816
32900,19975,7820
32736,19978,7823
32672,19981,7872
32624,19992,7875
32588,19986,7844
32724,19999,7836
32874,19939,7761
32856,19941,7704
32660,19943,7679
32428,19935,7773
32196,19930,7637
32184,19926,7622
32372,19933,7601
32604,19946,7573
32632,19948,7651
32664,19951,7690
32789,19938,7526
32792,19945,7504
32540,19940,7489
32129,19999,7550
31992,19959,7462
31848,19967,7389
31864,19964,7357
31828,19979,7324
31844,19986,7367
32150,19986,7329
32536,19974,7246
32684,19975,7378
32628,19969,7276
32608,19950,7220
32444,19957,7268
32352,19959,7256
32364,19944,7199
32216,19953,7310
32020,19951,7284
31872,19963,7180
31852,19955,7256
31980,19946,7140
32021,19946,7227
31972,20002,7313
31933,19975,7279
31952,19967,7197
32136,19957,7280
32361,19951,7199
32600,19958,7238
32868,19972,7339
32976,19960,7394
32916,19952,7292
32752,19946,7350
32652,19998,7313
32508,20000,7282
32416,19934,7383
32422,19937,7496
32500,19992,7419
32640,19967,7457
32856,19970,7481
33000,19973,7448
32821,19975,7397
32592,19966,7440
32400,19961,7595
32264,19951,7614
32361,19943,7528
32605,19943,7478
32741,19942,7577
32925,19949,7595
33000,19953,7556
33000,19956,7532
32921,20020,7501
32900,19959,7548
32908,19951,7664
32693,19951,7715
32392,20005,7629
32396,19972,7663
32694,19967,7584
32976,19972,7578
33220,19989,7585
33292,19994,7611
33184,19994,7623
32648,20004,7619
31976,20004,7694
31445,19981,7819
31468,19975,7852
31604,19960,7823
31820,19972,7857
32164,19969,7873
32473,19969,7807
32616,19967,7929
32656,20024,7851
32544,20000,7941
32392,19972,8076
32140,19964,8171
32090,20010,8128
32220,19995,8117
32333,19988,8197
32692,19975,8329
32981,19971,8316
33120,19967,8522
33054,20037,8483
32944,20018,8499
32808,19983,8625
32576,19971,8688
32360,19956,8898
32380,20020,8977
32436,19999,8903
32640,19981,9092
32828,19978,9072
32949,19972,9318
32916,20032,9401
32782,20028,9407
32604,20020,9464
32280,20014,9540
32064,19986,9696
32033,19972,9764
32140,19969,9898
32364,19975,10049
32600,20015,10226
32688,20004,10343
32638,19981,10399
32500,20021,10420
32336,19992,10624
32060,20032,10712
31881,19983,10830
31892,19969,11071
32024,19996,11217
32280,19981,11185
32540,20012,11402
32648,19988,11542
32656,20006,11668
32580,19988,11905
32420,20015,12031
32262,19977,12101
32229,20007,12287
32320,19975,12428
32501,19997,12660
32644,20026,12836
32752,20010,12887
32744,19995,13084
32624,20008,13236
32481,20000,13442
32260,20007,13671
31972,19985,13796
31832,19999,13913
31888,19986,14140
32040,20012,14297
32248,19991,14529
32440,20012,14623
32617,20068,14848
32636,20021,15010
32532,20064,15191
32404,20018,15381
32144,19994,15588
31980,20037,15780
31916,19999,15957
32105,19992,16120
32534,20021,16288
32928,20016,16481
33120,20079,16653
33240,20034,16838
33398,20031,17012
33477,20008,17184
33472,20042,17348
33132,20012,17532
32120,20012,17697
31024,20029,17853
31144,20020,18018
31584,20061,18165
31896,20040,18325
31992,20028,18480
31710,20071,18635
31820,20030,18779
31856,20066,18868
31904,20025,19048
32088,20063,19218
32352,20029,19332
32612,20016,19457
32840,20086,19587
32648,20044,19725
32216,20025,19850
32088,20048,19906
32108,20030,20004
32092,20071,20192
31964,20032,20324
31932,20025,20449
32236,20063,20511
32612,20047,20636
32928,20034,20743
33204,20077,20836
33364,20049,20818
33480,20096,21004
33536,20068,21127
33220,20044,21216
32617,20036,21273
31900,20068,21373
31772,20036,21484
31984,20087,21509
32288,20050,21540
32605,20045,21591
32681,20093,21710
32584,20061,21826
32420,20092,21913
32288,20057,21963
32268,20039,22051
32417,20084,22135
32576,20058,22192
32808,20098,22127
33120,20060,22299
33352,20116,22376
33344,20079,22402
33168,20064,22457
32996,20112,22522
32788,20073,22507
32724,20063,22608
32973,20053,22644
33476,20079,22638
34048,20065,22589
34492,20121,22649
34768,20084,22832
34885,20079,22817
35032,20133,22847
35005,20088,22916
34692,20068,22877
33812,20127,22862
32708,20086,22843
32264,20073,23002
32689,20094,22968
33268,20086,23024
34048,20137,23055
34452,20108,22990
34262,20160,22944
33729,20108,22943
33284,20088,23092
32837,20132,23049
31772,20103,23076
30640,20108,23078
30116,20142,23004
30702,20137,22940
31516,20126,22905
32040,20114,23066
32296,20156,23021
32456,20125,22992
32456,20109,23000
32392,20144,22856
32396,20125,22814
32548,20109,22760
32840,20153,22893
33428,20124,22805
33800,20126,22780
33932,20150,22785
33788,20124,22632
33748,20159,22578
33492,20124,22629
33488,20111,22540
33972,20168,22520
34552,20137,22485
35001,20127,22335
35128,20188,22230
34889,20148,22254
34180,20143,22283
33168,20179,22159
32040,20144,22133
30888,20134,22024
30524,20156,21860
31140,20138,21808
31924,20138,21780
32512,20136,21802
32980,20180,21709
33056,20168,21613
33032,20143,21558
33076,20196,21492
33060,20177,21420
32992,20148,21332
32992,20146,21220
33008,20152,21170
32896,20145,21101
32721,20134,21010
32900,20199,20915
33136,20181,20820
33264,20164,20694
33288,20157,20620
33376,20191,20526
33262,20165,20398
33148,20143,20268
33252,20177,20137
33420,20164,20068
33574,20153,20044
33548,20213,19934
33076,20185,19819
32440,20180,19704
32192,20164,19572
32236,20156,19463
32320,20190,19365
32496,20159,19252
32753,20159,19132
33008,20148,19021
33132,20161,18908
33004,20216,18773
32904,20203,18663
32908,20185,18516
32812,20225,18449
32408,20189,18326
32204,20162,18208
32380,20202,18089
32652,20171,17959
32948,20161,17861
33208,20184,17743
33340,20183,17621
33428,20224,17501
33336,20191,17384
33264,20223,17272
33138,20188,17157
32856,20223,17039
32614,20170,16925
32356,20157,16831
32140,20172,16696
32340,20173,16599
32674,20210,16483
32880,20199,16377
32925,20233,16274
32860,20194,16172
32784,20178,16092
32748,20203,16006
32804,20176,15909
32952,20229,15802
33116,20186,15704
33312,20180,15605
33584,20234,15501
33704,20194,15455
33636,20191,15358
33512,20205,15289
33269,20185,15236
32856,20190,15145
32760,20172,15087
33204,20210,15075
33820,20192,15036
34492,20241,14990
35192,20204,14934
35792,20194,14838
36116,20238,14788
35976,20218,14797
35812,20191,14781
36396,20245,14747
37380,20197,14725
38348,20176,14722
39112,20260,14718
40176,20231,14716
41348,20231,14717
42300,20203,14743
42792,20213,14775
42544,20188,14803
41476,20297,14813
40096,20220,14847
38696,20207,14908
37268,20273,14996
35920,20210,14981
34752,20261,15056
33464,20222,15135
32101,20213,15176
31541,20208,15274
31528,20228,15359
31385,20212,15450
31132,20197,15549
31141,20189,15636
31212,20217,15739
31384,20197,15842
31592,20194,15954
31881,20232,16060
32008,20221,16164
32012,20214,16276
32032,20202,16409
31736,20199,16544
31462,20193,16680
31097,20237,16804
30557,20229,16933
30416,20210,17060
30789,20210,17198
31348,20204,17333
31726,20249,17481
32012,20222,17623
32188,20204,17770
32204,20252,17916
32088,20210,18090
31908,20199,18241
31532,20244,18392
31042,20207,18544
30588,20205,18679
30360,20229,18840
30208,20213,18985
30528,20229,19092
30808,20212,19262
30940,20217,19463
31020,20245,19591
31088,20212,19738
31296,20239,19902
31604,20205,19988
31856,20238,20104
32308,20218,20250
32744,20268,20466
32784,20236,20639
32360,20261,20772
32020,20215,20924
31824,20247,20968
31764,20205,21180
31824,20246,21344
31672,20218,21443
31065,20217,21598
30541,20238,21733
30998,20220,21796
31392,20261,21875
31860,20229,21992
32404,20264,22192
32872,20223,22336
33183,20249,22404
33168,20220,22455
32632,20269,22666
31860,20229,22820
30960,20221,22892
30256,20254,23012
30364,20236,23176
30660,20221,23245
30852,20263,23332
30964,20229,23428
31204,20212,23493
31612,20244,23653
32116,20220,23840
32544,20264,23900
32868,20236,23973
32776,20231,24138
32548,20273,24266
32676,20244,24292
32788,20268,24318
32756,20221,24533
32424,20234,24604
31720,20214,24778
31044,20226,24776
30676,20221,24816
31200,20237,25084
31944,20228,25124
32576,20244,25280
33129,20231,25404
33386,20268,25370
33264,20233,25485
33204,20212,25730
33452,20245,25724
33628,20229,25888
33456,20285,26009
32992,20261,26112
32588,20248,26117
32272,20229,26157
32304,20266,26222
32636,20234,26308
32785,20222,26528
32804,20278,26631
32729,20231,26784
32628,20217,26796
32900,20270,26856
33328,20249,26921
33548,20231,27084
33512,20229,27102
33400,20285,27189
33216,20242,27328
32804,20230,27432
32048,20229,27431
31884,20222,27508
32380,20226,27662
32796,20273,27829
33097,20253,27884
33200,20242,27882
33152,20231,27959
33349,20285,28007
33660,20284,28167
33972,20257,28241
34372,20236,28272
34788,20221,28376
35212,20228,28500
35396,20273,28583
35464,20251,28488
34512,20301,28588
32764,20260,28842
31769,20296,28764
31281,20257,28940
30936,20231,28850
30496,20250,28971
30152,20231,29191
30480,20265,29172
31284,20247,29264
32100,20292,29340
32677,20256,29402
32904,20287,29382
32864,20254,29561
32616,20292,29463
32200,20249,29619
31572,20276,29754
30816,20246,29767
30720,20263,29866
30972,20240,29769
31108,20274,29959
31264,20249,29968
31400,20269,29964
31398,20242,30252
31332,20256,30277
31196,20286,30293
31088,20245,30375
31152,20268,30282
31240,20239,30456
31356,20238,30652
31464,20260,30620
31544,20255,30727
31516,20253,30791
31464,20260,30685
31408,20246,30748
31272,20257,30885
31268,20237,31004
31400,20269,31108
31720,20255,31173
31902,20241,31132
32192,20264,31369
32733,20249,31316
33196,20283,31447
33364,20247,31317
33240,20289,31445
32504,20252,31582
31008,20240,31677
30044,20249,31681
29612,20236,31836
29384,20260,31697
29664,20246,31837
30284,20285,32052
30701,20256,32027
30932,20244,32045
31192,20263,32180
31268,20247,32263
31332,20284,32335
31504,20262,32372
31692,20247,32325
31788,20291,32448
31740,20258,32572
31708,20250,32701
31657,20286,32672
31702,20266,32676
31780,20246,32808
31868,20258,32641
32096,20233,32840
32516,20269,33057
32948,20240,33076
33292,20282,33102
33552,20256,33159
33720,20288,33156
33700,20252,33398
33236,20300,33444
32516,20263,33450
32396,20232,33372
33066,20279,33484
33824,20241,33592
34096,20289,33532
33400,20259,33639
31808,20288,33711
30389,20266,33776
29808,20289,33644
29882,20263,33836
30240,20246,33893
30652,20275,34020
31144,20245,34158
31668,20272,34036
32216,20245,34184
32404,20292,34235
31937,20261,34055
31800,20253,34246
32120,20267,34343
32280,20301,34425
32377,20257,34516
32316,20242,34588
31753,20281,34624
31368,20247,34452
31488,20242,34669
31776,20286,34782
31964,20264,34985
31881,20249,34921
31848,20295,34914
31948,20255,35046
31980,20248,35158
32016,20297,35200
32100,20255,35194
32156,20245,35268
32180,20293,35446
32124,20260,35601
32080,20252,35572
32352,20255,35652
32352,20287,35764
32262,20273,35851
32437,20249,35785
32692,20258,35844
32821,20243,35929
33108,20273,35812
33380,20269,35864
33224,20250,36008
32980,20319,36046
33020,20273,36103
33228,20261,36309
33481,20286,36281
33584,20264,36264
33388,20305,36352
32868,20272,36253
32636,20249,36164
32748,20271,36238
32512,20262,36423
32458,20278,36557
32324,20324,36557
32196,20279,36532
32400,20272,36567
32764,20300,36623
32996,20261,36535
33065,20309,36604
33120,20272,36772
33112,20293,36596
33144,20263,36664
32912,20296,36377
32412,20274,36596
32464,20288,36583
32629,20272,36577
32728,20303,36327
33080,20261,36519
33117,20279,36621
32984,20255,36390
33060,20288,36417
33360,20260,36413
33596,20311,36124
33516,20283,36237
33044,20321,36348
32296,20273,36129
32066,20309,36108
32314,20272,35949
32517,20260,36032
32760,20272,35953
32940,20260,35734
33116,20271,35488
33256,20320,35700
33396,20292,35592
33496,20325,35463
33500,20285,35157
33444,20315,35232
33344,20267,35292
33372,20308,35120
33504,20269,35076
33676,20292,34791
33821,20271,34838
33856,20305,34874
33532,20277,34592
33242,20314,34593
33238,20278,34277
33260,20313,34305
32952,20282,34404
32716,20296,34181
32800,20263,34132
32912,20291,33913
33016,20262,33981
33064,20315,33925
33336,20279,33731
33372,20316,33655
33364,20284,33444
33408,20325,33397
33390,20280,33462
33344,20316,33166
33360,20262,33199
33368,20307,32903
33388,20265,33057
33428,20280,32860
33364,20325,32834
33372,20287,32753
33408,20323,32452
33476,20282,32464
33468,20266,32377
33392,20327,32237
33472,20305,32104
33516,20276,32112
33472,20324,32105
33480,20293,32103
33428,20273,32006
33076,20315,31794
32880,20294,31792
32852,20268,31718
32796,20316,31624
32788,20279,31397
32852,20304,31524
32936,20276,31352
33056,20321,31223
33168,20278,31196
33276,20308,30910
33232,20279,30943
33112,20265,30983
33108,20293,30752
33056,20266,30747
32937,20272,30494
33036,20263,30464
33132,20277,30375
33232,20266,30345
33372,20287,30108
33440,20315,30158
33380,20278,30087
33228,20313,29889
33060,20279,29886
32988,20317,29817
32916,20277,29632
32942,20309,29488
33024,20287,29504
33152,20271,29467
33228,20297,29309
33336,20280,29156
33376,20316,29164
33312,20279,29064
33188,20296,28863
33098,20268,28902
33080,20281,28790
33104,20265,28590
33256,20290,28524
33356,20271,28461
33280,20288,28437
33260,20277,28167
33276,20285,28291
33312,20279,28129
33172,20292,27962
32860,20276,27805
32436,20296,27900
32128,20280,27679
32116,20269,27661
32372,20295,27589
32632,20292,27327
32821,20325,27356
32892,20284,27214
32904,20337,27177
32841,20296,27096
32860,20272,26821
32864,20292,26805
32886,20280,26752
32900,20322,26560
32900,20285,26400
32841,20284,26397
32805,20324,26264
32641,20283,26251
32520,20327,25999
32556,20284,25967
32532,20266,25866
32520,20308,25761
32668,20287,25711
32776,20331,25439
32900,20292,25316
33040,20289,25195
33144,20276,25188
33120,20316,25108
33053,20277,25032
32918,20305,24813
32776,20280,24656
32721,20318,24719
32776,20265,24528
32820,20300,24373
32884,20285,24384
32996,20332,24177
33140,20286,24088
33141,20308,23953
33092,20275,23844
32932,20284,23728
32664,20319,23720
32586,20272,23590
32696,20293,23325
32824,20268,23306
32846,20287,23191
32868,20321,23118
32932,20278,23002
32968,20288,22767
32956,20332,22762
33001,20280,22647
32964,20322,22504
32904,20280,22454
32965,20263,22404
33101,20284,22150
33325,20263,22216
33564,20306,22087
33776,20293,21912
33972,20332,21904
34348,20273,21738
34760,20303,21668
35244,20273,21576
35760,20305,21463
36468,20288,21272
37300,20327,21284
38216,20278,21188
39088,20333,21028
40004,20293,21049
40856,20334,20953
41416,20264,20836
41684,20295,20744
41444,20262,20693
40604,20281,20541
39588,20325,20503
38400,20272,20437
37036,20315,20262
35720,20274,20260
34652,20268,20177
33656,20317,20122
32832,20272,19969
32308,20312,19965
32028,20277,19892
31872,20318,19801
31848,20268,19727
31856,20261,19590
31908,20272,19620
31912,20263,19514
31968,20276,19404
31884,20313,19378
31776,20269,19315
31680,20281,19188
31560,20256,19207
31416,20257,19117
31388,20274,18994
31412,20257,19009
31480,20265,18920
31604,20305,18805
31717,20269,18781
31773,20256,18735
31732,20273,18684
31644,20256,18596
31512,20297,18528
31354,20264,18519
31342,20274,18461
31408,20269,18394
31460,20251,18340
31596,20291,18271
31748,20280,18217
31769,20263,18185
31756,20268,18148
31685,20300,18100
31628,20261,18029
31528,20288,18024
31536,20255,17965
31640,20295,17908
31757,20268,17882
31920,20293,17840
32104,20265,17789
32144,20252,17749
32096,20282,17724
32016,20258,17694
31841,20292,17651
31752,20252,17604
31724,20276,17591
31716,20256,17550
31738,20288,17519
31964,20261,17478
32180,20251,17456
32176,20305,17437
32164,20286,17410
32136,20253,17369
32108,20244,17348
32064,20278,17311
32144,20250,17289
32184,20243,17266
32164,20273,17245
32248,20254,17223
32461,20298,17207
32536,20264,17177
32476,20254,17152
32392,20292,17134
32444,20256,17121
32381,20241,17110
32269,20289,17093
32276,20253,17075
32484,20239,17066
32576,20285,17055
32653,20253,17037
32692,20245,17029
32692,20262,17026
32720,20244,17020
32692,20260,17021
32628,20239,17004
32621,20257,17019
32712,20231,16996
32872,20265,16999
33020,20246,16984
33092,20263,16990
33112,20244,16996
33056,20285,16981
32988,20243,16978
33032,20290,16983
32980,20254,16986
33060,20293,16981
33185,20249,16970
33296,20292,16978
33381,20249,16975
33556,20239,16965
33592,20257,16968
33601,20238,16967
33624,20277,16970
33568,20244,16973
33476,20228,16964
33481,20263,16969
33588,20247,16966
33720,20285,16980
33836,20276,16980
33956,20249,16976
33948,20293,16988
33920,20253,16983
33876,20295,16991
33808,20241,17012
33704,20223,17009
33748,20241,17020
33816,20229,17028
33880,20266,17047
33929,20238,17058
34060,20276,17061
34013,20231,17090
33945,20281,17104
33860,20237,17117
33760,20225,17127
33584,20276,17151
33572,20244,17163
33636,20226,17188
33728,20242,17215
33796,20231,17235
33836,20280,17245
33804,20242,17277
33740,20232,17301
33620,20243,17326
33453,20278,17344
33160,20241,17367
32982,20223,17401
32988,20236,17436
33036,20223,17457
33104,20236,17485
33188,20273,17521
33201,20231,17552
33092,20266,17578
32904,20234,17616
32752,20247,17650
32512,20225,17677
32421,20252,17700
32448,20228,17748
32456,20245,17777
32528,20226,17806
32548,20241,17820
32548,20231,17877
32456,20256,17913
32328,20229,17941
32180,20239,17956
31980,20223,18005
31864,20238,18039
31824,20269,18057
31872,20233,18106
31924,20281,18153
32028,20245,18172
32046,20229,18193
32084,20246,18249
32036,20228,18279
31942,20269,18324
31908,20237,18329
31936,20222,18352
32009,20241,18412
32100,20223,18462
32200,20242,18478
32228,20228,18545
32176,20240,18577
32108,20290,18620
31984,20240,18617
31864,20224,18701
31788,20238,18733
31856,20276,18784
32004,20236,18767
32100,20225,18852
32161,20236,18891
32257,20281,18944
32244,20250,18944
32148,20274,19020
32068,20229,19047
31969,20244,19102
31908,20273,19092
31908,20224,19190
31992,20260,19212
32124,20225,19256
32200,20274,19265
32312,20244,19281
32328,20228,19336
32276,20249,19398
32220,20248,19373
32161,20222,19503
32112,20239,19512
32104,20220,19567
32088,20236,19569
32124,20222,19583
32216,20241,19674
32349,20226,19684
32392,20237,19740
32384,20281,19735
32368,20242,19740
32256,20268,19804
32092,20230,19885
32058,20220,19896
32116,20230,19952
32156,20225,19940
32232,20240,19953
32332,20228,20080
32296,20283,20100
32184,20245,20120
32136,20285,20176
32040,20237,20164
31970,20264,20256
31996,20231,20271
32120,20263,20268
32284,20241,20257
32424,20227,20272
32460,20244,20419
32404,20231,20425
32304,20244,20472
32172,20225,20458
32092,20241,20428
32024,20271,20558
32086,20226,20588
32204,20236,20519
32320,20276,20668
32340,20244,20660
32392,20231,20716
32425,20260,20740
32480,20235,20697
32388,20268,20684
32304,20236,20753
32200,20278,20854
32184,20242,20874
32284,20223,20873
32432,20271,20917
32524,20240,20947
32632,20274,20884
32620,20246,21000
32544,20264,21012
32404,20236,20975
32220,20276,21024
32044,20232,21053
32028,20278,21103
32069,20234,21020
32190,20231,21124
32328,20259,21139
32464,20236,21172
32404,20256,21150
32240,20243,21150
32192,20260,21200
32148,20244,21253
32084,20274,21222
32068,20241,21156
32112,20262,21293
32208,20237,21306
32334,20262,21197
32460,20244,21348
32504,20292,21330
32416,20251,21324
32300,20234,21369
32152,20272,21336
32093,20236,21274
32116,20244,21373
32204,20236,21370
32272,20247,21289
32396,20293,21446
32524,20267,21412
32508,20253,21441
32484,20294,21409
32437,20261,21333
32372,20294,21478
32266,20258,21435
32196,20236,21473
32240,20259,21396
32348,20239,21413
32428,20257,21466
32572,20252,21492
32608,20269,21481
32560,20249,21397
32492,20263,21554
32396,20293,21528
32276,20252,21505
32181,20289,21452
32184,20253,21575
32372,20288,21589
32472,20257,21508
32620,20285,21554
32662,20254,21578
32564,20279,21620
32532,20253,21532
32408,20263,21633
32322,20241,21620
32297,20276,21653
32360,20252,21621
32432,20303,21567
32496,20267,21661
32585,20303,21649
32588,20261,21693
32560,20297,21552
32492,20264,21684
32414,20288,21700
32224,20259,21605
32200,20263,21648
32304,20308,21674
32456,20263,21719
32620,20305,21613
32772,20269,21716
32820,20276,21716
32720,20324,21613
32536,20264,21732
32325,20306,21721
32296,20268,21693
32304,20309,21624
32364,20268,21757
32468,20297,21721
32596,20271,21746
32676,20300,21607
32686,20272,21774
32660,20298,21741
32508,20268,21690
32349,20320,21681
32192,20279,21638
32156,20262,21776
32139,20298,21728
32241,20276,21734
32397,20325,21758
32556,20292,21625
32560,20276,21769
32640,20312,21763
32617,20300,21741
32548,20277,21782
32448,20289,21687
32396,20324,21741
32442,20293,21776
32464,20285,21810
32488,20290,21716
32692,20296,21796
32756,20338,21840
32657,20302,21708
32576,20332,21884
32480,20293,21846
32368,20329,21892
32440,20298,21772
32516,20336,21839
32584,20305,21913
32752,20338,21932
32784,20292,21820
32732,20326,21962
32640,20298,21989
32596,20312,21917
32480,20293,21985
32332,20305,21989
32320,20305,22068
32336,20295,21995
32416,20328,22120
32520,20311,22106
32672,20305,22144
32660,20348,22182
32572,20313,22156
32570,20343,22212
32476,20297,22076
32372,20333,22216
32345,20302,22228
32466,20341,22301
32548,20306,22279
32612,20346,22213
32748,20314,22372
32704,20360,22404
32604,20338,22432
32508,20330,22445
32481,20314,22479
32372,20357,22465
32320,20329,22503
32332,20317,22495
32352,20371,22521
32508,20330,22580
32673,20322,22626
32692,20362,22592
32664,20334,22520
32624,20372,22641
32612,20330,22732
32508,20318,22725
32520,20359,22753
32632,20333,22801
32724,20328,22836
32792,20336,22788
32768,20390,22722
32820,20352,22868
32792,20335,22937
32776,20357,22900
32720,20330,22991
32652,20343,22935
32612,20330,22895
32586,20340,23077
32609,20330,23056
32656,20359,23116
32708,20345,23064
32745,20385,23010
32736,20351,23205
32664,20380,23184
32600,20344,23177
32516,20386,23168
32496,20347,23240
32600,20376,23324
32710,20356,23272
32784,20406,23270
32840,20365,23416
32740,20359,23374
32686,20370,23454
32592,20357,23412
32492,20396,23440
32432,20368,23421
32432,20405,23461
32516,20375,23530
32640,20406,23612
32724,20374,23649
32824,20372,23677
32768,20416,23568
32660,20380,23716
32512,20413,23731
32440,20372,23708
32224,20388,23668
32120,20368,23790
32296,20393,23884
32524,20380,23792
32656,20398,23920
32797,20441,23961
32812,20397,24025
32608,20382,23888
32684,20400,24019
32596,20383,24126
32437,20397,24036
32500,20381,24191
32584,20404,24212
32684,20443,24170
32800,20400,24335
32872,20447,24325
32872,20414,24416
32724,20452,24313
32617,20416,24450
32580,20457,24511
32432,20410,24575
32416,20393,24628
32560,20416,24494
32652,20399,24717
32784,20434,24732
32936,20406,24698
32936,20431,24719
32876,20412,24886
32841,20422,24932
32768,20468,24871
32680,20426,25029
32768,20473,25005
32916,20428,25127
33004,20444,25055
33084,20436,25076
33180,20430,25264
33288,20443,25292
33424,20487,25223
33585,20442,25358
33677,20461,25408
33848,20429,25353
34112,20449,25471
34409,20438,25525
34876,20487,25596
35436,20436,25574
36144,20482,25536
36800,20444,25752
37440,20469,25702
37952,20439,25836
38468,20461,25722
39037,20439,25948
39524,20467,25956
39708,20480,25851
39456,20441,26045
38821,20517,26028
38096,20471,26152
37148,20500,26046
35924,20466,26103
34728,20494,26268
33572,20453,26305
32520,20484,26292
31996,20461,26248
31900,20477,26492
31892,20511,26468
31984,20470,26437
32173,20508,26427
32252,20470,26656
32332,20491,26661
32288,20524,26575
31992,20476,26708
31924,20525,26809
31844,20484,26804
31885,20516,26867
32004,20477,26754
32028,20497,26946
32100,20481,26862
32073,20495,27005
32024,20520,26872
31908,20486,27096
31820,20517,27036
31712,20487,27134
31648,20508,27026
31664,20491,27029
31708,20510,27252
31792,20496,27244
31894,20515,27198
31956,20503,27152
31912,20521,27367
31852,20503,27361
31784,20543,27421
31641,20511,27308
31644,20501,27458
31712,20517,27424
31832,20552,27548
31932,20533,27580
32042,20516,27452
32040,20535,27495
31952,20525,27616
31872,20516,27632
31840,20556,27780
31772,20516,27677
31752,20514,27791
31836,20557,27728
31916,20535,27713
32004,20525,27760
32175,20561,27955
32240,20542,27903
32264,20532,27917
32252,20579,27992
32234,20539,27904
32132,20532,27898
32064,20560,28094
32014,20533,28015
32010,20564,28140
32164,20540,28004
32364,20567,28205
32448,20545,28132
32424,20564,28080
32368,20564,28098
32292,20543,28188
32225,20569,28188
32256,20549,28300
32297,20594,28178
32396,20584,28184
32568,20574,28204
32740,20549,28421
32784,20622,28364
32780,20576,28423
32772,20554,28301
32736,20600,28473
32664,20585,28535
32676,20569,28425
32740,20558,28532
32800,20580,28380
32888,20580,28402
32996,20576,28472
33032,20570,28576
33080,20601,28645
33056,20576,28612
32992,20627,28652
32921,20580,28543
32976,20573,28535
33056,20628,28599
33176,20592,28644
33320,20594,28715
33444,20635,28741
33508,20623,28607
33500,20600,28652
33484,20624,28728
33428,20601,28812
33396,20631,28672
33380,20608,28740
33472,20602,28846
33628,20631,28728
33724,20613,28852
33856,20647,28797
33920,20617,28908
33893,20668,28775
33800,20632,28894
33704,20674,28885
33564,20630,28847
33564,20628,28820
33632,20621,28844
33760,20645,29052
33836,20636,28997
33956,20661,28872
33972,20641,29036
33944,20653,29015
33920,20642,29081
33860,20663,28940
33732,20640,29021
33680,20658,29126
33708,20646,28981
33760,20673,29196
33764,20646,29140
33840,20674,29015
33872,20661,29152
33848,20689,29208
33814,20662,29063
33744,20705,29264
33628,20676,29236
33544,20656,29120
33452,20668,29312
33248,20708,29269
33244,20682,29148
33364,20720,29300
33412,20693,29308
33312,20679,29169
33224,20703,29300
33078,20679,29238
32910,20719,29353
32812,20685,29199
32784,20679,29408
32812,20707,29345
32788,20688,29356
32876,20736,29410
32900,20696,29258
32856,20740,29462
32752,20701,29399
32576,20743,29428
32389,20711,29318
32284,20737,29337
32296,20708,29453
32302,20738,29297
32324,20709,29496
32389,20748,29349
32468,20719,29468
32516,20751,29313
32608,20716,29513
32622,20732,29475
32382,20709,29359
32166,20752,29343
32133,20709,29496
32320,20767,29421
32596,20733,29516
32908,20718,29362
33064,20751,29432
33085,20740,29545
33032,20722,29452
32796,20735,29549
32320,20770,29400
31820,20732,29596
31372,20722,29588
31436,20737,29495
31746,20725,29570
32056,20779,29592
32320,20753,29460
32417,20743,29485
32376,20749,29521
32160,20739,29637
31856,20774,29480
31800,20749,29678
31941,20782,29605
32104,20752,29679
32232,20803,29536
32345,20761,29732
32412,20752,29655
32428,20807,29618
32344,20769,29726
32304,20758,29568
32260,20780,29659
32236,20758,29652
32273,20780,29774
32312,20763,29729
32420,20777,29767
32528,20825,29641
32520,20796,29660
32444,20777,29832
32356,20825,29745
32324,20801,29680
32236,20783,29742
32252,20812,29933
32320,20788,29847
32457,20828,29757
32553,20793,29797
32664,20844,29936
32632,20801,29906
32532,20836,29762
32532,20807,29877
32512,20846,29888
32442,20807,29790
32430,20844,29841
32404,20808,29903
32312,20855,29996
32272,20812,29845
32348,20805,29951
32432,20844,29910
32500,20815,30020
32488,20833,29929
32440,20815,29999
32364,20849,30040
32296,20812,29901
32336,20836,30073
32416,20823,30069
32452,20854,30087
32500,20839,29916
32517,20878,30146
32592,20845,30086
32632,20831,30116
32632,20876,30134
32552,20834,30076
32480,20826,30052
32332,20846,30165
32192,20825,30094
32168,20850,30076
32313,20840,30200
32420,20878,30053
32400,20847,30245
32330,20879,30177
32288,20840,30070
32236,20878,30180
32272,20846,30156
32320,20882,30284
32392,20855,30144
32493,20892,30242
32548,20859,30318
32576,20853,30185
32556,20879,30364
32456,20857,30332
32398,20849,30244
32321,20853,30343
32252,20852,30294
32268,20870,30209
32388,20845,30449
32588,20861,30415
32752,20858,30318
32872,20869,30399
32864,20907,30316
32800,20879,30334
32596,20911,30271
32308,20873,30518
32268,20908,30450
32265,20882,30479
32436,20870,30393
32612,20916,30412
32760,20879,30505
32660,20871,30343
32440,20915,30388
32328,20885,30456
32241,20868,30464
32212,20903,30536
32220,20876,30552
32308,20871,30431
32440,20903,30636
32576,20894,30481
32740,20888,30588
32804,20930,30444
32744,20900,30477
32676,20885,30630
32564,20920,30534
32400,20892,30650
32377,20874,30512
32460,20890,30647
32599,20872,30685
32736,20898,30638
32921,20887,30631
33064,20919,30520
32964,20893,30788
32680,20916,30740
32373,20898,30648
32244,20932,30653
32232,20887,30628
32360,20905,30804
32456,20900,30799
32576,20943,30668
32788,20902,30886
32925,20894,30749
32893,20919,30868
32793,20952,30860
32616,20903,30842
32364,20894,30922
32348,20918,30965
32384,20898,30945
32436,20898,30798
32544,20929,30900
32724,20903,30977
32792,20941,31034
32788,20903,31017
32700,20944,30995
32633,20911,30926
32568,20946,31164
32592,20905,31135
32692,20933,31025
32652,20905,31071
32748,20932,31001
32880,20912,31285
32856,20949,31236
32704,20914,31136
32656,20944,31176
32621,20906,31124
32564,20926,31386
32544,20907,31337
32568,20927,31268
32604,20961,31277
32744,20922,31226
32917,20961,31450
33000,20925,31399
32956,20964,31452
32888,20929,31396
32784,20956,31388
32616,20913,31328
32464,20959,31392
32432,20924,31551
32489,20958,31583
32608,20933,31463
32736,20968,31668
32760,20945,31556
32734,20925,31646
32612,20937,31542
32488,20920,31687
32372,20951,31672
32300,20920,31535
32428,20960,31676
32556,20930,31796
32648,20928,31663
32780,20979,31791
32744,20940,31607
32696,20924,31901
32713,20951,31788
32644,20928,31871
32500,20956,31767
32370,20929,31903
32384,20961,31908
32480,20933,31773
32640,20931,31842
32772,20964,32057
32928,20946,31956
32980,20932,32023
32896,20944,31916
32760,20933,32068
32606,20935,32084
32616,20925,31903
32704,20957,32188
32777,20931,32104
32812,20972,31969
32820,20946,32066
32832,20980,32180
32812,20957,32173
32761,20934,32217
32700,20953,32204
32576,20941,32308
32416,20932,32300
32288,20974,32251
32252,20935,32108
32324,20987,32265
32480,20979,32445
32592,20952,32368
32636,20942,32388
32594,20970,32206
32576,20945,32325
32548,20936,32524
32527,20964,32360
32601,20940,32477
32684,20981,32332
32754,20948,32508
32788,20941,32500
32676,20963,32549
32604,20945,32560
32644,20943,32390
32544,20964,32404
32364,20942,32496
32388,20940,32511
32496,20965,32664
32616,20933,32677
32724,20982,32646
32876,20952,32698
32940,20949,32697
32908,20943,32497
32824,20980,32565
32752,20961,32640
32612,20951,32741
32568,20926,32801
32644,20950,32775
32736,20985,32670
32928,20942,32901
33052,20975,32807
33104,20944,32829
32996,20956,32764
32868,20999,32816
32812,20957,32863
32716,20945,32878
32624,20951,32775
32576,20946,32788
32605,20985,32978
32676,20956,33031
32812,20946,32921
32892,20970,32973
32896,20950,32761
32869,20995,32904
32794,20957,33069
32612,20945,32983
32389,20984,33024
32336,20963,32820
32444,20990,33089
32624,20964,32982
32748,20945,33093
32848,20967,32880
32885,20955,33127
32888,20985,33135
32840,20959,33133
32736,20948,33177
32698,20984,32996
32749,20960,33023
32880,20946,33233
32888,20956,33183
32860,20989,33132
32904,20953,33274
32860,20981,33276
32764,20956,33174
32616,20950,33343
32516,20964,33353
32512,20942,33319
32452,20974,33135
32577,20951,33463
32712,20972,33383
32810,20992,33463
32828,20965,33364
32820,20950,33197
32796,20961,33526
32752,20943,33409
32684,20986,33480
32612,20958,33292
32600,20940,33388
32665,20985,33572
32756,20959,33420
32932,20999,33320
32976,20962,33532
32913,20956,33661
32860,20996,33508
32744,20963,33621
32672,20950,33408
32572,20991,33548
32576,20959,33676
32625,20946,33660
32744,20988,33687
32924,20969,33522
33072,20953,33604
33112,21006,33794
33136,20977,33684
33120,20957,33732
33112,20996,33543
33072,20965,33666
33052,20952,33825
33028,20990,33732
33108,20961,33805
33448,21010,33737
33780,20976,33937
33993,20964,33834
34428,20985,33732
34860,20965,33920
35265,20959,33944
35828,20973,33908
36496,20956,33700
37292,20995,33872
38160,20959,33945
39064,21025,33953
39944,20972,33990
40704,21044,33924
41292,20992,33960
41636,20975,34100
41492,21052,34073
40900,20995,34064
40024,20984,34101
38928,20957,34144
37668,21029,33919
36441,20980,34087
35340,20966,34132
34336,21028,34214
33373,21015,34282
32656,20983,34261
32169,20974,34242
31952,20961,34258
31940,20999,34190
32036,20975,34298
32098,20964,34391
32172,20995,34321
32128,20967,34347
31860,21015,34162
31764,20985,34300
31736,20964,34474
31684,20999,34260
31577,20975,34393
31552,20962,34296
31616,20987,34439
31704,20970,34512
31808,20965,34536
31904,21009,34455
31860,20981,34380
31800,20964,34468
31724,21005,34240
31568,20981,34293
31449,20972,34407
31488,20948,34536
31606,20975,34583
31748,20964,34439
31936,20982,34560
32036,20975,34456
32044,21015,34628
31984,20988,34501
31848,20965,34592
31661,20977,34524
31624,20967,34679
31665,20999,34617
31785,20981,34511
31820,20971,34588
31856,21006,34639
32036,20991,34517
32060,20977,34584
31992,21007,34681
31948,20981,34677
31892,20972,34562
31876,21005,34528
32016,20973,34628
32140,20966,34378
32232,21011,34376
32440,20991,34516
32560,20977,34687
32556,20988,34673
32480,20975,34553
32456,21016,34552
32360,20977,34572
32232,20981,34537
32232,20971,34463
32304,20967,34444
32437,21016,34490
32528,21006,34512
32404,20985,34493
32304,20980,34517
32316,20965,34548
32384,21011,34548
32376,20980,34293
32388,20965,34438
32384,20998,34628
32416,20975,34497
32556,21015,34548
32748,20985,34549
32864,20977,34311
32900,20975,34453
32856,20987,34604
32752,20996,34468
32664,20978,34557
32612,20962,34641
32744,21007,34650
32892,20976,34599
32940,20969,34534
33044,21009,34556
33176,20981,34484
33278,21018,34652
33356,20991,34632
33374,20967,34580
33332,21012,34540
33240,20977,34335
33209,20966,34492
33321,20985,34626
33440,20969,34612
33468,21010,34501
33525,20992,34559
33576,21015,34439
33616,20981,34480
33586,20966,34531
33508,21012,34332
33484,20982,34438
33496,20963,34543
33552,20980,34492
33600,21021,34388
33700,20983,34533
33760,20966,34367
33744,20981,34457
33796,20967,34439
33780,21008,34348
33753,20973,34525
33716,21008,34392
33741,20976,34421
33768,20969,34421
33756,20961,34257
33884,21007,34317
34004,20980,34439
33944,20971,34372
33920,21017,34340
33840,20983,34144
33776,21020,34340
33696,20965,34482
33592,20963,34340
33680,20972,34396
33787,20963,34177
33940,20986,34368
34004,20974,34495
33908,21016,34277
33756,20986,34365
33448,20967,34415
33216,21005,34180
33068,20983,34326
32924,20969,34476
32920,21018,34415
32936,20969,34446
32996,20999,34436
33090,20974,34202
33080,21023,34470
32944,20987,34340
32752,21033,34444
32529,20985,34302
32310,20972,34457
32244,20986,34468
32300,21031,34481
32326,20981,34348
32381,21028,34596
32301,20999,34396
32188,20980,34513
32080,21016,34444
32040,20983,34639
32022,21013,34500
31876,20986,34533
31792,21020,34484
31914,20987,34618
31992,21017,34476
32033,21018,34564
32060,20989,34360
31983,21026,34550
31839,20997,34712
31700,20975,34537
31516,20990,34645
31396,20974,34660
31382,21013,34425
31492,20991,34631
31644,21020,34806
31820,20997,34649
31992,21027,34724
32068,20996,34524
32044,20986,34799
31942,21029,34860
31689,20990,34692
31558,20983,34801
31584,21016,34617
31672,20999,34596
31804,20990,34823
31904,21029,34897
31916,20992,34887
31892,21037,34897
31872,20998,34897
31796,21038,34973
31716,21007,34838
31668,20989,34968
31680,21012,34895
31676,20985,35052
31780,20982,35124
31961,21005,34980
32092,20986,35055
32130,21021,35036
32141,20998,35132
32156,20981,34980
32048,21001,35113
31922,20980,34869
31940,21012,35045
31964,20991,35208
31980,20981,35226
32152,21023,35055
32360,20992,35183
32424,20986,35072
32420,21018,35276
32276,20994,35132
32144,21021,35228
31992,20990,34981
31940,20975,35236
32050,20986,35212
32076,20978,34990
32124,20993,35341
32316,21029,35175
32409,20995,35292
32388,21021,35193
32173,20987,35274
31964,21018,35313
31924,20983,35228
31976,21017,35264
32096,21006,35303
32220,20975,35387
32260,21013,35312
32316,20990,35372
32284,20975,35244
32144,21007,35293
32040,20980,35456
31956,20966,35295
31761,20987,35444
31724,20964,35188
31885,21001,35364
32074,20980,35536
32258,20969,35412
32350,21020,35512
32284,20993,35528
32200,20973,35316
32132,20964,35407
32088,20972,35528
32068,20957,35660
32104,20998,35669
32224,20986,35519
32292,20972,35606
32388,20959,35685
32415,20980,35606
32292,20960,35816
32200,20994,35684
32128,20960,35712
32012,20997,35751
31928,20964,35709
31956,20947,35884
32013,20975,35799
32108,20956,35840
32248,20994,35845
32381,20969,35785
32356,21004,35988
32248,20965,35820
32236,20999,35942
32168,20958,35844
32160,20988,36021
32256,20956,35896
32380,20944,36001
32388,20948,36004
32364,20959,35940
32256,20948,36089
32053,20950,36152
31856,20965,36001
31810,20948,36068
31816,20976,35828
31780,20943,36191
31884,20980,36125
31972,20942,36127
32094,20980,36140
32184,20948,36100
32224,20942,36284
32324,20960,36117
32360,20944,36196
32320,20979,36212
32340,20967,36231
32292,20939,35975
32238,20928,35986
32224,20935,36065
32206,20960,36125
32236,20951,36231
32268,20933,36224
32197,20975,36359
32157,20960,36423
32132,20948,36445
32064,20937,36471
32024,20919,36396
32096,20962,36452
32192,20952,36420
32333,20933,36292
32452,20924,36414
32552,20934,36449
32552,20922,36293
32444,20946,36419
32224,20933,36565
31936,20966,36425
31876,20930,36484
32000,20916,36524
32136,20956,36294
32268,20936,36552
32408,20933,36568
32528,20916,36580
32513,20968,36588
32408,20957,36602
32277,20936,36612
32225,20915,36615
32178,20911,36373
32196,20905,36548
32276,20933,36701
32328,20909,36520
32416,20961,36613
32444,20929,36673
32364,20921,36656
32381,20906,36600
32413,20949,36609
32388,20924,36727
32352,20912,36799
32405,20906,36608
32488,20957,36681
32552,20934,36680
32684,20917,36477
32752,20898,36615
32720,20950,36759
32717,20937,36735
32652,20917,36621
32572,20905,36682
32484,20887,36709
32420,20920,36684
32488,20909,36516
32524,20890,36615
32564,20940,36601
32628,20927,36588
32600,20905,36504
32612,20908,36590
32588,20909,36584
32544,20901,36585
32485,20903,36470
32512,20895,36391
32620,20891,36628
32684,20893,36581
32798,20889,36525
32948,20888,36480
32996,20884,36695
32956,20925,36585
32900,20900,36697
32828,20896,36676
32628,20881,36533
32464,20878,36440
32488,20920,36407
32564,20908,36249
32668,20890,36484
32797,20897,36492
32832,20882,36479
32836,20844,36466
32813,20897,36168
32712,20884,36181
32652,20872,36142
32584,20909,36372
32660,20892,36311
32785,20881,36280
32876,20892,36317
32944,20879,36359
32980,20873,36388
32908,20905,36380
32822,20884,36244
32732,20879,36373
32656,20870,36349
32676,20864,36334
32708,20858,36224
32772,20857,36036
32868,20864,35884
32900,20921,36138
32740,20911,36132
32620,20889,35828
32684,20876,35996
32685,20900,36180
32620,20887,36046
32508,20858,35898
32532,20850,35988
32604,20853,35975
32740,20889,35967
32884,20889,35937
32976,20871,35901
32960,20853,35748
32881,20879,35823
32800,20860,35892
32713,20849,35935
32664,20888,35832
32608,20865,35709
32596,20847,35716
32798,20845,35748
32988,20887,35713
33040,20867,35471
33008,20851,35591
32996,20840,35636
32932,20858,35696
32814,20844,35663
32728,20836,35543
32746,20872,35583
32820,20847,35447
32884,20842,35535
32996,20837,35508
33036,20885,35268
33084,20880,35381
33036,20863,35360
32948,20841,35356
32893,20836,35421
32956,20831,35484
32944,20868,35311
32888,20841,35309
33028,20838,35321
33164,20850,35244
33184,20834,35129
33236,20884,35300
33228,20844,35119
33380,20871,35209
33652,20838,35105
34040,20880,35252
34484,20853,35262
35152,20837,35069
35840,20821,35069
36524,20884,35100
37172,20844,34838
37848,20824,35038
38504,20868,35121
39212,20841,35152
40062,20818,34965
40960,20810,34911
41884,20856,34964
42564,20836,34977
42736,20814,34969
42400,20817,34808
41344,20870,34796
39917,20832,34736
38312,20832,34769
36664,20818,34677
35164,20866,34776
33980,20820,34936
33024,20812,34852
32432,20844,34789
32228,20821,34798
32116,20813,34808
32109,20855,34797
32036,20840,34780
31872,20817,34532
31688,20800,34666
31493,20823,34846
31404,20805,34655
31464,20833,34719
31525,20809,34716
31624,20807,34708
31760,20839,34444
31756,20835,34436
31749,20817,34468
31678,20796,34548
31591,20836,34528
31456,20809,34636
31422,20805,34696
31336,20789,34477
31252,20823,34541
31360,20808,34564
31528,20791,34306
31580,20831,34429
31564,20796,34621
31448,20822,34479
31344,20796,34493
31248,20833,34311
31257,20817,34365
31364,20790,34478
31456,20788,34402
31572,20801,34404
31644,20791,34136
31752,20787,34147
31872,20826,34109
31934,20821,34300
31852,20803,34284
31672,20786,34284
31580,20780,34080
31672,20777,34071
31828,20804,34194
32004,20788,34143
32128,20778,34190
32112,20814,34118
32016,20792,34060
31920,20774,34037
31772,20812,34036
31672,20795,34016
31744,20780,33982
31818,20772,33716
31940,20812,33799
32088,20784,33892
32220,20772,33900
32276,20805,33792
32292,20773,33552
32253,20807,33733
32237,20780,33680
32148,20775,33657
32169,20760,33668
32184,20795,33625
32152,20777,33566
32176,20773,33652
32288,20806,33467
32392,20782,33441
32436,20768,33505
32424,20763,33476
32396,20774,33222
32336,20756,33388
32356,20771,33348
32448,20754,33188
32580,20775,33364
32644,20766,33284
32684,20802,33282
32708,20767,33094
32698,20761,33142
32732,20782,33159
32649,20769,33196
32548,20752,33222
32556,20775,33119
32704,20760,33125
32876,20750,33092
32997,20799,33073
33196,20768,32824
33324,20772,32796
33328,20752,32884
33256,20796,32956
33074,20773,32999
33010,20741,32944
32984,20794,32780
33101,20765,32732
33200,20762,32732
33308,20743,32742
33456,20773,32735
33552,20748,32572
33556,20800,32546
33476,20785,32497
33422,20761,32376
33366,20756,32556
33400,20741,32527
33508,20737,32469
33688,20772,32452
33844,20756,32416
33976,20742,32373
34025,20782,32335
33924,20761,32304
33704,20737,32050
33516,20775,32104
33344,20749,32062
33392,20729,32143
33521,20778,32066
33632,20762,32008
33741,20741,31876
33860,20752,31809
33884,20732,31852
33744,20733,31812
33620,20780,31784
33462,20762,31749
33324,20740,31892
33232,20724,31770
33340,20771,31729
33356,20737,31750
33368,20733,31588
33376,20771,31647
33152,20750,31716
32996,20776,31585
32892,20770,31513
32760,20748,31525
32609,20730,31492
32552,20728,31461
32580,20713,31464
32584,20760,31445
32570,20737,31196
32576,20728,31235
32480,20724,31333
32358,20766,31335
32264,20751,31189
32188,20736,31141
32048,20727,31111
31980,20709,31151
31968,20755,31252
32057,20734,31060
32132,20716,31111
32132,20770,31119
31968,20749,30904
31812,20725,30936
31748,20752,31070
31664,20727,30900
31554,20710,31004
31524,20731,30784
31560,20713,30972
31646,20753,30855
31708,20725,30870
31796,20720,30887
31808,20761,30716
31744,20744,30717
31660,20729,30862
31496,20708,30749
31344,20713,30781
31309,20704,30781
31460,20732,30626
31564,20710,30808
31680,20740,30693
31828,20720,30537
31940,20711,30593
32005,20738,30686
31956,20717,30640
31880,20747,30503
31848,20710,30497
31872,20697,30679
31904,20740,30497
31820,20708,30584
31828,20703,30389
32028,20742,30517
32132,20714,30579
32076,20703,30510
32004,20735,30329
31936,20707,30408
31844,20733,30434
31824,20708,30436
31926,20693,30295
32036,20708,30393
32140,20701,30405
32168,20697,30464
32232,20737,30333
32224,20713,30358
32180,20702,30369
32236,20696,30348
32240,20682,30169
32132,20687,30183
32068,20726,30156
32116,20700,30345
32204,20686,30276
32308,20718,30161
32345,20704,30086
32318,20697,30086
32272,20743,30103
32208,20701,30251
32084,20683,30180
32057,20718,30023
32057,20694,30024
32108,20677,30198
32260,20726,30020
32376,20689,30124
32412,20726,29949
32328,20693,30025
32160,20682,30124
32092,20716,30044
31976,20684,30053
32080,20703,30068
32145,20672,29964
32200,20685,29855
32296,20677,30033
32420,20703,29969
32372,20675,29982
32204,20698,29797
32192,20717,30020
32172,20678,29856
32153,20708,29957
32192,20674,29807
32260,20663,29796
32324,20701,29845
32384,20683,29983
32420,20718,29852
32404,20700,29924
32252,20676,29759
32176,20716,29955
32088,20686,29791
32032,20658,29902
32084,20660,29879
32160,20696,29719
32220,20664,29879
32300,20693,29777
32413,20677,29885
32352,20669,29708
32272,20686,29841
32178,20665,29770
32100,20686,29860
32048,20662,29708
32056,20691,29895
32136,20675,29724
32148,20660,29832
32256,20695,29700
32372,20666,29847
32464,20668,29852
32400,20654,29703
32192,20706,29799
32116,20673,29652
32030,20708,29804
32008,20660,29697
32124,20654,29792
32196,20683,29637
32280,20662,29801
32368,20708,29690
32428,20666,29786
32440,20653,29609
32400,20677,29741
32365,20646,29809
32296,20695,29688
32368,20663,29772
32446,20645,29620
32512,20660,29796
32635,20650,29751
32645,20682,29610
32568,20660,29733
32388,20694,29662
32260,20660,29760
32152,20691,29648
32056,20651,29823
32100,20655,29684
32256,20635,29772
32404,20652,29615
32480,20651,29685
32644,20687,29684
32712,20655,29772
32708,20692,29616
32634,20648,29772
32538,20639,29664
32417,20662,29768
32416,20637,29670
32436,20644,29762
32466,20616,29612
32524,20652,29820
32654,20683,29770
32696,20651,29620
32652,20636,29781
32544,20647,29768
32456,20639,29604
32420,20677,29604
32365,20640,29785
32436,20629,29705
32652,20677,29774
32824,20645,29629
33008,20633,29834
33048,20653,29786
32872,20639,29632
32684,20675,29837
32644,20645,29698
32560,20621,29796
32524,20645,29640
32636,20639,29732
32712,20673,29743
32860,20648,29810
33024,20631,29660
33068,20671,29776
33088,20645,29849
32964,20628,29772
32896,20672,29815
32804,20637,29708
32680,20622,29693
32680,20665,29872
32776,20633,29785
32857,20631,29832
32926,20676,29692
32940,20644,29719
32924,20635,29831
32904,20677,29774
32908,20639,29889
32844,20623,29741
32877,20656,29799
32956,20623,29912
32988,20660,29768
33116,20636,29979
33237,20665,29901
33276,20628,29783
33246,20635,29948
33204,20615,29784
33120,20629,29945
33028,20623,29930
32948,20607,29962
32960,20660,29980
33048,20633,29858
33162,20615,30044
33288,20645,30029
33344,20622,29920
33320,20666,29929
33324,20626,30010
33252,20613,30057
33148,20656,29918
32956,20614,30100
32964,20609,30013
33036,20660,30068
33148,20623,30095
33232,20662,29952
33272,20620,30146
33280,20611,30084
33278,20649,30121
33188,20614,29976
33004,20605,30023
32877,20640,30201
32828,20612,30207
32876,20610,30182
33022,20653,30089
33184,20615,30140
33194,20610,30172
33172,20644,30185
33148,20616,30037
33076,20599,30044
32960,20646,30225
32940,20613,30239
32984,20598,30152
33028,20616,30164
33072,20616,30110
33144,20597,30204
33144,20636,30228
33100,20614,30044
33084,20645,30080
33044,20612,30183
32930,20598,30276
32928,20644,30237
32976,20619,30208
33052,20601,30136
33188,20648,30152
33338,20642,30148
33384,20623,30120
33412,20605,30205
33412,20599,30230
33324,20632,30236
33404,20612,30066
33604,20596,30233
33706,20632,30057
34008,20604,30286
34556,20629,30132
35176,20617,30194
35776,20606,30253
36392,20630,30076
36968,20604,30112
37608,20669,30180
38176,20612,30325
38988,20607,30245
39960,20596,30317
40844,20661,30251
41469,20600,30308
41960,20661,30297
41928,20632,30145
41196,20606,30152
40124,20676,30190
38844,20622,30214
37384,20620,30256
35932,20673,30414
34756,20631,30454
33780,20621,30436
33004,20612,30445
32660,20612,30344
32472,20655,30433
32300,20623,30464
32164,20623,30518
32048,20604,30517
31880,20636,30400
31856,20608,30481
31849,20602,30488
31840,20630,30392
31868,20613,30542
31904,20647,30489
31869,20613,30370
31769,20607,30341
31732,20637,30385
31688,20612,30436
31612,20601,30564
31580,20629,30488
31612,20612,30523
31664,20600,30561
31744,20636,30394
31772,20617,30485
31728,20610,30621
31672,20616,30496
31716,20612,30613
31692,20642,30625
31540,20610,30504
31469,20606,30545
31562,20596,30709
31656,20645,30734
31804,20626,30652
31980,20615,30595
32064,20609,30706
32068,20624,30720
32008,20611,30605
31924,20648,30789
31840,20611,30719
31832,20596,30767
31858,20644,30766
31912,20614,30639
32008,20602,30738
32144,20660,30796
32216,20644,30823
32208,20620,30841
32128,20607,30701
32044,20640,30789
31925,20612,30633
31900,20596,30660
31956,20645,30693
32040,20615,30783
32144,20605,30799
32320,20644,30781
32388,20615,30785
32377,20651,30655
32373,20619,30784
32280,20656,30804
32148,20610,30752
32185,20596,30784
32288,20631,30591
32360,20606,30788
32457,20628,30676
32624,20607,30760
32728,20649,30781
32772,20633,30778
32780,20603,30588
32704,20641,30632
32540,20607,30703
32416,20640,30844
32528,20610,30684
32641,20649,30788
32650,20614,30605
32764,20601,30653
32908,20633,30808
32885,20603,30701
32877,20634,30798
32844,20605,30657
32801,20615,30765
32772,20596,30706
32796,20631,30796
32888,20607,30661
32988,20651,30700
33156,20612,30898
33252,20600,30736
33281,20641,30831
33304,20615,30855
33286,20596,30658
33200,20623,30785
33208,20591,30788
33336,20639,30860
33476,20602,30673
33544,20628,30924
33641,20598,30796
33680,20634,30873
33696,20610,30708
33689,20641,30879
33652,20612,30774
33544,20593,30860
33452,20632,30888
33408,20612,30896
33568,20607,30884
33692,20643,30759
33840,20609,30958
33902,20597,30838
33895,20628,30864
33893,20607,30917
33880,20644,30782
33764,20599,30989
33696,20561,30831
33732,20614,30944
33810,20590,30805
33876,20647,30918
33996,20606,30999
33976,20656,30975
33936,20604,30832
33880,20594,31062
33772,20608,30997
33584,20585,30936
33432,20607,30996
33373,20630,30871
33422,20601,31101
33537,20632,31041
33616,20597,30983
33428,20622,31040
33276,20598,30884
33208,20628,31144
33116,20591,31081
32976,20607,31130
32824,20587,31039
32784,20602,30972
32765,20638,31061
32801,20588,30964
32864,20607,31026
32812,20644,30976
32704,20607,31194
32568,20631,31148
32384,20588,31215
32194,20604,31164
32120,20580,31029
32164,20590,31095
32244,20590,31176
32264,20607,31053
32276,20649,31104
32272,20598,31012
32214,20636,31124
32172,20606,31241
32084,20628,31207
31968,20599,31028
31872,20580,31225
31820,20596,31160
31876,20580,31239
31984,20600,31102
32104,20631,31286
32148,20592,31156
32120,20623,31269
32032,20587,31072
31944,20607,31248
31776,20583,31172
31676,20597,31301
31772,20580,31108
31893,20596,31268
32024,20583,31215
32164,20597,31169
32156,20589,31343
31984,20599,31249
31888,20581,31365
31888,20592,31229
31857,20575,31372
31832,20607,31288
31892,20583,31393
32032,20624,31233
32124,20594,31488
32205,20577,31406
32252,20612,31239
32280,20580,31483
32232,20596,31463
32183,20575,31325
32080,20615,31456
32037,20580,31560
32060,20572,31428
32136,20601,31330
32212,20580,31391
32336,20581,31471
32416,20601,31541
32392,20583,31513
32342,20613,31362
32260,20580,31620
32192,20615,31540
32102,20580,31588
32144,20622,31404
32228,20594,31637
32324,20588,31528
32369,20634,31636
32382,20594,31584
32350,20633,31564
32300,20589,31668
32297,20572,31556
32224,20583,31724
32176,20566,31696
32168,20597,31713
32182,20570,31657
32154,20583,31700
32276,20621,31751
32369,20584,31645
32368,20580,31806
32372,20589,31729
32356,20626,31824
32234,20591,31704
32164,20607,31879
32156,20573,31847
32186,20601,31671
32264,20580,31751
32392,20627,31934
32512,20592,31980
32518,20578,31869
32512,20621,31913
32448,20589,31751
32308,20609,31934
32212,20575,31888
32168,20612,32000
32272,20585,31884
32353,20569,32104
32485,20590,31932
32580,20573,32060
32540,20583,31936
32512,20573,32153
32388,20583,32007
32196,20565,32109
32116,20596,31932
32188,20572,32041
32321,20626,32176
32428,20591,32142
32512,20570,31966
32616,20593,32148
32572,20578,32092
32552,20615,31990
32496,20565,32281
32367,20608,32218
32130,20580,32053
32048,20610,32208
32180,20582,32273
32308,20569,32246
32377,20607,32047
32372,20580,32146
32365,20622,32312
32364,20583,32370
32320,20572,32263
32224,20615,32201
32192,20591,32314
32270,20557,32187
32308,20604,32335
32408,20585,32353
32544,20568,32246
32608,20616,32248
32604,20589,32340
32532,20628,32152
32452,20583,32398
32345,20562,32367
32288,20609,32285
32340,20580,32390
32356,20565,32245
32372,20576,32448
32452,20618,32388
32534,20580,32281
32485,20618,32488
32416,20580,32420
32376,20621,32313
32248,20591,32457
32224,20572,32407
32312,20566,32430
32456,20604,32440
32617,20576,32302
32864,20565,32495
32956,20597,32375
32828,20568,32252
32648,20602,32524
32522,20574,32372
32446,20611,32460
32364,20567,32476
32412,20607,32419
32476,20564,32289
32601,20576,32540
32724,20571,32481
32796,20586,32372
32752,20614,32388
32652,20574,32483
32580,20615,32469
32436,20569,32468
32376,20588,32390
32390,20558,32538
32440,20572,32510
32524,20615,32508
32680,20573,32446
32728,20572,32516
32664,20586,32396
32629,20566,32581
32604,20603,32449
32516,20569,32412
32460,20601,32398
32512,20562,32535
32561,20574,32514
32717,20614,32344
32812,20580,32433
32762,20620,32508
32656,20581,32524
32672,20561,32317
32604,20598,32420
32528,20578,32461
32504,20559,32576
32580,20582,32449
32696,20567,32509
32820,20564,32532
32864,20601,32329
32892,20582,32536
32925,20616,32505
32950,20569,32544
32916,20599,32420
32848,20563,32492
32790,20577,32527
32688,20557,32359
32628,20580,32452
32712,20558,32603
32864,20588,32425
32960,20566,32509
32986,20591,32398
32960,20565,32601
32888,20573,32512
32756,20559,32376
32728,20567,32548
32732,20556,32420
32812,20584,32484
32860,20560,32361
32988,20575,32544
33124,20560,32412
33100,20588,32237
32980,20590,32534
32896,20607,32447
32808,20559,32457
32753,20571,32413
32796,20593,32277
32824,20562,32380
32805,20577,32391
32860,20608,32263
32984,20568,32428
32988,20582,32333
32944,20615,32218
32812,20580,32382
32644,20599,32239
32536,20556,32304
32532,20570,32231
32644,20608,32237
32836,20560,32268
33028,20586,32160
33144,20567,32226
33104,20576,32241
33028,20564,32024
32892,20566,32268
32756,20583,32117
32672,20554,32016
32672,20562,32216
32660,20583,32172
32664,20608,32100
32908,20578,32048
32954,20614,32141
32997,20572,31997
33024,20601,32194
32884,20613,32108
32708,20571,31976
32676,20582,31998
32760,20554,32061
32840,20575,31912
32904,20614,32037
32988,20574,32016
33089,20561,31807
33008,20575,32000
32908,20535,31878
32780,20581,31972
32656,20609,31833
32598,20571,31977
32644,20594,31912
32754,20564,31924
32816,20596,31794
33000,20560,31964
33072,20597,31790
33057,20565,31684
32944,20609,31728
32741,20567,31916
32628,20566,31841
32576,20600,31623
32630,20560,31776
32694,20597,31777
32784,20552,31815
32932,20573,31671
32984,20609,31870
32872,20567,31754
32808,20572,31680
32772,20569,31741
32644,20597,31617
32498,20554,31668
32600,20565,31545
32724,20597,31796
32844,20556,31717
33076,20572,31759
33288,20607,31597
33376,20580,31693
33392,20559,31503
33336,20573,31551
33166,20553,31721
33104,20600,31615
33164,20573,31628
33400,20559,31616
33652,20610,31472
33924,20583,31636
34264,20624,31490
34600,20578,31588
34912,20563,31372
35208,20591,31572
35453,20561,31462
36004,20580,31542
36608,20553,31478
37450,20592,31524
38332,20561,31496
39236,20608,31312
39986,20564,31379
40516,20649,31550
40608,20561,31294
40284,20583,31525
39480,20593,31468
38476,20556,31284
37304,20564,31508
36216,20557,31407
35200,20572,31461
34342,20619,31461
33484,20562,31548
32848,20580,31425
32520,20567,31266
32372,20568,31527
32244,20589,31431
32108,20557,31326
32068,20564,31364
32056,20606,31445
32061,20569,31432
32164,20590,31416
32220,20560,31434
32172,20586,31382
32000,20561,31311
31958,20576,31409
31848,20552,31358
31716,20562,31297
31804,20583,31391
31912,20553,31231
32072,20582,31365
32182,20558,31380
32280,20569,31223
32244,20562,31405
32148,20583,31340
32068,20546,31203
31976,20567,31313
31956,20599,31425
31988,20557,31350
32036,20607,31181
32078,20563,31381
32156,20598,31288
32260,20575,31367
32308,20552,31181
32348,20564,31425
32336,20581,31372
32124,20547,31325
31873,20572,31324
31904,20592,31173
31916,20553,31447
31944,20570,31348
32018,20601,31196
32173,20573,31231
32192,20600,31409
32196,20562,31320
32116,20561,31153
32040,20591,31409
31956,20548,31239
32012,20557,31172
32144,20563,31320
32272,20594,31220
32429,20576,31225
32572,20605,31290
32588,20553,31133
32560,20589,31269
32469,20556,31234
32358,20564,31084
32245,20598,31114
32272,20557,31004
32348,20548,31197
32432,20573,31134
32496,20596,31096
32640,20556,31095
32692,20560,30945
32660,20598,31145
32560,20552,31074
32476,20579,30900
32446,20548,31093
32484,20562,31013
32562,20604,30988
32676,20556,30969
32784,20597,30828
32804,20558,30873
32808,20568,30740
32892,20600,30900
32904,20557,30880
32813,20575,30854
32748,20546,30841
32748,20556,30711
32856,20562,30721
32921,20545,30816
33076,20570,30645
33216,20582,30676
33312,20551,30580
33232,20563,30630
33168,20595,30543
33100,20548,30754
33156,20580,30673
33196,20543,30544
33308,20562,30620
33416,20578,30481
33520,20551,30601
33572,20569,30439
33550,20580,30588
33436,20593,30408
33380,20549,30548
33329,20570,30389
33304,20546,30592
33352,20548,30502
33460,20540,30314
33520,20583,30432
33620,20559,30381
33708,20592,30446
33714,20562,30372
33676,20548,30357
33644,20563,30399
33416,20548,30302
33320,20552,30256
33401,20538,30343
33496,20597,30196
33580,20564,30268
33636,20606,30263
33688,20566,30290
33692,20551,30079
33636,20585,30236
33576,20548,30136
33440,20591,30215
33328,20548,30189
33308,20541,30008
33300,20580,29980
33444,20556,30016
33532,20548,30144
33576,20557,30020
33532,20545,30096
33348,20563,29924
33196,20545,30017
32996,20586,30062
32812,20548,30012
32760,20562,29853
32800,20543,30017
32801,20564,29876
32780,20560,29905
32757,20547,29944
32752,20564,29744
32705,20546,29800
32568,20556,29812
32356,20586,29858
32262,20558,29680
32204,20581,29871
32256,20550,29693
32328,20588,29780
32436,20541,29615
32480,20581,29754
32388,20551,29604
32288,20600,29601
32196,20571,29665
32100,20555,29656
32016,20532,29461
31988,20560,29464
31972,20548,29573
32024,20542,29621
32132,20581,29596
32268,20560,29520
32284,20542,29468
32172,20552,29369
32072,20596,29320
31944,20549,29364
31820,20544,29369
31808,20581,29441
31856,20548,29446
31916,20536,29420
32052,20540,29348
32112,20571,29396
32136,20554,29268
32100,20595,29214
32108,20549,29296
32056,20546,29274
32077,20540,29254
32084,20568,29236
32048,20543,29050
32000,20576,29044
32060,20554,29116
32112,20545,29191
32184,20583,29168
32169,20559,29108
32129,20543,29069
32038,20565,29007
32008,20546,29001
31984,20533,29004
32020,20562,29040
32054,20548,29015
32172,20581,28830
32264,20558,28807
32250,20544,28801
32196,20597,28772
32112,20570,28778
32056,20548,28906
31992,20577,28924
32004,20548,28884
32116,20538,28764
32196,20581,28720
32340,20559,28792
32500,20541,28780
32532,20567,28605
32420,20544,28607
32244,20556,28749
32144,20534,28631
32056,20573,28684
32068,20541,28686
32140,20578,28501
32236,20548,28492
32316,20537,28526
32388,20580,28628
32376,20555,28636
32340,20548,28480
32304,20552,28562
32217,20535,28399
32113,20577,28453
32116,20543,28493
32136,20537,28421
32168,20576,28489
32280,20551,28318
32368,20596,28301
32412,20553,28478
32356,20543,28457
32280,20582,28438
32176,20545,28436
32104,20535,28300
32096,20564,28293
32148,20551,28340
32220,20536,28348
32324,20575,28209
32384,20554,28309
32386,20554,28310
32361,20537,28143
32304,20565,28121
32240,20535,28164
32144,20579,28278
32148,20541,28256
32176,20536,28164
32168,20558,28189
32212,20549,28176
32356,20541,28132
32404,20561,28157
32344,20537,27992
32312,20557,28069
32272,20537,28144
32180,20575,28029
32132,20549,28065
32096,20578,27948
32028,20543,28030
32140,20573,27940
32384,20540,28038
32444,20549,27953
32392,20588,27898
32324,20548,27989
32232,20565,27901
32048,20537,27919
32020,20568,27927
32120,20541,27924
32224,20532,27754
32324,20556,27910
32428,20533,27777
32472,20556,27865
32448,20539,27684
32420,20552,27865
32360,20533,27729
32260,20560,27797
32273,20534,27801
32349,20564,27617
32432,20536,27777
32508,20568,27744
32612,20538,27764
32636,20577,27744
32556,20550,27584
32480,20537,27745
32388,20545,27718
32244,20530,27628
32220,20567,27677
32312,20540,27699
32400,20581,27688
32538,20554,27540
32656,20534,27660
32664,20583,27689
32604,20554,27655
32529,20536,27583
32408,20581,27660
32310,20538,27654
32277,20523,27505
32336,20562,27500
32460,20548,27606
32556,20580,27556
32576,20534,27654
32528,20566,27483
32556,20530,27673
32524,20546,27564
32440,20533,27592
32296,20571,27584
32289,20529,27588
32334,20518,27607
32394,20542,27628
32481,20532,27534
32608,20546,27504
32672,20534,27631
32664,20554,27615
32604,20525,27556
32504,20566,27494
32420,20539,27632
32409,20578,27608
32500,20540,27557
32625,20539,27575
32804,20527,27658
32944,20554,27679
32940,20545,27666
32800,20582,27684
32482,20544,27529
32340,20523,27520
32272,20572,27519
32280,20535,27598
32386,20522,27713
32496,20526,27620
32608,20578,27637
32708,20541,27733
32698,20534,27756
32669,20573,27717
32628,20560,27717
32496,20546,27701
32396,20533,27693
32392,20517,27684
32428,20519,27705
32504,20519,27717
32580,20569,27736
32720,20548,27704
32766,20535,27692
32748,20529,27776
32644,20574,27797
32448,20537,27806
32328,20535,27738
32342,20522,27662
32400,20552,27672
32510,20531,27682
32672,20527,27735
32802,20565,27868
32872,20546,27878
32825,20537,27886
32764,20522,27879
32644,20577,27858
32568,20551,27784
32538,20535,27932
32616,20532,27924
32688,20526,27932
32781,20539,27956
32896,20527,27944
32920,20585,27860
32880,20549,27868
32772,20532,27860
32634,20518,27867
32540,20558,27871
32532,20533,27970
32588,20570,27866
32648,20553,27843
32768,20540,27962
32952,20524,27996
32964,20585,28006
32884,20553,27985
32772,20541,28052
32716,20552,28062
32590,20543,27976
32620,20520,27967
32700,20567,28014
32789,20542,28088
32896,20542,28080
33012,20524,28040
33012,20554,28116
32956,20541,28112
32892,20580,28152
32748,20533,28161
32668,20520,28170
32730,20517,28174
32820,20511,28180
32868,20548,28201
32924,20532,28190
32900,20520,28196
32808,20572,28176
32784,20528,28137
32736,20525,28116
32720,20516,28131
32654,20532,28130
32652,20526,28132
32708,20525,28149
32804,20517,28153
32888,20564,28142
32976,20539,28136
32972,20530,28139
32940,20518,28252
32832,20517,28257
32732,20556,28156
32622,20521,28160
32584,20509,28167
32624,20554,28158
32720,20521,28233
32856,20520,28237
33008,20541,28232
33112,20517,28228
33134,20552,28085
33081,20524,28059
32941,20569,28057
32859,20519,28045
32820,20510,28049
32788,20556,28172
32812,20524,28180
32916,20516,28220
33060,20573,28196
33017,20527,28140
32948,20514,28054
32905,20554,28084
32762,20521,28084
32656,20516,28093
32680,20546,28116
32736,20521,28000
32788,20511,27935
32860,20537,27929
32998,20524,28047
33032,20566,28092
33040,20532,28087
32996,20522,28045
32940,20517,28017
32880,20559,27988
32908,20526,27948
32888,20505,27952
32849,20556,27935
32897,20527,27919
33008,20517,27948
33060,20566,27974
33020,20532,27973
32884,20517,27888
32764,20551,27813
32648,20516,27796
32608,20508,27788
32612,20568,27812
32696,20521,27950
32844,20510,27874
32932,20541,27941
32940,20516,27813
32953,20564,27790
32960,20525,27779
32896,20512,27772
32802,20554,27806
32844,20525,27868
32900,20501,27953
32964,20508,27813
32848,20549,27876
32880,20524,27916
32924,20508,27769
32916,20538,27762
32848,20513,27747
32770,20514,27752
32613,20554,27906
32612,20524,27945
32668,20510,27887
32782,20551,27879
32877,20525,27914
32950,20508,27789
33024,20520,27767
33037,20509,27761
33012,20533,27886
32884,20510,27929
32737,20505,27970
32736,20545,27976
32808,20526,27984
32920,20524,27960
33044,20502,27951
33168,20559,27856
33169,20520,27965
33048,20509,27980
32976,20550,27996
32916,20532,27996
32824,20508,28010
32772,20511,28009
32804,20500,28029
32868,20543,27904
33008,20517,27903
33164,20505,27884
33192,20526,27888
33236,20511,28060
33252,20518,28084
33180,20503,28012
33124,20497,27972
33153,20521,28054
33232,20516,27996
33296,20505,28029
33448,20517,28103
33648,20508,28003
33898,20558,27985
34104,20531,28005
34268,20514,28007
34504,20506,28053
34824,20553,28162
35340,20516,28152
35900,20503,28143
36544,20581,28180
37284,20543,28191
38084,20524,28199
38912,20515,28210
39696,20579,28082
40384,20521,28090
40808,20494,28095
40932,20558,28316
40676,20500,28198
39984,20579,28305
39112,20517,28336
38080,20492,28189
36776,20535,28202
35588,20513,28335
34486,20569,28332
33508,20523,28416
32780,20496,28465
32336,20540,28356
32132,20511,28351
32104,20495,28381
32072,20541,28508
32065,20514,28620
32164,20516,28508
32156,20503,28620
32164,20535,28646
32168,20511,28521
31972,20495,28540
31808,20539,28559
31708,20503,28580
31716,20497,28604
31806,20490,28617
31844,20535,28645
31916,20524,28820
31948,20511,28843
31860,20503,28743
31751,20540,28740
31660,20532,28775
31546,20509,28775
31546,20492,28800
31592,20508,28988
31716,20493,29037
31848,20530,28912
31968,20500,29025
32004,20549,29069
31912,20509,28935
31852,20495,28939
31764,20519,29058
31660,20492,29092
31728,20487,29170
31752,20524,29212
31708,20509,29191
31712,20499,29231
31800,20540,29164
31856,20507,29116
31888,20500,29226
31932,20517,29249
31924,20506,29256
31876,20486,29266
31897,20487,29277
31904,20517,29288
32080,20500,29289
32233,20492,29308
32368,20503,29297
32376,20536,29297
32266,20505,29312
32221,20508,29313
32132,20493,29316
31992,20487,29328
31936,20529,29326
31976,20505,29316
32096,20500,29316
32224,20493,29325
32408,20537,29318
32464,20514,29319
32410,20506,29235
32412,20496,29240
32472,20532,29303
32464,20505,29348
32364,20486,29348
32160,20520,29356
32156,20499,29198
32372,20536,29279
32532,20506,29428
32656,20497,29369
32552,20495,29449
32405,20538,29468
32288,20503,29328
32224,20480,29388
32292,20506,29464
32492,20488,29327
32745,20537,29345
32944,20508,29455
33112,20487,29525
33064,20535,29525
32944,20507,29575
32860,20494,29428
32764,20532,29461
32696,20500,29596
32684,20477,29699
32756,20509,29584
32920,20503,29577
33088,20490,29597
33244,20541,29724
33316,20516,29749
33304,20506,29773
33292,20493,29796
33288,20486,29799
33208,20484,29732
33216,20484,29828
33325,20530,29796
33444,20501,29812
33508,20487,29893
33576,20504,29768
33556,20469,29900
33508,20502,30013
33417,20487,29990
33364,20504,29841
33228,20491,29893
33208,20527,30109
33252,20492,30045
33420,20484,30070
33540,20522,30132
33616,20504,30159
33680,20486,29999
33692,20533,30084
33644,20493,30279
33440,20492,30294
33148,20532,30245
33057,20504,30308
33024,20496,30340
33196,20487,30392
33304,20535,30431
33400,20504,30324
33477,20490,30308
33497,20541,30372
33536,20501,30412
33492,20487,30460
33284,20480,30447
33153,20514,30570
33068,20500,30761
32940,20484,30776
32920,20525,30769
32960,20501,30837
32956,20487,30860
32890,20524,30784
32820,20500,30841
32648,20475,31044
32544,20516,30964
32440,20495,30982
32404,20479,31114
32440,20480,30970
32480,20525,31062
32532,20503,31184
32504,20486,31353
32416,20515,31212
32292,20487,31369
32096,20527,31207
31828,20500,31268
31660,20489,31380
31646,20481,31586
31696,20485,31650
31708,20531,31656
31792,20514,31689
31828,20500,31692
31900,20486,31796
31848,20482,31845
31700,20524,31903
31584,20506,31954
31597,20487,31816
31612,20483,31960
31700,20513,32201
31847,20492,32148
31996,20476,32252
31980,20523,32132
31901,20503,32276
31736,20473,32398
31544,20481,32468
31428,20517,32614
31340,20492,32537
31448,20476,32669
31648,20475,32756
31764,20515,32842
31860,20491,32677
31844,20481,32764
31808,20534,32909
31760,20525,32970
31653,20499,33028
31596,20487,33221
31552,20477,33364
31572,20512,33397
31657,20501,33454
31740,20491,33412
31880,20519,33509
32170,20493,33364
32260,20527,33737
32276,20487,33704
32134,20517,33663
31964,20493,33889
31872,20471,33926
31924,20473,33924
31994,20495,34007
32024,20476,33900
32236,20527,34172
32380,20507,34131
32380,20495,34204
32312,20527,34285
32288,20512,34110
32157,20486,34306
32200,20469,34551
32300,20517,34422
32388,20484,34460
32425,20479,34655
32528,20527,34442
32444,20487,34661
32376,20476,34877
32280,20524,34957
32232,20503,34913
32176,20479,34951
32132,20516,35049
32160,20505,34852
32077,20487,34935
32156,20473,35150
32356,20514,35390
32388,20487,35373
32264,20485,35343
32156,20472,35384
32056,20521,35515
31904,20483,35575
31984,20482,35660
32064,20464,35772
32200,20469,35844
32365,20505,35644
32541,20484,35753
32612,20485,35944
32504,20476,36020
32508,20513,36205
32406,20480,36241
32252,20477,36404
32176,20523,36229
32156,20495,36364
32213,20479,36476
32384,20469,36544
32628,20517,36322
32764,20487,36564
32696,20476,36792
32613,20523,36849
32518,20492,36708
32332,20479,36868
32176,20468,36929
32020,20510,36708
32052,20481,36823
32112,20483,37012
32216,20472,37071
32284,20516,37255
32280,20486,37380
32296,20474,37420
32295,20529,37382
32280,20496,37404
32208,20478,37361
32324,20484,37468
32528,20473,37477
32658,20470,37516
32720,20497,37601
32688,20483,37668
32533,20527,37752
32364,20474,37789
32200,20460,37574
32105,20500,37851
32100,20473,38020
32172,20463,38029
32248,20505,38113
32416,20479,38084
32600,20468,38045
32712,20517,38136
32616,20480,38100
32536,20468,38327
32480,20511,38113
32364,20482,38276
32401,20463,38294
32359,20496,38226
32361,20472,38333
32460,20521,38532
32580,20486,38420
32572,20487,38377
32500,20468,38476
32400,20517,38532
32288,20482,38551
32256,20476,38340
32480,20460,38611
32616,20496,38714
32704,20474,38727
32592,20471,38809
32624,20465,38861
32604,20498,38749
32628,20480,38723
32534,20466,38805
32477,20485,38854
32376,20478,38552
32328,20466,38624
32478,20457,38652
32520,20460,38796
32604,20511,38996
32640,20480,39111
32672,20476,39196
32706,20516,39103
32612,20481,39025
32508,20462,39159
32556,20455,39185
32640,20487,38897
32652,20479,39132
32572,20485,39191
32544,20456,39396
32825,20517,39380
33038,20511,39375
33044,20481,39224
33012,20460,39332
32720,20515,39367
32424,20471,39428
32308,20455,39446
32340,20516,39284
32428,20496,39430
32500,20477,39493
32716,20468,39544
32876,20463,39600
32788,20512,39663
32656,20488,39713
32548,20463,39772
32560,20456,39576
32700,20497,39572
32816,20476,39660
32936,20477,39716
32904,20460,39783
32844,20482,39458
32789,20478,39828
32608,20471,39856
32526,20466,39892
32332,20505,39916
32208,20461,39943
32232,20461,39968
32304,20510,39632
32516,20479,39784
32812,20477,39933
33100,20460,39965
33149,20513,39852
32932,20492,39985
32608,20477,40089
32448,20457,40118
32348,20496,40143
32284,20481,40175
32356,20470,40142
32536,20466,40191
32808,20477,40226
33076,20469,40300
33160,20469,40327
33108,20468,40313
32958,20457,40423
32668,20446,40365
32408,20502,40371
32396,20490,40450
32580,20465,40588
32500,20458,40629
32488,20459,40628
32580,20458,40476
32688,20513,40206
32704,20503,40578
32824,20472,40246
32816,20452,40341
32752,20502,40344
32708,20487,40676
32636,20465,40704
32700,20456,40729
32661,20453,40727
32805,20513,40756
32896,20503,40736
32778,20487,40676
32524,20481,40828
32341,20470,40966
32288,20454,40900
32264,20448,40872
32240,20491,40879
32356,20485,41042
32413,20468,41101
32500,20464,41001
32686,20460,40958
32861,20512,40956
32804,20500,40976
32581,20468,41032
32444,20469,41129
32360,20452,41109
32428,20451,41145
32489,20508,41118
32596,20495,41223
32856,20473,41232
33100,20474,41277
33036,20460,41326
32772,20453,41313
32565,20500,41382
32405,20493,41396
32272,20466,41408
32376,20458,41432
32542,20463,41472
32540,20447,41492
32684,20458,41528
32809,20460,41545
32980,20506,41214
33152,20484,41524
33102,20455,41645
32940,20447,41607
32945,20447,41600
33184,20447,41537
33556,20503,41388
33865,20497,41700
34168,20473,41392
34548,20474,41383
35064,20457,41568
35640,20452,41750
36328,20535,41796
37092,20512,41938
37784,20473,42020
38525,20469,42004
39132,20447,41972
39928,20524,41826
41060,20500,41893
42100,20464,42001
43000,20580,41660
43580,20522,41942
43404,20484,42155
42492,20461,42136
41344,20452,42201
39884,20445,42164
38344,20532,42176
36640,20495,42281
35116,20475,42302
33688,20480,42332
32452,20456,42124
31704,20500,42101
31372,20469,42220
31244,20464,42221
31072,20454,42236
31100,20453,42292
31120,20447,42328
31108,20491,41943
31100,20461,42056
31356,20453,42271
31488,20500,42455
31532,20473,42484
31468,20463,42429
31284,20446,42439
31012,20446,42464
30908,20485,42468
30881,20477,42476
30990,20459,42436
31368,20453,42244
31476,20453,42245
31340,20453,42215
31305,20486,42301
31188,20478,42282
31092,20455,42289
30952,20447,42256
30861,20416,42287
30844,20472,42299
30972,20458,42280
31292,20453,42284
31512,20487,42257
31676,20460,42211
31764,20449,41847
31640,20492,42108
31434,20452,42238
31388,20459,42201
31584,20445,42217
31740,20445,42119
31861,20487,42092
31960,20462,42137
32020,20460,42053
31920,20458,41767
31724,20448,42084
31592,20444,42048
31404,20493,41908
31365,20482,42020
31440,20481,42120
31585,20453,42124
31836,20448,42081
32108,20452,41889
32288,20502,42030
32349,20485,42005
32236,20458,41936
32208,20449,41991
32236,20437,41956
32380,20477,41873
32340,20475,41860
32460,20454,41863
32568,20449,41781
32640,20445,41735
32716,20470,41775
32417,20446,41561
31990,20489,41472
31682,20460,41439
31604,20452,41396
31888,20444,41409
32196,20433,41479
32404,20472,41437
32640,20457,41095
32652,20461,41028
32644,20445,41295
32544,20499,41377
32548,20471,41479
32720,20443,41326
32748,20437,41204
32836,20469,41268
32892,20455,41280
33076,20441,41244
33280,20471,40966
33408,20452,41126
33432,20445,41212
33552,20460,41304
33604,20449,41228
33480,20487,41172
33124,20469,41212
32952,20446,40967
32992,20436,40940
33248,20473,41028
33592,20449,41124
33712,20448,41089
33736,20509,41060
33696,20472,41028
33616,20452,40924
33820,20452,40864
33557,20496,40928
33352,20448,40909
33185,20447,40900
33128,20436,40828
33220,20482,40846
33416,20451,40808
33440,20443,40790
33724,20487,40718
34125,20456,40728
34176,20453,40605
33980,20449,40495
33812,20431,40496
33748,20482,40501
33740,20448,40545
33766,20455,40528
33864,20455,40380
33960,20450,40092
33932,20447,40051
33748,20442,40085
33653,20432,40004
33600,20471,40257
33556,20442,40025
33440,20443,40125
33325,20434,40090
33272,20486,40220
33376,20454,40343
33360,20451,40228
33400,20441,40287
33360,20458,40332
33348,20453,40252
33168,20432,40103
32884,20476,40060
32792,20444,40101
32828,20438,39778
32860,20470,40028
32728,20455,40070
32653,20444,40172
32626,20484,40057
32596,20460,39884
32413,20435,39967
32172,20470,39983
31940,20452,39808
31792,20444,39684
31748,20437,39652
31900,20487,39833
32088,20443,39791
32212,20487,39815
32156,20484,39714
31892,20461,39741
31557,20449,39857
31321,20455,39906
31268,20432,39886
31456,20477,39886
31572,20448,39804
31580,20447,39760
31652,20441,39681
31736,20487,39599
31768,20487,39815
31644,20462,39855
31392,20452,39844
31236,20442,39796
31156,20433,39847
31180,20472,39876
31264,20445,39806
31452,20441,39718
31672,20441,39720
31770,20477,39813
31884,20469,39905
31876,20452,39903
31796,20441,39815
31664,20476,39764
31680,20461,39789
31692,20445,39844
31806,20436,39850
31984,20434,39868
32172,20485,39850
32228,20457,39840
32000,20449,39865
31768,20453,39860
31698,20438,39823
31636,20431,39773
31590,20466,39788
31540,20445,39775
31592,20440,39750
31660,20434,39748
31928,20468,39837
32172,20454,39835
32400,20442,39821
32408,20481,39751
32272,20460,39983
32058,20447,39980
31972,20431,39936
31912,20427,39823
31996,20476,39780
32052,20456,39644
32120,20449,39463
32148,20448,39815
32192,20437,39781
32125,20439,39750
31972,20482,39756
31790,20465,39710
31792,20461,39625
31948,20464,39663
32216,20445,39657
32429,20438,39501
32626,20438,39565
32680,20483,39516
32670,20457,39567
32672,20433,39167
32488,20465,39418
32277,20444,39484
31981,20430,39453
31924,20477,39337
32068,20459,39195
32085,20442,39261
32212,20433,39135
32302,20484,39206
32312,20450,39316
32324,20434,39329
32384,20468,39263
32320,20442,39196
32228,20437,39004
32032,20475,39036
32012,20452,39036
32080,20441,39047
32240,20434,38936
32352,20463,39093
32356,20452,39052
32224,20432,38990
32168,20434,38807
32034,20473,38763
32036,20448,38742
32105,20444,38788
32073,20479,38837
31960,20452,38481
32072,20437,38749
32245,20438,38752
32216,20474,38687
32116,20444,38752
32036,20428,38824
32052,20465,38600
32184,20439,38569
32268,20436,38663
32416,20431,38744
32484,20485,38631
32364,20465,38586
32208,20453,38488
32052,20436,38532
32004,20463,38565
32061,20445,38516
32052,20431,38198
32116,20469,38428
32292,20447,38501
32412,20441,38564
32468,20431,38546
32698,20471,38573
32788,20449,38354
32588,20481,38407
32336,20445,38142
32276,20484,38380
32160,20453,38485
32180,20434,38272
32352,20486,38286
32570,20452,38310
32533,20436,38033
32448,20433,38209
32416,20475,38327
32388,20447,38340
32316,20431,38220
32212,20455,37927
32110,20426,38263
31976,20440,38160
31936,20431,38184
32076,20471,37869
32324,20430,38148
32636,20469,38297
32832,20449,38204
32769,20432,38016
32568,20463,38077
32400,20439,38144
32252,20470,38141
32052,20438,37872
32100,20425,38054
32232,20463,38146
32408,20453,38193
32512,20482,38057
32516,20444,38099
32569,20437,38013
32556,20447,38173
32464,20433,38094
32305,20470,38024
32276,20437,37872
32356,20436,37764
32432,20472,38001
32532,20437,38135
32608,20428,38174
32621,20484,37953
32536,20441,38068
32356,20429,37813
32257,20453,37996
32192,20441,38044
32242,20426,38083
32293,20482,38166
32412,20455,38186
32485,20435,37926
32544,20486,38027
32572,20450,38047
32424,20425,37823
32440,20463,38057
32344,20437,38024
32224,20468,38018
32244,20436,38015
32340,20421,37724
32392,20445,37920
32488,20426,38040
32616,20472,38116
32804,20441,37856
32775,20472,37972
32700,20444,37646
32688,20428,37869
32712,20464,37901
32812,20438,38018
32920,20419,37828
32884,20437,37849
32768,20429,37876
32764,20450,37593
32812,20428,37940
32766,20476,37940
32732,20455,37920
32737,20427,37785
32764,20465,37727
32828,20431,37764
32828,20420,37744
32836,20468,37488
32932,20448,37763
33132,20420,37622
33464,20436,37661
33736,20431,37367
34000,20452,37528
34388,20448,37541
34876,20420,37568
35496,20455,37698
36232,20437,37597
37028,20424,37426
37772,20489,37450
38656,20448,37545
39452,20504,37436
40230,20452,37601
41152,20510,37401
42076,20457,37484
42812,20496,37308
43208,20438,37496
42980,20427,37548
42180,20485,37303
41176,20433,37431
39892,20489,37156
38384,20440,37322
36652,20504,37395
35026,20463,37393
33640,20434,37499
32677,20476,37410
32094,20432,37260
31813,20420,37311
31728,20449,37348
31724,20428,37055
31820,20446,37283
31828,20431,37436
31736,20454,37328
31640,20431,37277
31516,20471,37309
31368,20428,37010
31304,20423,37085
31360,20463,37252
31492,20434,37128
31608,20424,37223
31604,20476,37149
31612,20459,37184
31664,20442,37183
31556,20426,37268
31520,20449,37066
31362,20421,37103
31212,20457,37117
31308,20431,36799
31444,20471,36972
31497,20431,37126
31548,20428,37123
31580,20471,36940
31604,20438,36913
31728,20425,36887
31724,20469,36885
31606,20439,36876
31548,20423,36852
31568,20418,36790
31628,20471,36720
31708,20437,36744
31768,20425,36727
31860,20429,36693
31888,20453,36580
31948,20433,36565
31920,20420,36535
31816,20447,36584
31732,20417,36632
31768,20463,36322
31904,20444,36496
32008,20433,36461
32124,20423,36442
32284,20473,36487
32444,20447,36577
32509,20471,36352
32472,20436,36436
32340,20468,36144
32228,20432,36305
32192,20428,36181
32288,20416,36180
32412,20452,36229
32453,20439,36268
32520,20481,36388
32532,20439,36156
32532,20420,36190
32600,20432,35920
32592,20416,36086
32540,20457,36156
32615,20421,36223
32744,20464,36027
32849,20433,36059
33064,20417,36053
33189,20462,36021
33128,20448,35977
33048,20444,35916
32972,20416,35928
32812,20468,35906
32744,20424,35887
32800,20416,35865
32900,20469,35831
32992,20439,35541
33152,20420,35675
33268,20471,35716
33300,20439,35832
33304,20420,35756
33296,20463,35657
33289,20425,35579
33268,20411,35569
33200,20413,35536
33144,20444,35538
33212,20420,35501
33456,20468,35238
33589,20436,35297
33676,20421,35300
33632,20421,35093
33560,20438,35079
33456,20408,35180
33376,20454,35209
33452,20421,35154
33584,20413,35077
33728,20463,35044
33816,20427,35056
33920,20423,35044
33848,20467,35088
33781,20431,35095
33648,20421,34980
33496,20477,34878
33440,20427,34803
33572,20419,34832
33664,20468,34823
33796,20432,34600
33854,20421,34580
33920,20469,34521
33912,20431,34521
33785,20420,34537
33688,20456,34537
33676,20423,34680
33616,20463,34472
33648,20420,34492
33700,20415,34522
33732,20448,34405
33780,20433,34423
33768,20477,34540
33680,20450,34482
33576,20439,34284
33364,20415,34343
33140,20439,34340
33004,20413,34240
32940,20456,34323
33004,20424,34349
32948,20460,34264
32900,20420,34046
32840,20470,34164
32752,20436,34145
32644,20418,34268
32472,20447,34194
32301,20421,34161
32176,20460,34159
32188,20428,33920
32268,20415,34038
32334,20465,34071
32328,20436,34188
32372,20417,34079
32344,20463,34020
32264,20424,34062
32097,20478,33881
31904,20424,34063
31681,20412,33948
31612,20428,33978
31636,20416,33746
31712,20445,33848
31792,20433,34025
31884,20458,33796
31892,20428,33905
31812,20460,33741
31736,20428,33910
31648,20465,33902
31593,20428,33716
31612,20412,33806
31672,20449,33780
31736,20423,33672
31856,20457,33724
31916,20428,33817
31960,20460,33649
31924,20434,33743
31878,20471,33733
31844,20433,33533
31840,20429,33608
31924,20458,33719
32012,20420,33764
32064,20420,33762
32140,20414,33681
32224,20451,33564
32157,20436,33634
32220,20421,33648
32221,20444,33415
32136,20417,33530
32032,20457,33620
32044,20421,33572
32104,20453,33588
32052,20425,33600
32060,20460,33580
32288,20421,33469
32448,20482,33542
32340,20428,33660
32320,20472,33533
32212,20430,33553
32096,20415,33537
32096,20465,33519
32085,20428,33316
32156,20416,33447
32310,20461,33479
32440,20436,33589
32516,20419,33562
32488,20471,33528
32424,20436,33492
32293,20415,33375
32138,20458,33433
32148,20422,33444
32160,20412,33449
32300,20453,33216
32440,20430,33256
32497,20419,33352
32436,20450,33374
32432,20434,33428
32368,20432,33456
32281,20455,33459
32168,20428,33348
32208,20410,33310
32276,20450,33340
32364,20423,33353
32465,20476,33326
32524,20463,33345
32498,20437,33332
32457,20416,33159
32364,20434,33299
32232,20417,33352
32192,20442,33390
32188,20424,33196
32285,20413,33287
32352,20461,33288
32348,20428,33284
32504,20428,33057
32528,20467,33248
32373,20425,33343
32365,20422,33174
32356,20460,33260
32278,20429,33268
32188,20421,33173
32300,20412,33248
32424,20462,33372
32540,20436,33226
32584,20433,33170
32528,20473,33281
32480,20436,33305
32440,20416,33108
32344,20463,33188
32248,20423,33205
32300,20415,33214
32332,20473,33217
32404,20443,33287
32504,20433,33343
32556,20417,33444
32600,20467,33435
32536,20428,33274
32492,20414,33377
32364,20436,33376
32216,20436,33172
32212,20462,33306
32312,20445,33312
32416,20423,33471
32556,20419,33519
32705,20472,33543
32720,20425,33361
32704,20424,33389
32681,20414,33385
32528,20449,33473
32381,20413,33344
32424,20456,33524
32476,20432,33620
32608,20413,33413
32704,20460,33501
32893,20434,33555
32916,20477,33457
32868,20431,33613
32836,20416,33686
32740,20469,33487
32588,20420,33615
32558,20460,33473
32576,20431,33568
32636,20418,33652
32724,20428,33641
32796,20428,33655
32854,20461,33705
32720,20432,33482
32534,20476,33723
32520,20437,33700
32464,20416,33722
32496,20460,33791
32560,20437,33796
32632,20435,33604
32706,20423,33728
32808,20450,33900
32796,20429,33824
32746,20421,33844
32732,20461,33876
32732,20436,33900
32760,20418,33688
32700,20457,33776
32666,20428,33860
32716,20420,33947
32676,20452,34098
32764,20436,34105
32772,20473,33926
32736,20462,34084
32664,20445,34112
32592,20424,34094
32576,20422,34132
32568,20460,34084
32624,20435,34159
32620,20416,34132
32662,20469,34196
32744,20429,34278
32688,20422,34300
32688,20469,34308
32608,20432,34300
32516,20423,34337
32364,20468,34350
32365,20428,34358
32480,20423,34376
32588,20471,34284
32644,20453,34337
32668,20437,34268
32657,20432,34218
32612,20423,34303
32520,20452,34372
32404,20428,34124
32296,20422,34287
32296,20445,34308
32368,20424,34420
32508,20420,34468
32668,20471,34469
32800,20471,34468
32780,20439,34548
32576,20426,34484
32512,20477,34412
32404,20456,34476
32368,20433,34524
32368,20425,34532
32424,20476,34351
32454,20438,34468
32632,20425,34692
32758,20444,34557
32868,20438,34613
32840,20485,34524
32840,20445,34684
32804,20428,34735
32720,20460,34567
32684,20426,34660
32724,20477,34575
32892,20448,34785
33260,20449,34684
33740,20437,34586
34120,20487,34729
34380,20469,34742
34704,20449,34768
34984,20432,34776
35400,20484,34597
36076,20461,34600
36740,20445,34735
37592,20434,34815
38504,20473,34960
39420,20440,34815
40348,20517,34916
41248,20487,34909
41836,20452,34943
42120,20463,34916
41900,20436,35022
41300,20437,35141
40381,20480,35128
39304,20452,35028
38056,20517,35120
36808,20460,35192
35480,20445,34975
34116,20510,35024
32956,20479,35089
32376,20459,35052
32044,20447,35079
31912,20447,35356
31904,20437,35396
31876,20439,35420
32004,20485,35440
32068,20462,35476
32024,20453,35498
31926,20438,35508
31784,20484,35517
31610,20468,35541
31508,20449,35565
31516,20439,35573
31616,20481,35600
31640,20453,35349
31677,20454,35604
31820,20443,35623
31850,20484,35398
31786,20453,35430
31668,20449,35692
31521,20436,35573
31397,20469,35742
31476,20450,35768
31644,20445,35520
31804,20438,35816
31928,20492,35832
32140,20468,35866
32040,20453,35900
31956,20461,35919
31912,20444,35940
31872,20478,35720
31796,20460,35711
31824,20452,35961
31868,20449,35864
31940,20447,35941
32042,20490,35956
32182,20463,36021
32132,20449,36150
32074,20489,36193
32068,20468,36034
32000,20456,36096
31864,20492,36084
31880,20464,36080
31976,20448,36121
32064,20500,36154
32212,20463,35911
32382,20454,36193
32448,20472,36300
32400,20457,36103
32344,20495,36185
32256,20463,36215
32148,20452,35940
32162,20461,36135
32323,20445,36207
32444,20476,36231
32625,20462,36133
32780,20516,36236
32824,20468,36251
32822,20459,36032
32752,20512,36016
32604,20479,36053
32508,20477,36290
32442,20469,36279
32528,20512,36197
32708,20471,36334
32876,20461,36369
32972,20503,36332
33116,20481,36244
33128,20468,36285
33096,20460,36294
32956,20516,36300
32940,20478,36325
32929,20474,36359
33002,20461,36084
33124,20506,36276
33384,20481,36311
33544,20470,36463
33612,20512,36496
33648,20487,36276
33568,20468,36356
33416,20463,36389
33176,20508,36388
33104,20477,36404
33240,20475,36412
33368,20467,36401
33524,20525,36404
33716,20487,36439
33841,20495,36453
33844,20478,36428
33796,20495,36388
33732,20530,36564
33528,20479,36335
33524,20462,36424
33660,20512,36409
33828,20479,36460
33968,20474,36212
34104,20526,36248
34136,20492,36372
34044,20477,36511
33917,20523,36525
33804,20487,36583
33645,20533,36489
33620,20487,36359
33710,20480,36452
33764,20482,36496
33812,20515,36365
33968,20500,36418
34080,20485,36532
33976,20514,36615
33800,20508,36614
33720,20482,36560
33564,20533,36398
33480,20499,36524
33524,20487,36528
33608,20540,36276
33680,20511,36438
33696,20511,36473
33620,20496,36605
33480,20543,36588
33380,20503,36537
33296,20492,36600
33152,20524,36524
33073,20509,36727
33080,20490,36560
33040,20551,36615
32960,20507,36349
32892,20499,36552
32780,20550,36649
32588,20512,36612
32472,20498,36636
32404,20528,36460
32288,20509,36612
32200,20500,36743
32200,20541,36676
32256,20509,36636
32292,20509,36682
32372,20508,36672
32364,20548,36660
32272,20527,36668
32148,20518,36794
31988,20549,36572
31860,20523,36663
31812,20515,36689
31868,20506,36719
31952,20511,36716
32088,20532,36428
32182,20511,36724
32256,20552,36726
32240,20529,36636
32180,20512,36712
32047,20548,36767
31900,20529,36484
31844,20510,36685
31845,20550,36871
31948,20528,36909
32028,20517,36856
32112,20519,36940
32168,20558,36861
32136,20535,36743
32149,20540,36773
32068,20525,36844
31924,20512,36935
31929,20556,36871
31984,20532,36878
32064,20526,36944
32188,20569,36810
32356,20541,37063
32396,20584,36862
32356,20542,36987
32264,20530,36713
32124,20525,36737
32062,20577,36893
32108,20535,37053
32245,20518,37013
32412,20588,36964
32549,20566,36905
32681,20550,36917
32608,20538,36999
32408,20535,37031
32356,20550,36852
32308,20545,36773
32204,20524,36948
32208,20538,37092
32280,20530,37146
32300,20532,37136
32480,20575,36977
32644,20552,37014
32608,20538,36999
32500,20575,36863
32408,20544,36924
32348,20538,37061
32216,20577,37017
32184,20542,36889
32228,20534,37018
32276,20567,36728
32380,20559,36772
32536,20547,36937
32564,20596,37087
32544,20553,36991
32520,20548,36936
32432,20585,37028
32296,20562,37040
32268,20544,36764
32316,20581,37069
32366,20555,37077
32432,20564,37103
32552,20546,37136
32616,20605,37191
32608,20593,37180
32564,20564,37220
32504,20552,37031
32384,20591,37012
32309,20567,37095
32344,20549,37153
32405,20604,36913
32517,20564,37136
32652,20558,37306
32718,20599,37136
32740,20570,37229
32692,20572,37244
32416,20559,36959
32272,20577,37236
32300,20552,37335
32348,20597,37268
32476,20568,37309
32545,20561,37084
32649,20599,37383
32704,20586,37361
32624,20570,37280
32553,20594,37314
32464,20581,37357
32368,20615,37249
32300,20572,37488
32344,20567,37270
32396,20604,37377
32508,20573,37308
32628,20625,37480
32708,20596,37404
32701,20577,37284
32608,20630,37357
32509,20597,37373
32400,20588,37414
32420,20614,37279
32496,20583,37508
32576,20573,37493
32678,20620,37551
32817,20599,37536
32900,20589,37549
32864,20578,37453
32844,20624,37421
32788,20589,37377
32668,20578,37383
32568,20618,37560
32576,20585,37572
32668,20578,37383
32773,20604,37513
32904,20591,37522
33000,20636,37532
32973,20614,37551
32880,20598,37527
32776,20582,37551
32484,20626,37580
32406,20589,37332
32452,20589,37312
32585,20634,37536
32710,20608,37559
32848,20604,37629
32885,20647,37757
32864,20613,37711
32804,20590,37633
32656,20614,37708
32576,20594,37543
32524,20631,37799
32556,20597,37639
32648,20596,37717
32732,20633,37732
32832,20619,37785
32884,20605,37837
32910,20617,37780
32828,20610,37924
32720,20650,37983
32660,20613,37855
32620,20604,37837
32676,20652,37927
32796,20642,37943
32844,20612,37959
32968,20613,37974
33032,20615,37677
32981,20645,37859
32924,20623,38024
32856,20606,38028
32708,20656,38023
32660,20623,38156
32698,20616,38132
32756,20614,38150
32908,20652,38061
33080,20629,37985
33148,20615,38039
33124,20656,37727
32992,20629,37784
32888,20614,37888
32740,20652,37981
32588,20632,38092
32556,20613,38124
32586,20663,37967
32648,20629,37996
32772,20628,37938
32850,20679,37888
32848,20649,37855
32812,20634,37895
32720,20629,37870
32572,20669,37973
32616,20631,37845
32724,20633,37937
32872,20676,37948
32940,20647,37914
32996,20684,38056
33008,20647,38076
33004,20637,37980
32888,20674,37933
32780,20637,37963
32584,20684,37680
32524,20649,37895
32518,20636,38092
32576,20677,37913
32708,20653,37948
32865,20645,37968
32936,20658,37776
32958,20647,37925
32856,20700,37932
32776,20667,37928
32636,20649,37986
32576,20649,37964
32570,20643,37773
32676,20640,38073
32760,20696,38067
32888,20688,38087
33004,20684,38101
33012,20660,38099
32976,20650,37895
32900,20648,38068
32788,20684,38177
32660,20669,38185
32536,20661,38221
32588,20655,38320
32756,20698,38332
32904,20681,38345
32836,20676,38119
32820,20708,38257
32768,20673,38205
32720,20660,38300
32632,20709,38432
32608,20685,38454
32664,20708,38364
32754,20708,38358
32848,20713,38404
32920,20702,38468
32968,20682,38520
32976,20682,38516
32950,20686,38437
32892,20684,38528
32774,20684,38500
32820,20687,38524
32904,20673,38564
33060,20673,38564
33188,20674,38500
33360,20736,38464
33436,20737,38359
33376,20731,38391
33264,20726,38436
33112,20717,38407
33158,20712,38389
33397,20724,38292
33712,20733,38527
34064,20728,38523
34540,20718,38509
35060,20704,38509
35628,20704,38406
36080,20693,38263
36568,20760,38247
37304,20731,38220
37928,20709,38288
38724,20716,38220
39604,20688,38261
40448,20749,38290
41184,20719,38316
41520,20701,38206
41380,20743,38256
40628,20728,38361
39652,20701,38279
38536,20780,38196
37196,20720,38284
35852,20721,38270
34732,20715,38222
33697,20716,38255
32972,20724,38241
32676,20706,38308
32564,20709,38372
32384,20713,38397
32260,20713,38404
32152,20740,38416
32001,20728,38425
31876,20717,38429
31860,20717,38125
31920,20710,38185
32028,20715,38319
32133,20719,38390
32168,20741,38574
32144,20725,38525
32040,20714,38348
31921,20756,38368
31628,20735,38486
31478,20719,38188
31556,20713,38372
31656,20756,38453
31750,20737,38473
31896,20743,38480
31980,20743,38513
31993,20728,38596
31948,20768,38724
31864,20751,38609
31744,20742,38552
31781,20721,38616
31909,20769,38678
31988,20766,38663
32028,20751,38437
32148,20738,38784
32224,20783,38781
32204,20765,38656
32169,20757,38816
32072,20741,38749
31954,20729,38696
31852,20773,38848
31908,20750,38876
32020,20752,38604
32184,20743,38909
32296,20785,38944
32348,20759,38821
32320,20749,38866
32304,20750,38929
32252,20783,38972
32220,20756,38712
32272,20742,39024
32345,20783,39104
32480,20756,38943
32586,20798,38647
32628,20772,38917
32592,20773,38919
32612,20761,39028
32565,20802,38996
32452,20791,38932
32356,20772,38869
32332,20768,38860
32320,20758,38952
32444,20757,38964
32564,20804,38959
32728,20791,38736
32848,20780,38924
32908,20765,38919
32908,20809,39037
32832,20784,39067
32672,20764,38988
32584,20761,38941
32612,20807,38901
32696,20805,38809
32804,20792,38815
33001,20794,38872
33148,20795,38948
33160,20788,38880
33132,20780,38941
33028,20815,38959
32904,20807,38945
32884,20788,38947
32964,20788,38948
33068,20790,38914
33176,20788,38884
33304,20785,38836
33368,20786,38945
33360,20782,38941
33388,20829,38879
33392,20799,38957
33364,20796,39012
33365,20780,39037
33420,20829,38848
33408,20829,38828
33424,20800,38872
33592,20801,38881
33732,20804,38933
33736,20797,38584
33713,20790,38594
33660,20841,38832
33540,20825,38992
33408,20813,39044
33440,20802,39036
33500,20803,39017
33600,20801,38848
33756,20820,38885
33828,20802,38884
33832,20799,38656
33802,20845,38828
33704,20824,38937
33564,20816,38997
33444,20796,38724
33324,20799,38819
33372,20845,38836
33469,20813,38853
33528,20815,38526
33576,20809,38764
33604,20859,38935
33572,20828,38840
33440,20821,38763
33272,20817,38688
33180,20804,38791
33176,20856,38814
33200,20849,38815
33244,20834,38807
33344,20837,38469
33404,20823,38820
33384,20852,38812
33220,20828,38692
32888,20822,38740
32604,20844,38436
32480,20828,38658
32476,20819,38777
32452,20853,38839
32516,20838,38791
32576,20837,38725
32604,20830,38585
32441,20873,38557
32293,20870,38572
32192,20849,38559
32012,20839,38604
31968,20844,38532
32009,20838,38522
32100,20856,38652
32212,20869,38740
32320,20871,38735
32316,20870,38716
32218,20848,38729
32164,20844,38708
32064,20838,38663
31948,20839,38549
31876,20877,38469
31888,20853,38520
31908,20838,38527
31985,20843,38493
32129,20883,38328
32189,20860,38452
32168,20853,38480
32068,20849,38536
32000,20891,38464
31892,20856,38364
31832,20856,38484
31860,20861,38533
31880,20847,38495
31980,20848,38485
31972,20903,38429
31988,20901,38319
31998,20895,38264
32004,20903,38029
31921,20897,38009
31712,20876,38294
31648,20855,38237
31704,20853,38320
31826,20854,38269
31904,20854,38309
32024,20905,38188
32104,20897,38247
32076,20876,38263
32032,20871,38284
31916,20871,38302
31852,20861,38285
31776,20856,38276
31788,20845,38183
31877,20900,38151
31912,20911,38141
31996,20913,38096
32116,20908,38087
32140,20893,38105
32088,20887,38052
32024,20872,38074
31912,20865,38031
31873,20908,38063
31936,20900,38047
32033,20900,38014
32156,20884,37997
32245,20889,37997
32324,20891,37780
32224,20881,38041
32044,20877,38026
31929,20916,37988
31856,20927,37940
31866,20905,37895
31932,20884,37858
32036,20894,38068
32100,20900,37878
32248,20892,37952
32225,20888,37940
32253,20932,37932
32205,20920,37908
32048,20915,37789
31877,20896,37860
31868,20892,37920
31968,20887,37981
32050,20932,37988
32072,20916,37925
32268,20916,37781
32356,20916,37862
32317,20899,37928
32254,20897,37943
32126,20940,37955
32128,20931,37913
32068,20909,37840
32045,20905,37837
31992,20901,37751
32120,20897,37572
32300,20960,37853
32356,20956,37770
32312,20948,37909
32212,20943,37977
32104,20932,37951
32045,20913,37929
32032,20908,37941
32032,20907,37812
32132,20903,37604
32237,20905,37895
32373,20953,37924
32432,20954,37895
32448,20954,37797
32416,20951,38023
32360,20959,37988
32176,20922,38060
31960,20924,38007
31952,20925,37973
32136,20932,37980
32294,20938,37869
32420,20932,37865
32500,20929,37877
32436,20934,37645
32336,20924,37655
32308,20977,37668
32204,20956,37870
32136,20932,37884
32149,20926,38016
32236,20930,38047
32312,20935,37996
32460,20930,37965
32448,20936,37976
32502,20984,38057
32452,20968,38077
32296,20952,38005
32182,20944,37977
32264,20932,38016
32284,20970,38080
32316,20961,38080
32300,20953,38072
32328,20956,37948
32348,20954,37832
32404,20949,37740
32388,20942,37709
32392,20990,37884
32308,20989,37728
32216,20978,37695
32236,20960,37645
32164,20959,37961
32244,20965,37908
32288,20957,37836
32396,20954,38020
32444,20957,38048
32424,20988,38056
32324,20964,37884
32224,20962,37876
32192,20954,37916
32282,20952,37970
32392,20953,38000
32420,20952,38025
32528,20977,37740
32656,20961,38000
32561,20959,38038
32440,21004,38149
32432,20981,38020
32376,20966,38004
32304,20950,38054
32312,21007,37767
32553,20996,38069
32728,20972,37775
32876,20976,37780
32864,20972,37788
32700,20961,37895
32524,20962,38078
32452,20964,38105
32349,20957,38076
32324,20957,37993
32428,20999,37980
32472,20998,38036
32598,20988,38044
32708,20997,38152
32748,20999,38186
32752,20989,38095
32716,20998,38024
32650,20981,38060
32484,20973,38113
32388,20974,38108
32469,20957,38172
32596,20964,38159
32688,21016,38145
32812,21010,38180
32892,20989,38068
32916,20974,37940
32896,20981,37972
32740,20980,37913
32477,20969,38033
32348,20968,38008
32397,20962,38124
32484,20961,38041
32621,20964,38108
32816,20966,38028
32908,21027,38044
32852,21029,38019
32784,21015,38055
32677,20996,38047
32512,20983,37917
32436,20980,37948
32432,20969,38000
32396,20966,37973
32544,21007,37972
32814,21006,37954
32936,20998,37824
32948,20976,37814
32852,20980,37740
32724,20980,37957
32600,20973,37870
32472,20964,37814
32644,20965,37740
32640,20967,37765
32728,21030,37772
32768,21007,37833
32852,20989,37861
32844,20973,37704
32800,21016,37711
32780,20983,37705
32584,20969,37727
32516,20964,37693
32520,21007,37694
32561,20982,37383
32696,20982,37389
32868,20991,37377
32992,20993,37655
32972,20980,37636
32884,20973,37630
32842,21031,37604
32541,20996,37356
32384,20983,37364
32464,20986,37280
32449,20968,37337
32548,20972,37268
32652,20999,37383
32753,20994,37463
32760,20982,37456
32720,21030,37417
32632,20993,37429
32536,20980,37392
32460,20975,37329
32480,20971,37228
32608,21017,37383
32776,20986,37401
32992,20973,37447
32978,21037,37511
32912,21020,37547
32757,20986,37545
32656,20991,37518
32608,20980,37364
32500,21005,37292
32588,20981,37242
32620,20977,37348
32640,21023,37347
32740,20999,37464
32768,20991,37436
32809,20983,37444
32768,20974,37420
32736,21015,37408
32540,20986,37358
32451,20974,37330
32572,20977,37223
32644,20972,37185
32678,21018,37160
32748,21008,37104
32812,20991,37105
32784,20983,37145
32652,21018,37152
32576,20990,37218
32568,20980,37308
32576,21024,37151
32504,20982,37048
32388,20984,37016
32492,20973,37069
32608,21026,37078
32766,21009,37103
32784,20992,37111
32548,20991,37105
32681,20991,37076
32540,20978,37077
32478,20977,37072
32512,20967,37029
32604,21016,36937
32724,21020,37132
32848,21024,36948
32908,21012,36749
33032,21000,37038
32904,21015,36978
32720,21020,37111
32612,20999,37104
32520,20994,37072
32528,20977,37017
32580,20980,36966
32704,20972,36916
32836,21036,36886
32932,21028,36902
32976,21010,36868
32808,20991,36936
32692,20981,36928
32602,20970,36916
32548,21014,36913
32580,20980,36990
32708,20986,36981
32816,20975,36999
32842,20977,36933
32824,20973,36908
32812,21022,36868
32792,21015,36783
32736,20989,36776
32672,20981,36830
32674,21016,36956
32685,20988,36842
32780,20986,36832
32824,20973,36845
32808,20972,36905
32860,21020,36885
32814,21001,36868
32680,20981,36865
32640,20969,36855
32568,21018,36844
32476,20976,36628
32500,20965,36672
32570,20965,36664
32644,20964,36639
32756,21021,36647
32864,21010,36655
32884,20986,36637
32820,20980,36612
32660,21009,36366
32568,20978,36511
32364,20964,36591
32376,21013,36601
32412,20989,36617
32564,20978,36556
32752,20969,36503
32747,21011,36417
32808,20983,36425
32825,20980,36402
32788,20960,36332
32620,20961,36457
32644,21001,36373
32636,20998,36265
32736,20972,36332
32736,20967,36257
32716,20965,36324
32788,21014,36324
32868,20984,36154
32808,20987,36132
32756,20964,36114
32639,20959,36100
32556,20987,36093
32572,20976,36262
32608,20967,36216
32732,20983,36223
32881,20964,36206
32958,21015,36172
32988,20969,35967
32960,20962,35984
32925,21012,35900
32632,20973,35900
32417,20969,35852
32476,20952,35871
32576,20995,35844
32716,20982,35776
32672,20967,35823
32844,20975,35959
32968,20977,35948
32880,20962,35799
32602,20964,35668
32496,20998,35645
32580,20999,35768
32669,20980,35796
32788,20967,35722
32916,20969,35672
32992,20967,35587
33100,20964,35541
33000,21007,35620
32984,20991,35621
32884,20972,35649
32728,20958,35493
32608,20996,35365
32586,20993,35520
32672,20996,35524
32780,21005,35298
32880,20994,35204
32988,20972,35247
33017,20965,35212
33000,21012,35325
32876,20997,35296
32758,20960,35298
32608,20949,35230
32628,20948,35245
32664,20998,35247
32720,20977,35225
32628,20960,35029
32592,20956,34941
32652,21003,34916
32560,20996,34981
32564,20965,34900
32485,20962,34860
32452,20946,34819
32436,20949,34816
32532,20969,34942
32624,20994,34841
32764,20982,34741
32948,20967,34710
32941,20963,34585
32812,20967,34695
32816,20961,34663
32700,20948,34586
32548,20945,34502
32561,20940,34648
32568,20999,34604
32625,20996,34472
32860,20999,34376
32964,20996,34189
32996,20972,34157
32959,20956,34143
32852,20953,34220
32748,20940,34180
32604,20981,34194
32528,20952,34180
32504,20959,34095
32432,20951,34020
32808,20955,34114
32892,20952,34106
32848,20949,34052
32813,20985,34041
32776,20968,34006
32668,20961,33964
32680,20960,33911
32708,20950,33799
32880,20936,33850
32920,20947,33942
33084,20994,33875
33044,20999,33752
32892,20983,33684
32869,20956,33629
32918,20951,33744
32974,20944,33748
32928,20947,33687
33012,20945,33692
33100,20983,33573
33205,20961,33424
33308,20958,33412
33388,20951,33445
33452,20992,33428
33556,20967,33383
33652,20964,33359
33756,20948,33316
33956,20993,33277
34200,20961,33229
34596,20958,33196
35208,20950,33129
35828,20950,33060
36462,20953,33081
37044,20948,33076
37648,20951,33000
38336,20945,32871
38880,20935,32865
39372,20940,32761
39872,21019,32660
39930,21013,32804
39540,20973,32770
38924,20960,32741
38112,20950,32699
37064,20950,32660
35832,21004,32524
34668,20991,32660
33648,20952,32644
32808,20937,32543
32452,20982,32545
32192,20961,32430
32064,20953,32380
32264,20952,32311
32464,20946,32239
32445,20944,32244
32352,20988,32212
32228,20982,32148
31917,20975,32028
31624,20975,32205
31644,20975,32177
31685,20965,32121
31760,20958,32028
31808,20949,32034
31828,20943,31955
31792,20991,32042
31704,20960,31924
31624,20944,31870
31562,20936,31940
31532,20934,31885
31564,20972,31800
31692,20970,31709
31844,20963,31805
31980,20956,31789
32086,20952,31732
32064,20954,31624
32004,20950,31588
31852,20935,31616
31616,20979,31587
31598,20947,31520
31700,20932,31546
31808,20934,31504
31940,20975,31568
32108,20960,31554
32184,20954,31476
32208,20934,31381
32194,20977,31289
32092,20961,31300
31920,20946,31295
31792,20940,31188
31874,20935,31162
32040,20928,31232
32228,20933,31209
32328,20986,31056
32360,20967,30953
32356,20936,30920
32324,20930,30872
32192,20930,30829
32008,20966,30725
31872,20967,30869
31952,20935,30816
32100,20931,30588
32164,20925,30712
32276,20964,30644
32500,20947,30492
32536,20931,30511
32468,20932,30548
32396,20926,30492
32332,20966,30423
32268,20956,30359
32276,20940,30292
32388,20929,30249
32508,20930,30204
32708,20935,30132
32892,20924,30068
32898,20973,30010
32806,20940,29890
32720,20937,29772
32580,20925,29712
32448,20955,29666
32464,20945,29665
32620,20930,29621
32776,20916,29564
32968,20971,29485
33112,20936,29417
33124,20930,29324
33088,20915,29307
32970,20963,29234
32876,20932,29200
32756,20929,29133
32840,20908,29060
32932,20962,28982
33040,20922,28952
33184,20911,28881
33345,20913,28821
33376,20939,28772
33232,20928,28704
33044,20911,28497
32922,20946,28451
32894,20918,28482
32976,20911,28476
33136,20904,28420
33376,20934,28343
33572,20916,28167
33656,20904,28175
33552,20910,28069
33476,20944,28091
33364,20913,27919
33188,20912,27880
33048,20903,27799
33132,20944,27759
33294,20922,27591
33428,20907,27575
33556,20953,27516
33688,20939,27369
33688,20915,27375
33564,20906,27223
33428,20950,27159
33296,20916,27074
33140,20910,27044
33148,20900,26976
33189,20953,26894
33209,20924,26830
33356,20922,26756
33494,20907,26542
33492,20951,26453
33452,20925,26341
33308,20914,26240
33136,20903,26170
32960,20953,26085
32892,20933,25960
32993,20914,25977
33124,20903,25968
33272,20900,25852
33352,20953,25646
33268,20918,25599
33148,20905,25629
32900,20898,25552
32612,20926,25404
32496,20909,25327
32472,20937,25281
32432,20925,25198
32360,20913,25117
32417,20916,25018
32549,20903,24940
32534,20903,24885
32432,20944,24802
32284,20928,24685
32080,20913,24580
31908,20930,24417
31864,20918,24363
31952,20935,24382
32048,20933,24393
32112,20926,24300
32160,20908,24244
32112,20900,24210
32012,20892,24156
31960,20886,24096
31877,20888,24013
31800,20924,23961
31860,20911,23874
31980,20902,23844
32068,20898,23821
32212,20904,23777
32350,20889,23661
32264,20895,23532
32156,20930,23551
32017,20903,23521
31884,20893,23437
31744,20900,23352
31784,20898,23296
31880,20881,23326
32008,20937,23296
32220,20932,23175
32372,20932,23175
32381,20911,23103
32300,20900,23074
32212,20890,23118
32148,20884,23133
31980,20880,23088
31872,20881,23024
31964,20908,23018
32140,20903,22974
32184,20900,22907
32284,20898,22877
32348,20902,22868
32316,20891,22790
32212,20888,22650
32104,20893,22681
31924,20886,22733
31948,20878,22685
32048,20870,22663
32185,20846,22620
32320,20912,22582
32448,20910,22514
32532,20901,22471
32452,20882,22464
32330,20888,22401
32160,20903,22287
32016,20902,22338
32060,20894,22352
32116,20887,22311
32240,20888,22316
32352,20900,22130
32478,20887,22161
32472,20878,22084
32372,20917,22047
32232,20885,22023
32112,20876,22044
31968,20868,21996
31960,20861,21948
32100,20863,21961
32208,20868,22000
32398,20868,22022
32550,20906,22006
32612,20885,21996
32632,20875,21974
32525,20862,21900
32412,20861,21876
32324,20895,21878
32284,20873,21864
32336,20876,21869
32474,20864,21892
32632,20871,21853
32756,20880,21860
32752,20865,21884
32648,20912,21845
32420,20900,21786
32264,20878,21702
32184,20868,21780
32174,20864,21832
32268,20860,21820
32360,20854,21768
32420,20860,21812
32528,20857,21813
32552,20899,21796
32485,20901,21733
32412,20892,21668
32276,20871,21701
32168,20864,21742
32176,20858,21793
32280,20854,21786
32408,20901,21782
32536,20897,21780
32628,20887,21766
32628,20876,21754
32496,20861,21760
32365,20852,21745
32250,20846,21743
32136,20852,21749
32092,20890,21778
32201,20892,21802
32372,20892,21776
32564,20868,21740
32665,20867,21702
32640,20866,21661
32544,20869,21734
32388,20856,21762
32252,20850,21809
32168,20893,21803
32200,20892,21777
32328,20894,21757
32440,20895,21719
32600,20897,21792
32748,20900,21851
32748,20895,21861
32636,20893,21853
32464,20872,21839
32360,20855,21852
32261,20847,21916
32246,20861,21836
32316,20852,21792
32416,20868,21904
32576,20845,21958
32792,20849,21972
32888,20852,21968
32857,20848,21960
32756,20885,21983
32528,20871,22026
32316,20860,22052
32400,20855,22082
32512,20853,22056
32660,20855,21983
32760,20858,22140
32845,20845,22157
32892,20847,22172
32801,20844,22164
32708,20885,22194
32552,20871,22214
32412,20848,22241
32396,20836,22260
32428,20837,22237
32524,20847,22180
32704,20849,22242
32900,20839,22268
33032,20836,22348
33000,20886,22364
32892,20872,22373
32748,20860,22382
32616,20837,22397
32620,20855,22398
32676,20858,22468
32776,20860,22473
32948,20854,22461
33080,20844,22461
33064,20836,22481
32816,20832,22534
32640,20833,22548
32572,20828,22550
32493,20856,22590
32525,20841,22621
32636,20836,22588
32720,20830,22666
32892,20891,22685
33048,20857,22707
33052,20845,22665
32928,20829,22582
32820,20857,22711
32704,20822,22751
32560,20870,22807
32536,20832,22762
32613,20817,22684
32748,20841,22870
32924,20839,22852
33020,20830,22861
33021,20826,22925
32772,20861,22880
32604,20833,22864
32556,20870,22965
32464,20849,22984
32492,20837,22993
32612,20820,23030
32748,20863,23073
32860,20832,23046
32992,20829,23057
32936,20817,23058
32796,20880,23071
32624,20854,23044
32468,20828,23055
32420,20823,23105
32488,20812,23110
32572,20836,23268
32656,20855,23300
32816,20824,23360
32960,20825,23382
33048,20827,23412
33040,20865,23447
32840,20823,23413
32690,20807,23469
32384,20859,23532
32192,20827,23416
32324,20850,23599
32533,20821,23550
32724,20815,23638
32892,20857,23632
32964,20823,23583
32916,20809,23652
32864,20867,23764
32768,20837,23790
32676,20818,23802
32676,20807,23894
32716,20850,23872
32768,20817,23836
32740,20805,23866
32832,20828,24021
32888,20823,24000
32832,20804,24102
32684,20841,24144
32601,20809,24020
32464,20811,24028
32442,20800,24202
32544,20825,24249
32672,20815,24279
32837,20801,24325
33012,20839,24279
32976,20818,24245
32852,20804,24425
32736,20829,24407
32608,20808,24409
32460,20793,24340
32448,20811,24471
32500,20790,24540
32576,20836,24521
32684,20802,24618
32746,20810,24660
32768,20796,24519
32769,20827,24687
32716,20806,24732
32628,20805,24747
32517,20791,24752
32495,20828,24780
32524,20802,24865
32600,20791,24732
32613,20817,24872
32584,20802,24940
32608,20788,24988
32568,20833,24888
32476,20800,24933
32357,20781,25042
32234,20821,25083
32200,20796,25133
32248,20793,25162
32336,20781,25185
32445,20831,25084
32612,20828,25077
32628,20824,25093
32660,20804,25161
32620,20796,25191
32516,20782,25252
32404,20777,25272
32386,20779,25355
32412,20822,25452
32504,20788,25364
32644,20793,25391
32824,20789,25486
32872,20836,25526
32800,20808,25558
32704,20797,25575
32600,20795,25469
32504,20772,25578
32508,20815,25671
32556,20781,25607
32624,20787,25615
32696,20775,25714
32844,20821,25749
32789,20810,25772
32612,20784,25649
32600,20775,25673
32616,20770,25798
32520,20768,25834
32481,20819,25884
32568,20805,25932
32692,20799,25949
32804,20784,25977
32980,20779,25981
33036,20772,26023
32952,20766,25994
32780,20820,26028
32749,20792,26108
32628,20772,26089
32596,20770,26135
32694,20764,26092
32816,20766,26000
32912,20767,26020
32996,20770,26070
32992,20773,26108
32948,20770,26148
32876,20786,26134
32772,20781,26292
32596,20760,26364
32548,20805,26406
32592,20786,26426
32704,20777,26359
32856,20767,26344
32980,20813,26440
32952,20790,26476
32968,20774,26516
32956,20762,26528
32752,20760,26566
32504,20801,26485
32484,20773,26455
32636,20754,26613
32797,20799,26691
32948,20773,26692
33124,20782,26728
33124,20760,26746
33044,20824,26780
32908,20807,26781
32740,20805,26706
32584,20789,26828
32601,20762,26845
32600,20763,26769
32605,20755,26811
32669,20757,26808
32896,20761,26806
32936,20759,26810
32872,20754,26887
32772,20797,26941
32692,20786,26944
32600,20793,26892
32624,20772,26960
32704,20768,26916
32792,20770,26926
32932,20764,26960
33061,20753,27015
33072,20809,27047
33016,20804,27067
32940,20800,26934
32880,20784,26905
32774,20761,26993
32720,20746,27130
32790,20805,27015
32848,20772,27078
32937,20755,27118
32888,20748,27137
32772,20798,27020
32716,20768,27007
32652,20753,27165
32568,20792,27204
32480,20764,27098
32488,20759,27104
32584,20759,27185
32712,20757,27200
32816,20764,27140
32936,20760,27172
33004,20754,27224
32996,20800,27285
32896,20782,27297
32792,20767,27314
32680,20757,27329
32696,20748,27215
32784,20748,27185
32940,20786,27192
33132,20782,27224
33284,20766,27369
33416,20762,27421
33456,20748,27333
33424,20799,27329
33368,20766,27421
33092,20758,27445
33020,20746,27460
33316,20790,27344
33688,20759,27317
34141,20742,27316
34670,20796,27399
35036,20759,27476
35396,20757,27533
35844,20746,27488
36328,20800,27460
36856,20778,27444
37516,20764,27444
38308,20761,27536
39156,20736,27563
40008,20812,27572
40668,20776,27438
41096,20756,27460
41001,20765,27468
40374,20732,27444
39412,20796,27511
38180,20748,27497
36936,20743,27476
35712,20759,27502
34756,20739,27500
33881,20788,27533
33154,20775,27661
32716,20752,27732
32466,20741,27716
32352,20734,27738
32248,20772,27724
32112,20743,27621
32036,20734,27726
32052,20725,27736
32138,20767,27736
32240,20741,27596
32360,20732,27705
32364,20777,27788
32272,20740,27652
32184,20733,27748
32048,20772,27617
31892,20751,27597
31846,20733,27588
31856,20731,27702
31900,20772,27697
31856,20764,27720
31932,20745,27774
32016,20728,27628
31936,20773,27620
31844,20732,27701
31784,20727,27708
31720,20764,27794
31744,20729,27676
31856,20716,27789
31930,20747,27756
32112,20725,27825
32296,20722,27824
32372,20773,27853
32384,20742,27708
32316,20724,27757
32169,20723,27716
32032,20753,27813
32001,20751,27740
32064,20743,27751
32145,20721,27876
32272,20721,27821
32404,20724,27844
32428,20765,27863
32376,20758,27887
32288,20746,27753
32156,20735,27720
32024,20709,27829
31988,20759,27791
32060,20735,27784
32213,20719,27840
32348,20724,27869
32472,20719,27876
32558,20717,27781
32496,20753,27735
32421,20743,27728
32349,20732,27721
32237,20722,27717
32224,20709,27710
32344,20712,27705
32478,20749,27700
32640,20746,27711
32784,20730,27868
32728,20718,27893
32566,20753,27863
32544,20728,27884
32532,20712,27882
32497,20708,27890
32465,20745,27764
32568,20720,27748
32677,20706,27735
32840,20740,27892
32980,20719,27946
33032,20709,27926
33040,20752,27841
33040,20724,27925
33024,20727,27874
33008,20709,27935
33000,20753,27968
33025,20716,27996
33084,20704,27852
33004,20757,27863
33022,20716,27876
33120,20708,28064
33136,20717,28028
33108,20704,27889
33089,20724,27906
33052,20711,28097
33080,20698,27964
33184,20737,28056
33308,20719,28073
33424,20711,28094
33556,20704,27940
33600,20738,27938
33536,20714,27980
33484,20705,28108
33416,20701,28151
