ECG,EDA,RR
31880,21511,34741
31920,21505,34547
32013,21538,34671
32160,21529,34746
32252,21520,34412
32228,21525,34512
32200,21526,34498
32129,21516,34588
32036,21511,34669
31940,21543,34449
31936,21519,34547
32008,21511,34456
32092,21509,34402
32204,21512,34472
32292,21543,34514
32273,21520,34362
32232,21556,34442
32152,21533,34332
32060,21522,34452
31960,21506,34236
31968,21534,34379
32092,21520,34348
32172,21523,34213
32269,21524,34318
32392,21556,34293
32416,21525,34204
32388,21511,34348
32308,21552,34148
32193,21524,34222
32120,21519,34106
32084,21505,34157
32142,21509,34156
32194,21533,34042
32332,21519,34096
32420,21529,34095
32396,21511,33957
32304,21559,34029
32201,21543,33861
32128,21531,34001
32044,21525,33973
32016,21522,33848
32036,21510,33926
32136,21511,33888
32244,21550,33978
32368,21545,33748
32368,21547,33840
32320,21530,33717
32217,21520,33844
32096,21527,33783
31976,21516,33823
31965,21504,33628
32045,21545,33488
32148,21532,33685
32240,21521,33705
32352,21527,33487
32324,21534,33626
32236,21527,33556
32189,21519,33400
32084,21511,33543
31980,21556,33601
32036,21541,33398
32089,21534,33480
32180,21524,33352
32292,21524,33421
32392,21516,33183
32392,21525,33327
32312,21521,33236
32244,21508,33319
32132,21549,33196
32017,21522,33341
32000,21521,33108
32060,21511,33205
32160,21511,33078
32276,21530,33098
32384,21521,33161
32392,21557,32952
32332,21549,33030
32284,21537,33080
32184,21521,32789
32144,21521,32902
32188,21502,32996
32208,21541,32754
32264,21525,32847
32376,21527,32823
32496,21518,32656
32544,21513,32740
32503,21556,32656
32380,21520,32703
32248,21520,32508
32184,21511,32590
32186,21542,32566
32224,21516,32447
32312,21524,32472
32448,21508,32341
32544,21511,32346
32574,21551,32163
32496,21533,32333
32404,21524,32218
32348,21511,32326
32264,21502,32072
32296,21507,32148
32364,21503,32143
32432,21540,32089
32552,21536,31951
32624,21520,31988
32628,21524,31772
32588,21511,31936
32464,21551,31799
32360,21527,31903
32268,21513,31721
32276,21503,31623
32361,21539,31768
32464,21521,31639
32580,21510,31697
32692,21548,31681
32676,21521,31460
32644,21511,31613
32592,21509,31468
32465,21524,31585
32404,21500,31586
32398,21528,31482
32472,21511,31308
32584,21503,31236
32716,21542,31413
32792,21517,31355
32764,21508,31309
32716,21541,31252
32652,21511,31100
32548,21497,31271
32456,21521,31133
32456,21502,31260
32526,21516,31152
32592,21501,31228
32704,21501,31078
32824,21534,30943
32864,21513,31096
32821,21503,31052
32720,21532,30944
32592,21517,31056
32440,21498,30860
32384,21493,30805
32444,21540,30945
32560,21529,30908
32660,21510,30876
32764,21503,30740
32792,21535,30704
32734,21516,30830
32672,21498,30780
32576,21542,30832
32484,21500,30655
32477,21498,30590
32568,21488,30740
32652,21526,30604
32748,21507,30725
32860,21496,30552
32864,21538,30516
32808,21509,30492
32724,21492,30628
32628,21529,30588
32520,21502,30476
32540,21484,30630
32596,21524,30398
32676,21508,30378
32788,21531,30365
32904,21505,30343
32929,21494,30480
32877,21526,30436
32788,21503,30354
32680,21485,30497
32596,21522,30388
32604,21495,30264
32665,21485,30249
32716,21493,30244
32813,21535,30255
32904,21503,30224
32840,21492,30194
32740,21508,30181
32624,21480,30164
32480,21518,30148
32392,21484,30109
32389,21521,30128
32488,21489,30120
32596,21501,30142
32720,21484,30107
32864,21502,30087
32852,21481,30086
32787,21493,30048
32662,21525,30060
32553,21489,30036
32416,21474,30023
32393,21511,30180
32420,21488,30154
32485,21522,30117
32592,21493,30045
32688,21480,30054
32692,21516,30014
32668,21486,29996
32584,21520,30075
32476,21488,30028
32408,21468,29941
32408,21481,29944
32484,21473,29933
32594,21500,29909
32744,21484,29904
32836,21524,29878
32832,21497,29872
32788,21474,29866
32716,21497,29861
32532,21470,30028
32440,21511,30032
32472,21485,30013
32524,21469,29973
32592,21503,29924
32704,21479,30020
32796,21465,29956
32824,21484,29863
32772,21471,29852
32710,21506,29992
32644,21470,30000
32620,21463,29980
32708,21475,29984
32821,21462,29983
32972,21495,29953
33108,21479,29956
33168,21504,29964
33180,21488,29912
33288,21465,29929
33464,21493,29947
33604,21473,29993
33782,21501,29948
34160,21473,29937
34616,21519,29840
35124,21482,29768
35736,21482,29913
36392,21468,29822
37028,21480,29896
37612,21471,29934
38212,21495,29872
38896,21479,29970
39516,21454,29845
40120,21504,29769
40508,21476,29749
40384,21525,29752
39736,21487,29798
38856,21467,29912
37684,21477,29932
36360,21462,29924
35129,21497,29920
33984,21473,29866
33000,21446,29994
32396,21488,29844
32164,21463,29812
32118,21450,29801
32184,21494,29820
32236,21471,29985
32240,21457,29985
32136,21492,29966
32016,21462,29904
31877,21451,29924
31756,21477,29898
31704,21455,29908
31772,21462,30053
31829,21443,30039
31932,21484,29960
32040,21464,29865
31984,21453,29840
31876,21445,30006
31728,21480,30016
31600,21453,30004
31534,21436,30011
31544,21466,30014
31596,21453,30028
31712,21444,29869
31882,21465,30021
32024,21456,30032
32056,21445,30052
31985,21475,30044
31932,21444,30070
31844,21440,30078
31742,21437,30100
31732,21453,30116
31776,21436,30117
31845,21473,29957
32000,21454,29996
32064,21440,30030
32032,21468,30040
32076,21444,30020
31976,21469,30056
31948,21445,30065
31856,21428,30068
31892,21442,30086
31944,21441,30264
32050,21478,30278
32152,21449,30300
32270,21436,30249
32320,21473,30276
32320,21444,30309
32216,21461,30350
32093,21432,30354
32060,21455,30353
32178,21433,30298
32240,21426,30409
32320,21461,30241
32380,21443,30416
32456,21428,30322
32576,21463,30479
32496,21444,30405
32409,21426,30381
32340,21433,30424
32157,21420,30386
32152,21451,30452
32448,21436,30470
32480,21419,30559
32600,21445,30572
32740,21427,30631
32776,21458,30577
32740,21433,30536
32584,21457,30601
32601,21437,30597
32524,21420,30596
32620,21414,30590
32758,21427,30624
32832,21420,30852
33012,21462,30900
33069,21430,30805
33117,21466,30814
33052,21426,30895
33136,21421,31090
32928,21407,31156
33020,21457,31097
33016,21437,31256
32992,21423,31300
33004,21411,31348
33357,21404,31324
33492,21450,31532
33500,21417,31591
33498,21412,31642
33456,21441,31628
33460,21431,31749
33156,21420,31916
33136,21405,31933
33240,21440,32007
33388,21429,32017
33444,21412,32089
33676,21406,32148
33716,21421,32238
33632,21405,32348
33557,21445,32437
33436,21411,32508
33368,21393,32665
33389,21427,32696
33446,21413,33030
33548,21394,33127
33660,21444,33137
33712,21418,33268
33656,21412,33533
33593,21392,33549
33468,21418,33608
33372,21405,33653
33244,21388,33640
33257,21412,33788
33312,21398,34048
33308,21390,34156
33376,21415,34224
33489,21401,34301
33348,21423,34404
33344,21396,34423
33252,21433,34620
33104,21405,34784
32924,21377,34881
32894,21409,34895
32908,21397,35037
32992,21435,35164
33013,21409,35268
33068,21388,35277
32940,21444,35280
32805,21412,35297
32752,21389,35237
32510,21428,35574
32360,21388,35621
32412,21380,35700
32413,21407,35777
32472,21391,35757
32620,21427,35822
32640,21402,35894
32584,21383,35994
32504,21420,36149
32409,21384,36306
32268,21376,36388
32156,21394,36454
32133,21370,36423
32196,21396,36332
32236,21380,36404
32293,21421,36466
32328,21395,36636
32340,21383,36788
32240,21416,36793
32080,21398,36686
31964,21383,36734
31884,21365,36676
31876,21399,36832
31836,21381,36972
32088,21368,37084
32220,21405,37053
32336,21384,37017
32324,21410,37111
32252,21380,37269
32145,21388,37311
32140,21367,37337
32038,21356,37359
31900,21391,37412
31981,21373,37408
32104,21363,37444
32276,21400,37437
32342,21376,37429
32276,21377,37329
32177,21368,37167
32268,21359,37177
32224,21391,37468
32168,21377,37492
32137,21364,37436
32176,21352,37432
32246,21382,37407
32352,21366,37403
32484,21356,37533
32480,21372,37583
32420,21348,37637
32288,21392,37589
32156,21362,37516
32136,21348,37247
32176,21346,37533
32260,21381,37408
32344,21365,37578
32508,21394,37558
32592,21364,37564
32520,21350,37593
32478,21389,37549
32364,21356,37446
32208,21342,37357
32088,21383,37404
32052,21369,37364
32200,21357,37253
32285,21340,37460
32440,21354,37445
32521,21348,37364
32524,21397,37180
32464,21357,37052
32404,21340,36956
32260,21378,37085
32225,21348,37048
32172,21340,37028
32292,21377,36980
32360,21356,36941
32500,21385,36841
32612,21348,36820
32532,21339,36655
32516,21356,36599
32361,21332,36554
31824,21352,36692
32140,21330,36652
32276,21347,36596
32256,21333,36580
32356,21341,36644
32444,21368,36653
32534,21344,36409
32552,21364,36412
32504,21338,36292
32359,21324,36241
32268,21349,36257
32220,21324,36128
32268,21340,36157
32340,21327,36140
32413,21338,36085
32480,21325,36038
32592,21348,35792
32568,21329,35764
32480,21350,35788
32357,21358,35773
32225,21332,35712
32156,21358,35719
32156,21336,35578
32232,21321,35538
32300,21349,35464
32404,21330,35386
32524,21359,35428
32492,21332,35412
32468,21357,35300
32408,21332,35253
32256,21316,35129
32144,21320,35114
32108,21355,35206
32116,21321,35145
32224,21316,35079
32368,21350,34948
32453,21320,34876
32448,21359,34804
32396,21333,34769
32350,21315,34652
32216,21335,34512
32176,21311,34494
32260,21349,34348
32308,21317,34327
32432,21313,34276
32574,21324,34388
32644,21308,34439
32608,21329,34364
32534,21308,34137
32480,21321,34180
32388,21345,33955
32320,21313,33852
32360,21302,33814
32432,21334,33703
32524,21321,33676
32648,21305,33791
32688,21324,33605
32676,21311,33524
32632,21320,33517
32524,21349,33597
32421,21308,33333
32396,21341,33317
32440,21302,33282
32524,21321,33188
32588,21295,32945
32716,21316,32929
32821,21300,32842
32804,21340,32764
32729,21316,32654
32656,21296,32519
32504,21316,32447
32432,21298,32330
32444,21333,32250
32508,21308,32353
32584,21343,32076
32708,21314,32000
32816,21296,31957
32824,21349,31860
32740,21311,31749
32648,21299,31644
32528,21294,31709
32457,21298,31608
32476,21287,31324
32568,21311,31232
32660,21290,31190
32764,21309,31097
32861,21293,30991
32853,21333,30943
32788,21298,30932
32712,21322,30917
32570,21294,30812
32480,21281,30648
32492,21312,30574
32588,21292,30493
32648,21311,30248
32804,21286,30197
32928,21306,30122
32884,21291,29999
32824,21332,29867
32724,21286,29855
32592,21316,29764
32492,21282,29700
32496,21300,29608
32624,21278,29348
32761,21302,29257
32908,21292,29190
32972,21327,29244
32956,21303,29016
32864,21285,28959
32766,21316,28991
32600,21286,28886
32564,21319,28814
32608,21272,28727
32664,21302,28509
32754,21279,28420
32904,21292,28333
32972,21285,28256
32965,21308,28173
32948,21286,28109
32862,21311,28052
32732,21279,28124
32656,21316,28036
32644,21285,27895
32712,21272,27841
32829,21291,27801
33000,21285,27748
33044,21318,27604
33016,21288,27500
32920,21278,27485
32820,21316,27453
32729,21284,27476
32653,21318,27426
32670,21285,27367
32732,21276,27229
32836,21294,27210
32952,21276,27229
33004,21311,27166
33012,21281,26996
32913,21321,26937
32848,21282,26879
32696,21271,26870
32600,21314,26956
32588,21284,26873
32644,21277,26773
32700,21313,26799
32796,21282,26774
32868,21316,26759
32852,21285,26758
32770,21319,26708
32744,21276,26637
32656,21263,26517
32580,21269,26627
32592,21300,26548
32648,21277,26492
32748,21263,26530
32872,21286,26521
32913,21269,26480
32924,21278,26470
32840,21314,26448
32748,21274,26432
32639,21304,26348
32572,21274,26300
32632,21298,26254
32708,21272,26321
32800,21253,26308
32887,21286,26239
32944,21273,26188
32953,21265,26146
32901,21276,26181
32828,21256,26162
32690,21302,26045
32622,21276,26115
32680,21255,26198
32745,21296,26177
32837,21270,26151
32992,21256,26079
33084,21292,26100
33073,21273,26124
33004,21309,26104
32932,21280,26100
32832,21261,25969
32780,21303,25956
32812,21262,25961
32880,21251,26008
33008,21277,26088
33165,21295,25918
33328,21260,25920
33408,21307,25892
33376,21271,25911
33276,21261,25957
33116,21295,26053
33173,21261,26029
33276,21247,26012
33550,21277,26013
33848,21260,25998
34172,21260,25924
34524,21292,26025
34860,21276,25993
35172,21308,25972
35516,21273,26011
35880,21252,25996
36372,21278,26004
36960,21253,25964
37684,21324,25797
38480,21296,25854
39308,21258,25860
40016,21320,25885
40516,21268,25892
40572,21297,25848
40068,21256,25848
39089,21315,25863
37972,21263,25853
36812,21310,25839
35656,21264,25888
34684,21254,25976
33872,21297,25990
33196,21263,25996
32816,21250,25936
32600,21277,25996
32444,21248,26015
32300,21262,26024
32212,21241,26021
32240,21279,26043
32296,21253,26036
32384,21240,26034
32456,21260,26053
32494,21245,26054
32400,21273,26056
32212,21257,26058
32132,21284,26066
32008,21248,26077
31885,21239,26058
31896,21274,26082
32000,21237,26076
32088,21272,26082
32216,21247,26087
32262,21276,25974
32212,21242,25927
32133,21274,25928
32036,21249,25930
31924,21233,25950
31825,21247,25956
31908,21233,26069
32016,21276,25964
32088,21243,25973
32225,21241,26004
32308,21283,26152
32268,21249,26161
32244,21236,26173
32188,21266,26195
32068,21233,26112
32004,21262,26076
32036,21239,26079
32120,21234,26108
32236,21275,26223
32396,21253,26216
32456,21239,26189
32404,21280,26156
32320,21255,26180
32296,21243,26258
32228,21277,26281
32166,21241,26221
32212,21229,26252
32324,21253,26276
32408,21245,26276
32552,21228,26276
32660,21266,26193
32628,21252,26091
32544,21231,26081
32480,21269,26125
32356,21261,26248
32289,21230,26241
32354,21228,26236
32420,21271,26233
32540,21236,26212
32700,21235,26186
32780,21279,26193
32764,21241,26166
32721,21225,26134
32664,21267,26136
32572,21240,26140
32520,21221,26148
32584,21256,26143
32668,21243,26072
32796,21234,26172
32921,21277,26167
33042,21244,26140
33028,21233,25960
32925,21229,26054
32872,21269,26144
32804,21238,26132
32752,21275,26119
32832,21232,26124
32932,21223,26110
33028,21264,26116
33208,21241,26116
33312,21233,26109
33321,21281,26106
33240,21245,26094
33145,21234,26052
33028,21269,26076
33020,21245,26060
33062,21229,26005
33172,21227,26018
33284,21262,26105
33452,21242,25943
33564,21237,25940
33516,21229,26012
33472,21268,26072
33372,21242,26052
33248,21231,26041
33240,21221,26025
33312,21255,25984
33384,21236,25972
33493,21225,25994
33604,21257,25980
33648,21237,25984
33616,21207,26007
33564,21255,25952
33508,21236,26070
33364,21221,26042
33312,21247,25886
33376,21229,25888
33456,21223,25980
33536,21270,26004
33628,21255,26051
33636,21238,25868
33552,21244,25932
33456,21226,26036
33328,21271,25964
33208,21255,26028
33112,21233,25913
33116,21225,26031
33148,21224,25971
33184,21271,25886
33232,21261,26064
33236,21236,26025
33108,21239,26081
32980,21269,26064
32804,21241,25984
32632,21236,25912
32536,21265,25926
32520,21231,25962
32536,21218,26000
32620,21258,26096
32689,21239,26029
32664,21231,26137
32598,21265,26116
32480,21246,25984
32320,21225,26016
32128,21243,26156
32076,21220,26165
32068,21258,26156
32058,21236,26164
32112,21259,26161
32228,21240,26118
32248,21231,26234
32184,21254,26241
32080,21232,26159
31965,21220,26100
31800,21254,26180
31764,21225,26283
31796,21265,26296
31841,21247,26265
31933,21230,26266
32028,21217,26324
32084,21255,26228
32076,21237,26218
32023,21216,26282
31936,21241,26296
31838,21220,26314
31780,21245,26292
31832,21220,26293
31940,21253,26380
32032,21227,26395
32141,21216,26365
32194,21249,26410
32152,21225,26476
32072,21218,26428
31988,21230,26440
31896,21204,26457
31840,21243,26508
31872,21213,26505
31944,21250,26518
32052,21220,26560
32169,21252,26572
32252,21235,26605
32236,21219,26661
32172,21233,26697
32110,21216,26845
31972,21248,26869
31939,21216,26893
31980,21205,26891
32096,21246,26852
32248,21223,26980
32448,21219,26884
32530,21214,26905
32457,21253,27041
32329,21223,26978
32192,21218,27131
32040,21248,27151
31997,21232,26993
32049,21221,27060
32160,21215,27226
32318,21217,27216
32464,21242,27190
32556,21220,27251
32529,21214,27310
32470,21252,27189
32340,21221,27232
32192,21205,27291
32136,21223,27470
32145,21208,27481
32225,21211,27441
32324,21234,27552
32472,21221,27614
32530,21210,27551
32484,21255,27503
32420,21216,27535
32349,21204,27569
32212,21216,27619
32156,21205,27641
32196,21248,27726
32244,21223,27876
32336,21206,27916
32468,21255,27959
32472,21218,27988
32469,21208,28023
32412,21207,27958
32321,21247,28123
32224,21231,28000
32196,21223,28170
32288,21208,28207
32392,21213,28174
32494,21204,28311
32640,21249,28295
32696,21208,28224
32632,21205,28236
32592,21236,28289
32476,21201,28311
32312,21237,28373
32217,21200,28537
32196,21201,28534
32296,21240,28598
32392,21225,28533
32500,21210,28494
32520,21208,28692
32476,21244,28697
32436,21215,28679
32370,21201,28820
32293,21236,28862
32260,21223,28704
32332,21209,28740
32416,21207,28773
32508,21201,28952
32621,21228,28935
32660,21216,28926
32656,21202,29070
32580,21241,28901
32464,21216,28928
32324,21205,29122
32260,21196,29153
32296,21231,29173
32392,21229,29149
32544,21211,29144
32692,21200,29312
32728,21245,29319
32706,21209,29340
32600,21245,29310
32473,21213,29380
32328,21188,29423
32288,21242,29300
32300,21224,29277
32376,21211,29456
32456,21201,29484
32604,21201,29492
32645,21237,29457
32596,21219,29481
32544,21195,29501
32468,21239,29453
32360,21204,29476
32364,21203,29640
32400,21194,29596
32526,21189,29635
32652,21231,29550
32744,21221,29736
32770,21198,29704
32754,21248,29738
32701,21238,29692
32608,21216,29708
32492,21201,29864
32444,21189,29870
32470,21225,29956
32473,21202,29830
32552,21199,29865
32644,21197,29980
32668,21227,29933
32612,21206,30076
32528,21209,29925
32440,21193,30101
32344,21184,30100
32320,21222,30095
32412,21221,30140
32500,21201,30058
32556,21207,30085
32664,21206,30226
32680,21205,30317
32652,21186,30180
32566,21190,30309
32512,21233,30332
32372,21204,30264
32308,21194,30366
32348,21187,30389
32400,21236,30344
32524,21228,30433
32648,21212,30397
32696,21226,30480
32676,21214,30409
32612,21197,30565
32504,21184,30388
32409,21225,30564
32408,21188,30598
32468,21188,30648
32572,21185,30484
32670,21236,30664
32762,21230,30591
32752,21220,30581
32700,21200,30541
32640,21191,30655
32568,21183,30800
32421,21212,30631
32420,21193,30796
32424,21182,30723
32429,21223,30741
32500,21204,30849
32584,21204,30784
32632,21188,30839
32644,21225,30919
32628,21215,30915
32576,21199,30823
32488,21196,30952
32456,21178,31001
32520,21215,30871
32617,21194,30881
32696,21186,31045
32796,21220,31015
32852,21189,31067
32780,21240,31134
32712,21211,30991
32664,21196,31164
32544,21180,31124
32492,21221,31263
32524,21189,31093
32564,21191,31256
32652,21177,31199
32756,21222,31196
32792,21210,31327
32752,21189,31265
32724,21178,31292
32696,21220,31381
32633,21185,31420
32588,21191,31298
32540,21183,31436
32576,21180,31550
32652,21185,31330
32720,21216,31479
32748,21190,31609
32752,21185,31444
32733,21225,31600
32677,21211,31692
32592,21193,31511
32600,21173,31656
32701,21216,31725
32792,21188,31640
32860,21181,31734
32948,21231,31636
32997,21200,31743
32916,21186,31609
32832,21178,31724
32732,21221,31887
32604,21189,31716
32564,21170,31900
32572,21216,31972
32640,21195,31745
32769,21189,31968
32892,21186,32050
32920,21223,31836
32885,21205,32019
32802,21186,32151
32708,21221,31969
32592,21191,32025
32564,21173,32144
32644,21192,32240
32756,21178,32167
32868,21183,32228
32948,21183,32305
33000,21225,32158
32965,21192,32320
32872,21182,32228
32840,21176,32418
32737,21205,32220
32647,21180,32428
32640,21189,32503
32672,21180,32321
32768,21178,32508
32888,21222,32529
32896,21194,32389
32864,21193,32541
32780,21179,32662
32702,21209,32582
32568,21178,32564
32496,21223,32473
32548,21204,32698
32592,21184,32773
32648,21181,32668
32760,21225,32598
32872,21197,32824
32860,21190,32793
32801,21176,32901
32732,21173,32774
32652,21212,32931
32652,21189,32869
32673,21177,32984
32732,21177,32894
32820,21173,33031
32972,21196,33063
33009,21196,32992
32944,21185,33109
32828,21175,32950
32745,21212,33183
32630,21186,33092
32600,21176,33255
32608,21170,33092
32684,21185,33264
32774,21188,33193
32920,21177,33388
33000,21221,33324
32976,21185,33248
32940,21173,33407
32889,21169,33316
32844,21189,33397
32820,21180,33471
32848,21169,33345
32956,21217,33509
33100,21198,33428
33228,21176,33524
33260,21212,33637
33216,21193,33520
33144,21190,33447
33044,21183,33636
33032,21168,33614
33226,21216,33762
33584,21202,33614
33936,21185,33716
34528,21176,33725
35112,21234,33654
35620,21211,33861
36132,21188,33826
36636,21243,33829
37160,21189,33812
37712,21168,33773
38424,21241,33708
39224,21204,33933
40024,21197,33868
40712,21167,34033
41176,21236,34100
41136,21227,33924
40416,21197,33941
39324,21175,34052
38008,21208,34132
36536,21180,34156
35160,21219,34180
34156,21181,34212
33348,21223,34028
32781,21190,34281
32524,21172,34311
32356,21220,34257
32204,21183,34452
32124,21172,34420
32056,21200,34385
31916,21179,34375
31864,21205,34404
31836,21180,34404
31856,21169,34393
31868,21202,34350
31944,21178,34360
31953,21174,34616
31868,21194,34633
31804,21173,34446
31720,21198,34444
31604,21166,34508
31532,21210,34730
31532,21177,34760
31604,21161,34775
31712,21185,34812
31832,21166,34842
31892,21168,34813
31904,21180,34880
31869,21167,34909
31812,21203,34884
31725,21173,34848
31696,21166,35045
31764,21163,34908
31864,21196,34818
31952,21181,35061
32061,21169,35055
32102,21208,35005
32080,21186,35196
31968,21169,35230
31814,21203,35244
31769,21169,35276
31740,21158,35289
31844,21173,35303
31928,21163,35247
32024,21199,35237
32184,21174,35295
32196,21207,35364
32184,21180,35353
32128,21172,35203
32042,21196,35204
31972,21173,35223
31980,21165,35328
32116,21203,35340
32216,21175,35303
32400,21169,35344
32604,21160,35384
32681,21204,35302
32704,21175,35100
32696,21164,35356
32576,21206,35348
32440,21191,35316
32388,21167,35449
32428,21154,35372
32476,21176,35474
32584,21173,35308
32728,21218,35225
32720,21190,35164
32640,21164,35288
32520,21193,35300
32420,21157,35313
32366,21198,35326
32412,21175,35327
32512,21203,35327
32609,21166,35348
32648,21220,35312
32820,21178,35429
32932,21159,35417
32936,21204,35495
32984,21176,35540
32992,21205,35552
32924,21173,35462
32877,21161,35387
32928,21195,35397
33045,21159,35466
33156,21200,35508
33209,21180,35479
33164,21208,35468
33133,21175,35349
33180,21165,35512
33112,21202,35530
32974,21165,35544
33008,21152,35551
33108,21194,35533
33212,21165,35420
33384,21202,35295
33540,21181,35351
33540,21171,35514
33480,21161,35550
33453,21182,35553
33380,21159,35536
33292,21152,35501
33288,21183,35512
33304,21174,35425
33333,21159,35628
33364,21161,35441
33437,21215,35527
33508,21182,35522
33516,21166,35491
33428,21184,35503
33232,21167,35476
33054,21157,35591
32996,21176,35351
33060,21156,35512
33136,21197,35512
33292,21166,35463
33460,21165,35425
33508,21173,35385
33420,21165,35540
33260,21196,35574
33057,21172,35464
32848,21203,35461
32800,21165,35397
32844,21159,35335
32958,21200,35460
33044,21173,35472
33108,21157,35449
33152,21195,35374
33084,21182,35599
32988,21162,35484
32840,21157,35348
32624,21179,35236
32480,21169,35482
32424,21137,35495
32468,21176,35461
32540,21161,35464
32668,21171,35417
32640,21161,35269
32532,21178,35244
32368,21164,35500
32188,21194,35484
32006,21172,35492
31916,21196,35500
31892,21178,35460
31944,21172,35452
32024,21157,35436
32108,21164,35498
32140,21205,35510
32060,21175,35502
31980,21206,35500
31880,21175,35510
31692,21153,35521
31640,21182,35453
31676,21158,35456
31716,21190,35479
31816,21173,35527
31905,21165,35430
31924,21200,35581
31896,21172,35636
31848,21167,35629
31784,21186,35559
31712,21160,35485
31688,21149,35588
31709,21168,35607
31792,21156,35581
31888,21181,35468
32056,21162,35463
32120,21191,35512
32064,21172,35505
31996,21191,35528
31916,21165,35528
31816,21191,35522
31868,21164,35559
31940,21203,35588
32048,21171,35636
32104,21161,35702
32157,21172,35768
32156,21157,35720
32112,21189,35783
32092,21165,35800
31996,21182,35709
31912,21152,35664
31924,21181,35631
31980,21157,35693
32128,21188,35728
32240,21164,35700
32300,21157,35716
32292,21178,35744
32204,21201,35732
32140,21164,35578
32056,21191,35637
32004,21151,35734
32000,21157,35652
32064,21189,35633
32088,21159,35718
32129,21165,35741
32297,21206,35737
32320,21161,35665
32240,21181,35792
32176,21154,35860
32117,21187,35874
31992,21164,35876
31980,21188,35789
31984,21160,35767
32040,21154,35870
32176,21154,35700
32349,21182,35606
32396,21159,35525
32424,21188,35544
32396,21159,35549
32304,21193,35814
32164,21164,35799
32132,21148,35760
32188,21175,35781
32264,21157,35847
32317,21194,35881
32408,21167,35926
32421,21158,35892
32341,21188,35896
32224,21159,35935
32108,21179,35995
32024,21149,35960
32009,21186,35991
32040,21169,36005
32129,21151,36017
32208,21173,36016
32340,21159,36004
32376,21199,36038
32333,21170,36053
32256,21157,36056
32208,21189,36076
32132,21168,36068
32108,21154,36084
32092,21184,36065
32148,21168,36070
32320,21196,36108
32448,21164,36125
32436,21200,36028
32296,21164,36136
32176,21155,36137
32084,21188,36160
31969,21166,36110
32008,21152,36164
32180,21172,36178
32288,21157,36145
32324,21152,36117
32324,21198,36026
32284,21172,36028
32245,21153,35972
32248,21175,36000
32204,21152,36052
32140,21186,35924
32212,21170,35886
32276,21154,36137
32392,21189,36183
32496,21166,36165
32588,21156,36180
32636,21183,36036
32568,21152,36164
32440,21169,36272
32332,21156,36309
32232,21164,36225
32224,21150,36102
32260,21179,36124
32260,21157,36168
32353,21149,36161
32480,21193,36220
32481,21172,36148
32409,21156,36359
32352,21194,36356
32292,21162,36394
32240,21191,36404
32256,21165,36372
32257,21149,36359
32304,21188,36340
32441,21164,36337
32628,21156,36290
32677,21175,36308
32677,21156,36289
32584,21157,36284
32476,21178,36300
32356,21152,36308
32344,21145,36316
32384,21167,36317
32440,21155,36280
32552,21173,36289
32656,21158,36421
32712,21184,36460
32680,21169,36464
32581,21207,36452
32444,21165,36482
32352,21152,36404
32352,21193,36369
32384,21162,36375
32456,21156,36381
32632,21154,36527
32769,21195,36537
32800,21164,36588
32772,21157,36612
32704,21184,36663
32608,21156,36629
32493,21193,36672
32510,21166,36608
32548,21149,36447
32632,21181,36535
32749,21156,36571
32840,21176,36585
32848,21157,36585
32820,21200,36582
32736,21164,36583
32640,21196,36308
32500,21162,36325
32448,21156,36317
32492,21187,36415
32556,21160,36504
32672,21151,36519
32800,21192,36340
32821,21172,36444
32760,21154,36396
32688,21173,36380
32624,21158,36324
32572,21184,36324
32542,21161,36524
32586,21152,36512
32633,21191,36592
32684,21181,36669
32732,21166,36692
32740,21197,36562
32632,21168,36508
32616,21155,36564
32604,21186,36689
32600,21157,36639
32640,21183,36508
32736,21160,36629
32832,21149,36684
32932,21176,36630
33036,21167,36516
33018,21200,36486
32952,21165,36572
32864,21196,36650
32692,21166,36652
32612,21189,36644
32600,21151,36612
32641,21176,36626
32712,21154,36657
32836,21175,36622
32936,21152,36630
32960,21179,36631
32904,21170,36612
32850,21154,36552
32756,21158,36612
32616,21190,36560
32592,21160,36560
32704,21149,36615
32872,21177,36620
33012,21153,36604
33100,21193,36575
33096,21156,36588
33008,21156,36559
32868,21160,36566
32692,21144,36596
32536,21166,36580
32504,21148,36524
32540,21154,36557
32629,21194,36369
32741,21161,36452
32873,21190,36471
32896,21156,36468
32852,21178,36460
32788,21150,36455
32652,21173,36463
32540,21156,36393
32512,21196,36389
32584,21170,36469
32671,21151,36514
32770,21198,36556
32804,21167,36509
32708,21149,36564
32632,21157,36536
32592,21148,36508
32518,21177,36453
32416,21145,36465
32404,21189,36468
32468,21157,36511
32604,21143,36452
32736,21176,36448
32886,21154,36403
32938,21150,36488
32976,21183,36486
32896,21160,36383
32796,21188,36587
32678,21153,36620
32677,21138,36612
32700,21171,36551
32764,21148,36477
32858,21188,36384
32974,21153,36553
32980,21148,36549
32924,21193,36525
32904,21163,36513
32813,21196,36525
32744,21157,36548
32797,21191,36569
32897,21158,36558
33068,21153,36473
33249,21192,36628
33448,21161,36618
33537,21156,36657
33576,21192,36725
33668,21158,36748
33816,21149,36652
34032,21191,36708
34396,21152,36790
34922,21140,36775
35500,21184,36797
36136,21161,36660
36844,21148,36664
37556,21177,36685
38200,21161,36695
38829,21148,36629
39508,21193,36860
40252,21152,36789
41024,21165,36708
41697,21156,36804
42048,21255,36833
41736,21173,36852
40888,21177,36839
39712,21148,36828
38260,21215,36810
36716,21178,36817
35250,21167,37029
34044,21148,36920
33176,21183,36960
32712,21160,37045
32432,21145,36965
32313,21176,36943
32296,21167,36897
32244,21148,36796
32176,21188,37100
32076,21158,37116
31932,21146,37136
31764,21168,37148
31672,21159,37177
31672,21154,37196
31717,21145,37199
31764,21181,37205
31844,21156,37141
31776,21146,37233
31729,21181,37276
31680,21159,37328
31608,21146,37384
31524,21175,37460
31612,21148,37462
31716,21136,37429
31816,21186,37339
31892,21159,37388
31988,21147,37209
31972,21159,37204
31920,21146,37228
31884,21189,37248
31780,21161,37556
31704,21150,37590
31733,21140,37548
31812,21175,37609
31904,21158,37725
31996,21141,37805
32136,21168,37818
32125,21149,37815
32100,21180,37790
32074,21147,37680
32004,21149,37564
31968,21166,37609
32036,21139,37767
32136,21164,37884
32174,21141,37918
32284,21189,37913
32344,21157,37937
32372,21151,38060
32405,21151,38109
32348,21143,38151
32288,21153,38108
32220,21136,38084
32260,21167,38040
32368,21158,38078
32452,21188,38159
32528,21156,38197
32596,21144,38278
32637,21168,38237
32628,21149,38245
32612,21137,38383
32512,21176,38441
32480,21154,38472
32544,21135,38528
32656,21164,38461
32796,21161,38628
32884,21138,38768
33000,21184,38745
33028,21157,38807
32992,21146,38950
32922,21156,39020
32824,21136,39060
32740,21157,39047
32812,21143,39196
32956,21129,39282
33128,21186,39317
33288,21160,39309
33384,21147,39360
33352,21189,39401
33366,21152,39216
33336,21137,39636
33168,21165,39732
33076,21148,39775
33072,21135,39871
33100,21165,39921
33232,21156,39942
33388,21139,40116
33496,21180,40144
33544,21141,40296
33520,21185,40392
33422,21152,40455
33320,21135,40573
33330,21134,40834
33359,21148,40835
33452,21141,41004
33577,21188,41148
33780,21160,41159
33908,21151,41161
33908,21140,40990
33852,21184,41388
33824,21169,41348
33733,21144,41502
33654,21130,41567
33636,21174,41760
33673,21146,41965
33780,21133,42045
33876,21180,42118
33924,21148,42265
33924,21193,42348
33856,21148,42438
33768,21137,42529
33636,21185,42589
33532,21163,42546
33510,21140,42517
33564,21127,42556
33613,21133,42532
33653,21169,42928
33670,21158,43079
33636,21137,43164
33528,21181,43161
33412,21161,43220
33289,21140,43263
33148,21177,43449
33110,21134,43581
33160,21178,43629
33220,21143,43380
33292,21191,43477
33312,21164,43908
33244,21156,43988
33076,21133,44068
32948,21177,44134
32716,21144,44181
32525,21131,44204
32528,21182,44231
32544,21171,44372
32576,21152,44420
32652,21141,44496
32664,21165,44544
32568,21149,44476
32466,21180,44511
32304,21159,44439
32176,21140,44841
32052,21130,44775
32052,21175,44924
32092,21148,44876
32164,21130,45019
32276,21179,44980
32336,21156,44884
32324,21189,44836
32192,21150,44918
32056,21183,45284
31912,21145,45272
31818,21132,45280
31820,21172,45376
31857,21148,45436
31912,21134,45416
32038,21160,45361
32096,21144,45273
32064,21174,45280
31972,21147,45344
31918,21154,45588
31856,21132,45525
31804,21164,45524
31833,21141,45447
31921,21137,45759
32024,21174,45632
32212,21145,45484
32324,21136,45852
32324,21140,45776
32292,21183,45806
32228,21172,45865
32136,21140,45876
32016,21140,45751
31972,21132,45676
31972,21166,45781
32032,21146,45711
32188,21140,45620
32320,21164,45664
32293,21148,45605
32217,21148,45932
32156,21174,45921
32068,21156,45980
31992,21144,45879
32004,21123,45869
32088,21175,45869
32212,21150,45924
32349,21145,45931
32441,21182,45896
32436,21141,45892
32365,21136,45880
32236,21175,45860
32096,21142,45863
32048,21131,45796
32112,21162,45844
32120,21138,45774
32172,21132,45789
32316,21154,45796
32396,21133,45795
32409,21168,45780
32349,21136,45756
32320,21157,45696
32208,21132,45673
32092,21142,45728
32097,21128,45685
32164,21140,45660
32252,21132,45640
32356,21167,45660
32440,21149,45597
32432,21135,45497
32420,21142,45534
32336,21175,45570
32224,21136,45540
32137,21127,45447
32128,21146,45388
32172,21127,45412
32236,21164,45400
32372,21151,45296
32448,21135,45380
32487,21161,45361
32436,21133,45303
32348,21161,45233
32261,21127,45230
32192,21150,45285
32188,21127,45244
32232,21156,45205
32284,21137,45180
32398,21174,44820
32493,21145,44973
32468,21173,45079
32372,21143,44952
32300,21170,44913
32208,21133,45005
32117,21144,44959
32152,21118,44721
32180,21136,44759
32234,21126,44855
32412,21144,44804
32504,21129,44692
32509,21156,44692
32450,21127,44753
32364,21147,44713
32200,21125,44372
32128,21158,44407
32152,21138,44295
32241,21127,44292
32348,21165,44295
32484,21136,44220
32560,21132,44141
32504,21184,44432
32449,21138,44392
32396,21124,44341
32328,21138,44284
32277,21118,44273
32312,21136,44020
32397,21146,44142
32468,21129,44144
32536,21142,44037
32616,21133,43949
32602,21166,43908
32552,21140,43848
32444,21170,43956
32312,21137,43920
32208,21161,43889
32279,21129,43815
32356,21122,43780
32452,21151,43759
32597,21138,43749
32704,21176,43696
32664,21141,43572
32608,21126,43634
32516,21140,43616
32376,21125,43573
32288,21126,43521
32300,21124,43448
32352,21136,43244
32424,21172,43294
32544,21138,43399
32597,21132,43360
32568,21140,43289
32492,21127,43303
32432,21143,43285
32352,21126,43252
32296,21143,43228
32308,21127,43164
32344,21121,42868
32413,21156,43120
32556,21143,42927
32661,21134,42897
32704,21172,42887
32737,21139,42886
32700,21127,42920
32604,21145,42881
32485,21117,42759
32496,21148,42758
32549,21126,42766
32632,21164,42689
32752,21148,42659
32806,21125,42743
32768,21159,42775
32692,21145,42725
32632,21127,42318
32538,21158,42305
32460,21130,42295
32468,21164,42400
32568,21130,42567
32668,21127,42536
32812,21148,42495
32906,21132,42476
32945,21175,42460
32892,21134,42468
32776,21127,42444
32592,21164,42372
32532,21128,42230
32597,21162,42312
32700,21137,42305
32820,21177,42255
32920,21138,42148
33000,21127,42101
32980,21167,42118
32888,21142,42224
32780,21124,42266
32660,21140,42117
32648,21124,42148
32693,21148,41940
32760,21127,41912
32908,21165,41951
33064,21142,41837
33104,21129,41857
33028,21167,41985
32888,21135,41967
32740,21127,42012
32596,21153,41897
32512,21127,41860
32564,21164,41804
32676,21136,41668
32756,21131,41380
32904,21175,41289
33020,21148,41628
33013,21127,41638
32936,21157,41599
32832,21136,41519
32702,21130,41605
32585,21125,41647
32560,21143,41606
32584,21125,41304
32625,21145,41281
32736,21135,41236
32820,21140,41288
32800,21187,41286
32756,21139,41222
32664,21124,41113
32528,21137,41063
32429,21120,41030
32456,21159,41204
32532,21138,41228
32620,21125,41178
32724,21137,41143
32780,21127,41108
32793,21133,41038
32748,21124,40949
32664,21135,40860
32540,21124,40792
32492,21140,40838
32444,21124,40676
32444,21120,40648
32552,21159,40669
32686,21137,40728
32781,21132,40613
32780,21140,40396
32676,21130,40536
32584,21162,40505
32544,21137,40408
32512,21119,40228
32549,21133,40276
32644,21170,40294
32720,21137,40240
32750,21132,40216
32800,21172,40148
32845,21143,40002
32756,21130,40136
32828,21129,40181
32820,21141,40132
32798,21136,40020
32828,21125,39874
32928,21129,39549
33064,21152,39855
33232,21139,39815
33324,21176,39698
33288,21138,39615
33240,21132,39623
33220,21161,39525
33214,21136,39495
33420,21172,39487
33780,21148,39431
34112,21190,39454
34596,21140,39469
35144,21186,39076
35688,21154,39317
36244,21138,39272
36804,21182,39142
37440,21142,39258
38088,21145,39212
38824,21207,39148
39680,21165,39016
40568,21157,39151
41320,21168,39047
41908,21162,39081
41960,21144,39047
41340,21248,39092
40280,21165,39080
38996,21141,38968
37520,21176,38772
36057,21128,38885
34852,21149,38588
33824,21129,38756
33028,21156,38859
32660,21141,38868
32532,21139,38785
32432,21150,38712
32357,21136,38663
32286,21133,38604
32113,21159,38512
32005,21141,38310
31948,21174,38380
31948,21140,38478
32020,21135,38465
32072,21159,38455
32065,21152,38480
31988,21137,38575
31881,21158,38424
31816,21141,38326
31716,21135,38324
31692,21167,38380
31788,21148,38348
31872,21139,38312
31952,21174,38276
32076,21149,38192
32132,21181,38216
32140,21150,38204
32088,21133,38196
32005,21168,38180
31868,21146,38132
31820,21176,37885
31764,21150,38024
31836,21144,37785
31872,21134,37766
32052,21156,37953
32120,21145,38093
32156,21182,38065
32168,21168,37985
32160,21156,37976
32024,21142,38007
31916,21180,37945
31976,21152,37887
32052,21142,37804
32192,21184,37806
32332,21160,37832
32409,21140,37796
32340,21175,37756
32276,21155,37742
32196,21148,37664
32108,21155,37572
32100,21143,37413
32156,21151,37461
32232,21139,37161
32309,21164,37359
32432,21151,37048
32512,21190,37103
32456,21167,37100
32416,21149,37111
32377,21153,37172
32296,21142,37183
32296,21164,37122
32360,21148,37101
32400,21149,36964
32472,21184,36927
32600,21165,36893
32656,21151,36836
32704,21188,36869
32680,21159,36804
32628,21155,36772
32556,21169,36679
32613,21156,36623
32656,21197,36612
32740,21161,36562
32857,21158,36484
33012,21179,36493
33108,21168,36418
33084,21203,36416
33032,21172,36356
32960,21155,36116
32832,21185,36200
32812,21152,36013
32912,21193,35991
33012,21163,36020
33167,21159,36048
33364,21176,36056
33453,21162,36037
33492,21182,36024
33405,21167,35847
33338,21202,35756
33245,21175,35700
33196,21204,35656
33248,21174,35580
33324,21205,35495
33392,21172,35493
33576,21168,35455
33676,21186,35484
33708,21167,35572
33684,21181,35591
33624,21164,35560
33496,21175,35388
33436,21169,35415
33472,21187,35429
33572,21168,35391
33694,21191,35292
33848,21181,35330
33872,21221,35296
33780,21188,35197
33668,21189,35017
33568,21173,35092
33412,21170,34997
33328,21193,35096
33338,21169,35079
33428,21205,35029
33528,21222,34796
33664,21192,34823
33692,21223,34790
33608,21189,34772
33492,21228,34638
33364,21189,34702
33224,21177,34720
33121,21189,34646
33096,21178,34572
33156,21199,34624
33224,21185,34548
33333,21201,34469
33292,21198,34520
33172,21217,34468
32984,21201,34348
32808,21241,34128
32620,21216,34289
32512,21196,34230
32500,21191,34153
32512,21219,34097
32608,21208,34097
32656,21202,34125
32694,21232,34080
32644,21209,33978
32524,21205,33748
32352,21198,33927
32112,21220,33872
32022,21201,33749
31992,21198,33772
31981,21221,33832
31974,21202,33741
32080,21221,33652
32112,21212,33693
32080,21240,33673
32032,21220,33545
31920,21244,33489
31788,21226,33350
31714,21205,33244
31704,21202,33163
31824,21224,33183
31936,21224,33121
32056,21223,33232
32128,21220,33293
32084,21211,33159
32044,21252,33049
31940,21245,33119
31828,21220,33046
31794,21217,33084
31880,21213,32884
31965,21255,32960
32076,21240,32922
32180,21240,32808
32246,21239,32788
32248,21234,32810
32220,21230,32760
32196,21223,32672
32032,21266,32627
31952,21245,32496
31960,21240,32447
32016,21222,32599
32082,21272,32556
32188,21261,32463
32236,21251,32516
32204,21241,32356
32180,21231,32222
32108,21276,32385
32016,21255,32316
32006,21241,32205
32067,21279,32183
32144,21258,32301
32252,21245,32279
32424,21289,32231
32480,21258,32195
32436,21253,32060
32408,21284,31951
32340,21273,31840
32224,21261,31815
32224,21253,31960
32292,21281,31936
32372,21260,31847
32448,21255,31830
32548,21292,31806
32512,21271,31879
32432,21265,31825
32424,21289,31815
32373,21268,31773
32292,21303,31712
32284,21285,31564
32348,21308,31513
32428,21285,31583
32464,21281,31540
32630,21270,31413
32604,21286,31388
32552,21280,31298
32448,21273,31470
32400,21303,31433
32320,21288,31344
32296,21271,31301
32316,21314,31440
32336,21291,31452
32452,21279,31352
32556,21324,31343
32568,21297,31383
32528,21292,31325
32424,21302,31206
32308,21300,31160
32296,21287,31158
32188,21302,31348
32272,21290,31349
32409,21341,31356
32514,21305,31355
32624,21305,31380
32592,21344,31385
32544,21312,31381
32492,21304,31399
32500,21348,31407
32432,21313,31407
32348,21305,31429
32372,21345,31460
32424,21334,31385
32504,21327,31435
32596,21309,31593
32641,21357,31616
32504,21328,31661
32344,21331,31564
32364,21314,31489
32372,21309,31684
32378,21364,31616
32376,21350,31738
32440,21335,31585
32360,21334,31821
32348,21332,31749
32608,21383,31969
32544,21341,32024
32488,21330,31936
32412,21358,31934
32400,21336,31960
32384,21380,31972
32448,21347,32222
32576,21334,32311
32668,21382,32386
32800,21356,32452
32788,21346,32500
32680,21390,32596
32544,21359,32765
32400,21349,32857
32384,21389,32936
32380,21361,32976
32048,21356,33072
32148,21356,33024
32080,21397,33110
32512,21375,33396
32520,21367,33494
32592,21409,33574
32512,21389,33642
32448,21366,33799
32328,21396,33909
32184,21372,34045
32568,21403,34183
32704,21383,34276
32869,21380,34311
33040,21423,34452
32976,21404,34748
32768,21391,34894
32536,21419,34864
32329,21396,34981
32472,21434,35109
32548,21409,35152
32580,21396,35232
32776,21396,35625
32760,21424,35692
32804,21407,35772
32924,21453,36116
32932,21428,36293
32904,21408,36292
32876,21408,36325
32724,21445,36606
32584,21425,36695
32558,21427,36964
32645,21420,37042
32697,21462,37127
32832,21436,37240
32952,21427,37372
32933,21462,37468
32925,21437,37716
32864,21465,37582
32798,21463,37974
32736,21450,38036
32804,21444,38284
32800,21433,38288
32925,21495,38240
33096,21452,38350
33184,21452,38367
33120,21500,38598
32980,21457,38694
32872,21452,38708
32720,21485,38803
32644,21454,39225
32708,21506,39319
32844,21465,39103
33008,21464,39498
33152,21471,39572
33204,21500,39847
33152,21483,39878
33032,21471,39984
32928,21496,39998
32824,21478,40077
32772,21526,40231
32814,21487,40288
32924,21482,40297
33021,21531,40237
33152,21520,40473
33157,21502,40542
33088,21499,40494
32996,21512,40623
32984,21502,40861
32884,21493,40876
32773,21542,40756
32848,21519,40912
32956,21513,40967
33048,21508,41016
33156,21553,41032
33216,21530,41031
33200,21516,41039
33156,21552,41301
33069,21537,41372
32904,21517,41317
32841,21513,41269
32800,21557,41190
32936,21543,41400
32944,21528,41452
32976,21565,41479
33124,21557,41388
33117,21533,41525
33032,21578,41668
32920,21549,41700
32828,21534,41728
32776,21572,41607
32824,21556,41573
32868,21547,41508
32876,21574,41452
32961,21565,41709
32976,21559,41716
32920,21587,41617
32860,21572,41817
32764,21558,41885
32656,21605,41687
32616,21578,41410
32620,21570,41785
32548,21567,41656
32848,21613,41919
32900,21594,41777
32913,21584,41692
32916,21627,41504
32864,21600,41745
32764,21581,41786
32642,21629,41681
32588,21620,41888
32668,21607,41896
32788,21596,41660
32904,21649,41402
33048,21629,41313
33068,21626,41697
33036,21617,41621
32904,21612,41772
32708,21650,41772
32696,21636,41532
32600,21620,41231
32692,21617,41572
32781,21668,41430
32892,21649,41560
33052,21649,41464
33156,21631,41377
33128,21658,41079
33104,21652,41400
33104,21639,41304
33024,21669,41209
33040,21663,41404
33060,21650,41351
33136,21677,41204
33224,21669,40816
33501,21663,41116
33864,21709,41064
34124,21690,41031
34396,21684,40863
34692,21705,40823
34916,21705,40918
35508,21688,40972
36200,21677,40733
36928,21686,40408
37680,21706,40720
38508,21719,40548
39224,21694,40750
39952,21764,40723
40568,21720,40624
41044,21776,40616
41100,21725,40436
40744,21717,40020
39932,21703,40332
38972,21780,40272
37792,21756,40178
36565,21728,40138
35364,21717,40048
34248,21762,40105
33284,21743,40159
32649,21727,40012
32264,21765,39815
32108,21748,39916
32128,21737,39848
32144,21741,39740
32196,21735,39869
32320,21773,39774
32344,21754,39578
32256,21754,39613
32088,21756,39428
31940,21749,39543
31776,21786,39138
31676,21774,39392
31636,21765,39325
31722,21764,39212
31836,21771,39284
31996,21815,39132
32040,21792,39041
31993,21793,38889
31960,21786,38980
31856,21816,38944
31692,21796,38892
31644,21790,38823
31662,21806,38772
31693,21802,38716
31796,21828,38649
31912,21821,38565
31908,21816,38444
31840,21840,38453
31800,21828,38543
31752,21821,38511
31680,21855,38407
31700,21838,38312
31740,21823,38244
31828,21860,38237
31941,21853,38201
32092,21846,38132
32144,21865,37984
32100,21858,37996
32068,21855,37936
31997,21875,37872
31952,21895,37817
31981,21873,37749
32040,21868,37684
32128,21906,37633
32224,21893,37568
32353,21892,37502
32346,21923,37219
32288,21904,37166
32292,21892,37068
32285,21911,37023
32192,21898,37004
32164,21922,36972
32200,21905,36917
32292,21938,36565
32366,21913,36511
32472,21944,36612
32508,21920,36599
32500,21957,36622
32448,21929,36543
32348,21930,36509
32284,21938,36424
32260,21923,36373
32333,21940,36302
32480,21935,36168
32620,21961,36045
32756,21947,36015
32792,21991,36007
32772,21962,35957
32744,21959,35773
32720,21956,35559
32655,21981,35392
32712,21968,35572
32800,21968,35505
32904,21989,35420
33050,21988,35317
33198,21981,35293
33216,21983,35152
33184,22020,34925
33132,21992,35111
33052,21989,34990
32940,21988,34887
32968,22023,34977
33028,22006,34857
33156,21998,34695
33286,22005,34449
33452,22030,34629
33528,22015,34545
33509,22012,34421
33476,22054,34463
33388,22033,34273
33312,22021,34054
33284,22059,34000
33360,22036,34152
33462,22023,34092
33616,22051,33788
33732,22046,33743
33716,22080,33663
33668,22056,33796
33592,22054,33734
33512,22048,33609
33409,22087,33592
33380,22068,33632
33397,22057,33569
33480,22073,33473
33540,22068,33444
33632,22111,33353
33640,22092,33299
33589,22079,33244
33516,22103,33188
33396,22076,33113
33264,22107,33022
33246,22086,32964
33196,22116,32933
33216,22100,32842
33268,22094,32813
33344,22132,32570
33345,22113,32519
33216,22140,32466
33080,22118,32386
32860,22112,32493
32724,22133,32437
32636,22120,32317
32700,22150,32236
32764,22132,32196
32868,22127,32167
32940,22168,32135
32836,22136,32157
32692,22151,31932
32556,22141,31868
32376,22164,31832
32196,22144,31839
32116,22173,31793
32088,22158,31751
32116,22149,31713
32204,22165,31721
32288,22161,31820
32268,22200,31777
32185,22179,31632
32088,22167,31549
31956,22187,31536
31828,22169,31511
31756,22206,31490
31776,22193,31431
31884,22187,31332
32004,22186,31357
32132,22222,31333
32144,22198,31224
32072,22192,31233
31980,22216,31178
31872,22200,31141
31725,22191,31123
31681,22224,31162
31748,22206,31007
31856,22207,30908
31984,22201,30887
32124,22241,30999
32136,22222,30906
32092,22214,30825
32036,22230,30828
31932,22225,30903
31854,22253,30862
31860,22224,30748
31888,22220,30652
31984,22256,30572
32061,22247,30493
32128,22243,30464
32173,22267,30580
32180,22255,30440
32164,22248,30553
32096,22249,30343
31980,22237,30276
31904,22271,30391
31836,22255,30359
31916,22245,30286
32080,22273,30202
32224,22265,30270
32240,22256,30087
32164,22257,29983
32064,22265,30113
31984,22292,29991
31876,22277,29918
31888,22263,29908
31928,22296,29972
31976,22297,29820
32077,22290,29703
32264,22278,29828
32248,22310,29794
32137,22292,29737
32088,22286,29665
31984,22323,29626
31880,22302,29532
31856,22293,29612
31892,22294,29380
31996,22293,29506
32088,22335,29380
32192,22315,29445
32188,22316,29229
32136,22302,29312
32084,22301,29333
31988,22336,29103
31892,22320,29231
31864,22309,29165
31940,22310,29110
32064,22340,29029
32173,22326,28917
32349,22324,28892
32388,22322,28982
32348,22357,28864
32284,22348,28942
32144,22325,28930
32012,22318,28727
31992,22354,28670
32036,22352,28764
32108,22341,28768
32216,22338,28572
32308,22339,28556
32328,22335,28616
32297,22340,28529
32252,22364,28620
32160,22346,28470
32016,22338,28516
31990,22374,28461
32004,22362,28341
32092,22353,28385
32184,22351,28377
32292,22354,28250
32296,22385,28253
32284,22370,28265
32252,22367,28132
32136,22359,28192
31989,22386,28031
31928,22364,28130
32016,22365,27988
32124,22360,28000
32240,22392,27933
32356,22389,27892
32384,22385,27908
32304,22370,27764
32228,22369,27868
32148,22389,27813
32028,22380,27740
32028,22372,27767
32088,22404,27580
32164,22399,27696
32296,22380,27630
32388,22414,27565
32380,22394,27616
32344,22389,27385
32240,22415,27524
32204,22396,27404
32113,22398,27424
32148,22380,27264
32224,22412,27380
32316,22399,27317
32404,22394,27291
32488,22433,27244
32464,22410,27078
32412,22407,27223
32380,22398,27101
32296,22415,27089
32168,22412,26977
32160,22407,27085
32192,22404,26993
32300,22403,26855
32381,22439,26892
32486,22416,26956
32502,22407,26920
32460,22444,26816
32388,22425,26874
32293,22415,26729
32202,22404,26720
32224,22441,26767
32336,22421,26716
32424,22421,26684
32496,22407,26567
32620,22449,26674
32650,22433,26590
32621,22429,26564
32532,22425,26497
32484,22407,26452
32360,22457,26552
32284,22445,26477
32285,22437,26428
32396,22430,26324
32505,22424,26455
32618,22468,26364
32632,22447,26409
32585,22446,26224
32504,22464,26254
32372,22445,26342
32324,22438,26287
32312,22470,26298
32358,22458,26138
32436,22448,26273
32489,22474,26180
32613,22465,26176
32660,22463,26216
32608,22453,26150
32552,22484,26119
32436,22471,26032
32400,22458,26119
32340,22464,26087
32397,22454,26024
32436,22453,26064
32572,22493,26097
32752,22475,25900
32832,22470,25942
32772,22463,26053
32700,22505,25954
32570,22480,26024
32420,22469,25822
32368,22476,25986
32400,22475,25918
32544,22472,25832
32588,22472,25956
32654,22500,25930
32633,22486,25911
32696,22517,25847
32672,22487,25887
32568,22474,25912
32508,22502,25820
32496,22485,25846
32552,22476,25732
32640,22510,25700
32766,22497,25730
32892,22485,25764
32880,22501,25733
32814,22493,25703
32712,22516,25706
32640,22485,25679
32560,22500,25713
32545,22485,25716
32580,22517,25692
32608,22492,25671
32716,22524,25673
32888,22505,25694
32924,22540,25732
32902,22506,25746
32729,22500,25845
32532,22497,25812
32317,22511,25772
32253,22500,25804
32480,22528,25852
32653,22511,25828
32784,22501,25764
32948,22540,25693
32960,22517,25711
32916,22510,25768
32788,22548,25877
32768,22516,25889
32600,22501,25896
32608,22528,25892
32736,22511,25882
32781,22506,25872
32848,22541,25932
32976,22513,25952
32996,22551,25929
32924,22535,25802
32756,22516,25829
32653,22479,25997
32520,22535,26008
32524,22501,26029
32716,22532,26038
32764,22524,26008
32777,22520,25993
32964,22552,26092
32984,22535,25927
32936,22525,26119
32804,22523,26101
32612,22546,26140
32500,22527,26038
32480,22520,26103
32637,22525,26199
32704,22543,26202
32892,22542,26103
33000,22534,26175
32968,22529,26216
33048,22565,26340
32880,22543,26184
32718,22526,26244
32752,22559,26399
32748,22535,26433
32804,22528,26466
32780,22564,26476
32916,22550,26436
33148,22586,26542
33164,22548,26585
33108,22546,26572
33044,22566,26586
32968,22544,26570
32836,22544,26590
32684,22567,26661
32820,22561,26761
32984,22587,26892
33076,22558,26957
33144,22552,27005
32972,22585,27031
33096,22573,27081
32972,22556,27183
32904,22596,27164
32764,22564,27169
32676,22548,27416
32716,22586,27409
32740,22565,27516
32932,22559,27654
33060,22588,27572
33048,22572,27672
32996,22564,27890
32908,22573,27982
32652,22553,28075
32656,22572,28161
32476,22565,28256
32573,22593,28335
32728,22566,28436
32888,22601,28450
32908,22581,28576
33088,22569,28740
32976,22603,28870
32788,22583,28997
32604,22571,29034
32540,22576,29060
32672,22566,29180
32672,22571,29312
32556,22607,29399
32604,22583,29564
32892,22577,29612
33124,22577,29828
33088,22594,29920
32968,22575,30042
32744,22607,30141
32560,22580,30240
32512,22609,30343
32672,22586,30455
32816,22574,30596
32896,22594,30704
32837,22577,30814
32980,22612,30980
32910,22585,31109
32784,22624,31221
32708,22591,31360
32652,22581,31452
32440,22580,31569
32496,22597,31692
32780,22581,31852
32800,22620,31972
32892,22600,32097
33012,22588,32176
32612,22620,32224
32933,22591,32365
32868,22626,32508
32706,22590,32686
32680,22584,32873
32796,22618,32972
32906,22601,32957
33124,22596,32970
33260,22628,33109
33300,22615,33254
33332,22599,33372
33156,22630,33475
33116,22612,33486
33190,22604,33815
33724,22595,33911
34046,22615,34010
34372,22613,34122
34812,22602,34232
35476,22648,34334
36148,22620,34424
36580,22610,34532
36936,22656,34629
37824,22610,34709
38585,22616,34784
39296,22599,34990
40053,22682,35140
40572,22623,35139
40796,22631,35128
40524,22612,35244
39752,22680,35300
38500,22628,35390
37132,22620,35666
35752,22603,35788
34580,22621,35642
33637,22608,35750
32408,22606,36086
32181,22638,36204
32232,22623,36292
32192,22608,36385
32224,22619,36492
32293,22609,36570
32276,22647,36693
32128,22625,36744
32096,22615,36839
31972,22604,36881
31888,22637,36894
31964,22623,36998
32073,22616,37117
32092,22626,37245
32044,22623,37285
31994,22644,37319
31956,22626,37340
31816,22612,37425
31696,22629,37493
31713,22620,37581
31812,22640,37661
31930,22628,37862
32036,22623,37924
32153,22623,37924
32124,22621,37865
32108,22644,37745
32028,22628,37816
31936,22610,37876
31749,22626,37937
31720,22623,37894
31778,22614,38191
31884,22631,38092
32012,22619,38224
32104,22639,38308
32116,22623,38421
32081,22631,38471
31992,22620,38535
31916,22645,38412
31876,22624,38348
31884,22644,38391
31876,22624,38456
32025,22616,38468
32037,22644,38512
32220,22623,38496
32296,22647,38448
32348,22624,38588
32280,22647,38637
32218,22620,38404
32084,22644,38407
31980,22628,38396
32200,22618,38600
32284,22618,38496
32422,22645,38437
32584,22620,38480
32764,22657,38457
32568,22628,38309
32560,22620,38286
32421,22614,38316
32224,22631,38381
32276,22608,38393
32344,22635,38380
32276,22621,38357
32296,22657,38300
32540,22625,38302
32448,22625,38252
32433,22652,38180
32528,22630,38023
32446,22620,37985
32392,22642,37799
32420,22622,37792
32688,22648,37895
32788,22628,37932
32936,22615,37996
33052,22638,37932
32912,22623,37768
33052,22630,37774
33080,22597,37752
32900,22620,37743
32828,22644,37723
32900,22628,37421
32972,22644,37565
33104,22638,37527
33256,22629,37481
33390,22652,37445
33464,22628,37476
33312,22648,37532
33256,22625,37524
33112,22648,37365
33004,22617,37237
33204,22642,37183
33232,22631,37184
33336,22652,37196
33464,22629,37166
33488,22631,37062
33488,22658,37036
33384,22629,36996
33352,22615,36976
33305,22654,36895
33196,22627,36881
33296,22640,36577
33372,22626,36647
33480,22612,36759
33632,22650,36700
33708,22624,36560
33700,22620,36492
33636,22612,36359
33492,22646,36236
33413,22620,36260
33381,22640,36296
33376,22618,36309
33412,22605,36356
33456,22628,36306
33536,22612,36081
33624,22646,36030
33592,22628,36029
33444,22614,36012
33344,22628,35980
33238,22605,35873
33096,22631,35701
32892,22610,35724
33040,22607,35658
33156,22618,35724
33088,22615,35719
33132,22609,35625
33088,22644,35502
32972,22626,35396
32776,22609,35341
32708,22635,35292
32625,22623,35184
32568,22613,35080
32636,22642,35060
32708,22620,35076
32760,22605,35060
32800,22638,35017
32672,22622,34917
32576,22609,34844
32452,22638,34836
32293,22609,34836
32188,22605,34705
32116,22599,34656
32168,22615,34518
32208,22602,34426
32260,22606,34376
32336,22631,34345
32356,22613,34264
32336,22601,34439
32180,22629,34388
31996,22604,34356
31829,22590,34299
31808,22603,34023
31944,22597,34092
31988,22628,33986
32136,22608,34080
32164,22607,34052
32136,22597,33992
32032,22604,33729
31918,22596,33774
31868,22603,33900
31804,22617,33775
31848,22596,33816
31933,22590,33694
32000,22598,33601
32104,22588,33501
32253,22612,33433
32228,22598,33383
32124,22590,33351
32112,22612,33363
32016,22597,33327
31878,22584,33287
31924,22613,33233
32028,22593,33188
32108,22584,32941
32220,22615,32921
32228,22592,33041
32364,22589,33052
32316,22601,33006
32244,22592,32908
32192,22581,32900
32156,22592,32780
32140,22577,32636
32144,22585,32672
32172,22578,32623
32304,22596,32572
32404,22582,32533
32444,22594,32284
32368,22584,32246
32318,22598,32185
32208,22574,32192
32128,22587,32180
32112,22585,32148
32160,22575,32039
32304,22599,32007
32357,22591,32013
32436,22585,31929
32408,22605,31860
32392,22587,31860
32388,22573,31925
32288,22585,31812
32184,22580,31816
32188,22573,31721
32144,22598,31694
32180,22583,31589
32300,22580,31478
32304,22608,31438
32405,22598,31328
32352,22596,31244
32292,22588,31367
32128,22578,31245
32064,22574,31329
32108,22576,31087
32236,22572,31035
32326,22598,31004
32485,22597,30930
32628,22588,31063
32620,22575,31005
32500,22609,30884
32372,22600,30981
32248,22593,30740
32128,22575,30701
32124,22572,30644
32212,22565,30749
32300,22602,30665
32436,22596,30565
32536,22594,30676
32444,22583,30471
32457,22570,30385
32428,22602,30352
32316,22596,30436
32189,22584,30396
32232,22580,30292
32352,22576,30178
32464,22575,30287
32524,22572,30242
32608,22572,30148
32604,22596,30068
32556,22577,30084
32472,22560,30074
32396,22593,30074
32348,22575,30021
32332,22564,29985
32372,22565,29779
32373,22577,29703
32495,22569,29670
32600,22564,29632
32636,22586,29598
32617,22574,29540
32525,22600,29500
32444,22578,29453
32340,22563,29412
32308,22587,29365
32424,22564,29320
32488,22597,29292
32508,22574,29229
32697,22563,29187
32762,22598,29154
32668,22593,29101
32612,22580,29220
32448,22564,29166
32388,22549,29126
32512,22584,29086
32560,22566,29039
32657,22550,28989
32794,22588,28868
32864,22571,28817
32834,22556,28767
32792,22584,28790
32728,22557,28812
32612,22557,28640
32526,22553,28553
32532,22549,28525
32572,22566,28519
32648,22561,28580
32733,22552,28534
32800,22586,28470
32724,22576,28364
32665,22567,28333
32684,22564,28359
32620,22558,28278
32456,22535,28149
32508,22577,28146
32576,22556,28245
32608,22550,28218
32744,22543,28159
32800,22577,28105
32840,22553,28115
32812,22540,28100
32660,22569,27906
32568,22542,27845
32480,22535,27848
32420,22564,27806
32496,22540,27801
32556,22535,27789
32704,22572,27848
32776,22558,27820
32776,22543,27774
32716,22564,27663
32612,22538,27748
32500,22532,27626
32488,22525,27497
32521,22563,27501
32544,22530,27479
32646,22565,27442
32832,22543,27464
32940,22547,27513
32904,22531,27423
32788,22564,27431
32657,22535,27366
32576,22529,27400
32452,22526,27402
32496,22551,27369
32580,22529,27362
32664,22518,27333
32808,22548,27296
32908,22524,27265
32925,22557,27224
32836,22528,27188
32700,22509,27175
32581,22532,27168
32461,22518,26958
32500,22516,26964
32584,22544,26945
32588,22520,26916
32760,22512,26899
32845,22550,26820
32816,22524,26956
32789,22508,26900
32704,22538,26877
32633,22520,26903
32536,22504,26800
32512,22532,26794
32493,22510,26734
32504,22513,26773
32600,22504,26761
32704,22535,26702
32712,22515,26622
32648,22498,26663
32592,22520,26657
32456,22506,26628
32386,22492,26599
32436,22494,26556
32528,22517,26502
32620,22493,26498
32744,22496,26468
32832,22518,26452
32816,22504,26428
32760,22494,26391
32680,22487,26353
32540,22519,26335
32448,22502,26296
32452,22498,26253
32596,22480,26212
32638,22484,26125
32780,22516,26141
32829,22502,26149
32812,22489,26126
32768,22482,26013
32672,22511,25924
32457,22492,25844
32452,22473,25868
32524,22459,25952
32604,22500,25892
32756,22508,25888
32884,22501,25738
32960,22485,25661
32921,22479,25712
32876,22475,25748
32814,22508,25653
32648,22491,25669
32548,22500,25502
32584,22484,25617
32640,22472,25599
32708,22469,25552
32844,22484,25519
32964,22483,25461
32908,22472,25390
32879,22493,25351
32793,22474,25325
32618,22470,25220
32560,22467,25186
32564,22454,25151
32700,22489,25191
32828,22468,25236
32952,22468,25207
33048,22463,25125
32964,22466,25141
32888,22495,25124
32748,22474,24976
32660,22461,24940
32516,22446,24912
32592,22458,24992
32772,22452,24967
32868,22484,24908
32928,22473,24844
32976,22461,24824
32952,22445,24795
32872,22487,24637
32776,22467,24602
32622,22456,24596
32485,22438,24572
32480,22437,24616
32576,22470,24652
32716,22462,24583
32858,22473,24593
33010,22469,24506
32996,22462,24388
32928,22447,24400
32869,22433,24376
32720,22432,24399
32672,22463,24391
32664,22447,24362
32733,22436,24357
32881,22429,24288
32985,22466,24228
33084,22439,24173
33000,22468,24163
32944,22440,24140
32932,22428,24121
32812,22454,24116
32852,22436,24084
32893,22423,24098
32912,22450,24047
32977,22437,24041
33144,22427,24044
33232,22428,24021
33216,22444,23999
33184,22431,23970
32960,22418,23988
32948,22413,24107
32776,22444,24100
32744,22420,24066
32772,22413,24070
32952,22437,24054
33104,22420,23949
33204,22447,23929
33132,22434,23957
32952,22415,23882
32864,22445,23878
32778,22415,23908
32720,22417,24001
32805,22413,23956
32868,22405,23926
32996,22436,23877
33108,22421,23862
33136,22413,23932
33100,22442,23982
33012,22404,23927
32817,22438,23910
32654,22410,23989
32640,22397,23973
32656,22414,23997
32648,22405,24004
32676,22393,24002
32888,22424,24002
33081,22397,24023
33033,22397,24017
32992,22428,24024
32936,22404,24020
32821,22388,24010
32748,22414,24019
32733,22393,24015
32732,22395,24080
32820,22421,24082
32920,22409,24005
33060,22399,23972
33040,22388,24028
32956,22421,24040
32877,22384,24125
32828,22375,24148
32668,22413,24028
32612,22386,24036
32628,22371,24071
32788,22420,24071
32945,22386,24088
33008,22377,24169
32997,22408,24192
32940,22383,24308
32880,22380,24330
32836,22366,24348
32712,22396,24343
32812,22388,24348
32860,22372,24388
32848,22360,24423
32924,22404,24427
32976,22388,24477
33048,22373,24547
33048,22372,24479
32936,22361,24468
32828,22357,24625
32776,22350,24650
32897,22376,24661
33128,22375,24662
33176,22365,24753
33253,22359,24761
33260,22358,24800
33296,22383,24857
33228,22361,24794
33204,22356,24766
33300,22348,24798
33456,22380,24820
33681,22356,24966
33868,22347,25084
34260,22383,25031
34798,22359,25028
35268,22356,25056
35756,22346,25135
36092,22401,25184
36448,22398,25372
37236,22376,25392
37980,22350,25416
38674,22356,25525
39360,22337,25602
39848,22335,25661
40476,22403,25696
40376,22372,25636
39792,22375,25694
38864,22366,25824
37696,22348,25991
36428,22329,26048
34740,22334,26078
33988,22324,26193
33496,22359,26313
32996,22335,26359
32816,22321,26375
32648,22358,26490
32448,22334,26578
32268,22328,26694
31998,22319,26772
32072,22338,26868
32020,22316,26964
31792,22304,27122
31844,22340,27168
31841,22320,27332
32004,22327,27472
32112,22311,27553
32016,22339,27716
31956,22315,27869
31828,22305,27977
31732,22327,27945
31754,22324,28040
31636,22300,28160
31517,22305,28289
31620,22290,28420
31812,22334,28561
31972,22319,28821
32112,22305,28941
32213,22303,29070
32120,22324,29189
31786,22301,29279
31916,22281,29368
32012,22315,29552
31984,22305,29680
32164,22299,29807
32292,22282,29868
32368,22329,30046
32092,22316,30265
32216,22305,30204
32144,22290,30317
31972,22277,30436
31921,22305,30560
32032,22292,30660
32112,22278,30752
32236,22313,30864
32380,22289,30973
32508,22280,31101
32336,22292,31212
32136,22277,31285
32208,22292,31404
32096,22279,31489
31768,22265,31776
31901,22302,31871
32016,22279,31937
31852,22276,31948
32476,22269,32072
32520,22303,32298
32616,22276,32335
32666,22275,32303
32440,22260,32272
32252,22263,32556
32284,22288,32614
32290,22261,32698
32498,22257,32752
32608,22255,32832
32780,22288,32887
32892,22279,32848
32941,22266,32982
32812,22258,33144
32692,22244,33187
32516,22244,33228
32540,22268,33224
32724,22255,33234
32712,22257,33223
32812,22247,33271
32812,22287,33319
32908,22284,33269
33028,22254,33312
33016,22247,33552
32821,22276,33615
32564,22268,33639
32862,22245,33677
33049,22255,33624
33036,22242,33825
33116,22242,33701
33084,22238,33588
33164,22257,33829
33248,22245,33856
33237,22234,33857
33172,22259,33836
33028,22244,34004
33129,22224,33920
33108,22276,33819
33072,22262,33964
33136,22253,33988
33488,22236,33944
33695,22235,34012
33528,22229,34108
33564,22258,33969
33408,22247,33870
33344,22228,33840
33440,22216,34055
33636,22214,34031
33644,22248,33980
33688,22245,34151
33624,22236,34112
33528,22224,34039
33552,22217,33989
33500,22228,34065
33324,22220,33974
33276,22208,34101
33244,22223,34164
33326,22217,34148
33436,22206,34110
33496,22246,34092
33596,22220,34137
33500,22212,34141
33328,22244,34117
33372,22222,34128
33308,22201,34095
33165,22234,34117
33032,22212,34056
33044,22196,34078
33150,22240,34024
33148,22212,33932
33242,22196,34021
33220,22229,34020
33229,22201,34006
33120,22217,33876
32858,22201,33879
32468,22217,33900
32628,22202,33850
32452,22228,33836
32632,22206,33929
32564,22193,33925
32750,22205,33684
32766,22194,33772
32780,22235,33742
32600,22199,33759
32444,22188,33718
32284,22223,33716
32221,22190,33628
32204,22186,33705
32316,22212,33677
32340,22195,33698
32365,22185,33732
32360,22215,33799
32252,22185,33700
32180,22212,33676
32032,22178,33672
31745,22204,33671
31844,22180,33637
31885,22174,33603
31912,22204,33624
31924,22189,33597
32028,22177,33577
32048,22202,33565
31924,22184,33327
32004,22172,33391
31964,22205,33274
31828,22188,33256
31820,22167,33343
31728,22126,33329
31764,22187,33286
31798,22181,33257
31921,22162,33215
32109,22193,33214
32180,22180,33116
32176,22165,33070
32104,22188,33057
32000,22160,33029
31684,22183,33061
31713,22161,33066
31876,22152,33061
31921,22174,33053
32128,22165,33100
32246,22152,33047
32100,22180,33060
32028,22149,33133
32109,22183,33068
31912,22158,33076
31940,22163,32937
32020,22146,32972
32153,22156,33021
32242,22146,32997
32356,22147,32903
32332,22180,32856
32236,22159,32792
32328,22188,32844
32148,22157,32887
31796,22142,32810
31764,22158,32685
32133,22149,32697
32288,22138,32701
32260,22158,32662
32285,22148,32605
32260,22183,32590
32056,22155,32565
32060,22143,32635
32024,22162,32608
31964,22146,32600
32028,22130,32578
32192,22150,32571
32224,22168,32465
32316,22149,32394
32356,22137,32390
32312,22173,32375
32412,22149,32395
32245,22132,32333
32105,22161,32285
32072,22143,32388
32020,22125,32424
32072,22159,32413
32148,22146,32392
32168,22138,32391
32302,22130,32380
32292,22165,32327
32216,22139,32314
32100,22125,32308
32032,22166,32213
31672,22145,32236
32016,22135,32314
32200,22119,32340
32132,22157,32152
32252,22141,32114
32413,22131,32044
32444,22164,32046
32464,22139,32028
32401,22129,32198
32305,22122,32205
32064,22151,32135
31948,22138,32076
31941,22113,32085
32204,22112,32058
32280,22121,32097
32480,22114,32109
32460,22151,32023
32328,22135,32045
32276,22113,32029
32224,22137,32056
32076,22111,32064
32032,22125,31924
31828,22101,32044
32032,22126,31988
32444,22112,31953
32660,22125,31991
32573,22116,31981
32512,22122,31964
32456,22146,31817
32412,22116,31836
32144,22136,31904
31944,22108,31909
31996,22135,31820
32190,22114,31844
32412,22108,31765
32540,22139,31740
32220,22119,31800
32308,22141,31809
32352,22112,31792
32304,22105,31688
32324,22128,31751
32348,22109,31732
32400,22091,31712
32460,22133,31689
32549,22106,31637
32640,22141,31653
32732,22108,31664
32532,22098,31634
32576,22128,31526
32516,22116,31674
32308,22102,31500
32221,22088,31508
32320,22111,31557
32437,22097,31409
32548,22091,31367
32720,22112,31348
32776,22093,31328
32752,22129,31265
32682,22100,31284
32538,22108,31444
32312,22084,31327
32272,22102,31263
32328,22084,31234
32404,22109,31288
32516,22105,31254
32596,22119,31113
32592,22103,31076
32844,22084,31239
32776,22130,31222
32620,22092,31189
32536,22080,31137
32520,22079,31064
32577,22110,31174
32700,22092,31166
32813,22084,31033
32892,22119,31000
32916,22094,30948
32876,22085,30919
32784,22114,30877
32672,22089,30849
32492,22072,30925
32396,22095,30961
32408,22070,30778
32544,22119,30784
32588,22086,30823
32745,22080,30696
32852,22124,30713
32824,22099,30804
32792,22080,30772
32713,22072,30681
32620,22098,30698
32636,22083,30604
32716,22108,30566
32760,22087,30428
32788,22077,30388
32860,22116,30356
32872,22086,30317
32844,22076,30280
32776,22109,30264
32708,22076,30232
32604,22072,30189
32600,22056,30168
32648,22101,30140
32696,22084,30258
32700,22075,30214
32900,22073,30173
32952,22112,30112
32973,22102,30109
32944,22076,30108
32844,22069,30034
32716,22055,29860
32716,22092,29834
32724,22067,29812
32724,22060,29892
32848,22057,29833
32992,22106,29768
33020,22076,29773
33060,22063,29728
33000,22091,29687
32852,22061,29657
32728,22064,29604
32616,22076,29567
32504,22053,29513
32696,22085,29468
32840,22058,29429
32912,22098,29391
32972,22069,29341
32932,22065,29296
32926,22090,29228
32960,22053,29165
32856,22051,29126
32824,22076,29084
32816,22060,29044
32817,22086,29014
32844,22071,28836
32933,22056,28765
33013,22092,28703
33000,22058,28661
32908,22055,28616
32768,22088,28714
32716,22060,28668
32702,22043,28600
32768,22069,28460
32748,22052,28356
32996,22090,28313
33112,22060,28255
33036,22047,28198
33080,22091,28148
32972,22055,28105
32804,22094,28044
32692,22068,28132
32692,22050,28071
32733,22045,27926
32832,22087,27975
32812,22060,27877
33004,22048,27826
33036,22080,27664
32936,22074,27620
32856,22061,27706
32778,22046,27648
32664,22080,27588
32652,22061,27482
32720,22052,27494
32760,22045,27460
32880,22068,27420
32888,22049,27365
32999,22085,27245
32952,22064,27273
32876,22046,27136
32804,22071,27119
32708,22045,27080
32716,22013,26990
32792,22060,27005
32852,22050,27005
32912,22044,26909
32900,22073,26819
32992,22057,26769
32952,22087,26805
32881,22052,26778
32796,22040,26637
32704,22068,26561
32672,22045,26560
32728,22029,26536
32784,22053,26541
32860,22039,26550
32964,22072,26500
33008,22055,26464
32912,22032,26421
32857,22065,26353
32700,22047,26245
32584,22032,26212
32540,22069,26169
32640,22054,26168
32724,22041,26100
32864,22032,26061
33004,22070,26072
32997,22046,26061
32900,22030,26039
32700,22046,25929
32676,22033,25976
32560,22059,25809
32588,22033,25733
32472,22022,25837
32604,22040,25774
32784,22025,25767
32936,22061,25752
32940,22045,25742
32928,22078,25633
32980,22044,25511
32912,22022,25496
32796,22050,25509
32788,22023,25486
32783,22065,25501
32749,22037,25471
32856,22022,25502
32965,22022,25433
32944,22068,25276
32908,22048,25327
32890,22024,25365
32748,22023,25276
32705,22050,25238
32696,22039,25228
32732,22021,25231
32833,22061,25053
32896,22032,25032
32984,22015,25056
33010,22070,25093
32928,22052,25068
32844,22028,25036
32760,22014,24997
32656,22045,24932
32656,22023,24938
32718,22015,24908
32804,22052,24832
32912,22023,24774
33024,22011,24801
33004,22043,24688
32937,22015,24696
32888,22035,24709
32804,22008,24601
32676,22042,24624
32680,22011,24536
32752,22007,24518
32824,22044,24540
32908,22020,24444
33013,22009,24396
32988,22009,24350
33004,22037,24302
32932,22004,24224
32968,22020,24349
32844,22000,24263
33008,22032,24252
33000,22012,24211
32960,22042,24204
33076,22017,24159
33280,22005,24130
33404,22036,24067
33416,22013,24007
33372,22004,23967
33260,22021,23933
33088,22000,23921
33100,21993,23878
33312,22020,23844
33556,22001,23836
33908,22036,23822
34480,22013,23814
34865,22050,23785
35104,22022,23743
35512,21999,23718
35920,22046,23698
36340,22017,23684
36924,21988,23660
37644,22044,23612
38441,22012,23605
39220,21997,23559
39916,22064,23532
40284,22052,23548
40256,22007,23524
39680,21988,23495
38789,22022,23514
37592,21998,23507
36388,22037,23506
35216,21985,23420
34346,22029,23412
33472,21997,23385
32974,22032,23359
32681,22009,23341
32480,21996,23343
32348,21988,23376
32228,22018,23385
32016,22002,23456
31964,21991,23455
32032,21989,23460
32096,21985,23456
32153,22009,23456
32232,21996,23380
32240,22021,23316
32216,21992,23446
32152,22011,23422
32028,21988,23473
31784,22004,23424
31741,21982,23376
31845,22008,23421
31876,21975,23482
32040,22008,23463
32196,21986,23477
32144,22012,23528
32084,21986,23549
32085,22011,23414
32092,21988,23428
31960,21979,23453
31888,21993,23472
32108,21981,23481
32000,21976,23535
32000,22008,23646
32073,21989,23705
32252,21981,23672
32234,22000,23720
32120,21986,23756
32200,21969,23788
32056,21999,23727
32116,21985,23694
32176,21997,23809
32132,21983,23878
32277,21972,23906
32316,22006,23922
32397,21986,23938
32328,22009,23994
32348,21977,24071
32132,21971,24105
32166,21990,24089
31988,21977,24076
32132,21962,24105
32424,21983,24128
32404,21972,24145
32292,22007,24220
32616,21983,24356
32548,21973,24397
32432,22005,24477
32436,21972,24546
32368,22002,24524
32374,21972,24614
32388,21996,24621
32512,21972,24619
32630,21962,24669
32842,21975,24695
32970,21964,24877
32769,21989,24972
32804,21969,24974
32617,21993,25012
32516,21968,25076
32576,21929,25202
32688,21963,25273
32714,21962,25342
32776,21976,25326
33032,21962,25369
33002,21992,25440
33036,21975,25538
33076,21960,25591
32976,21977,25686
32648,21963,25779
32896,21983,25829
33060,21961,25916
33153,22003,26006
33088,21981,26159
32996,21959,26220
33045,22004,26297
33332,21965,26376
33397,21960,26424
33212,21955,26492
32968,21977,26614
33174,21960,26693
33060,21951,26735
33169,21979,26856
33416,21964,26892
33477,21953,26951
33528,21991,27080
33696,21975,27092
33772,21970,27136
33612,21948,27136
33462,21940,27232
33492,21970,27303
33428,21956,27388
33630,21988,27464
33728,21968,27533
33872,22006,27592
33840,21972,27714
33660,21959,27792
33480,21989,27906
33300,21966,27884
32924,21956,28005
33200,21941,28061
33524,21982,28149
33544,21956,28200
33644,21948,28268
33684,21981,28333
33636,21964,28414
33308,21948,28492
33448,21980,28559
33292,21957,28625
33324,21946,28700
33272,21960,28773
33288,21944,28846
33200,21983,28916
33420,21965,28976
33532,21952,29060
33484,21992,29135
33264,21972,29197
33148,21944,29262
33177,21987,29327
32888,21959,29488
32756,21942,29624
32740,21946,29660
32769,21961,29796
32844,21958,29813
32832,21951,29776
32900,21973,29821
32916,21954,29855
32476,21987,29910
32560,21950,29989
32380,21937,30134
32320,21956,30290
32236,21941,30237
32356,21978,30244
32388,21955,30341
32420,21946,30447
32260,21946,30484
32276,21968,30533
32124,21943,30612
31968,21953,30499
32096,21938,30545
31981,21964,30572
31924,21952,30654
31948,21940,30692
32186,21974,30717
32328,21949,30793
32229,21941,30839
31912,21958,31013
31752,21942,31117
31840,21967,31141
31773,21946,31160
31788,21973,31077
31872,21946,31118
31996,21937,31150
32080,21972,31185
32208,21956,31300
32168,21945,31342
32220,21952,31205
31836,21940,31228
31966,21960,31260
31888,21937,31381
31844,21956,31500
32058,21942,31461
32180,21936,31484
32124,21964,31495
32460,21941,31550
32120,21969,31602
32050,21951,31623
32020,21968,31495
31984,21942,31639
31996,21935,31656
32060,21944,31622
31984,21969,31696
31872,21932,31585
32316,21950,31672
32526,21937,31716
32569,21952,31790
32472,21974,31724
32348,21944,31780
32172,21961,31799
32020,21935,31604
32004,21962,31662
32120,21935,31800
32228,21958,31764
32272,21938,31812
32319,21978,31845
32212,21940,31712
32332,21964,31799
32340,21938,31757
32140,21947,31857
31732,21932,31680
31881,21936,31684
32048,21926,31734
32008,21959,31817
31956,21948,31804
32073,21966,31933
32508,21940,31846
32684,21961,31870
32400,21932,31679
32256,21956,31745
32160,21928,31879
32052,21958,31951
31924,21940,31836
31873,21927,31780
32060,21944,31879
32100,21933,31860
32393,21970,31852
32420,21952,31837
32357,21934,31884
32220,21966,31876
32076,21940,31682
32028,21926,31736
32064,21954,31829
32116,21942,31930
32208,21957,31818
32312,21941,31857
32398,21967,31700
32464,21938,31725
32332,21932,31733
32116,21966,31765
32056,21939,31868
32064,21932,31869
32116,21956,31797
32100,21925,31767
32436,21965,31785
32180,21930,31596
32544,21957,31596
32412,21933,31617
31821,21947,31652
31944,21933,31704
31868,21956,31781
32140,21925,31680
32188,21919,31591
32480,21946,31652
32576,21932,31685
32500,21965,31660
32324,21941,31455
32220,21927,31445
31972,21946,31452
31860,21924,31478
31664,21946,31520
31820,21935,31620
32084,21924,31565
32072,21950,31486
31888,21932,31519
31976,21966,31346
32520,21926,31367
32368,21950,31468
32320,21930,31517
32296,21939,31328
32312,21925,31425
32252,21936,31268
32316,21924,31304
32392,21927,31396
32500,21945,31255
32484,21935,31344
32400,21952,31316
32298,21940,31313
32263,21926,31296
31980,21959,31286
31872,21932,31079
31937,21961,31108
32044,21944,31092
32213,21932,31055
32324,21972,31060
32485,21952,31197
32436,21946,31124
32312,21932,31166
32328,21937,31151
32221,21929,31143
31736,21953,31128
31992,21927,30928
32288,21967,30944
32352,21937,31051
32468,21975,31116
32736,21956,31032
32804,21936,30912
32724,21972,30994
32556,21948,30974
32284,21935,30956
32304,21948,30948
32376,21929,30940
32400,21945,30750
32320,21935,30758
32358,21964,30796
32428,21936,30871
32602,21952,30836
32552,21935,30786
32360,21956,30809
32196,21940,30797
32108,21969,30628
32225,21938,30749
32430,21967,30772
32433,21951,30613
32428,21975,30696
32712,21949,30506
32684,21956,30645
32556,21933,30622
32508,21967,30606
32304,21936,30412
32416,21956,30516
32376,21933,30535
32384,21959,30488
32548,21935,30500
32664,21955,30317
32960,21936,30439
32844,21964,30495
32824,21946,30409
32648,21980,30286
32688,21941,30367
32492,21928,30344
32527,21937,30176
32524,21932,30208
32384,21957,30277
32812,21936,30277
32964,21972,30280
33008,21953,30141
32972,21938,30208
32788,21952,30026
32613,21973,30184
32562,21940,30097
32556,21961,30116
32548,21938,29921
32672,21970,30008
32744,21946,30079
32868,21980,30000
32852,21951,30001
32942,21938,29819
32788,21957,29896
32576,21971,29873
32424,21934,29907
32376,21953,29728
32404,21936,29894
32764,21947,29767
32816,21984,29836
33028,21955,29641
33032,21949,29625
32880,21960,29783
32760,21940,29668
32690,21965,29724
32516,21938,29540
32309,21968,29721
32540,21937,29647
32636,21968,29486
32830,21948,29454
32988,21964,29629
33068,21947,29465
32984,21958,29541
32830,21942,29521
32456,21975,29343
32488,21944,29452
32654,21971,29400
32648,21954,29412
32860,21977,29340
32956,21958,29232
33048,21944,29280
33076,21967,29264
33000,21945,29332
32892,21975,29186
32688,21949,29124
32632,21978,29100
32524,21954,29277
32532,21938,29251
32640,21980,29206
32868,21961,29182
33024,21953,29088
33056,21976,29028
33032,21953,29116
32892,21980,29095
32744,21949,28936
32564,21967,28892
32688,21947,28920
32584,21988,29014
32878,21959,29005
33044,21945,28973
33084,21974,28861
32964,21961,28905
33088,21949,28869
32952,21987,28862
32804,21957,28831
32660,21944,28835
32661,21972,28823
32764,21951,28641
32900,21991,28620
33016,21969,28599
33084,21956,28572
33060,21983,28672
32968,21952,28688
32853,21971,28624
32744,21950,28628
32684,21983,28630
32712,21959,28592
32772,21949,28494
32836,21966,28466
32888,21957,28474
32928,21973,28492
32932,21959,28404
32813,21994,28377
32748,21962,28361
32612,21948,28420
32456,21970,28325
32452,21952,28352
32548,21988,28377
32584,21975,28376
32753,21957,28348
32853,21953,28327
32840,21978,28284
32742,21955,28273
32664,21981,28173
32560,21952,28093
32468,21983,28157
32468,21956,28140
32464,21944,28104
32550,21977,27924
32648,21957,27909
32782,21993,28036
32800,21961,27943
32736,21983,27869
32641,21951,27904
32476,21976,27728
32436,21958,27689
32500,21944,27631
32476,21972,27589
32664,21950,27655
32788,21984,27717
32880,21956,27578
32836,21989,27609
32712,21960,27427
32552,21989,27362
32384,21957,27372
32257,21944,27352
32352,21964,27408
32464,21948,27392
32518,21991,27337
32789,21964,27255
32900,21954,27156
32820,21983,27164
32680,21959,27151
32796,21990,27122
32805,21953,27076
32732,21953,27046
32712,21975,27014
32908,21951,26977
32952,21981,26806
33208,21951,26780
33320,21993,26824
33340,21956,26735
33200,21988,26751
33372,21966,26745
33464,21951,26628
33548,21980,26552
33796,21967,26508
34148,21957,26476
34597,21988,26444
35188,21965,26399
35704,22010,26326
36176,21993,26284
36692,21974,26308
37192,21958,26287
37704,21991,26244
38300,21965,26333
38956,21991,26217
39560,21950,26272
39944,22017,26247
39880,21980,26076
39256,22026,26184
38344,21973,26140
37160,21959,26046
35888,21975,26106
34720,21955,25998
33732,21989,25906
32972,21962,25860
32536,21989,26020
32376,21957,25968
32350,21974,25945
32374,21960,25756
32348,21977,25740
32232,21959,25888
32160,21975,25819
32072,21956,25813
31932,21960,25640
31912,21994,25638
31972,21973,25705
31976,21957,25702
32069,21983,25624
32150,21960,25575
32092,21994,25592
32024,21964,25583
31908,21958,25544
31748,21983,25476
31644,21958,25396
31652,21982,25373
31752,21958,25397
31825,21988,25390
31965,21966,25353
32052,22001,25238
32040,21956,25135
31972,21991,25129
31880,21961,25244
31792,21986,25212
31740,21964,25188
31792,21988,25116
31872,21964,25048
31932,21960,25020
32076,21974,24978
32194,21961,24997
32184,21972,24977
32140,21956,24865
32112,21990,24829
31990,21962,24772
31896,21988,24704
31948,21961,24644
32072,21988,24646
32200,21966,24740
32320,21996,24688
32440,21973,24668
32448,21964,24612
32365,22000,24466
32304,21967,24455
32213,21989,24473
32142,21957,24447
32092,21984,24384
32160,21961,24369
32240,21977,24326
32448,21961,24196
32568,21991,24094
32576,21971,24113
32536,21999,24108
32472,21976,24045
32381,21957,24071
32364,21966,24038
32420,21989,23970
32504,21961,23948
32600,21988,23840
32732,21972,23778
32848,22012,23769
32856,21983,23677
32780,21965,23625
32701,21997,23572
32588,21968,23661
32516,21993,23676
32524,21967,23640
32572,21962,23570
32640,21989,23526
32776,21976,23503
32892,22005,23506
32916,21972,23451
32932,21991,23336
32916,21966,23392
32868,21996,23468
32848,21973,23414
32928,21956,23400
33068,21972,23373
33216,21959,23380
33428,21988,23378
33508,21969,23392
33484,21990,23344
33412,21964,23268
33332,21985,23244
33204,21958,23345
33148,21982,23353
33192,21958,23391
33308,21982,23359
33404,21958,23273
33524,21977,23445
33588,22005,23409
33552,21971,23462
33440,21998,23422
33324,21967,23439
33212,21960,23453
33200,21975,23437
33272,21959,23425
33364,21983,23464
33456,21960,23604
33620,21996,23655
33744,21964,23662
33752,22006,23653
33628,21964,23718
33476,21997,23760
33324,21967,23810
33228,21993,23780
33264,21961,23730
33344,21991,23773
33460,21973,23904
33572,22009,24009
33608,21976,24071
33584,21964,24112
33536,21983,24165
33471,21976,24212
33328,21994,24190
33212,21973,24284
33152,21960,24348
33104,21984,24423
33108,21968,24487
33196,21998,24458
33220,21971,24440
33184,22009,24480
33033,21985,24559
32888,21969,24630
32650,22001,24678
32600,21980,24737
32660,21971,24804
32716,21966,24900
32764,21984,24953
32776,21968,25069
32749,21999,25226
32616,21967,25297
32484,21983,25336
32396,21967,25449
32252,21975,25444
32149,21994,25453
32216,21972,25604
32248,21992,25727
32285,21972,25732
32380,21969,25893
32420,22009,25957
32372,21985,25969
32304,21975,26013
32173,21988,26118
32017,21973,26185
31840,21972,26277
31796,21989,26368
31840,21970,26484
31936,21999,26520
32072,21983,26636
32161,21970,26677
32136,21998,26788
32088,21985,26876
32100,22007,26920
31977,21970,26913
31924,21965,26988
31964,21984,27055
32024,21967,27124
32052,21999,27204
32160,21978,27332
32213,21972,27423
32192,22004,27509
32180,21991,27553
32076,21980,27612
31952,21960,27636
31916,21989,27702
31948,21978,27772
32000,21960,27845
32116,21995,27919
32268,21982,28036
32380,21972,28101
32372,22008,28217
32340,21981,28256
32250,21970,28316
32169,21998,28335
32152,21972,28485
32145,21966,28574
32172,21981,28504
32272,22011,28550
32360,21983,28656
32468,21976,28877
32440,21997,28856
32392,21969,28957
32292,22005,29045
32148,21973,28960
32088,21962,29012
32108,21982,29240
32136,21964,29343
32204,22007,29412
32412,21998,29467
32516,21980,29540
32528,21982,29540
32428,21973,29637
32264,22007,29692
32132,21992,29756
32140,21977,29801
32132,21968,29924
32264,21996,29916
32357,21980,30016
32544,22010,30072
32614,21991,29997
32556,21972,30046
32468,22004,30163
32340,21981,30348
32197,22005,30428
32130,21980,30469
32126,21968,30505
32282,21991,30509
32485,21970,30664
32600,22005,30740
32664,21988,30804
32644,22000,30686
32524,21967,30892
32314,21996,31029
32216,21974,30975
32268,22010,31156
32336,21989,31053
32520,21968,31158
32630,21991,31376
32716,21975,31455
32752,21999,31324
32672,21983,31461
32532,21973,31520
32386,21997,31673
32240,21979,31672
32236,21968,31849
32269,21989,31997
32416,21977,32117
32584,22001,32036
32656,21980,32157
32616,22018,32312
32604,21999,32397
32614,21981,32482
32560,21972,32581
32272,21992,32663
32424,21982,32756
32604,21967,32840
32560,21984,32724
32744,21972,32992
32744,21984,33038
32800,22013,33218
32701,21994,33119
32744,21972,33206
32600,22004,33376
32356,21966,33693
32206,21989,33629
32200,21968,33830
32268,21991,33941
32444,21972,34014
32609,21988,34239
32748,21977,34372
32728,22005,34357
32488,21992,34404
32367,21975,34606
32068,21980,34528
32336,21966,34845
32500,22000,35100
32464,21984,35009
32604,21974,35212
32902,21996,35386
32900,21981,35488
32844,22015,35352
32848,21988,35660
32712,22010,35944
32589,21984,36053
32357,21970,35996
32656,21992,36176
32836,21970,36365
32768,21989,36385
32824,21981,36623
32862,21995,36832
32908,21984,36955
32892,21977,37048
32776,21990,36936
32740,21972,37138
32484,21997,37265
32384,21976,37401
32732,22007,37502
32956,21985,37552
32992,22021,37688
33040,21996,37957
32740,22019,37917
32652,21988,38052
32676,22012,38151
32736,21980,38372
32616,21973,38244
32720,21985,38492
32832,21977,38510
32880,22009,38645
33020,21992,38852
33124,22023,38892
32984,21990,38940
32961,21981,39063
32688,21991,38840
32366,21980,39180
32325,21994,39484
32296,21973,39404
32372,21983,39520
32760,21977,39499
32888,22017,39750
33044,21988,39813
33044,22020,39840
32860,21992,39605
32936,22020,40063
32696,21980,40188
32364,22013,40068
31892,21983,40148
32688,21974,40345
32984,22005,40128
33376,21976,40504
33360,22012,40589
33204,21985,40612
33068,22012,40444
32898,21980,40848
32872,22004,40748
32669,21976,40903
32680,21996,40817
32777,21975,41069
32906,21990,40980
33216,21983,41137
33436,21991,40889
33452,22015,41271
33328,21993,41433
33148,21981,41556
32980,21999,41332
33080,21989,41479
33068,21977,41580
33140,21984,41457
33224,21985,41592
33180,22012,41797
33534,21984,41840
33484,22012,41693
33372,21984,41864
33320,22023,41920
33200,21982,41924
33060,21975,41685
33088,21999,41953
33192,21980,42092
33194,22016,42247
33484,21989,42266
33546,22023,42056
33500,21991,42241
33460,22015,41884
33332,21983,42208
33352,22006,42391
33368,21980,42380
33332,21995,42341
33264,21976,42041
33348,21992,42380
33472,22023,42544
33496,21996,42363
33456,22021,42516
33400,21984,42216
33332,22004,42604
33240,21984,42608
33304,22000,42436
33189,21981,42459
33321,22012,42625
33512,21976,42388
33448,21998,42604
33620,21983,42705
33608,21999,42688
33272,21982,42503
33044,21989,42638
33180,22012,42532
33156,21986,42701
33156,22005,42684
33190,21988,42525
33352,22023,42649
33496,21992,42279
33580,22018,42676
33484,21982,42488
33400,21994,42571
33420,21977,42636
33256,22008,42623
33180,21988,42469
33156,22002,42588
33236,21993,42184
33228,22002,42596
33300,21989,42485
33376,22008,42527
33358,21989,42126
33224,22015,42404
33096,21992,42561
32982,22015,42308
32892,21985,42436
32896,22011,42341
33009,21989,42256
33116,22025,42438
33276,21989,42182
33324,22023,42298
33288,21994,41872
33200,21982,42048
33112,22020,42095
33040,21984,42180
32965,21972,42220
32988,22004,41991
33040,21982,42020
33118,21972,42017
33140,21994,41997
33140,21977,41625
33134,22014,41817
33040,21990,41768
32968,21980,41927
32868,21993,41820
32813,21970,41701
32868,21993,41655
32984,21976,41416
33148,22010,41520
33356,21993,41603
33452,22016,41637
33398,21986,41484
33353,21981,41361
33368,21998,41252
33324,21978,41236
33524,22009,41191
33864,21993,41115
34189,22025,40999
34652,21988,41126
35062,21986,41072
35636,22033,40948
36148,21998,40777
36688,21980,40708
37192,22014,40664
37664,21986,40306
38204,22021,40571
38912,21996,40535
39740,21970,40509
40408,22040,40363
40876,22005,40300
40600,21980,40293
39820,21998,40047
38724,21979,39972
37380,22004,39940
36004,21984,39880
34808,22023,39797
33972,21989,39380
33169,21972,39588
32836,22006,39687
32433,21989,39645
32332,21982,39605
32429,22005,39540
32417,21988,39284
32233,21973,39212
32096,21994,39124
32026,21980,39149
31932,21965,39156
31857,21999,39104
31948,21974,38956
31988,22005,39036
31892,21984,39072
31876,22007,38834
31917,21984,38869
31900,22012,38685
31676,21975,38830
31501,21962,38903
31300,21981,38672
31524,21966,38688
31792,21980,38385
31828,22004,38695
32072,21981,38740
32080,21972,38629
31972,21994,38533
31748,21973,38484
31668,21950,38478
31708,21988,38490
31812,21974,38484
31925,22002,38468
31804,21987,38437
32272,21985,38401
32180,21972,38367
31920,22000,38328
32172,21974,38309
32068,21967,38317
31968,21989,38316
32121,21970,37980
32164,21965,37963
32100,21983,38164
32101,21964,38286
32152,22004,38151
32238,21996,38111
32232,21996,38157
32226,21975,38154
32160,21970,38116
31996,21960,38091
31994,21983,38028
32108,21973,38021
32140,21964,38084
32182,21998,38111
32128,21984,38109
32440,21977,38087
32508,21973,38036
32417,22002,37985
32429,21981,37972
32208,21967,37924
32080,21961,37821
32128,21996,37692
32280,21974,37629
32384,21961,37535
32564,21998,37368
32696,21982,37508
32692,21967,37502
32612,21994,37456
32384,21960,37559
32296,21988,37457
32256,21962,37361
32364,21984,37352
32560,21953,37332
32662,21972,37383
32756,21967,37357
32812,22005,37308
32844,21987,37185
32784,21967,37048
32748,21973,37108
32688,21957,37079
32656,21974,37113
32680,21958,37025
32740,21984,36904
32764,21960,36948
32888,22008,36949
32888,21985,36820
32968,21964,36706
32952,21998,36633
32968,21962,36637
32900,21986,36701
32862,21964,36646
33016,21990,36661
33116,21974,36508
33200,21964,36444
33316,21977,36326
33376,21963,36359
33380,21988,36359
33269,21976,36316
33248,21960,36263
33196,21990,35975
33192,21968,36004
33220,21954,36137
33290,21968,35846
33336,21958,35841
33428,21972,35846
33476,21959,35829
33469,22002,35737
33404,21969,35640
33316,21960,35553
33156,21984,35745
33068,21957,35493
33104,21989,35519
33188,21968,35374
33324,21992,35471
33456,21972,35433
33440,21961,35388
33327,21998,35328
33242,21970,35260
33120,21955,35228
32948,21966,35276
32864,21957,35165
32872,21997,35072
32956,21964,34990
33028,21958,34844
33164,21988,34759
33200,21967,34834
33168,21963,34768
33072,21970,34748
32916,21950,34744
32768,21972,34753
32597,21954,34750
32492,21989,34716
32472,21980,34588
32492,21959,34493
32584,22000,34487
32620,21978,34383
32516,21973,34228
32416,21959,34141
32272,21988,34125
32112,21964,34052
31984,21952,33998
31940,21964,33938
31960,21953,33888
32024,21982,33831
32104,21958,33756
32124,21991,33727
32108,21961,33751
32081,21954,33637
32004,21984,33528
31884,21958,33551
31812,21953,33457
31812,21981,33240
31874,21962,33169
31884,21952,33024
31909,21988,33141
32012,21969,33078
31996,21957,33004
31949,21980,32925
31892,21971,32812
31816,21961,32655
31796,21948,32752
31805,21950,32581
31870,21973,32501
31956,21954,32393
32084,21988,32260
32120,21973,32140
32076,21960,32007
31952,21989,31908
31892,21970,32004
31840,21958,31890
31852,21947,31724
31942,21945,31639
32046,21964,31608
32120,21950,31625
32244,21953,31343
32297,21954,31213
32264,21973,31133
32144,21967,31041
32009,21949,30972
31936,21977,30917
31940,21954,30837
32021,21945,30714
32096,21970,30624
32172,21948,30544
32260,21986,30454
32324,21961,30383
32356,21949,30329
32281,21984,30377
32164,21961,30301
32072,21957,30229
32012,21951,30130
32024,21942,30056
32124,21952,29982
32196,21951,29896
32277,21945,29780
32353,21980,29701
32364,21961,29703
32367,21952,29415
32318,21943,29340
32156,21968,29417
32036,21956,29216
32050,21952,29264
32160,21936,29188
32288,21973,29093
32388,21960,29005
32496,21959,28922
32412,21945,28772
32328,21976,28788
32248,21957,28772
32108,21941,28640
32080,21964,28583
32129,21944,28512
32168,21940,28349
32228,21962,28279
32396,21952,28276
32412,21988,28216
32384,21950,28094
32278,21945,28112
32144,21972,28069
32064,21937,27988
32048,21963,27930
32088,21943,27884
32172,21938,27829
32261,21975,27728
32417,21953,27597
32440,21943,27494
32396,21961,27444
32344,21941,27349
32248,21932,27308
32164,21964,27300
32132,21935,27265
32124,21962,27198
32278,21941,27232
32348,21959,27181
32412,21935,26961
32412,21950,26924
32376,21976,26878
32249,21949,26841
32230,21971,26917
32108,21941,26864
32032,21935,26804
32086,21958,26742
32189,21939,26618
32284,21967,26598
32453,21938,26590
32520,21968,26538
32464,21942,26474
32357,21930,26428
32248,21949,26396
32108,21936,26344
32088,21962,26305
32140,21940,26260
32228,21965,26217
32372,21964,26164
32528,21943,26124
32576,21970,26089
32544,21962,25961
32444,21940,25912
32332,21930,25872
32204,21929,25820
32128,21957,25800
32124,21935,25737
32160,21924,25715
32229,21960,25705
32352,21945,25623
32408,21933,25628
32380,21962,25612
32332,21941,25580
32248,21962,25548
32180,21937,25432
32168,21926,25392
32264,21922,25436
32356,21943,25321
32444,21932,25269
32532,21928,25272
32556,21964,25298
32488,21936,25249
32378,21927,25169
32264,21960,25178
32148,21930,25156
32132,21962,25135
32216,21954,25098
32296,21938,25085
32417,21924,25055
32556,21947,24954
32562,21925,24900
32548,21957,24863
32453,21940,24828
32353,21960,24786
32244,21929,24872
32168,21925,24820
32288,21952,24878
32392,21925,24780
32460,21965,24818
32540,21932,24820
32640,21925,24670
32544,21943,24618
32528,21924,24645
32472,21962,24628
32348,21931,24740
32320,21914,24699
32352,21939,24644
32404,21929,24640
32492,21933,24640
32632,21960,24644
32656,21935,24669
32624,21927,24589
32560,21957,24544
32442,21930,24468
32320,21920,24476
32256,21929,24633
32356,21919,24596
32422,21950,24578
32536,21932,24552
32645,21917,24539
32676,21935,24580
32724,21918,24518
32701,21932,24453
32560,21912,24421
32425,21951,24430
32356,21920,24473
32380,21911,24496
32432,21947,24489
32485,21926,24591
32665,21952,24539
32664,21929,24512
32606,21918,24527
32508,21957,24525
32488,21918,24571
32416,21917,24590
32388,21929,24525
32445,21921,24481
32600,21949,24458
32740,21916,24631
32881,21956,24556
32900,21922,24616
32820,21911,24628
32772,21927,24640
32672,21912,24648
32492,21924,24652
32444,21906,24597
32544,21944,24676
32612,21909,24577
32740,21951,24516
32926,21922,24537
33068,21917,24629
33016,21941,24729
32900,21922,24650
32788,21955,24720
32668,21924,24681
32608,21919,24746
32696,21908,24749
32792,21911,24733
32884,21945,24745
32960,21927,24781
32996,21911,24798
32936,21952,24812
32845,21928,24746
32809,21955,24664
32712,21924,24679
32736,21908,24684
32756,21943,24748
32788,21912,24739
32820,21924,24770
32940,21908,24811
32932,21949,24780
32840,21922,24772
32740,21949,24903
32572,21916,24962
32548,21943,24883
32560,21918,24969
32692,21945,24921
32740,21924,24938
32800,21921,24929
32916,21954,24855
32953,21924,25044
32900,21910,25022
32772,21924,25056
32574,21901,25032
32348,21924,24953
32340,21914,25045
32412,21901,25158
32576,21919,25109
32704,21908,25172
32808,21944,25222
32928,21925,25262
32821,21954,25197
32782,21916,25218
32688,21911,25202
32624,21901,25216
32655,21908,25252
32536,21897,25329
32673,21937,25383
32852,21914,25478
32992,21909,25529
33004,21942,25527
32968,21922,25500
32864,21901,25612
32812,21917,25637
32736,21902,25672
32740,21936,25724
32724,21913,25661
32752,21904,25636
32840,21916,25660
33116,21900,25725
33216,21922,25904
33208,21900,25893
33116,21929,25928
33020,21916,25979
32952,21903,26032
33020,21924,26069
33148,21910,25968
33216,21899,25980
33184,21916,26049
33396,21902,26124
33496,21920,26148
33472,21911,26148
33540,21943,26248
33680,21910,26333
33769,21903,26416
33912,21950,26405
34278,21916,26469
34700,21921,26449
35124,21903,26599
35732,21942,26677
36380,21914,26712
36896,21904,26697
37432,21927,26780
37932,21914,26823
38596,21889,26842
39412,21960,27064
40056,21908,27134
40396,21897,27109
40212,21936,27149
39660,21904,27193
38736,21956,27265
37457,21925,27332
35924,21902,27412
34816,21922,27488
33952,21897,27560
33077,21932,27628
32568,21902,27714
32388,21894,27791
32292,21932,27880
32460,21913,27950
32536,21894,28056
32248,21936,28216
32092,21908,28262
31852,21898,28280
31844,21886,28386
31680,21918,28449
31828,21901,28540
31944,21891,28626
32172,21924,28704
32024,21903,28785
31897,21900,28868
31936,21908,29070
31552,21895,29252
31628,21911,29204
31596,21893,29286
31968,21919,29384
32140,21893,29495
32228,21906,29643
32212,21910,29740
32068,21895,29844
31901,21928,29949
31980,21901,30040
31808,21892,30152
31664,21920,30245
31924,21892,30180
31984,21887,30284
32040,21929,30378
32057,21898,30484
32077,21896,30598
32196,21925,30740
32272,21903,30897
32288,21933,31049
32236,21901,31216
32160,21886,31351
31780,21892,31410
31860,21884,31540
32112,21900,31643
32292,21887,31569
32400,21924,31671
32476,21895,31821
32506,21893,31925
32532,21904,32139
32200,21894,32253
32013,21927,32397
32222,21908,32510
32408,21888,32544
32404,21929,32560
32540,21898,32681
32584,21885,32804
32616,21924,32884
32677,21903,32968
32640,21894,33044
32588,21924,32903
32598,21890,33027
32512,21882,33150
32480,21905,33321
32552,21878,33398
32672,21924,33429
32732,21896,33506
32805,21887,33580
32592,21919,33632
32640,21887,33476
32704,21922,33564
32600,21892,33705
32444,21880,33748
32570,21904,33790
32752,21885,33956
32856,21919,33870
33020,21895,34005
33092,21882,34044
33036,21895,33932
33124,21887,34023
33100,21924,34062
33152,21897,34084
33068,21878,34172
33100,21913,34222
33116,21887,34352
33252,21876,34386
33327,21888,34230
33540,21925,34346
33520,21892,34376
33216,21884,34263
33204,21884,34421
33024,21914,34335
33097,21890,34453
33145,21908,34290
33189,21891,34236
33417,21925,34420
33448,21893,34452
33592,21884,34593
33380,21902,34590
33768,21885,34501
33888,21924,34496
33592,21893,34524
33592,21916,34431
33374,21887,34473
33688,21879,34595
33764,21916,34641
34104,21892,34583
34206,21884,34596
34165,21929,34487
33844,21895,34432
33744,21882,34452
33832,21908,34532
33628,21887,34534
33644,21879,34528
33672,21899,34358
33792,21879,34413
33888,21922,34413
33756,21900,34572
33804,21888,34532
33596,21927,34524
33520,21922,34451
33472,21916,34269
33336,21905,34478
33324,21889,34472
33268,21884,34447
33364,21890,34447
33188,21889,34439
33377,21921,34377
33344,21897,34413
33504,21881,34412
33084,21889,34399
32884,21916,34373
32884,21885,34362
32805,21876,34356
32842,21906,34335
32968,21893,34300
32991,21929,34092
33124,21927,34060
33176,21888,34149
33108,21888,34032
32884,21887,34228
32516,21916,34224
32564,21884,34197
32516,21878,33960
32624,21891,34183
32533,21882,34117
32484,21916,34112
32601,21900,34100
32728,21888,34055
32580,21917,33961
32488,21892,33969
32412,21877,33935
32266,21896,33967
32126,21880,34005
31828,21872,33971
32144,21904,33959
32276,21889,33950
32300,21925,33927
32212,21896,33904
32108,21886,33654
32008,21906,33748
31980,21889,33783
31784,21917,33823
31924,21894,33828
31897,21892,33829
32072,21881,33799
32376,21910,33705
32364,21892,33764
32628,21884,33559
32364,21897,33570
32148,21884,33600
31993,21910,33601
31956,21889,33582
31780,21879,33553
31789,21910,33528
32061,21896,33503
32260,21896,33465
32308,21885,33356
32636,21921,33365
32672,21896,33344
32516,21893,33420
32445,21878,33415
32396,21901,33240
32336,21887,33252
32456,21868,33220
32484,21907,33188
32412,21892,33332
32476,21880,33316
32456,21921,33299
32272,21904,33232
32164,21890,33211
31972,21876,33124
31624,21896,33102
32144,21880,33025
31988,21872,33084
32204,21900,33097
32056,21887,33116
32392,21919,32945
32424,21879,32960
32332,21888,32964
32376,21916,32725
32196,21887,32741
31868,21903,32817
32096,21873,32940
32212,21908,32828
32292,21885,32800
32552,21917,32808
32696,21894,32580
32508,21881,32552
32369,21897,32557
32374,21880,32527
32257,21908,32500
32058,21876,32559
32038,21899,32549
32317,21867,32644
32400,21895,32593
32406,21886,32471
32532,21879,32445
32648,21904,32415
32604,21876,32454
32436,21904,32517
32076,21886,32524
31948,21903,32512
32093,21875,32450
32196,21908,32285
32285,21887,32263
32372,21875,32247
32440,21902,32280
32377,21876,32293
32456,21902,32270
32384,21879,32244
32168,21896,32217
32052,21882,32196
32160,21867,32161
32184,21900,32121
32109,21879,32007
32181,21871,31988
32540,21884,32057
32584,21879,32033
32528,21889,31996
32525,21878,31985
32428,21865,31945
32312,21885,31925
32316,21869,31893
32294,21900,31671
32296,21880,31623
32320,21908,31661
32396,21882,31751
32436,21908,31797
32412,21881,31735
32380,21865,31583
32280,21890,31604
32168,21871,31588
32136,21885,31578
32238,21865,31352
32337,21907,31313
32452,21884,31291
32564,21908,31302
32500,21887,31355
32588,21872,31311
32480,21883,31311
32308,21860,31263
32176,21884,31188
32046,21876,31103
32168,21864,31036
32352,21896,30984
32468,21881,30969
32560,21876,31111
32624,21870,31074
32528,21908,31020
32500,21881,30997
32352,21868,30966
32244,21861,30926
32244,21871,30916
32316,21863,30879
32428,21900,30847
32540,21877,30628
32624,21866,30607
32604,21895,30580
32552,21879,30550
32512,21867,30676
32385,21860,30639
32212,21873,30608
32340,21860,30576
32396,21861,30542
32568,21897,30516
32672,21877,30468
32672,21877,30391
32685,21868,30377
32569,21897,30367
32440,21895,30332
32500,21872,30310
32460,21860,30263
32456,21863,30224
32388,21904,30209
32442,21894,30167
32512,21885,30112
32640,21873,30084
32676,21866,29982
32608,21900,29960
32552,21888,29948
32468,21870,30020
32392,21871,30000
32360,21863,29951
32480,21856,29924
32573,21876,29740
32700,21861,29816
32824,21902,29786
32832,21871,29589
32824,21904,29567
32716,21874,29532
32552,21862,29561
32394,21900,29457
32360,21868,29508
32420,21859,29540
32589,21892,29565
32704,21877,29510
32764,21864,29436
32701,21876,29392
32644,21864,29300
32396,21888,29265
32348,21860,29263
32333,21901,29287
32384,21871,29274
32460,21856,29252
32500,21857,29190
32660,21888,29109
32772,21879,29106
32800,21869,29108
32781,21861,29038
32696,21893,29028
32612,21873,29010
32544,21852,29001
32560,21891,28968
32592,21865,28935
32612,21861,28890
32716,21895,28746
32804,21868,28690
32864,21865,28644
32857,21902,28693
32740,21864,28773
32686,21853,28706
32565,21884,28679
32500,21865,28550
32680,21854,28577
32768,21885,28558
32864,21868,28541
33060,21859,28515
33056,21892,28473
32948,21870,28439
32800,21849,28400
32712,21871,28377
32592,21858,28218
32549,21893,28148
32568,21862,28263
32680,21862,28225
32840,21897,28189
32894,21868,28136
32986,21859,28074
32884,21858,28069
32800,21868,28032
32726,21862,27998
32592,21886,27845
32552,21860,27758
32608,21849,27708
32728,21866,27857
32897,21852,27711
33012,21879,27744
33056,21862,27728
32956,21902,27552
32864,21864,27493
32748,21854,27445
32620,21886,27396
32613,21867,27476
32612,21854,27460
32652,21886,27401
32800,21869,27415
32900,21898,27271
32876,21869,27292
32772,21895,27138
32800,21869,27062
32710,21856,26991
32688,21872,27073
32670,21860,27086
32716,21855,27025
32756,21876,26894
32864,21860,26855
32976,21849,26826
32980,21895,26831
32944,21865,26797
32876,21853,26762
32736,21883,26568
32624,21858,26500
32640,21847,26447
32673,21864,26584
32732,21857,26497
32796,21891,26452
32892,21866,26439
32912,21852,26402
32864,21879,26228
32800,21870,26179
32696,21852,26106
32620,21884,26046
32672,21861,26006
32680,21850,25980
32765,21876,25925
32880,21861,25952
32980,21879,26024
32998,21881,25983
32964,21857,25884
32866,21852,25846
32762,21885,25828
32648,21862,25743
32649,21853,25732
32714,21886,25711
32817,21860,25690
32976,21851,25654
33112,21889,25534
33180,21868,25500
33182,21855,25538
33134,21898,25504
33096,21867,25464
33012,21857,25337
33049,21847,25274
33320,21874,25255
33624,21860,25261
33941,21854,25284
34276,21861,25234
34604,21882,25186
34888,21856,25178
35192,21901,25124
35488,21872,25048
35908,21864,25044
36468,21857,25071
37116,21849,24880
37840,21889,24838
38640,21869,24848
39360,21871,24956
39944,21860,24924
40256,21850,24884
39968,21932,24867
39116,21914,24798
38048,21868,24765
36852,21844,24741
35664,21849,24725
34628,21880,24725
33776,21870,24718
33076,21856,24718
32622,21852,24748
32368,21888,24733
32188,21861,24612
32116,21853,24608
31996,21878,24648
31960,21873,24664
31948,21854,24577
31932,21857,24511
32005,21844,24526
32092,21871,24548
32064,21865,24512
32016,21849,24429
31928,21853,24428
31769,21873,24460
31664,21866,24540
31673,21852,24536
31660,21846,24516
31708,21880,24441
31780,21869,24438
31848,21857,24480
31820,21852,24438
31784,21850,24429
31754,21882,24460
31740,21876,24288
31713,21852,24281
31760,21842,24280
31820,21842,24340
31848,21870,24432
31892,21861,24426
31936,21851,24414
31952,21893,24401
31932,21868,24372
31900,21856,24356
31828,21844,24372
31806,21874,24412
31836,21856,24402
31864,21842,24439
31960,21880,24425
32124,21859,24332
32276,21848,24284
32285,21847,24322
32212,21882,24367
32125,21868,24437
32008,21857,24444
31909,21842,24452
31952,21840,24430
32036,21871,24452
32140,21858,24456
32245,21840,24447
32358,21891,24441
32388,21870,24424
32360,21854,24486
32288,21858,24455
32194,21841,24461
32124,21836,24357
32156,21864,24390
32248,21852,24456
32340,21844,24429
32460,21877,24421
32596,21858,24446
32592,21845,24502
32524,21869,24524
32444,21845,24516
32340,21808,24533
32284,21857,24544
32328,21851,24626
32442,21881,24616
32528,21859,24609
32720,21855,24636
32876,21836,24679
32888,21862,24784
32832,21844,24889
32776,21878,24951
32700,21846,24971
32644,21837,25001
32672,21876,24976
32752,21847,25023
32836,21838,25116
32964,21879,25154
33072,21853,25210
33148,21890,25265
33084,21854,25176
33016,21842,25202
32948,21868,25240
32920,21836,25453
32960,21876,25400
33100,21845,25520
33224,21876,25447
33350,21846,25457
33476,21840,25506
33532,21846,25534
33496,21869,25579
33404,21837,25779
33300,21830,25834
33200,21865,25825
33205,21847,25805
33272,21840,25876
33328,21876,26068
33456,21852,26049
33568,21841,26077
33556,21862,26129
33528,21841,26194
33462,21862,26309
33364,21838,26241
33284,21869,26253
33236,21846,26320
33273,21832,26340
33372,21882,26410
33488,21850,26518
33592,21844,26689
33576,21879,26629
33518,21865,26698
33428,21844,26765
33316,21875,26783
33220,21861,26876
33176,21851,26924
33152,21834,27021
33176,21876,27059
33240,21857,27102
33304,21852,27143
33208,21884,27117
33120,21871,27276
33040,21851,27308
32908,21840,27380
32760,21878,27428
32680,21856,27479
32652,21852,27533
32688,21853,27573
32768,21840,27620
32808,21844,27650
32756,21881,27677
32609,21854,27647
32450,21846,27741
32350,21869,27807
32220,21847,27882
32192,21832,27935
32268,21834,27970
32320,21869,27992
32332,21851,27972
32292,21847,28016
32324,21877,28077
32320,21860,28132
32180,21840,28224
32008,21869,28295
31900,21847,28340
31936,21839,28388
31952,21830,28436
31940,21860,28474
32076,21844,28364
32146,21833,28400
32108,21866,28478
32056,21848,28624
32000,21834,28652
31892,21868,28693
31877,21836,28812
31952,21828,28863
32114,21871,28919
32172,21840,28959
32202,21838,29014
32362,21837,29056
32400,21871,29106
32336,21853,29152
32284,21838,29181
32136,21824,29177
32124,21852,29157
32100,21831,29292
32152,21865,29369
32320,21854,29420
32240,21846,29473
32352,21833,29524
32222,21866,29431
32192,21850,29497
32005,21847,29540
32050,21829,29678
32092,21865,29765
32004,21856,29780
32266,21861,29924
32392,21851,29969
32404,21849,30072
32540,21841,30009
32412,21840,30068
32408,21837,30167
32480,21830,30374
32508,21825,30460
32244,21861,30528
32120,21857,30564
32414,21860,30748
32436,21859,30656
32420,21845,30735
32567,21845,30884
32544,21846,31064
32404,21844,31066
32032,21833,31201
31865,21823,31414
32308,21860,31444
32152,21840,31519
32200,21832,31629
32408,21831,31804
32440,21860,31957
32744,21851,31921
32752,21832,32030
32553,21873,32160
32064,21849,32321
32022,21828,32522
32300,21871,32670
32166,21840,32884
32440,21840,33071
32287,21830,33261
32608,21860,33492
32944,21853,33552
32816,21840,33621
32612,21831,33824
32420,21856,33956
32388,21859,34204
32250,21833,34373
32309,21834,34620
32428,21830,34764
32732,21824,34890
33006,21848,35071
33038,21840,35225
33032,21824,35471
32820,21863,35416
32480,21837,35565
32432,21819,35754
32428,21849,35898
32188,21840,36084
32432,21832,36325
32548,21828,36504
32708,21828,36639
32500,21861,36709
32740,21849,36680
32600,21841,36672
32356,21821,37084
32472,21860,37191
32484,21842,37319
32529,21828,37383
32448,21836,37471
32680,21840,37682
32828,21828,37681
32784,21868,37805
32840,21845,37892
32800,21828,37959
32656,21821,38026
32488,21853,38116
32501,21833,38188
32528,21825,38269
32621,21821,38324
32664,21846,38487
32756,21839,38454
32796,21824,38508
32777,21864,38573
32676,21850,38492
32544,21834,38740
32344,21820,38792
32396,21812,38849
32268,21826,38561
32364,21820,38660
32536,21821,38639
32660,21849,38678
32804,21835,38861
32804,21824,39001
32736,21855,39072
32644,21831,39120
32564,21812,39087
32538,21849,39204
32564,21822,39308
32608,21827,39264
32651,21840,39316
32800,21826,39228
32792,21827,39318
32672,21860,39393
32576,21837,39373
32484,21824,39288
32396,21816,39312
32192,21842,39200
32392,21841,39407
32668,21824,39412
32864,21815,39409
32936,21859,39412
32976,21825,39454
32940,21817,39446
32889,21820,39449
32720,21854,39412
32596,21833,39414
32525,21826,39320
32538,21816,39468
32560,21812,39412
32616,21853,39409
32653,21854,39485
32842,21830,39468
32729,21824,39407
32740,21812,39503
32748,21860,39453
32505,21827,39495
32360,21812,39481
32705,21846,39332
32764,21818,39290
32924,21813,39189
33084,21855,39245
33173,21835,39236
33120,21819,39140
32942,21861,39132
32844,21833,39156
32732,21824,39095
32580,21822,39153
32556,21808,39199
32604,21848,39148
32736,21833,39111
32878,21826,39185
33008,21828,39068
32972,21818,38989
32998,21862,38993
32988,21824,39050
32793,21812,39034
32716,21806,38964
32804,21839,38980
32752,21816,38905
32896,21813,38797
33040,21854,38895
33141,21845,38875
33080,21825,38816
32892,21818,38804
32808,21860,38764
32616,21830,38709
32412,21821,38569
32512,21817,38596
32856,21807,38517
32878,21821,38596
32916,21813,38559
33133,21865,38516
33184,21838,38448
33188,21816,38436
33060,21813,38304
32884,21829,38319
32768,21822,38245
32844,21805,38173
32968,21849,38252
33076,21836,38181
33144,21831,37981
33200,21814,37948
32924,21855,37885
32888,21835,37820
33060,21819,37914
32964,21817,37852
32924,21819,37784
32884,21802,37727
33000,21806,37637
33072,21833,37600
33200,21821,37557
33268,21825,37577
33180,21812,37580
33000,21810,37472
32913,21848,37404
32813,21823,37447
32686,21805,37436
32796,21805,37388
32880,21846,37348
32956,21823,37328
33240,21812,37279
33396,21846,37173
33344,21817,37261
33272,21842,37074
33060,21815,37146
32992,21847,37102
32910,21815,36791
32832,21810,36937
32856,21801,36917
32984,21830,36948
33014,21806,37012
33216,21847,36989
33040,21830,36968
32960,21817,36909
32860,21807,36756
32676,21844,36661
32592,21812,36719
32636,21808,36615
32852,21804,36607
32956,21832,36615
33082,21816,36553
33220,21844,36320
33124,21824,36365
32832,21813,36335
32852,21804,36341
32652,21842,36420
32496,21825,36326
32404,21826,36100
32604,21823,36118
32732,21813,36069
33046,21809,36136
33206,21805,35984
33078,21841,36065
32900,21818,36184
32870,21803,36204
32893,21835,35970
32736,21807,36028
32716,21798,35783
32784,21844,35756
32889,21816,35788
33000,21801,35948
33029,21841,35975
33008,21824,35870
32912,21811,35764
32856,21796,35733
32716,21784,35687
32654,21817,35676
32621,21809,35683
32671,21793,35668
32749,21846,35616
32897,21828,35600
32948,21819,35567
33021,21808,35581
33008,21855,35527
33004,21819,35498
32936,21796,35510
32928,21832,35471
33012,21809,35432
33150,21812,35398
33249,21801,35344
33420,21844,35313
33656,21816,35272
33876,21814,35181
34052,21806,35180
34244,21843,35120
34464,21813,35126
34756,21803,35248
35240,21797,35196
35796,21841,35088
36392,21808,35040
37104,21869,35052
37800,21821,35014
38468,21800,34836
39085,21868,34848
39596,21806,34836
39992,21793,34796
40052,21876,34840
39660,21824,34902
38924,21814,34917
37964,21801,34708
36912,21825,34757
35748,21808,34740
34684,21801,34700
33752,21839,34668
32928,21820,34645
32397,21804,34381
32128,21792,34340
32068,21821,34311
32100,21807,34284
32160,21796,34367
32256,21815,34473
32278,21809,34468
32212,21837,34264
32142,21814,34252
32036,21797,34277
31892,21826,34220
31802,21806,34017
31768,21792,34047
31740,21760,33896
31764,21830,33874
31876,21806,33996
31909,21804,33739
31888,21831,33745
31820,21803,33716
31680,21801,33671
31620,21822,33645
31572,21817,33565
31620,21813,33607
31736,21809,33476
31828,21810,33408
31948,21810,33487
31992,21802,33312
31928,21797,33060
31892,21800,33208
31878,21827,33094
31676,21829,33101
31612,21821,33018
31704,21805,32886
31784,21799,32868
31845,21791,32697
32014,21801,32551
31996,21836,32464
32004,21818,32313
32155,21804,32444
32092,21798,32348
31916,21807,32180
31924,21791,32164
31960,21788,32192
31940,21825,32070
32052,21815,31957
32268,21820,31751
32336,21828,31806
32324,21799,31646
32232,21804,31653
32188,21797,31517
32108,21787,31532
32088,21785,31351
32132,21781,31181
32210,21820,31057
32246,21804,30969
32404,21795,30895
32466,21830,30814
32448,21820,30917
32380,21805,30788
32332,21788,30724
32140,21823,30641
32252,21809,30634
32264,21798,30377
32372,21799,30448
32481,21794,30269
32640,21789,30292
32704,21818,30230
32676,21804,30174
32640,21793,29916
32604,21835,29870
32452,21818,29790
32448,21814,29688
32524,21799,29784
32646,21788,29719
32756,21786,29659
32924,21834,29567
32984,21821,29488
32985,21805,29428
32961,21791,29284
32900,21784,29351
32737,21828,29277
32608,21798,29206
32692,21791,29106
32848,21789,28952
32976,21791,28836
33124,21797,28897
33156,21793,28804
33160,21789,28774
33104,21808,28674
33016,21805,28500
32876,21796,28444
32704,21784,28532
32908,21834,28461
33036,21824,28352
33156,21811,28360
33349,21805,28217
33472,21811,28069
33436,21803,28013
33340,21790,27970
33248,21826,28038
33144,21820,27910
33081,21797,27944
33116,21801,27700
33168,21793,27711
33284,21801,27692
33436,21796,27705
33488,21802,27601
33412,21804,27495
33296,21797,27557
33192,21834,27468
33010,21825,27271
32940,21813,27247
32948,21808,27172
32984,21796,27277
33064,21796,27230
33212,21830,27157
33280,21820,27036
33240,21817,27092
33148,21806,27013
33020,21798,26844
32832,21788,26941
32692,21799,26861
32684,21790,26686
32708,21830,26692
32752,21809,26766
32840,21806,26701
32828,21800,26631
32756,21840,26628
32648,21821,26623
32533,21807,26466
32388,21797,26347
32296,21833,26359
32284,21822,26452
32288,21802,26372
32340,21797,26278
32464,21837,26345
32484,21831,26117
32396,21805,26128
32268,21800,26124
32124,21833,26200
31948,21812,26164
31868,21804,26117
31884,21828,26032
31960,21821,26072
32021,21808,26020
32120,21797,25958
32164,21799,25911
32132,21801,25876
32124,21829,25893
32086,21806,25834
32000,21799,25802
31920,21792,25857
31904,21818,25843
31992,21816,25698
32080,21804,25664
32216,21807,25620
32328,21801,25614
32320,21796,25648
32292,21798,25717
32269,21833,25673
32202,21824,25612
32132,21812,25666
32192,21808,25494
32296,21799,25497
32414,21796,25596
32556,21799,25554
32608,21796,25522
32561,21841,25479
32496,21824,25445
32412,21798,25432
32324,21800,25432
32252,21788,25442
32284,21826,25425
32328,21814,25384
32416,21805,25360
32580,21817,25332
32640,21801,25372
32638,21795,25412
32580,21828,25274
32504,21811,25261
32356,21801,25209
32300,21785,25236
32353,21822,25174
32408,21814,25196
32520,21809,25248
32656,21807,25329
32684,21796,25316
32645,21792,25286
32532,21791,25318
32508,21787,25274
32452,21818,25141
32444,21804,25145
32480,21796,25186
32528,21797,25308
32608,21796,25237
32721,21788,25236
32764,21806,25305
32684,21802,25340
32534,21802,25189
32428,21788,25189
32378,21786,25252
32388,21783,25334
32416,21783,25357
32493,21781,25316
32612,21788,25252
32760,21831,25400
32808,21830,25390
32913,21809,25358
32844,21797,25434
32708,21799,25316
32553,21788,25377
32464,21786,25489
32504,21783,25484
32538,21789,25454
32522,21788,25565
32752,21790,25402
32964,21830,25452
32796,21828,25542
32744,21805,25657
32740,21804,25673
32604,21796,25629
32394,21794,25741
32432,21790,25684
32292,21784,25666
32432,21793,25846
32700,21799,25847
32862,21797,25846
32868,21787,25921
32748,21777,25852
32560,21819,25945
32460,21814,26079
32452,21794,26095
32314,21785,26090
32360,21780,26127
32524,21818,26232
32676,21812,26308
32688,21797,26186
32620,21796,26314
32493,21779,26468
32372,21817,26497
32349,21800,26560
32400,21792,26588
32284,21796,26562
32640,21777,26656
32680,21822,26816
32764,21813,26836
32560,21798,26938
32584,21794,27033
32484,21791,27001
32500,21781,26996
32604,21776,27061
32304,21809,27143
32788,21796,27264
32585,21781,27436
32148,21781,27482
32616,21783,27514
32732,21783,27692
32836,21819,27777
32620,21790,27876
32536,21778,27960
32392,21812,28029
32286,21780,28163
32437,21770,28281
32640,21812,28198
32521,21810,28311
32800,21802,28462
32800,21799,28701
32576,21788,28729
32636,21776,28918
32652,21783,29025
32524,21778,29038
32568,21770,29329
32636,21781,29397
32624,21792,29607
32596,21797,29638
32780,21785,29724
32941,21782,30035
32920,21781,30109
32772,21775,30217
32320,21819,30517
32540,21810,30535
32492,21791,30627
32532,21780,30765
32496,21776,30908
32668,21775,31061
32668,21806,31180
32532,21788,31333
32392,21778,31489
32384,21776,31641
32685,21812,31972
32692,21799,31932
32676,21781,32276
32540,21779,32430
32584,21772,32576
32444,21774,32693
32604,21743,32864
32864,21818,33105
32832,21797,33273
32900,21792,33295
32704,21780,33372
32536,21779,33415
32464,21770,33764
32533,21764,33932
32768,21810,34071
32740,21791,34210
32712,21778,34360
32858,21794,34487
32688,21771,34628
32880,21776,34727
32836,21815,34848
32601,21791,35101
32546,21773,35227
32608,21767,35274
32608,21767,35281
32536,21812,35374
32568,21813,35599
32485,21811,35705
32640,21799,35719
32709,21782,35808
32612,21775,35940
32648,21762,36065
32536,21788,36180
32600,21777,36246
32628,21774,36332
32528,21814,36455
32712,21792,36524
32760,21783,36612
32716,21778,36672
32716,21788,36732
32656,21777,36792
32456,21764,36868
32388,21805,36913
32456,21794,36965
32677,21772,36949
32762,21769,36980
32958,21772,37058
32976,21805,37097
32876,21782,37196
32728,21785,37388
32486,21772,37460
32472,21763,37460
32542,21801,37526
32608,21788,37564
32704,21775,37536
32708,21775,37591
32896,21766,37639
33006,21805,37700
32776,21787,37752
32484,21772,37756
32324,21767,37576
32140,21798,37668
32380,21788,37617
32440,21780,37734
32328,21766,37756
32676,21769,37749
32660,21772,37686
32826,21767,37943
32704,21785,37877
32648,21780,37984
32648,21767,37969
32452,21763,37956
32644,21764,37829
32800,21757,37902
32660,21812,37926
32876,21805,37894
33073,21809,38020
32928,21801,38057
32784,21810,37957
32648,21795,37895
32464,21789,37664
32204,21776,37958
32168,21775,37933
32088,21778,37909
32356,21766,37895
32536,21764,37816
32568,21804,37895
32604,21793,37882
32826,21776,37815
32560,21785,37981
32368,21782,37936
32284,21763,37876
32257,21756,37807
32324,21796,37866
32389,21773,37857
32424,21767,37856
32864,21765,37853
32836,21757,37782
32756,21767,37892
32609,21764,37895
32520,21759,37740
32365,21753,37780
32364,21755,37743
32388,21754,37867
32368,21796,37713
32652,21778,37436
32680,21779,37711
32842,21761,37671
32908,21801,37556
32832,21782,37764
32740,21772,37710
32564,21755,37724
32424,21795,37570
32412,21794,37350
32544,21795,37556
32632,21779,37443
32712,21772,37602
32792,21767,37581
32737,21762,37540
32692,21762,37478
32652,21796,37453
32660,21787,37348
32712,21779,37264
32640,21777,37040
32630,21775,37030
32756,21774,37252
32749,21765,37220
32937,21767,37193
33080,21763,37121
33244,21801,37092
33201,21782,37085
33383,21774,37046
33616,21762,37012
33988,21762,36904
34374,21814,37044
34888,21800,37069
35380,21809,36853
35824,21820,36904
36516,21821,36852
37032,21820,36918
37472,21807,36904
38068,21809,36704
38628,21820,36487
39156,21823,36708
39868,21832,36615
40122,21839,36773
39804,21828,36660
38948,21759,36501
37728,21758,36580
36290,21819,36580
34985,21756,36412
33756,21754,36607
32676,21748,36392
32504,21756,36445
32180,21798,36426
32208,21793,36306
32118,21800,36472
32156,21797,36336
32124,21791,36193
32016,21793,36294
31861,21794,36238
31672,21789,36244
31652,21751,36188
31632,21752,36103
31712,21755,36023
31844,21752,36125
31800,21794,35866
32060,21757,36083
32028,21755,36008
31856,21752,35967
31768,21789,35925
31628,21780,35897
31508,21775,35812
31576,21772,35937
31284,21773,35888
31620,21772,35920
31849,21763,35868
32044,21766,35876
32196,21759,35791
32184,21756,35697
31968,21750,35596
31680,21754,35645
31508,21746,35607
31640,21748,35522
31684,21749,35537
31780,21748,35469
31965,21757,35207
31784,21755,35429
31996,21787,35398
32120,21766,35365
31936,21764,35328
31856,21748,35038
31916,21740,35256
31831,21744,35127
31884,21758,35255
32012,21759,35036
32172,21760,34862
32234,21758,35049
32252,21767,34989
32184,21761,34924
32132,21750,34880
31988,21747,34845
31748,21737,34932
32132,21777,34882
32256,21776,34780
32364,21762,34670
32456,21767,34434
32479,21761,34588
32400,21759,34429
32420,21758,34524
32388,21759,34504
32280,21749,34386
32196,21740,34264
32280,21768,34160
32334,21760,34112
32314,21756,33941
32552,21748,34092
32856,21792,34055
32788,21782,33972
32728,21764,33821
32564,21775,33920
32480,21780,33630
32126,21774,33752
32464,21780,33641
32524,21765,33543
32480,21763,33671
32652,21761,33568
32864,21760,33388
33008,21745,33329
33000,21740,33175
32956,21744,33334
32780,21740,33230
32736,21724,33110
32812,21782,33192
32912,21780,33159
33064,21767,32942
33208,21762,33002
33292,21760,32857
33240,21763,32960
33165,21748,32732
33164,21778,32646
33052,21765,32516
33036,21745,32668
