ECG,EDA,RR
33268,43476,41223
33237,43499,41041
33188,43500,41095
33173,43469,41077
33204,43527,40928
33232,43527,40981
33292,43464,40944
33292,43510,40783
33317,43506,40867
33332,43511,40802
33324,43511,40791
33354,43511,40733
33332,43518,40591
33320,43524,40615
33292,43527,40597
33308,43527,40420
33352,43527,40488
33359,43527,40422
33437,43516,40412
33440,43524,40231
33448,43525,40288
33432,43527,40260
33452,43517,40175
33420,43541,40063
33424,43565,40013
33380,43561,40055
33319,43551,39985
33204,43503,39974
32980,43540,39900
32696,43543,39812
32413,43543,39701
32093,43551,39669
31944,43562,39711
31952,43570,39629
32217,43517,39573
32397,43581,39500
32785,43567,39385
33336,43527,39431
34165,43572,39366
35000,43559,39276
35996,43556,39161
36980,43568,39124
38068,43572,39156
39188,43591,39078
40264,43585,39007
41164,43573,38973
41524,43584,38849
41120,43589,38751
39956,43593,38726
38356,43590,38716
37048,43604,38658
35948,43611,38527
35044,43612,38468
34324,43623,38461
33980,43644,38386
33948,43629,38331
33912,43631,38269
33768,43621,38197
33422,43572,38122
33104,43609,38017
32872,43599,37935
32700,43620,37881
32516,43623,37862
32349,43628,37791
32225,43593,37703
32111,43647,37615
32008,43654,37560
31944,43631,37452
31944,43629,37367
31932,43572,37308
31900,43620,37234
31896,43590,37117
31896,43647,37083
31852,43653,36997
31836,43655,36919
31884,43665,36804
31881,43655,36725
31868,43655,36676
31901,43642,36599
31908,43642,36503
31940,43653,36405
31912,43655,36356
31920,43619,36284
31924,43665,36212
31956,43655,36137
32040,43679,36045
32016,43607,35966
32048,43668,35892
32100,43655,35820
32074,43663,35738
32064,43655,35676
32056,43645,35573
32008,43685,35510
32021,43684,35449
32044,43637,35345
32096,43701,35295
32156,43687,35215
32168,43684,35168
32210,43674,35063
32272,43679,35003
32261,43676,34930
32252,43687,34856
32252,43701,34823
32240,43703,34732
32236,43719,34632
32218,43711,34567
32236,43701,34502
32220,43641,34453
32224,43695,34395
32256,43687,34324
32248,43685,34260
32256,43709,34192
32248,43717,34132
32308,43711,34070
32288,43719,34076
32268,43724,33951
32264,43703,33908
32316,43713,33924
32380,43709,33799
32440,43708,33769
32472,43711,33724
32532,43704,33733
32592,43717,33609
32576,43741,33598
32484,43741,33585
32524,43733,33476
32549,43726,33465
32572,43719,33412
32632,43716,33457
32636,43719,33320
32672,43718,33287
32678,43727,33324
32677,43740,33198
32741,43735,33188
32824,43745,33149
32872,43747,33167
32886,43687,33042
32916,43738,33010
32988,43735,32951
33016,43728,32932
33044,43708,32967
33080,43743,32805
33108,43750,32805
33117,43757,32729
33176,43713,32764
33180,43763,32620
33212,43751,32608
33204,43751,32663
33212,43735,32560
33232,43743,32441
33232,43703,32447
33273,43751,32404
33309,43751,32365
33308,43773,32319
33376,43743,32247
33408,43767,32325
33476,43765,32159
33492,43757,32154
33496,43757,32081
33530,43700,32167
33524,43759,31977
33508,43759,31965
33540,43770,31945
33516,43773,31943
33484,43783,31965
33464,43778,31943
33477,43774,31762
33470,43766,31751
33484,43765,31751
33464,43719,31695
33480,43751,31751
33484,43765,31636
33441,43772,31597
33414,43732,31711
33404,43783,31564
33400,43783,31535
33396,43783,31576
33404,43739,31484
33360,43765,31508
33360,43731,31477
33300,43767,31439
33224,43775,31518
33216,43741,31376
33187,43783,31385
33164,43792,31412
33104,43759,31408
33036,43797,31489
32940,43732,31478
32884,43769,31316
32848,43783,31333
32800,43776,31348
32696,43781,31431
32624,43797,31332
32512,43805,31327
32429,43804,31338
32344,43812,31312
32252,43769,31316
32248,43799,31328
32229,43797,31407
32184,43772,31239
32132,43765,31263
32056,43797,31295
31956,43805,31277
31972,43810,31239
31966,43813,31334
31972,43815,31367
32030,43813,31287
32040,43805,31351
32052,43801,31209
32000,43796,31276
31972,43783,31239
31946,43780,31256
31916,43812,31399
31876,43823,31220
31836,43823,31218
31804,43831,31228
31792,43819,31236
31753,43797,31249
31724,43805,31317
31804,43796,31289
31800,43801,31383
31744,43766,31334
31724,43823,31326
31740,43822,31300
31726,43834,31452
31700,43783,31301
31736,43823,31367
31736,43825,31335
31732,43815,31348
31781,43811,31477
31776,43805,31426
31801,43813,31372
31808,43820,31404
31817,43824,31399
31823,43825,31468
31837,43823,31445
31896,43825,31542
31924,43817,31436
31940,43815,31435
31973,43815,31580
31992,43805,31444
32004,43820,31490
32058,43805,31495
32032,43836,31584
32044,43844,31602
32066,43821,31508
32120,43839,31524
32148,43825,31509
32172,43761,31622
32220,43783,31495
32280,43823,31561
32289,43823,31533
32320,43822,31645
32340,43846,31652
32408,43843,31532
32444,43845,31568
32465,43828,31686
32444,43826,31575
32476,43823,31588
32444,43757,31618
32452,43819,31581
32428,43822,31554
32429,43835,31683
32432,43783,31588
32424,43853,31677
32424,43839,31556
32460,43837,31558
32468,43839,31693
32484,43783,31552
32508,43812,31591
32468,43831,31610
32404,43831,31669
32368,43832,31532
32396,43846,31529
32348,43861,31628
32372,43796,31545
32416,43847,31520
32400,43833,31610
32388,43830,31476
32372,43823,31529
32388,43807,31511
32404,43839,31551
32380,43834,31501
32396,43845,31463
32420,43831,31578
32448,43853,31421
32500,43855,31463
32510,43829,31453
32504,43830,31445
32520,43824,31439
32524,43833,31411
32536,43839,31524
32468,43844,31351
32492,43855,31411
32536,43863,31341
32564,43856,31432
32636,43847,31343
32684,43844,31331
32612,43839,31340
32686,43831,31367
32748,43783,31399
32748,43847,31277
32712,43852,31261
32692,43863,31407
32704,43874,31218
32722,43856,31265
32732,43863,31262
32804,43860,31225
32812,43848,31237
32868,43852,31188
32900,43820,31232
32964,43847,31196
32996,43868,31175
32933,43871,31225
32988,43825,31160
32976,43881,31109
32986,43868,31192
33002,43869,31087
33040,43852,31062
33028,43855,31161
33056,43844,31009
33045,43871,31065
33037,43873,31109
32988,43884,30971
32964,43885,30999
32996,43831,30972
32980,43887,31094
32977,43873,30945
33012,43863,30917
33000,43866,31053
32992,43821,30856
32988,43837,30884
32960,43893,31012
32932,43895,30812
32924,43909,30841
32933,43853,30839
32892,43887,30846
32872,43876,30885
32833,43885,30764
32821,43868,30809
32860,43879,30692
32810,43877,30737
32808,43893,30788
32784,43908,30640
32716,43911,30653
32624,43861,30796
32684,43908,30663
32684,43903,30575
32708,43837,30589
32720,43893,30604
32784,43887,30567
32816,43860,30664
32836,43911,30500
32900,43911,30519
32876,43924,30483
32892,43901,30569
32869,43918,30503
32925,43911,30406
32900,43911,30388
32948,43908,30500
33025,43900,30519
33088,43911,30302
33052,43921,30349
33068,43925,30330
33104,43908,30435
33116,43927,30223
33132,43924,30206
33192,43869,30281
33256,43911,30220
33288,43911,30242
33248,43911,30342
33196,43903,30139
33152,43931,30175
33102,43932,30286
33060,43943,30094
33056,43941,30114
33036,43879,30186
32990,43911,30121
32945,43921,30086
32912,43927,30215
32940,43911,30000
32896,43927,30044
32912,43943,30028
32916,43949,30142
32864,43955,30084
32905,43940,29982
32928,43940,29997
32872,43911,30036
32869,43933,30108
32912,43929,29951
32892,43925,29892
32896,43941,29900
32874,43949,29966
32821,43949,29919
32804,43961,29903
32808,43927,29956
32784,43951,30057
32825,43955,29957
32842,43949,29826
32825,43940,29830
32857,43911,29899
32813,43949,29887
32804,43937,29853
32760,43966,29895
32752,43972,29932
32613,43973,29969
32408,43966,29852
32109,43911,29785
31768,43959,29860
31472,43959,29877
31360,43957,29815
31497,43956,29847
31756,43927,29986
32020,43972,29831
32429,43932,29778
33064,43983,29785
33768,43948,29831
34636,43976,29836
35778,43960,29913
37000,43967,29933
38244,43965,29908
39705,43967,29885
41364,43969,29870
42656,43975,29851
43360,43963,29904
43140,43980,29973
41862,43983,29989
40192,43986,29923
38860,43956,29897
37416,43981,29792
36021,43990,29793
34972,43999,29796
34368,44007,29856
34140,44006,29865
33916,44017,29789
33588,44011,29847
33268,44007,29855
32956,44004,29839
32672,43992,29917
32384,43988,29815
32124,43981,29813
31949,44003,29821
31844,44009,29812
31750,44007,29900
31712,44009,29721
31716,43967,29788
31756,44005,29756
31760,43999,29919
31688,43964,29689
31672,43988,29775
31696,43998,29730
31670,43984,29787
31652,44007,29853
31668,44015,29700
31612,44023,29676
31648,44013,29692
31697,44015,29743
31708,43997,29733
31746,43995,29731
31696,43995,29803
31809,43989,29831
31848,43999,29796
31900,43972,29695
31960,44007,29736
31984,43943,29727
32034,44005,29751
32080,44002,29877
32145,43977,29880
32176,43951,29876
32157,43991,29669
32173,43980,29691
32184,43967,29767
32184,43996,29721
32284,43975,29732
32324,44004,29839
32344,43964,29877
32384,43992,29733
32412,43979,29662
32420,43983,29671
32460,43988,29736
32428,44001,29703
32416,43984,29725
32436,43968,29839
32412,44013,29766
32442,44004,29798
32444,44005,29831
32468,44001,29769
32500,43992,29681
32532,43996,29612
32532,43976,29676
32547,43989,29687
32572,43975,29664
32544,44000,29693
32546,44007,29655
32496,44005,29638
32500,43951,29638
32560,43998,29676
32676,43943,29732
32764,43984,29749
32832,43987,29575
32868,43989,29683
32832,43986,29673
32833,44007,29809
32844,44017,29580
32836,44007,29689
32824,44011,29658
32832,44005,29741
32876,43995,29808
32884,43965,29803
32892,43980,29582
32940,43989,29629
33008,44004,29687
33057,43999,29644
33061,44010,29741
33072,44013,29677
33124,44007,29583
33152,43956,29648
33214,43997,29628
33216,43988,29788
33220,43953,29564
33304,43989,29666
33296,43997,29635
33284,44007,29652
33369,44007,29776
33456,44019,29577
33413,44017,29636
33436,44007,29620
33524,43980,29637
33576,43988,29754
33596,43988,29522
33612,43999,29541
33602,43996,29593
33633,43972,29621
33668,44016,29703
33636,44020,29508
33648,44007,29572
33644,44005,29554
33657,44001,29703
33644,43959,29498
33656,44005,29592
33660,43995,29548
33600,43941,29685
33592,44007,29578
33537,44009,29511
33513,44013,29551
33520,43975,29607
33489,44007,29649
33500,43996,29529
33517,43941,29567
33530,43986,29575
33508,44001,29653
33488,44007,29711
33424,44020,29545
33428,44012,29494
33440,44012,29596
33345,44004,29588
33320,44004,29551
33272,44015,29575
33220,43980,29604
33212,44002,29711
33149,43994,29748
33048,44013,29609
32992,44015,29593
32897,44029,29561
32848,44016,29581
32808,44031,29663
32756,44018,29681
32700,44010,29713
32624,44001,29719
32559,44003,29727
32548,44007,29703
32401,44013,29732
32396,44013,29797
32272,44028,29900
32148,44031,29881
32096,44018,29709
32096,44012,29796
32012,44013,29829
31968,43993,29828
31924,43995,29976
31920,43941,29984
31892,44007,29876
31904,43957,29981
31941,44023,29943
31840,43968,30005
31829,44013,29989
31832,43985,29863
31836,44007,29942
31849,43994,29967
31884,43999,29988
31844,43990,30089
31856,44011,30180
31852,44012,30197
31730,44020,30002
31700,43975,30052
31746,44023,30141
31768,44004,30137
31852,43941,30301
31920,43997,30308
31980,43989,30332
32017,43996,30276
32008,44001,30215
32032,44006,30212
32068,44002,30257
32064,44017,30329
32068,44002,30373
32088,44007,30357
32154,43992,30396
32222,43988,30466
32236,43991,30534
32220,43932,30589
32264,43993,30629
32229,44012,30588
32252,44015,30549
32277,44009,30517
32254,44001,30522
32376,44004,30580
32433,43951,30644
32429,43980,30667
32448,43981,30644
32456,43989,30668
32466,43993,30727
32436,44007,30711
32476,44013,30780
32516,44007,30839
32516,43957,30869
32516,43999,30895
32517,43947,30893
32524,43969,30900
32544,43945,30907
32568,43972,30921
32558,43959,30977
32568,43996,31023
32560,43999,31010
32561,43996,31085
32637,43998,31055
32650,43991,31084
32678,43963,31121
32694,43972,31148
32698,43932,31217
32690,43972,31212
32764,43983,31223
32804,43983,31271
32800,43941,31297
32804,43997,31440
32800,43987,31390
32792,43981,31321
32808,43972,31355
32842,43967,31415
32844,43965,31408
32844,43957,31437
32804,43967,31520
32756,43972,31572
32733,43981,31475
32704,43988,31462
32712,43986,31511
32706,43975,31556
32744,43960,31573
32812,43895,31580
32824,43948,31589
32917,43958,31588
32944,43967,31591
32908,43972,31606
32848,43981,31628
32884,43975,31650
32912,43973,31655
32968,43967,31709
33040,43959,31776
33128,43901,31851
33120,43933,31872
33145,43943,31885
33116,43936,31895
33116,43948,31858
33138,43948,31829
33144,43967,31798
33145,43953,31817
33176,43964,31823
33184,43945,31869
33196,43911,31901
33224,43929,31911
33192,43879,31925
33184,43933,31921
33180,43959,31908
33128,43957,31928
33088,43957,31943
33064,43947,31975
33081,43893,31991
33080,43927,31975
33089,43921,31984
33104,43927,31981
33064,43925,31999
33036,43933,32020
33052,43927,32036
33080,43927,32068
33100,43941,32066
33096,43908,32053
33104,43918,32087
33089,43885,32127
33117,43903,32157
33138,43869,32165
33175,43911,32183
33152,43911,32232
33108,43921,32233
33049,43924,32143
33004,43871,32132
32984,43911,32156
33000,43905,32185
33020,43911,32213
33060,43900,32193
33057,43888,32210
33046,43886,32321
33036,43908,32349
33020,43905,32255
32982,43911,32237
32972,43911,32271
32952,43911,32309
32944,43895,32304
32908,43894,32303
32920,43871,32351
32944,43879,32453
32974,43880,32385
32980,43887,32343
33000,43895,32373
32936,43901,32412
32956,43898,32457
33020,43871,32466
33053,43892,32484
33025,43825,32516
33037,43865,32593
32992,43876,32644
32884,43879,32670
32864,43879,32701
32820,43885,32733
32777,43841,32772
32800,43877,32788
32764,43877,32821
32756,43876,32879
32760,43875,32884
32776,43815,32900
32764,43860,32951
32736,43847,33046
32708,43869,33095
32700,43847,33133
32721,43878,33188
32776,43869,33181
32826,43879,33252
32864,43876,33333
32892,43871,33380
32840,43855,33488
32820,43857,33571
32775,43855,33639
32744,43869,33701
32752,43879,33748
32766,43871,33815
32788,43874,33892
32758,43831,33985
32732,43855,34095
32704,43852,34198
32800,43839,34277
32904,43846,34352
32980,43834,34432
33009,43804,34517
32980,43852,34591
32900,43855,34629
32828,43861,34721
32829,43831,34807
32776,43847,34885
32732,43847,34992
32720,43820,35101
32706,43838,35159
32672,43823,35263
32684,43829,35372
32652,43846,35436
32648,43833,35508
32624,43855,35607
32608,43773,35708
32628,43843,35792
32621,43821,35889
32581,43815,35967
32582,43815,36060
32592,43822,36138
32564,43820,36231
32492,43831,36301
32457,43831,36383
32472,43773,36460
32516,43823,36567
32520,43820,36653
32524,43783,36729
32500,43804,36815
32616,43801,36888
32682,43783,36953
32714,43783,37017
32712,43815,37088
32688,43770,37148
32640,43815,37280
32596,43812,37356
32448,43812,37430
32216,43751,37473
31936,43783,37547
31652,43803,37655
31388,43799,37735
31324,43804,37812
31480,43815,37840
31720,43816,37956
32005,43812,37977
32320,43813,38097
33008,43809,38174
33748,43799,38239
34559,43783,38308
35584,43783,38372
36696,43783,38436
37820,43788,38511
39112,43791,38591
40568,43776,38660
41728,43804,38660
42212,43783,38804
41756,43783,38866
40400,43783,38939
38756,43783,39009
37541,43783,39053
36248,43799,39049
34921,43797,39121
33985,43805,39279
33588,43809,39316
33496,43816,39385
33453,43797,39431
33200,43805,39424
32880,43783,39495
32612,43773,39639
32412,43737,39672
32128,43781,39736
31868,43783,39700
31668,43783,39753
31552,43797,39840
31468,43767,39957
31497,43807,39994
31484,43780,40009
31468,43780,40020
31384,43764,40159
31340,43758,40181
31348,43711,40215
31359,43772,40286
31401,43765,40255
31413,43783,40263
31476,43783,40388
31541,43783,40424
31588,43779,40455
31584,43764,40525
31596,43758,40510
31616,43748,40455
31614,43741,40528
31636,43757,40663
31660,43703,40660
31640,43767,40695
31701,43713,40748
31700,43759,40769
31729,43757,40695
31760,43751,40705
31809,43741,40733
31836,43743,40797
31876,43747,40906
31862,43707,40903
31900,43741,40948
31953,43753,40903
31965,43732,40865
32000,43748,40988
32040,43701,41004
32046,43738,41001
32024,43733,40993
32076,43708,40997
32158,43720,41055
32184,43735,40992
32182,43745,40896
32190,43741,40919
32240,43751,40920
32256,43749,41030
32260,43695,40997
32292,43719,41007
32332,43720,40978
32380,43687,40877
32408,43724,40868
32420,43717,40844
32476,43735,40832
32480,43747,40839
32489,43749,40813
32476,43733,40839
32540,43725,40792
32572,43719,40813
32588,43669,40898
32593,43709,40892
32624,43716,40853
32672,43719,40831
32620,43724,40823
32620,43724,40807
32580,43727,40805
32565,43679,40807
32620,43715,40762
32640,43716,40631
32696,43692,40613
32721,43693,40607
32756,43700,40691
32760,43715,40665
32756,43716,40607
32764,43716,40596
32752,43713,40583
32800,43655,40534
32824,43711,40516
32828,43655,40454
32845,43693,40415
32910,43667,40411
32876,43685,40327
32906,43644,40252
32980,43697,40212
33020,43717,40181
33053,43721,40252
33124,43715,40221
33206,43701,40186
33245,43703,40128
33296,43687,40124
33372,43631,40100
33412,43687,40036
33444,43689,39943
33408,43655,39869
33436,43711,39852
33484,43710,39911
33444,43653,39860
33526,43709,39812
33562,43685,39813
33484,43679,39708
33493,43636,39636
33540,43680,39622
33540,43687,39644
33528,43700,39620
33509,43649,39599
33492,43707,39485
33484,43700,39428
33522,43684,39404
33509,43687,39460
33544,43685,39399
33568,43677,39370
33564,43679,39276
33580,43679,39284
33560,43700,39263
33492,43701,39175
33472,43709,39173
33488,43702,39148
33488,43711,39054
33432,43687,39090
33380,43673,39030
33244,43686,38998
33232,43655,38941
33140,43701,38916
33052,43701,38846
33044,43711,38751
32976,43715,38780
32872,43709,38705
32825,43695,38676
32740,43671,38617
32692,43700,38493
32636,43684,38436
32585,43693,38404
32496,43709,38396
32417,43705,38328
32336,43716,38268
32284,43724,38205
32276,43724,38150
32248,43655,38063
32249,43710,37976
32200,43703,37952
32160,43695,37903
32132,43655,37826
32160,43706,37758
32158,43655,37689
32108,43735,37572
32064,43735,37527
32028,43681,37509
32024,43721,37430
32008,43719,37377
32028,43655,37302
32048,43707,37228
32052,43719,37147
32036,43731,37079
32008,43741,37012
32004,43751,36944
32012,43737,36903
32000,43741,36836
32025,43700,36780
32024,43735,36711
32068,43732,36655
32132,43728,36583
32080,43727,36524
32148,43743,36457
32136,43759,36389
32196,43759,36328
32184,43756,36263
32188,43759,36195
32192,43759,36137
32236,43754,36024
32284,43748,36007
32302,43740,35948
32308,43759,35876
32281,43760,35830
32304,43745,35773
32361,43783,35708
32373,43783,35644
32404,43778,35598
32440,43731,35527
32480,43763,35460
32548,43711,35397
32588,43772,35335
32620,43773,35295
32636,43783,35232
32636,43749,35175
32656,43815,35125
32660,43812,35097
32680,43809,35012
32700,43799,34956
32729,43759,34904
32764,43801,34860
32733,43755,34796
32764,43806,34737
32736,43775,34705
32681,43814,34686
32644,43782,34624
32664,43844,34534
32596,43831,34495
32632,43834,34445
32629,43831,34439
32600,43815,34388
32576,43821,34308
32588,43775,34239
32584,43836,34205
32564,43805,34159
32536,43853,34090
32540,43871,34060
32568,43871,34062
32576,43865,33943
32596,43851,33922
32671,43863,33864
32685,43855,33799
32716,43812,33753
32700,43879,33757
32724,43885,33722
32712,43855,33604
32712,43894,33552
32705,43903,33495
32742,43844,33495
32744,43884,33481
32744,43879,33428
32796,43903,33380
32776,43903,33334
32737,43911,33261
32728,43925,33116
32676,43926,33078
32686,43876,33053
32697,43933,33002
32748,43949,32997
32728,43892,32890
32724,43935,32884
32750,43876,32839
32760,43941,32762
32733,43948,32820
32737,43965,32756
32712,43969,32620
32744,43983,32608
32796,43984,32583
32718,43976,32503
32688,43969,32505
32640,43924,32519
32644,43977,32373
32661,43940,32337
32612,43995,32324
32600,43992,32293
32536,44007,32235
32556,43969,32258
32566,44031,32205
32574,43981,32238
32614,44019,32135
32608,44020,32180
32608,44029,31988
32650,43968,32001
32630,44039,31940
32588,44039,32050
32584,44060,31969
32620,44068,31897
32644,44079,31794
32600,44064,31772
32604,44073,31780
32620,44079,31751
32612,44068,31741
32633,44084,31711
32612,44093,31671
32569,44102,31615
32504,44125,31604
32504,44127,31596
32476,44128,31679
32497,44124,31655
32485,44126,31540
32465,44125,31428
32356,44140,31438
32344,44135,31445
32292,44143,31413
32225,44152,31396
32184,44151,31351
32208,44185,31302
32236,44167,31264
32279,44181,31267
32322,44156,31273
32392,44183,31342
32452,44191,31295
32424,44197,31153
32456,44214,31117
32460,44217,31133
32504,44193,31111
32536,44245,31103
32585,44252,31042
32588,44259,31031
32592,44247,31129
32628,44256,30919
32588,44261,30942
32554,44263,30941
32501,44231,30902
32512,44284,30933
32540,44308,30949
32536,44316,30981
32588,44321,30940
32584,44316,30885
32613,44263,30863
32676,44317,30901
32720,44325,30853
32700,44335,30679
32662,44357,30702
32606,44367,30705
32532,44375,30680
32496,44348,30800
32448,44389,30629
32384,44333,30694
32352,44391,30555
32317,44383,30543
32356,44397,30570
32372,44356,30596
32368,44423,30531
32336,44379,30565
32368,44445,30663
32400,44457,30434
32440,44461,30517
32428,44468,30471
32416,44415,30565
32416,44455,30385
32440,44469,30445
32420,44482,30407
32448,44497,30529
32432,44517,30523
32420,44529,30303
32404,44533,30335
32368,44535,30369
32396,44532,30357
32348,44519,30301
32360,44541,30295
32375,44515,30351
32380,44551,30416
32356,44575,30418
32332,44589,30365
32301,44598,30335
32289,44575,30270
32224,44604,30269
32028,44631,30273
31785,44622,30369
31574,44629,30242
31224,44637,30117
30968,44623,30140
30908,44660,30149
30960,44630,30213
31216,44695,30173
31476,44703,30153
31893,44703,30175
32656,44700,30300
33468,44709,30268
34520,44711,30116
35652,44663,30078
36788,44718,30148
38016,44740,30097
39408,44761,30127
40952,44765,30183
42168,44772,30081
42672,44767,29989
42200,44773,30024
40672,44797,29992
39008,44806,29965
37696,44807,30022
36208,44807,30063
34904,44847,30017
34036,44805,30008
33656,44871,30045
33528,44887,30124
33333,44886,29986
32960,44892,30004
32637,44884,30026
32288,44884,29973
31985,44853,30004
31792,44893,30035
31580,44862,29997
31400,44935,29883
31289,44956,29924
31232,44967,29916
31212,44960,29911
31188,44967,29955
31152,44964,29798
31164,44967,29844
31136,44980,29829
31115,44989,29857
31100,45019,29842
31116,45024,29807
31120,45031,29828
31108,45055,29839
31116,45044,29937
31148,45059,29743
31122,45044,29655
31120,45047,29647
31144,45063,29788
31157,45011,29734
31145,45079,29594
31208,45060,29652
31228,45109,29703
31280,45119,29657
31356,45139,29663
31328,45127,29792
31329,45100,29676
31413,45124,29527
31468,45151,29575
31476,45125,29627
31454,45172,29569
31452,45188,29687
31429,45173,29716
31468,45215,29473
31520,45223,29407
31584,45215,29428
31620,45215,29469
31632,45191,29469
31638,45223,29434
31632,45245,29396
31628,45255,29357
31656,45287,29319
31648,45287,29290
31671,45303,29292
31716,45295,29325
31721,45287,29388
31736,45295,29351
31800,45297,29340
31824,45308,29332
31857,45319,29418
31884,45332,29401
31904,45319,29237
31944,45356,29273
31997,45383,29333
31988,45388,29358
32021,45381,29349
32052,45391,29343
32032,45383,29360
32000,45397,29492
32024,45406,29292
32036,45409,29317
32110,45439,29367
32072,45405,29356
32032,45463,29421
32006,45468,29513
32065,45463,29533
32084,45454,29535
32196,45468,29476
32289,45469,29354
32344,45489,29353
32364,45447,29523
32404,45507,29536
32389,45469,29556
32413,45525,29543
32332,45551,29461
32380,45551,29287
32408,45551,29289
32432,45519,29382
32444,45551,29414
32424,45551,29388
32416,45575,29387
32372,45536,29468
32398,45607,29413
32432,45575,29377
32464,45620,29375
32472,45617,29369
32544,45621,29359
32592,45630,29375
32589,45639,29360
32660,45645,29365
32662,45656,29402
32668,45671,29360
32705,45684,29367
32708,45684,29380
32672,45692,29353
32672,45697,29341
32761,45703,29373
32768,45645,29457
32772,45698,29500
32784,45711,29319
32770,45740,29233
32772,45744,29223
32822,45693,29279
32782,45763,29337
32788,45765,29346
32754,45773,29341
32788,45718,29332
32796,45757,29326
32792,45749,29337
32814,45783,29284
32788,45805,29249
32752,45812,29327
32758,45767,29286
32714,45831,29280
32676,45844,29315
32668,45853,29341
32660,45831,29375
32592,45839,29353
32580,45783,29302
32500,45853,29326
32416,45878,29316
32380,45889,29255
32365,45903,29244
32330,45847,29328
32276,45909,29335
32264,45913,29404
32204,45889,29533
32172,45917,29405
32142,45917,29279
32080,45927,29319
32028,45876,29373
31968,45942,29442
31920,45959,29455
31885,45973,29452
31856,45919,29447
31804,45972,29541
31796,45977,29624
31780,45975,29383
31767,45988,29412
31734,45924,29548
31676,46004,29529
31628,46015,29556
31606,46036,29557
31548,46044,29609
31456,46057,29620
31497,46050,29639
31572,46049,29620
31644,46053,29631
31656,46042,29679
31681,46040,29793
31696,46079,29684
31708,46087,29597
31700,46087,29631
31712,46087,29711
31708,46108,29764
31680,46087,29776
31648,46100,29806
31716,46049,29852
31680,46107,29982
31664,46061,30026
31630,46133,29810
31644,46116,29801
31636,46156,29881
31624,46131,29855
31684,46164,29924
31740,46108,29993
31780,46161,29999
31824,46165,29971
31878,46165,29967
31936,46180,29997
31956,46188,30020
31992,46205,30134
32012,46179,30167
31952,46226,30112
31968,46215,30117
31989,46215,30234
31992,46213,30367
32101,46209,30412
32126,46223,30359
32116,46228,30354
32061,46181,30383
32041,46263,30413
32028,46263,30477
32022,46233,30482
32044,46271,30476
32076,46215,30531
32104,46261,30548
32180,46277,30565
32156,46269,30612
32172,46293,30628
32152,46293,30688
32120,46302,30709
32190,46317,30746
32180,46322,30855
32228,46295,30909
32284,46327,30878
32313,46269,30713
32334,46325,30861
32396,46260,30855
32324,46327,30855
32292,46319,30902
32268,46353,30973
32292,46342,31007
32296,46364,31103
32332,46379,30996
32380,46369,30938
32447,46364,30904
32425,46360,30927
32441,46367,31015
32412,46375,31007
32437,46388,31071
32444,46337,31060
32424,46393,31071
32436,46375,31101
32495,46399,31186
32496,46396,31166
32541,46407,31223
32576,46380,31221
32577,46399,31196
32576,46401,31132
32540,46365,31125
32536,46431,31129
32544,46447,31143
32512,46444,31127
32538,46445,31153
32516,46445,31142
32448,46447,31184
32408,46438,31103
32440,46438,31083
32528,46444,31184
32588,46449,31341
32641,46407,31303
32634,46471,31253
32636,46487,31306
32644,46471,31260
32620,46443,31220
32636,46471,31197
32596,46471,31230
32612,46471,31217
32568,46471,31228
32604,46495,31239
32568,46509,31239
32527,46509,31253
32540,46470,31271
32473,46508,31269
32478,46517,31263
32482,46500,31359
32508,46502,31307
32516,46511,31210
32532,46519,31236
32569,46524,31303
32580,46532,31308
32504,46524,31261
32548,46551,31295
32520,46540,31348
32520,46524,31335
32544,46527,31278
32576,46535,31284
32560,46535,31284
32514,46543,31288
32533,46551,31308
32516,46533,31300
32508,46553,31318
32492,46503,31393
32540,46574,31361
32548,46571,31387
32576,46564,31407
32580,46548,31421
32561,46557,31398
32556,46500,31388
32556,46579,31417
32524,46595,31399
32461,46532,31309
32386,46591,31561
32381,46599,31581
32408,46549,31426
32392,46584,31436
32404,46585,31479
32420,46567,31430
32420,46599,31479
32460,46596,31579
32480,46599,31554
32464,46625,31533
32448,46629,31415
32452,46620,31511
32500,46583,31572
32504,46599,31581
32532,46541,31481
32596,46599,31421
32641,46618,31361
32656,46631,31421
32704,46631,31468
32732,46599,31428
32760,46647,31417
32812,46642,31427
32793,46639,31428
32824,46621,31426
32864,46631,31424
32892,46628,31476
33008,46628,31444
33016,46599,31479
33004,46633,31545
33076,46661,31506
33062,46599,31444
33039,46652,31423
33030,46621,31479
33009,46632,31500
33017,46648,31492
33029,46647,31505
33039,46653,31543
32992,46668,31447
33042,46679,31340
32992,46679,31426
32908,46687,31397
32944,46679,31460
32980,46679,31564
32972,46663,31453
32912,46663,31300
32920,46615,31357
32913,46660,31406
32884,46639,31420
32885,46685,31396
32840,46633,31374
32858,46701,31460
32832,46694,31515
32760,46647,31264
32812,46671,31290
32824,46677,31281
32836,46677,31292
32820,46676,31315
32720,46695,31351
32828,46687,31337
32854,46708,31444
32844,46711,31361
32872,46719,31328
32924,46708,31205
32924,46639,31215
32944,46700,31266
32968,46681,31327
32960,46688,31183
32908,46706,31169
32886,46727,31258
32752,46717,31215
32544,46684,31308
32272,46727,31186
31956,46725,31239
31621,46714,31317
31424,46708,31141
31460,46708,31196
31712,46677,31289
31960,46740,31104
32285,46751,31230
32848,46756,31204
33640,46744,31252
34488,46711,31157
35552,46737,31231
36692,46724,31236
37884,46727,31173
39286,46742,31101
40928,46726,31199
42356,46740,31183
43328,46749,31175
43440,46751,31239
42416,46767,31188
40672,46772,31074
39264,46767,31060
37836,46708,31171
36388,46773,31175
35204,46759,31137
34469,46719,31186
34254,46772,31306
34064,46779,31052
33721,46791,31180
33365,46727,31151
33044,46791,31244
32752,46775,31130
32516,46749,31028
32220,46775,31156
32040,46772,31110
31920,46716,31140
31832,46788,31063
31780,46788,31056
31764,46799,31072
31704,46727,31129
31662,46813,31210
31709,46799,31148
31752,46781,30940
31736,46781,31051
31772,46709,31029
31696,46791,31119
31701,46789,30995
31684,46727,30937
31657,46813,31001
31708,46808,31037
31740,46740,30993
31802,46801,31106
31854,46793,31034
31876,46764,30884
31888,46791,30930
31872,46733,30964
31858,46813,31008
31848,46815,31004
31785,46756,30963
31776,46820,30980
31879,46806,31045
31880,46809,31121
31889,46743,30908
31928,46804,30884
32022,46800,30888
32008,46798,30954
31930,46823,30935
31984,46823,31078
31976,46823,30812
31932,46757,30836
32008,46831,30866
32044,46821,30919
32085,46781,30879
32140,46812,30875
32156,46813,31013
32120,46821,30756
32096,46790,30819
32145,46831,30847
32122,46843,30796
32132,46799,30917
32181,46843,30831
32185,46831,30689
32180,46821,30752
32180,46821,30761
32193,46813,30735
32160,46775,30747
32193,46836,30837
32236,46839,30744
32236,46849,30665
32264,46821,30711
32284,46843,30713
32316,46839,30735
32321,46837,30840
32297,46839,30564
32276,46831,30599
32288,46829,30674
32277,46831,30644
32236,46852,30682
32258,46844,30776
32252,46830,30695
32290,46855,30529
32302,46821,30632
32292,46852,30649
32340,46833,30605
32324,46775,30599
32332,46855,30599
32404,46855,30687
32404,46876,30494
32448,46806,30544
32500,46881,30599
32516,46863,30660
32489,46855,30708
32510,46855,30463
32569,46847,30505
32608,46783,30546
32636,46855,30558
32628,46855,30612
32660,46872,30628
32661,46876,30487
32660,46877,30428
32680,46871,30531
32756,46871,30513
32784,46855,30601
32872,46855,30495
32860,46828,30425
32900,46879,30501
32891,46877,30460
32881,46887,30529
32892,46845,30599
32916,46892,30332
32953,46871,30462
32984,46877,30433
32994,46879,30572
32992,46807,30290
33000,46877,30375
32948,46868,30383
32952,46887,30425
32968,46827,30535
32896,46901,30457
32850,46895,30240
32832,46882,30287
32840,46885,30354
32864,46887,30316
32884,46885,30364
32844,46884,30343
32790,46821,30269
32780,46892,30300
32744,46908,30321
32656,46917,30385
32668,46910,30233
32620,46902,30162
32542,46903,30168
32484,46877,30260
32412,46887,30253
32372,46887,30318
32308,46902,30407
32252,46901,30309
32192,46903,30135
32160,46919,30289
32172,46889,30343
32128,46917,30205
32112,46910,30175
32034,46899,30294
32052,46903,30261
32004,46909,30401
31952,46901,30154
31932,46868,30189
31894,46917,30300
31841,46927,30315
31841,46919,30164
31796,46921,30280
31792,46893,30292
31708,46885,30353
31748,46908,30425
31725,46881,30193
31732,46909,30324
31684,46921,30319
31688,46904,30372
31684,46924,30429
31689,46884,30236
31700,46941,30357
31712,46913,30369
31750,46925,30535
31756,46911,30359
31745,46911,30435
31727,46913,30447
31727,46932,30456
31712,46924,30578
31716,46877,30372
31680,46940,30516
31729,46933,30532
31792,46935,30531
31780,46933,30540
31748,46925,30580
31780,46854,30639
31838,46919,30708
31857,46932,30708
31834,46940,30797
31856,46948,30784
31880,46879,30638
31916,46943,30664
31988,46901,30735
32046,46920,30757
32021,46855,30734
32028,46917,30831
32060,46931,30951
32100,46940,30769
32164,46942,30771
32172,46956,30817
32224,46946,30889
32268,46959,30893
32240,46951,30900
32236,46935,31005
32284,46921,31111
32336,46932,31033
32288,46927,30972
32300,46943,30905
32272,46951,30961
32224,46953,31074
32232,46956,31038
32218,46903,31072
32240,46935,31145
32268,46937,30997
32252,46934,31044
32344,46924,31146
32352,46864,31140
32404,46941,31150
32420,46917,31234
32380,46957,31311
32464,46967,31285
32424,46957,31359
32436,46949,31111
32424,46927,31183
32448,46943,31248
32485,46871,31328
32458,46933,31149
32440,46941,31273
32417,46951,31271
32376,46917,31247
32389,46964,31204
32432,46956,31295
32485,46900,31239
32536,46924,31355
32592,46938,31313
32592,46940,31181
32594,46885,31261
32522,46959,31281
32588,46950,31278
32620,46967,31221
32632,46940,31273
32676,46949,31236
32680,46943,31269
32696,46919,31376
32665,46940,31143
32677,46935,31167
32672,46876,31233
32680,46949,31239
32692,46952,31239
32640,46971,31213
32636,46959,31224
32648,46951,31292
32696,46932,31337
32713,46879,31180
32728,46941,31173
32744,46927,31225
32784,46877,31215
32792,46935,31239
32820,46892,31236
32808,46957,31217
32812,46951,31196
32824,46943,31188
32833,46948,31233
32808,46934,31277
32804,46936,31344
32824,46935,31356
32788,46930,31161
32744,46948,31111
32757,46945,31170
32796,46893,31192
32804,46951,31206
32804,46949,31335
32804,46892,31076
32800,46925,31148
32788,46923,31183
32716,46938,31167
32676,46923,31271
32741,46941,31111
32718,46885,31172
32728,46955,31335
32668,46948,31159
32628,46917,31110
32664,46912,31196
32720,46932,31167
32820,46919,31164
32852,46916,31305
32908,46855,31133
32906,46935,31149
32836,46933,31198
32892,46937,31220
32948,46943,31290
32916,46868,31349
32964,46927,31089
32985,46919,31197
33008,46855,31183
33012,46903,31188
33024,46919,31213
33044,46925,31335
33016,46938,31337
33000,46941,31353
33041,46928,31303
33044,46883,31177
32994,46919,31175
33025,46919,31255
33056,46908,31233
33056,46849,31367
33056,46913,31254
32948,46919,31279
32928,46935,31224
32892,46927,31149
32912,46932,31279
32908,46934,31254
32908,46916,31407
32885,46911,31222
32884,46915,31207
32844,46900,31286
32792,46904,31293
32784,46908,31355
32760,46924,31399
32744,46855,31209
32736,46920,31233
32760,46902,31308
32788,46917,31327
32829,46909,31319
32878,46895,31493
32888,46909,31260
32860,46916,31290
32932,46919,31377
32924,46855,31380
32988,46917,31465
32964,46930,31563
33000,46855,31311
33016,46901,31394
33052,46911,31460
33064,46901,31461
33118,46902,31604
33064,46909,31389
33096,46926,31420
33110,46935,31495
33116,46877,31532
33072,46917,31520
33084,46919,31622
33084,46877,31588
33092,46907,31503
33068,46901,31577
33021,46888,31619
32976,46895,31644
32960,46914,31738
32928,46919,31638
32864,46883,31668
32860,46919,31715
32864,46884,31784
32876,46899,31865
32856,46902,31649
32844,46900,31672
32852,46892,31736
32828,46911,31805
32761,46911,31796
32736,46881,31797
32684,46919,31834
32638,46849,31861
32632,46916,31870
32637,46850,31946
32664,46885,32030
32665,46852,31940
32672,46887,31918
32621,46905,31908
32568,46895,31909
32532,46917,32084
32548,46913,31991
32560,46876,31918
32548,46903,31924
32524,46904,31992
32564,46909,32016
32556,46899,32007
32533,46829,32013
32470,46894,32049
32352,46838,32053
32112,46893,32068
31817,46889,32097
31504,46927,32190
31224,46927,32125
31065,46853,32015
31136,46895,32058
31437,46895,32105
31685,46877,32105
32000,46909,32159
32536,46916,32192
33326,46911,32176
34096,46868,32180
35196,46927,32252
36332,46919,32365
37504,46868,32273
38788,46903,32151
40328,46881,32255
41680,46876,32254
42532,46895,32304
42432,46905,32435
41344,46919,32334
39624,46932,32334
38304,46927,32248
36956,46932,32345
35620,46876,32358
34572,46927,32352
33960,46911,32412
33776,46887,32425
33644,46917,32413
33314,46919,32469
32999,46919,32604
32709,46917,32518
32448,46927,32433
32188,46904,32530
32020,46842,32543
31852,46895,32541
31752,46898,32556
31688,46900,32585
31604,46896,32713
31557,46877,32633
31548,46919,32540
31517,46916,32636
31513,46919,32623
31512,46855,32684
31496,46903,32743
31518,46884,32802
31564,46899,32741
31552,46895,32640
31553,46855,32735
31556,46909,32745
31584,46903,32771
31604,46855,32908
31648,46917,32719
31682,46903,32792
31688,46855,32846
31700,46893,32870
31685,46847,32856
31661,46887,32871
31665,46895,32916
31664,46903,33060
31696,46883,32893
31724,46895,32967
31764,46895,33020
31829,46893,33017
31852,46855,33063
31840,46876,33172
31872,46876,33220
31872,46884,33114
31900,46868,33084
31900,46820,33149
31876,46901,33211
31885,46894,33204
31916,46844,33223
31948,46884,33351
31960,46887,33380
32012,46873,33307
32020,46868,33355
32048,46863,33366
32056,46855,33361
32016,46813,33415
32016,46887,33469
32033,46866,33524
32044,46887,33568
32116,46838,33628
32172,46879,33669
32224,46855,33717
32188,46847,33772
32224,46855,33815
32292,46855,33863
32276,46876,34039
32276,46887,34052
32268,46887,34041
32260,46832,34075
32324,46887,34169
32328,46875,34206
32296,46831,34404
32292,46855,34439
32364,46846,34470
32380,46855,34510
32396,46884,34564
32404,46879,34623
32404,46884,34682
32384,46884,34761
32381,46887,34823
32390,46821,34919
32360,46855,35061
32392,46807,35157
32432,46855,35141
32472,46825,35261
32469,46870,35252
32504,46820,35321
32538,46895,35421
32548,46893,35495
32596,46822,35581
32628,46887,35679
32622,46884,35796
32652,46887,35847
32688,46879,35956
32684,46869,35967
32776,46879,35997
32780,46868,36079
32804,46913,36172
32864,46893,36239
32912,46906,36331
32924,46903,36406
32916,46911,36453
32945,46897,36541
33008,46893,36653
33068,46903,36743
33044,46913,36781
33052,46935,36855
33088,46927,36901
33089,46936,36961
33060,46932,37047
33108,46884,37123
33093,46945,37182
33104,46943,37263
33093,46940,37365
33084,46949,37392
33060,46956,37447
32984,46981,37525
32984,46983,37602
32964,46947,37684
33004,46983,37744
32988,46931,37809
32936,46983,37892
32948,46973,37959
32936,47002,38042
32936,47007,38112
32936,47031,38188
32876,47039,38271
32920,47047,38350
32868,47054,38426
32920,47059,38519
32852,47057,38596
32800,47040,38691
32788,47001,38771
32756,47052,38848
32704,47076,38943
32644,47098,39040
32538,47106,39122
32488,47111,39192
32388,47135,39281
32332,47125,39375
32344,47124,39462
32368,47111,39549
32348,47132,39640
32288,47135,39743
32240,47159,39804
32161,47111,39894
32108,47173,39916
32094,47167,40030
32092,47201,40103
32092,47166,40193
32096,47188,40264
32053,47196,40367
32028,47215,40438
32028,47207,40512
31984,47211,40596
32006,47237,40654
31964,47249,40725
31936,47263,40801
31960,47221,40839
31974,47270,40895
32008,47268,40927
32066,47268,41007
32086,47269,41095
32128,47221,41149
32136,47281,41199
32109,47300,41265
32084,47324,41316
32072,47327,41365
32072,47332,41430
32180,47339,41470
32228,47330,41465
32276,47271,41479
32310,47342,41532
32340,47334,41580
32304,47325,41612
32324,47360,41664
32296,47353,41757
32324,47399,41768
32344,47396,41804
32364,47321,41844
32414,47393,41887
32404,47383,41884
32412,47314,41885
32437,47399,41877
32452,47396,41909
32480,47411,41916
32480,47427,41949
32440,47409,42036
32448,47436,42041
32460,47431,42049
32504,47396,42079
32512,47425,42080
32528,47423,42065
32536,47431,42028
32576,47436,42013
32592,47437,42028
32566,47446,42025
32565,47407,42013
32568,47471,42013
32680,47471,42022
32614,47469,42084
32677,47453,42070
32696,47404,42055
32792,47444,42033
32692,47463,42023
32744,47473,42021
32764,47471,41991
32813,47485,41945
32830,47495,41908
32853,47479,41846
32886,47449,41830
32832,47445,41823
32853,47460,41778
32905,47471,41735
32892,47471,41716
32894,47487,41695
32892,47494,41651
32901,47495,41639
32924,47492,41607
32916,47495,41544
32924,47491,41499
32856,47485,41447
32904,47468,41429
32928,47399,41431
32916,47461,41385
32984,47483,41341
33008,47495,41288
33008,47479,41279
32996,47487,41178
32996,47484,41111
33017,47465,41058
33062,47399,41031
33100,47453,41029
33064,47440,40967
33053,47471,40914
33028,47465,40892
33004,47471,40817
33045,47463,40741
33033,47447,40743
33060,47460,40700
33078,47396,40647
33108,47455,40597
33104,47431,40565
33124,47441,40500
33128,47437,40421
33120,47453,40359
33184,47453,40351
33148,47444,40308
33160,47444,40261
33200,47399,40172
33197,47404,40148
33216,47427,40092
33228,47414,40045
33225,47391,40005
33240,47412,39913
33232,47413,39887
33236,47412,39829
33276,47420,39756
33296,47351,39696
33281,47404,39652
33272,47405,39597
33296,47339,39540
33333,47386,39460
33352,47367,39419
33344,47343,39367
33338,47388,39303
33320,47383,39219
33348,47340,39164
33328,47367,39102
33332,47367,39027
33292,47352,38964
33356,47347,38896
33388,47279,38847
33428,47343,38759
33420,47345,38671
33396,47301,38610
33412,47351,38529
33437,47343,38468
33423,47339,38407
33440,47316,38332
33412,47325,38234
33414,47293,38146
33404,47284,38079
33412,47229,38023
33420,47291,37936
33428,47284,37836
33412,47297,37757
33388,47300,37681
33365,47281,37635
33380,47277,37495
33352,47223,37425
33332,47253,37332
33304,47255,37269
33352,47260,37231
33367,47237,37092
33412,47255,36976
33444,47261,36917
33437,47239,36841
33428,47205,36735
33473,47215,36708
33508,47233,36615
33588,47205,36477
33636,47141,36421
33636,47191,36337
33648,47204,36229
33648,47209,36244
33566,47200,36040
33472,47201,35970
33524,47202,35882
33556,47180,35794
33692,47133,35732
33793,47133,35684
33852,47159,35587
33928,47141,35501
33892,47135,35508
33921,47149,35455
33919,47157,35299
33888,47143,35202
33881,47147,35127
33904,47133,35094
33912,47111,35023
33900,47108,34996
33888,47095,34927
33892,47095,34854
33847,47097,34706
33786,47103,34560
33741,47101,34496
33689,47098,34439
33672,47077,34405
33660,47076,34340
33648,47069,34223
33648,47054,34164
33676,47037,34172
33728,46983,34133
33728,47047,33922
33700,47047,33895
33668,47047,33860
33648,47045,33785
33668,47021,33722
33656,47031,33655
33672,46969,33559
33664,47013,33496
33652,46983,33553
33669,46929,33496
33700,46991,33250
33741,46998,33230
33708,46999,33180
33680,46997,33127
33604,46983,33095
33580,46977,32997
33493,46925,32942
33264,46949,32879
33055,46919,32849
32784,46941,32820
32377,46876,32775
32048,46937,32740
31980,46941,32673
32172,46943,32583
32420,46933,32512
32716,46935,32468
33264,46934,32413
34017,46909,32381
34864,46897,32356
35828,46836,32416
36816,46893,32329
37872,46903,32172
39028,46917,32076
40213,46917,32065
41300,46902,32077
41892,46900,32000
41744,46877,31958
40804,46847,31912
39241,46873,31923
37796,46855,31920
36620,46884,31916
35676,46839,31674
34923,46887,31657
34492,46884,31668
34432,46885,31679
34465,46845,31581
34317,46845,31591
33996,46789,31557
33668,46823,31524
33421,46813,31465
33188,46824,31491
33012,46824,31556
32796,46813,31263
32608,46831,31357
32474,46831,31272
32352,46821,31160
32304,46808,31125
32240,46807,31069
32208,46799,31065
32142,46791,31127
32168,46725,31071
32172,46789,31060
32112,46791,31072
32064,46807,31124
32056,46791,31086
32033,46789,31069
32066,46775,30936
32085,46759,30743
32060,46748,30735
32048,46745,30765
32033,46749,30789
32012,46701,30760
32038,46759,30805
32032,46759,30858
32046,46756,30821
32064,46735,30805
32093,46737,30711
32108,46722,30628
32152,46711,30615
32176,46663,30593
32160,46701,30582
32176,46711,30523
32214,46663,30421
32252,46725,30488
32229,46714,30444
32284,46705,30412
32288,46695,30405
32301,46684,30357
32305,46683,30342
32284,46681,30309
32292,46683,30301
32308,46671,30321
32310,46676,30268
32268,46645,30221
32280,46671,30287
32300,46599,30330
32312,46663,30252
32333,46656,30292
32348,46647,30124
32365,46631,30136
32400,46631,30051
32400,46647,30014
32396,46655,29999
32416,46587,30145
32400,46663,29879
32376,46647,29899
32404,46639,29969
32468,46631,30002
32432,46621,29985
32453,46617,29948
32448,46623,29928
32514,46616,29951
32592,46599,30073
32608,46628,30085
32648,46631,30077
32720,46599,29812
32736,46612,29895
32808,46596,29951
32868,46585,29927
32906,46594,29925
32896,46581,30086
32900,46535,30060
32870,46599,30004
32849,46599,29836
32912,46599,29925
32948,46586,29906
32950,46567,29889
32965,46575,29892
33012,46521,30012
33044,46559,30013
33064,46511,30000
33052,46565,29924
33089,46575,29814
33072,46582,29885
33060,46575,29841
33056,46563,29895
33088,46544,29906
33104,46485,29780
33172,46534,29698
33192,46527,29709
33160,46535,29687
33204,46471,29736
33204,46548,29809
33244,46551,29757
33248,46550,29740
33224,46535,29748
33245,46527,29829
33288,46516,29897
33256,46495,29750
33304,46511,29586
33292,46461,29584
33312,46503,29567
33320,46501,29564
33309,46513,29583
33288,46525,29570
33288,46517,29521
33312,46509,29516
33289,46493,29517
33236,46437,29563
33248,46468,29526
33233,46493,29618
33192,46503,29581
33196,46495,29574
33152,46499,29573
33160,46487,29636
33116,46431,29727
33044,46471,29723
33004,46469,29529
32960,46452,29499
32918,46395,29468
32870,46452,29575
32797,46463,29572
32697,46471,29586
32584,46471,29644
32500,46463,29622
32460,46460,29725
32414,46445,29637
32384,46431,29519
32372,46367,29522
32368,46435,29560
32294,46390,29573
32240,46436,29674
32236,46437,29721
32156,46449,29727
32108,46453,29709
32077,46445,29799
32026,46426,29764
31980,46415,29684
31993,46341,29790
31968,46405,29778
31968,46411,29903
31900,46401,29997
31864,46357,29839
31852,46434,29844
31904,46423,29909
31904,46419,29904
31908,46407,29923
31894,46388,30031
31900,46391,30086
31928,46381,29904
31956,46313,30030
31921,46383,30044
31884,46399,30114
31932,46332,30264
31916,46407,30021
31860,46394,30096
31900,46375,30207
31916,46363,30227
31924,46367,30372
31973,46356,30239
31990,46359,30285
31988,46367,30359
31993,46383,30415
32084,46375,30556
32160,46377,30321
32184,46375,30436
32246,46356,30476
32264,46327,30508
32248,46335,30638
32248,46309,30684
32264,46343,30685
32276,46343,30552
32292,46353,30583
32296,46343,30709
32288,46287,30692
32312,46340,30768
32328,46327,30926
32398,46311,30854
32440,46303,30789
32457,46255,30789
32480,46319,30896
32484,46325,30932
32500,46324,30951
32460,46327,31004
32488,46332,31156
32476,46319,31009
32498,46258,30983
32492,46295,31056
32504,46247,31141
32544,46291,31162
32550,46295,31206
32510,46305,31349
32548,46300,31212
32588,46287,31277
32596,46316,31316
32660,46293,31406
32704,46289,31508
32716,46279,31399
32744,46284,31343
32760,46261,31377
32744,46268,31470
32709,46263,31532
32745,46215,31519
32772,46292,31623
32801,46269,31589
32812,46215,31540
32804,46261,31576
32840,46190,31687
32860,46245,31673
32832,46247,31740
32788,46255,31832
32783,46247,31662
32781,46252,31709
32705,46249,31802
32748,46245,31797
32804,46215,31836
32780,46222,31851
32732,46231,31860
32764,46215,31860
32808,46207,31871
32828,46196,31879
32857,46213,31921
32894,46228,31993
32920,46231,32084
32870,46215,31949
32912,46211,31935
32889,46167,32007
32893,46183,31989
32884,46134,32023
32892,46173,32108
32884,46127,31962
32861,46183,32025
32832,46137,32095
32784,46178,32063
32792,46191,32196
32804,46181,32038
32796,46164,32076
32832,46159,32157
32848,46138,32187
32836,46148,32292
32860,46156,32121
32856,46151,32201
32793,46161,32289
32757,46161,32242
32772,46156,32188
32768,46148,32256
32736,46143,32271
32743,46135,32391
32760,46095,32217
32782,46109,32263
32804,46116,32316
32796,46123,32324
32768,46127,32444
32788,46076,32379
32800,46129,32375
32776,46108,32377
32754,46043,32516
32748,46101,32354
32776,46081,32460
32801,46019,32423
32782,46087,32487
32773,46084,32605
32744,46087,32442
32736,46087,32534
32720,46079,32531
32744,46079,32557
32788,46075,32681
32816,46065,32636
32812,46055,32549
32772,45982,32626
32768,46071,32609
32748,46055,32721
32636,46039,32695
32628,46057,32650
32604,46068,32724
32600,46047,32708
32590,46045,32797
32628,46023,32863
32649,45972,32889
32644,46015,32788
32600,46031,32791
32548,46043,32805
32476,46024,32855
32432,46045,32953
32400,46036,32850
32348,46004,32820
32332,46023,32876
32372,46015,32870
32460,46011,32973
32522,45989,32992
32620,46005,32903
32710,45956,32929
32746,46021,32977
32708,45959,33064
32696,46007,33047
32708,45959,32942
32696,45989,32975
32684,45946,33018
32716,45973,33079
32744,45973,33172
32724,45983,33015
32760,45975,33095
32728,45951,33109
32733,45981,33103
32744,45938,33092
32728,45971,33170
32708,45913,33270
32744,45957,33147
32704,45940,33164
32648,45947,33308
32644,45957,33199
32582,45957,33189
32568,45949,33236
32512,45948,33252
32468,45932,33247
32452,45932,33397
32440,45932,33388
32448,45924,33275
32500,45887,33327
32500,45901,33330
32492,45919,33431
32452,45917,33327
32456,45925,33367
32444,45925,33381
32453,45916,33389
32465,45917,33404
32444,45915,33521
32444,45900,33508
32396,45881,33415
32359,45887,33479
32352,45831,33463
32368,45903,33535
32348,45895,33532
32360,45876,33513
32356,45889,33541
32348,45863,33534
32344,45893,33601
32336,45868,33681
32328,45869,33656
32292,45863,33586
32148,45875,33637
31920,45871,33625
31648,45878,33711
31312,45829,33792
31008,45881,33672
30836,45877,33705
30860,45871,33746
31049,45854,33797
31316,45852,33799
31636,45844,33853
32092,45852,33888
32876,45846,33956
33684,45804,33981
34718,45856,34052
35816,45860,34102
36904,45855,34133
38116,45831,34183
39512,45820,34324
40752,45814,34308
41616,45821,34311
41566,45799,34383
40572,45831,34433
38920,45830,34495
37548,45852,34560
36354,45831,34604
35052,45847,34676
33972,45847,34725
33428,45830,34773
33248,45821,34871
33140,45807,34941
32886,45812,34965
32512,45757,35023
32200,45827,35148
31952,45826,35119
31688,45767,35217
31436,45812,35247
31256,45743,35316
31148,45782,35434
31094,45793,35460
31084,45793,35481
31008,45799,35556
30964,45796,35606
30982,45796,35655
30948,45775,35753
30908,45788,35831
30878,45790,35799
30892,45783,35888
30878,45772,35925
30824,45767,35985
30853,45756,36100
30848,45758,36078
30876,45753,36167
30920,45775,36212
30952,45764,36271
30932,45753,36314
30964,45761,36410
30980,45743,36414
31052,45734,36478
31104,45735,36536
31140,45735,36615
31168,45703,36672
31145,45757,36694
31164,45743,36751
31176,45748,36829
31220,45744,36895
31268,45742,36909
31276,45733,36977
31324,45724,37039
31324,45669,37092
31404,45727,37116
31396,45711,37169
31402,45724,37220
31408,45733,37260
31381,45735,37321
31452,45719,37351
31496,45703,37370
31528,45719,37417
31556,45650,37456
31576,45702,37501
31609,45692,37485
31616,45641,37553
31630,45703,37583
31604,45703,37609
31616,45653,37639
31604,45711,37673
31613,45696,37671
31621,45695,37703
31672,45676,37734
31708,45669,37764
31704,45629,37767
31726,45678,37788
31761,45695,37801
31784,45703,37821
31760,45703,37816
31804,45687,37824
31800,45684,37847
31780,45677,37858
31784,45679,37877
31817,45660,37876
31880,45653,37887
31896,45608,37873
31888,45671,37894
31868,45615,37895
31878,45668,37892
31944,45687,37908
32044,45678,37904
32020,45670,37889
32052,45654,37895
32040,45636,37895
32076,45591,37895
32172,45654,37894
32208,45663,37884
32248,45662,37884
32253,45671,37880
32357,45660,37870
32356,45660,37859
32324,45636,37836
32316,45633,37836
32373,45632,37821
32388,45617,37815
32400,45575,37792
32420,45644,37781
32520,45599,37767
32564,45646,37751
32621,45653,37736
32645,45647,37727
32716,45635,37703
32716,45633,37676
32680,45620,37663
32676,45631,37635
32700,45629,37620
32624,45630,37589
32600,45637,37562
32668,45634,37532
32756,45639,37487
32704,45631,37476
32736,45557,37439
32820,45607,37416
32850,45607,37397
32776,45615,37356
32756,45615,37289
32728,45620,37306
32706,45629,37285
32620,45629,37255
32696,45628,37229
32756,45607,37212
32784,45604,37179
32796,45564,37153
32805,45575,37133
32840,45529,37111
32784,45575,37068
32724,45549,37041
32718,45617,37031
32660,45612,37005
32690,45575,36980
32628,45606,36980
32594,45547,36940
32568,45575,36913
32540,45591,36900
32394,45575,36888
32388,45550,36871
32298,45596,36860
32140,45613,36884
32129,45620,36809
32072,45614,36829
31996,45556,36821
31985,45604,36842
31888,45575,36799
31920,45543,36799
31858,45596,36800
31796,45597,36798
31756,45606,36805
31765,45606,36764
31776,45615,36769
31772,45607,36760
31688,45607,36748
31680,45560,36753
31608,45575,36737
31640,45568,36759
31588,45597,36741
31584,45597,36724
31554,45596,36699
31552,45536,36703
31576,45612,36711
31585,45610,36700
31615,45607,36695
31632,45596,36697
31663,45591,36711
31668,45588,36704
31708,45597,36695
31776,45597,36687
31808,45612,36672
31776,45613,36664
31790,45615,36655
31825,45542,36631
31888,45604,36631
31860,45599,36614
31905,45588,36596
31916,45543,36556
31918,45575,36526
31936,45565,36512
31996,45599,36513
32016,45575,36475
32036,45620,36461
32020,45612,36419
32040,45615,36391
32084,45575,36350
32096,45569,36320
32140,45599,36305
32256,45599,36286
32312,45555,36252
32372,45605,36212
32344,45628,36209
32376,45613,36157
32408,45612,36124
32441,45613,36125
32464,45604,36117
32504,45604,36053
32544,45537,36018
32544,45597,36001
32564,45599,35975
32564,45621,35980
32574,45628,35943
32620,45630,35884
32628,45637,35892
32737,45629,35838
32712,45607,35756
32752,45612,35756
32716,45620,35719
32696,45619,35699
32700,45628,35644
32724,45631,35609
32756,45569,35612
32744,45628,35591
32700,45599,35569
32780,45639,35530
32816,45630,35500
32828,45618,35452
32800,45623,35398
32764,45631,35372
32736,45628,35324
32744,45645,35285
32784,45651,35252
32648,45640,35207
32746,45636,35181
32808,45644,35071
32825,45639,34997
32836,45631,34972
32864,45596,34933
32816,45639,34885
32804,45624,34833
32820,45647,34796
32906,45645,34757
32932,45653,34693
32892,45654,34641
32910,45661,34607
32976,45648,34591
33010,45651,34541
33064,45639,34513
33024,45591,34473
33016,45644,34439
32977,45636,34436
32964,45655,34396
32933,45671,34311
32925,45661,34231
32984,45635,34110
32980,45641,34083
32984,45639,34045
32972,45647,34037
32980,45650,33961
32968,45658,33908
32908,45676,33872
32916,45676,33823
32896,45687,33784
32820,45664,33756
32848,45661,33717
32856,45665,33679
32929,45660,33627
33029,45660,33569
33136,45665,33545
33088,45663,33463
33112,45679,33428
33080,45684,33425
33076,45693,33372
33112,45684,33381
33116,45622,33325
33121,45662,33279
33132,45669,33287
33120,45671,33256
33133,45663,33166
33140,45664,33149
33076,45679,33173
33140,45699,33081
33152,45695,32928
33093,45689,32938
33109,45632,32910
33120,45684,32871
33120,45669,32953
33068,45671,32885
33046,45684,32812
32960,45695,32737
32945,45699,32716
32912,45703,32626
32896,45719,32643
32868,45719,32612
32809,45703,32566
32860,45703,32542
32840,45703,32500
32828,45693,32465
32805,45700,32397
32756,45695,32370
32776,45698,32378
32736,45727,32385
32668,45679,32422
32676,45735,32207
32696,45719,32228
32712,45661,32224
32756,45703,32170
32828,45697,32135
32836,45710,32127
32824,45711,32107
32816,45721,32061
32796,45740,32029
32820,45734,32095
32868,45734,32084
32832,45679,31875
32876,45735,31884
32932,45731,31917
33024,45700,31879
33093,45709,31848
33140,45727,31817
33136,45749,31808
33173,45753,31829
33240,45737,31861
33208,45695,31791
33192,45733,31703
33288,45740,31652
33303,45737,31629
33238,45716,31607
33185,45735,31622
33206,45679,31703
33204,45743,31680
33136,45759,31657
33156,45737,31453
33184,45764,31389
33184,45741,31433
33200,45748,31403
33204,45687,31359
33216,45751,31352
33208,45753,31425
33168,45748,31437
33197,45766,31385
33180,45775,31165
33104,45765,31233
33143,45772,31175
33124,45740,31183
33108,45759,31213
33088,45751,31257
33124,45764,31046
33104,45757,31070
33068,45711,31020
33041,45779,31055
33008,45796,31140
32964,45797,30884
33036,45804,30855
33012,45753,30917
33024,45781,30866
33044,45783,30892
33026,45775,30937
32884,45796,30802
32572,45791,30724
32264,45807,30704
31928,45812,30736
31456,45827,30736
31553,45823,30687
31628,45829,30684
31892,45807,30717
32153,45820,30661
32540,45817,30650
33145,45827,30656
33904,45817,30786
34820,45780,30663
35896,45828,30681
37060,45847,30474
38269,45843,30468
39676,45844,30466
41196,45824,30430
42489,45823,30462
43136,45823,30470
42792,45831,30492
41388,45853,30437
39684,45865,30439
38416,45879,30415
37000,45891,30399
35620,45894,30474
34740,45884,30491
34220,45876,30513
33969,45876,30401
33788,45879,30383
33523,45868,30439
33308,45873,30316
33166,45885,30271
32924,45900,30151
32544,45908,30176
32228,45831,30224
32228,45892,30164
32116,45895,30136
32028,45892,30114
31954,45888,30081
31908,45895,30107
31864,45895,30175
31856,45908,29969
31812,45921,29845
31848,45927,29861
31849,45911,29843
31840,45911,29758
31810,45911,29674
31848,45910,29715
31882,45900,29637
31904,45911,29609
31940,45919,29636
31964,45920,29623
31984,45927,29527
32008,45935,29319
32047,45937,29188
32044,45943,29185
32066,45919,29121
32100,45935,29039
32128,45921,28957
32180,45931,28940
32172,45933,28927
32172,45957,28872
32174,45915,28643
32232,45951,28478
32292,45959,28423
32320,45948,28317
32360,45887,28253
32376,45937,28187
32398,45879,28134
32400,45959,28176
32404,45957,28095
32412,45969,27993
32424,45973,28013
32444,45920,27950
32484,45973,27677
32516,45968,27624
32525,45968,27542
32517,45972,27592
32528,45960,27574
32534,45969,27501
32533,45959,27526
32533,45980,27391
32528,45973,27167
32532,45999,27263
32557,45996,27196
32556,46006,27224
32568,45991,27241
32600,45959,27001
32676,45991,26969
32732,45999,26957
32700,45996,26910
32680,46009,26969
32648,46022,26887
32708,46029,26837
32752,46026,26696
32736,46022,26722
32756,46023,26679
32824,45975,26808
32860,46013,26749
32864,46007,26716
32820,46024,26685
32870,46049,26674
32832,46046,26620
32848,46052,26491
32846,46055,26439
32904,46052,26313
32914,46036,26276
32956,46041,26255
32992,46029,26348
32997,46038,26307
32988,46015,26309
33028,46053,26252
33092,46031,26161
33084,46079,26183
33132,46039,26196
33194,46064,26224
33224,46063,26207
33252,46063,26239
33292,46058,26244
33316,46058,26229
33280,46068,26205
33280,46074,26203
33317,46077,26311
33332,46087,26185
33364,46087,26123
33380,46087,26112
33388,46080,26066
33384,46068,26180
33436,46013,26177
33472,46080,26007
33420,46077,26092
33405,46087,26148
33400,46101,26148
33344,46117,26238
33304,46109,26185
33412,46069,26029
33428,46087,26183
33433,46025,26171
33484,46085,26175
33493,46056,26178
33508,46087,26244
33457,46111,26220
33456,46127,26261
33384,46121,26263
33409,46119,26208
33408,46119,26117
33392,46115,26107
33381,46111,26223
33420,46101,26297
33413,46109,26276
33330,46111,26442
33172,46071,26304
33052,46125,26191
33012,46135,26275
33002,46128,26347
33084,46071,26412
33132,46125,26437
33104,46119,26511
33096,46127,26565
33036,46128,26609
32933,46138,26481
32858,46148,26384
32669,46165,26409
32644,46121,26550
32628,46150,26599
32572,46142,26688
32516,46143,26779
32448,46117,26696
32398,46143,26590
32392,46143,26663
32328,46148,26826
32312,46087,26820
32285,46151,26870
32132,46119,26954
32152,46164,27101
32181,46173,26973
32188,46159,26886
32152,46148,27002
32160,46087,27081
32188,46153,27146
32120,46165,27108
32132,46108,27068
32074,46182,27190
32192,46183,27286
32192,46189,27352
32244,46183,27368
32224,46167,27461
32274,46164,27500
32245,46125,27647
32278,46159,27476
32341,46173,27484
32308,46155,27622
32348,46183,27661
32328,46192,27817
32350,46189,27607
32392,46181,27680
32397,46183,27813
32444,46100,27832
32416,46175,27948
32404,46178,28036
32428,46119,27950
32408,46197,27847
32409,46197,28012
32364,46151,28068
32397,46189,28073
32380,46197,28117
32380,46191,28209
32348,46172,28339
32464,46108,28161
32596,46164,28112
32644,46121,28181
32620,46183,28279
32576,46189,28276
32613,46201,28364
32652,46143,28448
32709,46199,28603
32709,46193,28506
32736,46189,28385
32732,46181,28532
32732,46141,28612
32740,46191,28613
32732,46203,28639
32764,46197,28679
32828,46215,28712
32836,46212,28796
32892,46191,28852
32928,46191,28918
32965,46157,28981
32936,46190,28993
32948,46125,28978
33008,46191,29052
33036,46205,29028
33024,46213,29048
33076,46207,28888
33072,46211,28870
33068,46181,28972
33105,46183,29039
33128,46188,29036
33108,46183,29039
33108,46179,29051
33092,46153,29093
33076,46196,29167
33040,46205,29175
33036,46215,29233
33032,46207,29225
33061,46199,29252
33068,46189,29281
33044,46120,29305
32988,46183,29212
32988,46135,29166
32924,46173,29212
32885,46148,29199
32956,46193,29213
33056,46141,29324
33092,46197,29293
33132,46135,29341
33156,46199,29354
33196,46168,29239
33164,46167,29116
33216,46172,29212
33200,46123,29284
33176,46197,29258
33145,46196,29393
33084,46177,29271
33080,46196,29264
33044,46204,29191
33028,46183,29330
33124,46173,29313
33104,46168,29329
33052,46167,29446
33020,46135,29446
32976,46180,29255
33000,46192,29281
33028,46196,29367
32988,46188,29396
32992,46129,29399
33080,46189,29477
33072,46183,29588
33012,46119,29401
33020,46171,29327
32998,46183,29360
32929,46191,29407
32960,46190,29380
32908,46181,29389
32868,46148,29415
32800,46180,29420
32822,46157,29421
32916,46170,29504
32957,46119,29439
32989,46158,29469
32896,46164,29551
32821,46180,29592
32768,46149,29564
32748,46189,29604
32796,46145,29629
32796,46175,29680
32846,46175,29671
32856,46165,29703
32844,46120,29722
32904,46159,29709
32854,46171,29725
32824,46172,29742
32864,46149,29774
32808,46172,29774
32852,46119,29868
32908,46165,29906
32876,46109,29905
32913,46153,29946
32968,46152,29918
32928,46159,30022
32948,46163,30021
32945,46167,29996
32921,46169,29927
32932,46180,29959
32876,46180,30027
32865,46165,30025
32780,46171,30084
32785,46156,29985
32764,46126,29919
32772,46143,30040
32676,46173,30052
32668,46168,30020
32640,46169,29959
32641,46140,30081
32584,46183,30105
32588,46165,30109
32532,46156,30026
32640,46157,30087
32620,46148,30153
32644,46087,30241
32644,46156,30241
32656,46116,30270
32646,46160,30293
32652,46173,30036
32692,46164,30086
32741,46165,30183
32796,46135,30188
32716,46139,30180
32724,46087,30215
32736,46130,30203
32696,46151,30233
32648,46165,30340
32685,46165,30375
32700,46175,30351
32816,46167,30368
32916,46149,30349
33020,46141,30325
33036,46139,30351
33088,46143,30431
33100,46143,30277
33061,46087,30215
32989,46151,30316
32944,46087,30303
32865,46154,30388
32876,46148,30490
32876,46141,30444
32820,46130,30240
32864,46125,30502
32853,46066,30420
32864,46105,30265
32824,46125,30337
32836,46124,30319
32796,46085,30380
32761,46134,30343
32804,46136,30319
32780,46079,30500
32780,46116,30507
32799,46119,30420
32745,46087,30383
32808,46109,30423
32848,46109,30421
32832,46087,30378
32816,46121,30295
32800,46125,30544
32836,46117,30508
32848,46111,30495
32840,46102,30436
32837,46087,30375
32828,46081,30358
32856,46024,30361
32844,46087,30357
32812,46071,30371
32770,46106,30287
32664,46109,30306
32456,46041,30479
32200,46087,30454
31908,46087,30388
31604,46033,30335
31560,46076,30315
31696,46062,30222
31968,46013,30300
32176,46087,30444
32532,46085,30465
33204,46084,30435
33980,46087,30345
34852,46080,30324
35972,46064,30340
37145,46061,30277
38268,46057,30279
39532,46013,30296
41008,46056,30233
42240,46057,30215
42911,46060,30220
42612,46044,30261
41308,46076,30276
39740,46072,30259
38521,46065,30240
37102,46056,30233
35796,46048,30263
34788,46004,30206
34352,46052,30161
34184,46068,30148
34020,46070,30118
33688,46065,30103
33297,46064,30174
33108,46058,30193
32812,46046,30253
32544,46033,30343
32333,46005,30277
32152,46032,30183
32004,46047,30165
31888,46044,30156
31860,46045,30187
31792,46052,30172
31744,46047,30109
31640,45989,30073
31568,46023,30065
31500,45989,30052
31508,46023,30192
31512,46023,29924
31504,46021,29945
31536,46025,29941
31588,46024,30005
31628,46004,29990
31680,46023,29974
31700,45983,29988
31696,46012,29932
31672,46005,29980
31652,45991,29943
31668,46001,29937
31672,46009,29951
31688,46001,29993
31700,46009,29997
31646,46015,29863
31716,46005,29796
31732,46007,29879
31748,45997,29884
31790,45999,29876
31829,45983,29913
31876,45988,29903
31904,45959,29831
31896,45993,29831
31908,45970,29815
31920,45996,29813
31917,45940,29839
31932,45987,29895
31972,45975,29682
32040,45943,29774
32040,45952,29762
32036,45900,29761
32012,45959,29726
32020,45983,29789
32040,45973,29831
32058,45983,29688
32138,45985,29604
32157,45973,29614
32096,45959,29640
32169,45951,29687
32248,45886,29687
32316,45951,29668
32304,45959,29740
32332,45911,29793
32384,45959,29604
32482,45959,29652
32517,45900,29695
32545,45954,29703
32612,45948,29712
32645,45933,29684
32680,45940,29697
32748,45930,29710
32772,45932,29709
32786,45951,29768
32820,45908,29732
32860,45943,29759
32912,45941,29877
32945,45935,29903
32964,45925,29876
33028,45884,29879
33089,45911,29789
33148,45903,29701
33188,45909,29732
33228,45861,29732
33228,45927,29736
33212,45889,29778
33256,45925,29838
33301,45909,29908
33376,45897,29938
33388,45885,29922
33389,45895,29944
33420,45887,30013
33404,45892,30031
33376,45899,30047
33372,45917,30145
33364,45911,30171
33400,45900,30223
33412,45895,30135
33448,45880,30022
33516,45879,30093
33524,45876,30134
33472,45831,30116
33472,45869,30148
33436,45877,30164
33448,45831,30239
33484,45860,30321
33544,45821,30391
33530,45868,30439
33544,45871,30478
33532,45831,30663
33532,45831,30639
33556,45801,30575
33535,45849,30617
33500,45855,30591
33500,45869,30642
33456,45863,30727
33430,45865,30825
33428,45855,30861
33428,45831,30948
33420,45831,31001
33405,45783,31054
33380,45831,31103
33348,45829,31116
33340,45807,31216
33348,45831,31285
33350,45841,31335
33324,45831,31469
33284,45829,31583
33256,45823,31532
33208,45808,31554
33196,45815,31640
33117,45805,31819
33056,45807,31927
32964,45815,31829
32856,45813,31974
32769,45818,32007
32663,45784,32189
32601,45812,32309
32536,45775,32335
32468,45799,32293
32428,45769,32458
32384,45791,32526
32332,45796,32741
32272,45804,32752
32204,45757,32897
32129,45807,32892
32041,45801,32980
31996,45789,33080
31976,45789,33268
31980,45775,33160
31960,45702,33317
31917,45767,33418
31848,45773,33510
31812,45711,33629
31784,45796,33714
31836,45783,33798
31820,45785,33829
31792,45719,33980
31804,45765,34080
31808,45756,34203
31817,45751,34379
31832,45749,34448
31884,45732,34461
31908,45759,34612
31916,45767,34692
31977,45728,34796
32028,45764,34991
32040,45749,35095
32062,45725,35119
32052,45725,35220
32016,45719,35340
31997,45721,35527
32020,45727,35604
32036,45733,35692
32008,45687,35764
31984,45737,35892
32008,45743,35996
31996,45679,36129
32005,45703,36229
32028,45703,36353
32104,45703,36500
32184,45700,36603
32224,45655,36693
32206,45703,36812
32208,45692,36940
32212,45727,37057
32241,45719,37199
32280,45684,37319
32352,45703,37407
32414,45687,37549
32424,45687,37686
32445,45653,37799
32456,45695,37916
32458,45668,38045
32500,45695,38151
32520,45685,38268
32544,45694,38431
32576,45695,38544
32588,45681,38673
32612,45671,38791
32636,45671,38919
32668,45670,39047
32656,45673,39172
32633,45676,39294
32624,45684,39412
32613,45684,39540
32648,45673,39663
32656,45657,39794
32628,45655,39924
32673,45655,39975
32647,45647,40087
32640,45652,40211
32622,45663,40395
32612,45653,40524
32622,45655,40545
32628,45660,40751
32672,45613,40852
32644,45650,40960
32648,45637,41071
32624,45612,41164
32616,45631,41294
32604,45615,41424
32588,45628,41460
32600,45639,41536
32616,45645,41735
32610,45639,41829
32588,45575,41929
32558,45629,41921
32588,45621,42151
32636,45612,42231
32648,45600,42370
32644,45599,42438
32628,45604,42441
32568,45605,42660
32556,45613,42727
32500,45620,42846
32480,45596,42860
32469,45605,43046
32464,45589,43103
32424,45575,43196
32460,45575,43197
32502,45564,43384
32516,45575,43490
32532,45588,43551
32544,45575,43527
32572,45591,43743
32615,45520,43813
32613,45557,43935
32676,45564,43901
32684,45522,43961
32716,45559,44148
32716,45551,44242
32704,45503,44172
32712,45564,44364
32736,45567,44429
32714,45574,44486
32777,45533,44492
32808,45553,44679
32836,45546,44717
32804,45469,44781
32805,45530,44736
32828,45522,44951
32816,45463,44975
32842,45543,45050
32821,45535,44992
32840,45530,45173
32848,45535,45201
32832,45471,45161
32820,45520,45372
32804,45503,45441
32820,45503,45352
32824,45495,45526
32800,45501,45553
32792,45503,45648
32815,45506,45593
32852,45508,45601
32868,45500,45782
32904,45491,45820
32912,45493,45911
32872,45481,45894
32832,45479,45908
32824,45477,45912
32796,45484,45946
32784,45482,46116
32736,45484,46196
32672,45480,46101
32728,45487,46271
32736,45469,46276
32748,45401,46351
32788,45450,46253
32808,45447,46446
32776,45447,46468
32724,45399,46465
32684,45469,46460
32672,45460,46582
32613,45469,46668
32564,45447,46580
32532,45447,46743
32580,45447,46745
32608,45417,46813
32576,45423,46804
32576,45437,46762
32621,45445,46937
32660,45447,46972
32673,45396,46980
32704,45432,47029
32726,45378,47079
32728,45431,46977
32740,45423,47169
32776,45412,47164
32821,45404,47239
32864,45405,47205
32880,45383,47303
32941,45404,47308
32996,45415,47346
33073,45415,47383
33045,45415,47337
33077,45414,47319
33124,45385,47463
33132,45339,47484
33133,45380,47508
33112,45316,47527
33117,45380,47531
33048,45339,47544
32989,45384,47551
32940,45332,47580
32936,45376,47629
32932,45370,47623
32944,45367,47507
32944,45356,47639
32940,45351,47623
32964,45350,47674
32952,45353,47706
32896,45369,47669
32905,45367,47623
32873,45359,47645
32904,45357,47608
32881,45351,47584
32884,45340,47542
32860,45283,47708
32806,45319,47663
32770,45319,47692
32739,45303,47679
32800,45333,47535
32812,45340,47655
32824,45335,47616
32829,45329,47612
32920,45319,47623
32952,45308,47607
32976,45302,47479
32996,45295,47425
32990,45295,47385
32949,45301,47412
32836,45307,47495
32704,45319,47461
32452,45311,47424
32144,45311,47366
31816,45295,47342
31544,45231,47341
31464,45284,47207
31628,45287,47151
31884,45283,47239
32173,45287,47209
32650,45236,47135
33345,45285,47104
34180,45245,47111
35104,45285,47015
36120,45223,46965
37160,45267,46988
38228,45268,46944
39260,45260,46877
40200,45245,46721
40857,45262,46652
40828,45256,46751
40148,45276,46684
38720,45295,46608
37152,45231,46598
35948,45287,46433
34956,45277,46343
34215,45229,46445
33796,45255,46395
33692,45256,46292
33836,45268,46244
33844,45265,46215
33649,45206,46127
33325,45269,46058
33038,45253,45921
32836,45249,45950
32708,45213,45868
32496,45228,45783
32336,45223,45764
32216,45183,45564
32132,45223,45457
32081,45229,45385
32040,45245,45438
31980,45229,45340
31936,45197,45228
31876,45222,45165
31888,45207,44989
31844,45143,44869
31820,45197,44764
31809,45191,44788
31788,45140,44676
31804,45207,44621
31804,45207,44399
31808,45215,44420
31844,45204,44295
31840,45188,44199
31863,45180,44085
31852,45172,43884
31880,45167,43783
31904,45124,43684
31936,45164,43695
31972,45186,43441
31952,45179,43313
31980,45127,43195
32020,45173,43084
32014,45165,42972
32036,45159,42962
32041,45141,42816
32026,45138,42687
32066,45125,42580
32060,45143,42368
32012,45151,42164
31972,45095,42061
32008,45159,42005
32056,45141,41850
32116,45143,41733
32184,45091,41575
32224,45111,41396
32260,45109,41201
32232,45100,41036
32202,45122,40917
32228,45119,40839
32181,45124,40697
32200,45117,40468
32244,45119,40327
32268,45104,40231
32309,45037,40092
32308,45079,39924
32336,45091,39772
32305,45085,39621
32308,45093,39468
32328,45031,39317
32329,45089,39175
32348,45100,39031
32372,45089,38887
32366,45079,38756
32396,45063,38613
32431,45063,38444
32453,45061,38327
32460,45040,38188
32448,45063,38060
32468,45063,37927
32456,45077,37793
32484,45012,37679
32496,45063,37517
32533,45052,37381
32580,44991,37279
32592,45036,37140
32632,45028,37013
32673,45014,36871
32637,45033,36751
32648,45036,36615
32633,45037,36487
32660,45051,36356
32685,45039,36228
32700,45031,36129
32740,45019,36005
32740,45015,35862
32784,45007,35688
32828,45011,35575
32864,45006,35447
32892,45002,35305
32896,45009,35202
32942,44957,35107
32991,45010,34996
33040,45001,34863
33072,44989,34737
33116,44925,34618
33096,44967,34415
33080,44965,34311
33068,44935,34186
33052,44977,34159
33076,44989,33924
33088,44959,33860
33072,44975,33730
33016,44973,33635
33000,44961,33508
32996,44935,33478
33004,44953,33367
33025,44948,33279
32974,44945,33133
32912,44975,33028
32932,44965,32823
32952,44957,32764
32881,44959,32677
32892,44935,32541
32913,44934,32538
32909,44925,32489
32900,44927,32305
32860,44935,32159
32852,44924,32111
32776,44935,32054
32696,44935,31933
32632,44935,31849
32596,44934,31781
32532,44935,31732
32472,44913,31748
32436,44854,31663
32404,44901,31453
32380,44894,31429
32268,44892,31399
32216,44909,31337
32137,44863,31236
32044,44915,31230
32004,44911,31273
31944,44901,31164
31908,44836,31060
31832,44881,31088
31792,44873,30940
31726,44884,30825
31696,44839,30773
31628,44881,30735
31568,44901,30705
31466,44903,30652
31412,44893,30662
31380,44885,30663
31389,44871,30625
31369,44860,30549
31340,44857,30580
31328,44804,30629
31268,44868,30453
31300,44877,30357
31290,44836,30368
31256,44875,30393
31236,44879,30317
31288,44807,30290
31344,44853,30262
31372,44845,30244
31348,44849,30236
31328,44855,30192
31320,44845,30208
31353,44852,30292
31416,44855,30117
31448,44855,30092
31432,44807,30007
31468,44846,30081
31504,44837,30030
31476,44788,30141
31524,44827,30054
31576,44820,29907
31604,44828,29893
31584,44839,29913
31588,44799,29961
31624,44847,29906
31620,44845,29951
31648,44783,29934
31664,44819,29788
31676,44806,29868
31700,44745,29813
31724,44807,29879
31764,44807,29959
31748,44807,29786
31760,44820,29719
31784,44764,29765
31848,44823,29748
31845,44807,29801
31847,44807,29788
31884,44796,29825
31900,44733,29877
31912,44775,29836
31909,44725,29835
31940,44791,29765
31928,44807,29695
31924,44807,29641
31936,44807,29606
31936,44773,29671
31972,44781,29663
31980,44775,29664
32024,44774,29735
32033,44772,29808
32040,44727,29607
32041,44772,29575
32092,44786,29657
32104,44786,29622
32080,44789,29621
32100,44774,29625
32128,44735,29652
32160,44767,29676
32144,44764,29677
32144,44751,29741
32110,44772,29754
32152,44772,29727
32144,44750,29676
32231,44774,29504
32256,44775,29563
32272,44701,29592
32300,44751,29652
32288,44743,29727
32282,44679,29482
32312,44740,29591
32316,44741,29566
32324,44709,29568
32304,44757,29612
32300,44708,29646
32328,44748,29652
32268,44735,29664
32245,44732,29607
32260,44723,29540
32293,44721,29674
32328,44727,29677
32368,44727,29573
32420,44721,29574
32464,44740,29628
32446,44679,29415
32440,44736,29417
32476,44725,29471
32516,44679,29516
32536,44695,29481
32589,44705,29473
32580,44693,29473
32572,44705,29535
32552,44701,29592
32554,44713,29615
32549,44719,29444
32548,44726,29366
32544,44711,29426
32557,44701,29356
32584,44679,29480
32565,44684,29435
32584,44679,29464
32588,44685,29569
32581,44642,29564
32565,44708,29329
32504,44700,29437
32480,44711,29418
32468,44693,29401
32500,44679,29414
32496,44668,29541
32504,44623,29319
32420,44679,29335
32444,44677,29399
32436,44625,29421
32396,44695,29377
32337,44679,29372
32300,44679,29383
32272,44621,29375
32300,44677,29383
32268,44656,29517
32302,44653,29385
32320,44655,29265
32320,44669,29336
32324,44677,29385
32332,44671,29372
32348,44628,29327
32400,44669,29392
32391,44671,29484
32389,44663,29277
32393,44604,29244
32452,44644,29269
32492,44652,29300
32500,44647,29247
32545,44657,29212
32580,44667,29228
32664,44661,29216
32716,44647,29280
32741,44647,29320
32772,44645,29268
32810,44633,29274
32852,44631,29328
32852,44573,29411
32772,44627,29324
32676,44639,29202
32644,44644,29241
32612,44645,29300
32628,44639,29396
32580,44581,29292
32600,44621,29129
32592,44611,29248
32592,44617,29252
32576,44613,29381
32557,44617,29137
32548,44627,29229
32585,44591,29225
32596,44633,29375
32612,44621,29309
32596,44621,29199
32570,44611,29100
32552,44591,29116
32485,44593,29185
32460,44546,29207
32464,44599,29191
32488,44551,29167
32498,44615,29167
32529,44617,29157
32574,44614,29180
32548,44549,29222
32560,44588,29173
32592,44593,29053
32598,44575,29127
32584,44595,29165
32516,44564,29122
32492,44593,29123
32456,44611,29135
32372,44580,29238
32176,44612,29277
31952,44594,29289
31652,44544,29124
31336,44581,29103
31156,44589,29023
31216,44585,29021
31373,44581,29093
31624,44589,29150
31881,44596,29109
32422,44607,29127
33208,44593,29175
34046,44540,29212
35164,44574,29293
36368,44573,29156
37580,44575,29047
38996,44566,29078
40664,44565,29110
42140,44577,29184
43188,44581,29180
43313,44575,29165
42300,44589,29333
40636,44590,29087
39300,44580,29156
37908,44581,29216
36412,44579,29226
35196,44527,29376
34412,44591,29132
34004,44590,29168
33788,44551,29244
33408,44591,29239
33036,44588,29415
32682,44583,29168
32393,44583,29246
32072,44543,29300
31852,44560,29306
31644,44508,29316
31486,44571,29413
31376,44581,29188
31300,44545,29217
31264,44580,29308
31230,44575,29287
31188,44575,29277
31180,44570,29271
31192,44551,29281
31182,44551,29294
31193,44551,29319
31176,44567,29453
31158,44572,29293
31184,44572,29204
31188,44573,29281
31204,44576,29279
31207,44570,29295
31224,44551,29343
31264,44551,29324
31329,44500,29446
31320,44545,29485
31376,44551,29340
31368,44567,29249
31388,44551,29313
31416,44575,29359
31448,44540,29337
31476,44551,29354
31456,44533,29383
31504,44537,29492
31508,44536,29274
31476,44541,29373
31508,44545,29356
31520,44551,29429
31517,44484,29429
31529,44546,29255
31564,44493,29272
31580,44551,29246
31622,44525,29285
31672,44533,29338
31696,44524,29325
31700,44539,29334
31704,44525,29299
31749,44544,29325
31748,44550,29276
31772,44549,29311
31796,44551,29325
31841,44533,29416
31872,44529,29376
31908,44527,29303
31936,44483,29425
31960,44518,29433
31984,44543,29295
31952,44541,29191
31916,44543,29223
31956,44485,29252
31980,44536,29199
31988,44516,29197
32032,44530,29238
32096,44530,29431
32118,44525,29327
32144,44517,29302
32122,44468,29329
32073,44532,29279
32056,44544,29229
32104,44546,29232
32148,44543,29313
32202,44529,29441
32240,44512,29319
32284,44519,29252
32268,44519,29305
32268,44506,29319
32228,44530,29367
32288,44524,29369
32329,44534,29298
32304,44536,29352
32324,44521,29332
32388,44517,29407
32400,44519,29397
32416,44515,29375
32456,44514,29377
32500,44512,29391
32520,44518,29397
32542,44527,29348
32584,44526,29292
32596,44541,29393
32608,44492,29461
32618,44518,29372
32598,44519,29409
32588,44470,29349
32636,44507,29294
32656,44493,29481
32652,44519,29541
32692,44514,29511
32712,44531,29432
32748,44527,29420
32752,44477,29431
32724,44509,29462
32756,44447,29458
32744,44503,29491
32800,44494,29549
32842,44490,29521
32797,44515,29437
32740,44455,29329
32688,44512,29322
32684,44519,29336
32649,44510,29354
32636,44444,29413
32609,44507,29413
32580,44488,29361
32576,44498,29375
32476,44501,29433
32400,44503,29484
32384,44455,29452
32372,44505,29447
32324,44469,29492
32360,44518,29635
32356,44513,29466
32312,44455,29417
32248,44498,29553
32220,44485,29534
32192,44486,29522
32132,44515,29532
32070,44506,29627
31966,44516,29679
31916,44519,29665
31816,44512,29772
31704,44511,29756
31632,44503,29799
31544,44437,29796
31477,44500,29845
31456,44500,29621
31412,44439,29644
31420,44509,29726
31408,44516,29788
31364,44508,29762
31369,44518,29796
31376,44483,29881
31324,44491,29958
31332,44501,30001
31356,44503,29908
31354,44492,29857
31333,44500,29901
31312,44518,29949
31284,44519,29989
31260,44527,30012
31272,44521,30036
31256,44517,30017
31284,44498,30037
31328,44491,30092
31358,44494,30017
31344,44501,30044
31292,44505,30126
31252,44513,30165
31257,44519,30128
31268,44488,30181
31288,44511,30197
31354,44458,30220
31386,44497,30287
31396,44476,30372
31420,44423,30396
31438,44485,30395
31412,44498,30427
31440,44452,30580
31442,44498,30573
31485,44519,30665
31516,44474,30589
31536,44509,30726
31592,44479,30765
31638,44482,30793
31660,44423,30805
31676,44484,30727
31668,44461,30787
31640,44503,30897
31648,44513,30884
31672,44519,30732
31716,44506,30791
31769,44506,30821
31788,44494,30864
31774,44493,30964
31768,44483,30983
31777,44485,30993
31792,44486,31028
31812,44507,31060
31810,44509,31116
31800,44452,31219
31832,44507,31305
31832,44495,31342
31796,44503,31277
31848,44490,31245
31860,44486,31287
31884,44497,31372
31901,44465,31367
31872,44506,31408
31841,44505,31519
31904,44516,31603
31960,44504,31572
31956,44498,31535
31992,44487,31594
32004,44487,31647
31984,44482,31673
31996,44484,31684
31988,44492,31717
31960,44455,31751
32005,44499,31791
31996,44510,31842
31992,44517,31903
32030,44492,31945
32020,44447,31959
32020,44481,32015
32029,44479,32065
32084,44479,32135
32084,44485,32205
32092,44494,32245
32096,44500,32221
32128,44444,32207
32148,44504,32263
32128,44490,32261
32149,44486,32355
32132,44479,32396
32121,44461,32428
32112,44478,32447
32068,44487,32454
32020,44474,32509
31946,44460,32534
31948,44495,32537
32018,44491,32503
32121,44480,32583
32192,44439,32604
32216,44473,32629
32232,44476,32560
32221,44434,32556
32232,44473,32610
32244,44438,32633
32152,44495,32633
32128,44486,32647
32112,44498,32692
32162,44446,32809
32172,44477,32694
32144,44460,32757
32141,44463,32768
32169,44477,32756
32200,44475,32815
32208,44421,32909
32221,44486,32925
32248,44484,32823
32276,44452,32859
32272,44479,32884
32276,44479,32916
32324,44470,32942
32357,44461,32948
32325,44414,32951
32292,44479,33053
32284,44473,32959
32268,44484,33031
32284,44423,33015
32320,44487,33140
32296,44483,33159
32308,44421,33115
32284,44462,33089
32264,44455,33127
32200,44463,33122
32196,44423,33205
32200,44466,33244
32220,44487,33268
32261,44487,33286
32296,44456,33268
32341,44477,33276
32396,44453,33244
32440,44452,33245
32460,44457,33263
32476,44463,33287
32440,44471,33317
32444,44468,33315
32461,44429,33307
32494,44479,33340
32528,44481,33391
32568,44471,33404
32572,44461,33341
32592,44415,33381
32632,44455,33384
32700,44447,33407
32764,44452,33399
32744,44455,33401
32745,44461,33466
32716,44483,33514
32760,44469,33463
32790,44471,33428
32732,44452,33439
32704,44455,33433
32662,44409,33469
32585,44455,33463
32560,44456,33487
32557,44469,33559
32560,44479,33517
32592,44474,33504
32564,44463,33423
32596,44452,33463
32600,44457,33464
32604,44438,33493
32592,44436,33489
32568,44383,33509
32600,44452,33570
32608,44453,33575
32588,44457,33517
32616,44461,33509
32608,44445,33463
32604,44455,33439
32616,44421,33479
32609,44447,33448
32600,44441,33495
32648,44423,33525
32652,44453,33524
32640,44455,33495
32640,44444,33415
32621,44465,33437
32548,44448,33425
32428,44423,33413
32240,44447,33447
31936,44381,33489
31680,44437,33475
31404,44447,33413
31238,44447,33360
31312,44457,33375
31524,44471,33367
31776,44460,33392
32048,44463,33367
32624,44415,33373
33430,44445,33380
34220,44389,33372
35332,44428,33381
36540,44439,33369
37696,44433,33350
39056,44447,33352
40646,44455,33428
42000,44449,33422
42896,44455,33367
42840,44449,33309
41712,44437,33333
40032,44453,33304
38680,44447,33373
37296,44460,33364
35864,44468,33340
34628,44472,33263
33964,44484,33253
33720,44476,33287
33606,44438,33287
33340,44469,33281
33001,44455,33274
32700,44457,33251
32444,44449,33255
32218,44455,33212
32008,44462,33217
31808,44433,33215
31676,44477,33199
31629,44471,33185
31596,44449,33167
31593,44455,33164
31564,44421,33089
31574,44449,33066
31612,44423,33124
31552,44455,33083
31552,44408,33012
31517,44477,32990
31537,44475,32969
31532,44484,32949
31548,44479,32920
31596,44469,32905
31596,44463,32925
31648,44461,32935
31692,44453,32975
31720,44453,32954
31733,44463,32925
31728,44465,32884
31764,44479,32885
31788,44463,32837
31812,44477,32821
31792,44463,32739
31824,44444,32710
31892,44447,32673
31932,44439,32647
32012,44441,32658
31980,44463,32649
31992,44476,32631
31998,44478,32581
32016,44487,32538
32044,44479,32500
32068,44485,32487
32093,44475,32446
32198,44455,32458
32249,44453,32479
32288,44437,32449
32268,44471,32375
32260,44420,32372
32230,44479,32289
32245,44476,32260
32236,44481,32323
32200,44485,32259
32256,44479,32255
32277,44469,32236
32292,44471,32201
32311,44479,32119
32344,44487,32113
32334,44492,32068
32340,44500,32012
32348,44499,31945
32313,44503,31949
32346,44492,31916
32388,44496,31868
32400,44437,31829
32424,44486,31845
32476,44484,31916
32472,44473,31903
32536,44504,31861
32501,44517,31826
32532,44514,31791
32568,44523,31814
32580,44511,31760
32628,44504,31765
32653,44490,31660
32668,44487,31538
32720,44503,31529
32706,44455,31521
32692,44518,31535
32736,44527,31501
32821,44510,31456
32848,44524,31438
32948,44519,31421
33032,44514,31388
33062,44527,31356
33088,44516,31335
33124,44519,31353
33172,44535,31305
33188,44483,31257
33180,44538,31226
33260,44493,31208
33240,44547,31204
33266,44532,31156
33268,44541,31149
33304,44532,31111
33356,44485,31089
33376,44527,31103
33375,44540,31131
33416,44534,31077
33380,44504,31017
33424,44551,30957
33412,44551,30935
33428,44551,30927
33448,44484,30945
33458,44534,31007
33496,44551,30863
33524,44547,30907
33533,44573,30959
33560,44569,30845
33604,44564,30751
33560,44583,30772
33614,44580,30735
33624,44575,30695
33652,44551,30661
33644,44551,30663
33648,44509,30657
33620,44551,30686
33580,44583,30596
33557,44588,30598
33484,44588,30583
33493,44599,30555
33512,44599,30535
33476,44593,30535
33420,44594,30510
33380,44590,30509
33320,44575,30492
33304,44529,30503
33280,44602,30470
33240,44615,30497
33188,44621,30471
33152,44625,30570
33100,44575,30613
32978,44614,30621
33014,44612,30499
32960,44609,30487
32904,44615,30386
32852,44620,30420
32812,44631,30417
32768,44645,30409
32727,44644,30407
32660,44655,30414
32676,44642,30503
32680,44640,30480
32677,44628,30629
32673,44631,30590
32644,44598,30503
32624,44640,30412
32624,44649,30476
32608,44611,30519
32576,44666,30516
32588,44644,30519
32572,44668,30500
32580,44665,30491
32608,44673,30583
32576,44654,30639
32596,44623,30644
32636,44660,30527
32663,44679,30436
32660,44677,30463
32680,44697,30510
32704,44645,30543
32716,44705,30516
32708,44688,30533
32680,44693,30607
32712,44687,30649
32724,44693,30599
32792,44692,30480
32812,44695,30551
32801,44708,30612
32776,44709,30591
32725,44722,30593
32724,44729,30639
32712,44661,30741
32756,44727,30647
32832,44717,30584
32904,44712,30690
32914,44725,30689
32988,44724,30678
33012,44743,30743
33068,44745,30708
33032,44694,30764
33073,44756,30862
33114,44749,30685
33124,44746,30749
33120,44742,30766
33120,44738,30804
33208,44733,30941
33196,44764,30804
33196,44765,30823
33164,44756,30852
33176,44788,30871
33213,44788,30895
33244,44741,30917
33333,44772,30927
33357,44783,30933
33368,44782,30950
33402,44775,30983
33328,44799,30973
33324,44802,30949
33320,44759,30936
33356,44831,30946
33380,44827,30993
33436,44823,31118
33420,44791,31201
33412,44807,31165
33452,44806,31111
33468,44765,31044
33450,44833,31067
33461,44820,31079
33496,44807,31143
33512,44853,31193
33557,44860,31207
33624,44800,31213
33676,44841,31229
33736,44839,31327
33648,44847,31267
33669,44849,31252
33632,44861,31276
33636,44871,31277
33668,44861,31207
33765,44876,31257
33744,44870,31288
33749,44868,31303
33776,44807,31292
33816,44867,31293
33864,44821,31257
33816,44879,31400
33824,44840,31456
33788,44896,31439
33785,44856,31367
33808,44908,31329
33828,44917,31312
33836,44901,31335
33880,44903,31373
33864,44911,31318
33848,44905,31327
33888,44855,31330
33888,44919,31349
33856,44935,31317
33860,44935,31294
33846,44917,31300
33816,44935,31451
33884,44911,31495
33919,44935,31495
33887,44934,31490
33812,44935,31447
33732,44935,31437
33724,44927,31463
33728,44959,31477
33769,44917,31361
33840,44981,31341
33816,44981,31342
33892,44975,31375
33924,44973,31367
33924,44975,31367
33893,44975,31341
33925,44991,31315
33936,44973,31295
33916,45005,31269
33885,45019,31445
33920,45013,31433
33924,45017,31394
33976,45004,31310
33969,44998,31351
34016,44993,31329
34028,44989,31311
34085,45021,31257
34072,45029,31239
34085,45028,31308
34100,44985,31381
34080,45053,31428
34048,45055,31311
34044,45047,31301
34048,45037,31279
34084,45036,31303
34132,45014,31277
34150,45045,31238
34124,45027,31316
34092,45063,31410
33996,45087,31263
33957,45093,31277
33940,45093,31268
33904,45077,31263
33848,45063,31271
33789,45052,31260
33774,45082,31252
33816,45093,31271
33768,45101,31285
33736,45108,31265
33724,45119,31257
33761,45135,31264
33809,45124,31249
33824,45063,31285
33828,45127,31269
33870,45111,31311
33850,45119,31308
33842,45113,31308
33836,45130,31310
33764,45142,31319
33800,45151,31282
33820,45151,31305
33868,45159,31324
33852,45161,31309
33829,45151,31335
33800,45145,31332
33808,45147,31317
33824,45114,31332
33828,45174,31300
33836,45175,31308
33848,45165,31340
33876,45184,31401
33920,45191,31489
34005,45160,31406
34041,45191,31297
34076,45175,31321
34080,45191,31343
34112,45186,31385
34176,45197,31414
34168,45215,31381
34132,45191,31438
34120,45235,31548
34116,45229,31435
34077,45221,31375
34052,45221,31581
34016,45225,31581
33888,45223,31561
33836,45215,31519
33800,45177,31589
33812,45253,31540
33852,45263,31548
33940,45265,31548
34016,45263,31605
34014,45213,31661
34028,45260,31671
34044,45263,31550
34020,45258,31532
33936,45244,31558
33932,45263,31567
33948,45271,31710
33956,45287,31516
33964,45295,31610
33972,45263,31599
33956,45301,31722
33936,45284,31553
33924,45292,31631
33861,45292,31643
33884,45237,31772
33904,45287,31636
33960,45311,31637
33956,45319,31751
33972,45327,31719
33945,45327,31623
33805,45297,31647
33590,45333,31697
33328,45319,31736
32996,45319,31708
32665,45342,31791
32524,45285,31864
32648,45345,31715
32884,45365,31739
33152,45374,31797
33516,45316,31769
34176,45381,31781
34928,45364,31824
35840,45340,31908
37024,45364,31933
38208,45365,31829
39416,45375,31781
40780,45355,31829
42356,45391,31853
43624,45385,31887
44317,45391,32022
44025,45389,31837
42713,45396,31844
41096,45412,31863
39772,45400,31905
38292,45423,31959
36868,45382,31929
35804,45447,32037
35232,45452,32103
35004,45419,32060
34812,45445,32039
34436,45445,32023
34100,45447,32133
33825,45439,32103
33518,45447,32117
33309,45447,32159
33096,45404,32154
32944,45467,32135
32768,45479,32109
32680,45425,32164
32644,45495,32150
32588,45485,32007
32504,45471,31988
32464,45479,31948
32464,45473,31953
32437,45413,31949
32448,45484,31958
32396,45495,31963
32444,45447,32008
32429,45503,32029
32448,45503,32026
32472,45481,32020
32492,45484,32004
32476,45497,32022
32474,45493,32025
32472,45511,32004
32468,45476,31991
32525,45527,31994
32548,45530,31991
32516,45461,31972
32548,45536,32002
32556,45517,32093
32620,45471,32113
32644,45532,32076
32688,45521,32044
32632,45533,31929
32600,45541,31950
32576,45545,31950
32648,45543,31968
32776,45548,31965
32848,45527,31980
33016,45558,31964
33068,45548,31953
33108,45554,31936
33180,45540,31926
33176,45554,31910
33164,45573,31893
33200,45575,31879
33260,45575,31862
33281,45575,31857
33316,45541,31822
33345,45575,31795
33388,45575,31803
33464,45571,31841
33520,45575,31879
33578,45575,31711
33616,45599,31704
33626,45596,31727
33608,45597,31876
33633,45617,31756
33636,45607,31718
33640,45607,31708
33616,45607,31703
33624,45602,31699
33616,45597,31677
33608,45558,31663
33680,45612,31676
33687,45597,31695
33708,45617,31687
33756,45622,31679
33756,45631,31592
33764,45623,31634
33796,45629,31648
33796,45627,31645
33789,45622,31639
33800,45620,31629
33817,45629,31613
33844,45639,31560
33840,45645,31584
33869,45625,31597
33860,45647,31575
33861,45629,31561
33909,45647,31519
33888,45645,31532
33881,45642,31591
33878,45633,31645
33888,45655,31415
33900,45615,31447
33884,45671,31463
33850,45676,31481
33865,45615,31436
33860,45653,31419
33893,45655,31428
33888,45655,31432
33940,45654,31500
33936,45660,31555
33936,45663,31452
33936,45639,31364
33952,45681,31372
33968,45679,31343
33968,45687,31462
33996,45661,31489
33988,45666,31421
33996,45663,31239
33984,45665,31280
33960,45668,31322
33924,45679,31273
33960,45684,31306
33913,45693,31417
33872,45652,31405
33852,45679,31253
33830,45685,31177
33812,45679,31220
33748,45679,31173
33700,45644,31207
33637,45677,31239
33616,45629,31199
33616,45703,31173
33660,45703,31212
33676,45661,31332
33677,45703,31196
33660,45692,31129
33572,45667,31175
33496,45685,31212
33493,45636,31188
33444,45695,31164
33336,45703,31156
33208,45719,31187
33112,45717,31292
33008,45725,31279
33000,45716,31215
33004,45703,31121
32944,45703,31215
32837,45669,31196
32812,45703,31180
32781,45703,31200
32668,45703,31183
32566,45724,31151
32552,45725,31219
32520,45732,31264
32484,45733,31261
32416,45725,31265
32332,45663,31282
32304,45703,31302
32329,45703,31274
32296,45717,31335
32228,45725,31445
32229,45703,31469
32174,45733,31487
32140,45703,31438
32128,45741,31436
32061,45735,31431
32020,45735,31357
32016,45721,31348
31976,45727,31447
31928,45703,31431
31956,45729,31564
32036,45741,31480
32022,45748,31422
31964,45741,31484
31840,45757,31449
31845,45748,31471
31884,45743,31525
31828,45727,31554
31860,45727,31565
31948,45735,31604
31929,45677,31655
31956,45754,31700
31973,45753,31717
31852,45762,31732
32006,45765,31775
31948,45719,31790
31936,45755,31774
31992,45743,31810
32028,45677,31923
32076,45751,32004
32144,45748,31973
32128,45736,31870
32136,45761,31871
32142,45783,31902
32136,45767,31938
32132,45759,31981
32164,45756,32053
32188,45703,32088
32185,45747,32109
32196,45756,32141
32172,45753,32172
32172,45765,32191
32160,45767,32202
32172,45775,32249
32168,45770,32274
32153,45757,32296
32117,45758,32284
32196,45760,32300
32304,45756,32340
32346,45759,32372
32436,45765,32373
32508,45748,32369
32560,45772,32398
32522,45775,32412
32472,45775,32431
32480,45767,32468
32502,45767,32527
32484,45756,32511
32500,45767,32508
32504,45759,32600
32504,45767,32599
32551,45763,32675
32552,45717,32616
32588,45783,32673
32592,45775,32732
32660,45743,32702
32652,45767,32643
32664,45759,32647
32620,45761,32724
32548,45759,32780
32540,45767,32709
32545,45773,32617
32580,45777,32639
32612,45785,32699
32588,45765,32709
32549,45778,32681
32630,45772,32686
32668,45765,32759
32684,45767,32753
32661,45756,32815
32625,45775,32830
32644,45787,32838
32572,45781,32839
32590,45727,32746
32596,45790,32665
32496,45759,32677
32520,45775,32716
32577,45743,32740
32638,45742,32685
32656,45759,32691
32648,45767,32700
32624,45771,32764
32520,45773,32783
32496,45777,32796
32544,45764,32820
32588,45764,32770
32592,45765,32788
32624,45694,32741
32648,45766,32623
32648,45767,32660
32630,45766,32641
32620,45746,32633
32648,45745,32749
32688,45783,32632
32677,45772,32551
32636,45776,32601
32756,45774,32576
32728,45703,32581
32644,45764,32565
32680,45761,32655
32636,45757,32509
32668,45703,32451
32696,45781,32423
32732,45775,32412
32756,45735,32356
32740,45765,32549
32736,45758,32453
32780,45751,32340
32782,45749,32321
32764,45759,32324
32736,45756,32316
32752,45733,32317
32736,45767,32288
32752,45782,32220
32746,45777,32159
32753,45765,32118
32741,45757,32199
32740,45748,32180
32708,45749,32133
32732,45759,31983
32736,45767,32105
32688,45772,31918
32673,45773,31885
32616,45783,31975
32625,45775,31941
32608,45764,31804
32524,45765,31788
32485,45759,31795
32484,45749,31772
32468,45725,31783
32500,45765,31785
32508,45773,31751
32496,45775,31751
32476,45756,31724
32505,45765,31685
32478,45764,31676
32428,45696,31689
32412,45757,31724
32456,45743,31777
32464,45756,31783
32388,45727,31564
32365,45757,31563
32396,45767,31575
32394,45767,31648
32433,45725,31607
32496,45767,31751
32500,45727,31611
32508,45749,31591
32480,45743,31533
32545,45727,31567
32500,45759,31605
32492,45724,31615
32448,45764,31636
32364,45775,31600
32365,45767,31646
32312,45751,31711
32296,45750,31607
32328,45757,31573
32336,45681,31644
32324,45759,31607
32302,45756,31626
32288,45767,31702
32244,45773,31809
32160,45767,31591
32124,45764,31614
32116,45767,31640
32080,45749,31677
32053,45748,31709
32116,45736,31846
32168,45749,31720
32120,45716,31684
32081,45759,31745
32032,45773,31796
32036,45711,31765
32040,45765,31801
32076,45761,31927
32116,45693,31964
32177,45740,31887
32328,45743,31804
32340,45743,31884
32372,45703,31865
32404,45767,31957
32406,45765,31954
32356,45761,31911
32384,45757,31923
32325,45759,32039
32300,45679,32021
32200,45732,31919
32170,45725,32007
32184,45733,32007
32192,45713,31994
32186,45742,32060
32164,45749,32141
32231,45716,32125
32280,45743,32049
32318,45727,32027
32372,45721,32095
32424,45655,32191
32456,45727,32007
32480,45715,32079
32473,45727,32060
32448,45695,32105
32468,45727,32196
32472,45733,32007
32520,45723,32085
32519,45703,32045
32569,45711,32188
32546,45703,32125
32532,45643,32007
32524,45703,32065
32536,45700,32047
32532,45703,32055
32552,45703,32090
32544,45703,32162
32610,45719,32094
32604,45661,32018
32568,45695,32077
32512,45684,32039
32304,45684,32164
32038,45679,32189
31744,45679,31999
31469,45676,32022
31196,45669,32079
31152,45700,32097
31284,45701,32197
31520,45699,32200
31800,45622,32087
32240,45677,32031
32948,45676,32036
33734,45673,32078
34684,45626,32101
35888,45685,32089
37088,45687,32076
38336,45689,32217
39932,45637,32105
41476,45671,32036
42781,45659,32061
43288,45637,32105
42748,45652,32064
41184,45663,32177
39584,45673,32116
38212,45662,32020
36720,45694,32021
35384,45687,32053
34446,45669,32108
34013,45678,32061
33828,45644,32149
33580,45660,32169
33216,45605,32185
32848,45655,32097
32520,45655,32007
32224,45671,32012
31980,45665,32079
31741,45664,32075
31622,45663,32063
31528,45575,32040
31466,45653,32007
31472,45631,32039
31468,45631,32047
31448,45638,32111
31416,45631,32099
31373,45637,32078
31416,45644,32073
31357,45637,32029
31392,45636,31865
31448,45572,31930
31400,45622,31909
31380,45623,31862
31444,45606,31855
31488,45617,31973
31476,45621,31985
31432,45561,31894
31492,45627,31789
31496,45623,31839
31524,45621,31791
31564,45619,31879
31556,45615,31930
31605,45596,31823
31621,45597,31719
31573,45567,31731
31528,45596,31698
31552,45613,31708
31660,45565,31765
31704,45627,31738
31660,45607,31721
31658,45605,31743
31716,45591,31845
31824,45575,31744
31896,45575,31638
31949,45522,31671
32000,45599,31678
32000,45599,31660
32056,45540,31665
32102,45593,31671
32064,45575,31632
32108,45589,31586
32146,45575,31635
32216,45559,31631
32228,45559,31703
32244,45568,31495
32268,45516,31546
32296,45575,31568
32309,45575,31527
32312,45575,31548
32308,45575,31618
32330,45572,31663
32400,45556,31593
32428,45558,31450
32460,45556,31457
32448,45575,31513
32416,45572,31505
32436,45571,31484
32448,45572,31481
32408,45575,31516
32456,45571,31564
32456,45548,31463
32477,45562,31481
32460,45551,31445
32520,45537,31471
32556,45555,31562
32580,45558,31486
32604,45509,31384
32608,45566,31408
32644,45556,31440
32702,45542,31423
32716,45543,31423
32740,45542,31396
32772,45515,31373
32785,45517,31388
32752,45479,31352
32756,45541,31327
32761,45543,31335
32772,45555,31348
32832,45540,31317
32876,45533,31312
32887,45543,31422
32924,45524,31223
32949,45528,31215
32992,45508,31277
33048,45526,31253
33044,45503,31215
33036,45529,31217
33069,45533,31229
33061,45541,31233
33097,45523,31281
33124,45519,31279
33117,45447,31117
33167,45496,31150
33172,45492,31199
33204,45500,31199
33196,45468,31157
33192,45495,31156
33220,45523,31200
33232,45519,31228
33280,45513,31200
33240,45495,31239
33292,45433,31310
33292,45488,31207
33292,45485,31164
33276,45423,31089
33216,45487,31138
33148,45495,31097
33096,45503,31108
33060,45495,31193
33064,45492,31166
33036,45431,31233
33060,45479,31313
32972,45479,31310
32960,45431,31353
32956,45469,31317
32909,45465,31341
32896,45477,31359
32736,45479,31225
32808,45468,31207
32772,45458,31280
32712,45469,31256
32621,45447,31272
32548,45439,31301
32588,45447,31428
32541,45447,31383
32512,45447,31274
32468,45443,31306
32408,45447,31321
32372,45447,31372
32268,45447,31367
32240,45444,31516
32180,45417,31305
32120,45420,31326
32072,45421,31409
31941,45425,31414
31840,45424,31429
31896,45436,31495
31761,45399,31441
31764,45431,31424
31780,45429,31434
31776,45367,31408
31660,45415,31420
31612,45343,31429
31636,45388,31558
31732,45407,31593
31656,45409,31449
31678,45406,31412
31733,45366,31462
31862,45413,31483
31872,45412,31482
31869,45404,31622
31916,45383,31514
31940,45319,31458
31910,45364,31514
31900,45377,31516
31880,45319,31526
31857,45395,31668
31892,45396,31676
31918,45337,31636
31928,45380,31570
31924,45379,31526
31933,45367,31569
31908,45344,31613
31869,45353,31597
31932,45303,31695
31996,45365,31535
31992,45375,31565
31988,45333,31620
31976,45372,31639
32108,45372,31657
32164,45361,31618
32230,45341,31773
32256,45349,31603
32288,45276,31668
32308,45340,31653
32336,45341,31732
32332,45345,31692
32332,45311,31636
32328,45356,31719
32336,45341,31693
32348,45319,31708
32376,45319,31777
32400,45319,31873
32408,45317,31684
32417,45306,31751
32400,45319,31743
32397,45319,31760
32464,45319,31911
32480,45334,31737
32512,45276,31820
32556,45306,31796
32564,45313,31909
32576,45308,31969
32644,45261,31837
32672,45309,31882
32661,45308,31855
32600,45319,31863
32616,45279,31935
32596,45316,32025
32660,45300,32006
32680,45311,31849
32676,45293,31913
32628,45295,31963
32637,45293,31972
32640,45289,31943
32648,45300,31917
32644,45303,31951
32652,45297,31984
32660,45257,32007
32656,45304,32006
32640,45287,31988
32724,45239,32045
32720,45277,32053
32780,45269,32036
32824,45284,32015
32804,45280,32060
32816,45284,32173
32820,45237,32135
32853,45301,31990
32852,45287,32030
32822,45223,32073
32768,45284,32027
32792,45263,32146
32800,45255,32077
32792,45269,32047
32760,45231,32054
32712,45279,32076
32698,45272,32147
32726,45285,31983
32744,45255,32069
32740,45261,32021
32808,45252,32051
32805,45252,32156
32824,45204,32045
32846,45263,31959
32832,45263,32037
32789,45277,31981
32756,45276,32017
32768,45281,32100
32764,45271,31927
32788,45253,31990
32760,45260,31962
32749,45241,32026
32714,45245,31972
32682,45248,31988
32676,45207,31940
32596,45268,32071
32524,45263,32079
32516,45277,31882
32544,45259,31908
32557,45256,31952
32568,45247,31903
32638,45248,31975
32632,45244,32052
32669,45241,31895
32705,45208,31919
32708,45263,31887
32700,45257,31966
32680,45269,31847
32648,45266,31909
32640,45191,32007
32640,45255,31836
32644,45253,31887
32668,45239,31916
32688,45209,31895
32728,45247,31893
32736,45236,31905
32732,45252,31879
32736,45255,31913
32736,45257,31969
32716,45253,32039
32732,45209,31908
32754,45228,31845
32744,45236,31897
32763,45237,31911
32780,45235,31893
32792,45191,31920
32804,45247,31947
32768,45255,32007
32796,45220,31876
32828,45239,31942
32837,45231,31904
32880,45232,32044
32856,45221,32077
32828,45231,31980
32784,45239,31890
32752,45247,31925
32744,45191,31967
32748,45255,31958
32738,45245,32007
32760,45191,32014
32753,45227,32015
32768,45228,32034
32752,45205,32001
32729,45228,32009
32632,45231,32095
32644,45236,32169
32640,45260,32015
32644,45237,32087
32645,45253,32071
32629,45181,32130
32694,45239,32192
32729,45221,32119
32768,45228,32125
32800,45205,32175
32784,45237,32198
32816,45239,32193
32804,45187,32212
32772,45253,32333
32784,45239,32316
32786,45180,32233
32820,45232,32301
32860,45223,32340
32916,45161,32361
32980,45231,32359
33016,45228,32351
33021,45176,32396
33017,45247,32519
33044,45245,32565
33068,45184,32461
33044,45234,32429
33040,45228,32493
33030,45179,32510
32996,45225,32532
32964,45220,32526
32960,45223,32621
32940,45191,32719
32953,45239,32701
32980,45235,32636
33012,45225,32634
32937,45224,32692
32914,45223,32685
32952,45215,32711
32968,45173,32724
32980,45204,32780
33046,45228,32833
33060,45235,32935
33080,45230,32786
33108,45233,32823
33132,45231,32881
33121,45205,32916
33120,45191,32943
33126,45215,32952
33132,45215,32974
33148,45191,32967
33136,45213,32975
33088,45231,33004
33024,45239,33017
33088,45226,33108
33088,45228,33164
33112,45221,33212
33084,45205,33216
33000,45181,33144
32809,45213,33167
32544,45215,33191
32224,45236,33234
31896,45220,33344
31692,45243,33391
31712,45247,33369
31892,45243,33298
32205,45205,33321
32520,45221,33370
33016,45223,33405
33744,45215,33469
34520,45223,33465
35480,45217,33493
36464,45229,33552
37524,45191,33565
38676,45242,33584
39912,45241,33624
41068,45237,33660
41800,45223,33669
41824,45199,33723
40988,45226,33743
39428,45228,33825
37980,45251,33933
36808,45246,33895
35660,45260,33875
34668,45275,33949
34181,45271,33953
34096,45247,34021
34132,45245,34126
34036,45241,34188
33716,45236,34180
33436,45217,34133
33206,45261,34193
32992,45255,34264
32736,45257,34284
32478,45191,34309
32292,45255,34375
32220,45244,34488
32136,45247,34445
32084,45247,34457
32116,45237,34519
32110,45247,34564
32120,45213,34580
32100,45255,34674
32028,45255,34732
32008,45260,34719
32036,45215,34741
32044,45255,34809
32072,45246,34840
32116,45181,34864
32127,45247,34951
32140,45237,35038
32116,45247,35089
32056,45251,35132
32036,45259,35136
32080,45231,35133
32068,45259,35177
32116,45204,35229
32176,45257,35303
32228,45248,35324
32256,45247,35382
32292,45252,35431
32276,45252,35498
32279,45269,35537
32261,45253,35575
32288,45270,35629
32332,45262,35679
32352,45255,35716
32340,45244,35767
32405,45247,35805
32460,45241,35872
32516,45248,35919
32524,45253,35973
32554,45247,36017
32516,45265,36051
32500,45248,36103
32558,45276,36143
32601,45252,36151
32585,45256,36175
32588,45245,36207
32606,45255,36263
32636,45263,36315
32652,45273,36372
32637,45207,36392
32653,45271,36431
32704,45223,36484
32736,45284,36501
32740,45271,36557
32809,45273,36622
32909,45266,36665
32908,45253,36711
32944,45271,36757
32916,45281,36814
32933,45272,36868
32948,45220,36943
32936,45279,36974
32952,45286,37040
32952,45281,37087
33028,45277,37143
33038,45262,37199
33056,45260,37247
33112,45229,37288
33080,45263,37348
33124,45236,37412
33144,45301,37452
33144,45301,37511
33176,45282,37572
33152,45276,37629
33156,45293,37691
33214,45287,37740
33258,45283,37791
33288,45233,37848
33320,45303,37905
33332,45303,37942
33316,45316,38015
33364,45319,38063
33396,45300,38119
33468,45306,38182
33500,45295,38232
33516,45303,38303
33516,45303,38333
33564,45304,38401
33616,45301,38461
33588,45316,38515
33616,45263,38540
33668,45319,38628
33672,45319,38709
33714,45309,38749
33762,45300,38815
33732,45308,38851
33736,45311,38888
33734,45308,38931
33752,45283,38984
33700,45333,39100
33652,45335,39151
33678,45341,39212
33632,45335,39280
33700,45319,39341
33726,45269,39365
33705,45317,39404
33740,45313,39473
33776,45319,39541
33746,45337,39639
33693,45345,39707
33621,45349,39754
33716,45337,39815
33644,45287,39885
33592,45348,39943
33504,45343,39972
33493,45329,40021
33460,45313,40116
33456,45341,40164
33416,45340,40247
33368,45340,40286
33333,45367,40275
33324,45368,40327
33264,45367,40455
33214,45356,40511
33156,45319,40551
33044,45351,40615
32993,45349,40605
32913,45289,40630
32832,45360,40665
32796,45369,40809
32696,45381,40837
32640,45383,40888
32586,45383,40932
32536,45383,40962
32440,45371,40919
32372,45311,40967
32324,45361,41104
32281,45369,41127
32231,45348,41191
32184,45366,41146
32160,45396,41135
32140,45340,41276
32156,45407,41301
32148,45396,41348
32156,45319,41387
32136,45383,41369
32112,45377,41350
32094,45396,41388
32056,45393,41414
32086,45337,41409
32137,45415,41431
32068,45417,41463
32076,45422,41479
32092,45415,41530
32108,45349,41647
32097,45388,41653
32080,45395,41676
32120,45407,41572
32196,45421,41718
32192,45420,41639
32221,45390,41647
32180,45423,41647
32260,45395,41668
32369,45416,41644
32381,45421,41654
32400,45417,41775
32434,45388,41757
32480,45420,41759
32505,45431,41752
32520,45437,41735
32556,45447,41743
32584,45447,41735
32630,45447,41716
32656,45447,41724
32704,45439,41708
32684,45429,41717
32718,45364,41695
32724,45430,41559
32698,45443,41548
32720,45462,41543
32708,45461,41527
32668,45445,41487
32736,45463,41447
32768,45399,41414
32788,45447,41434
32796,45447,41388
32792,45457,41372
32768,45457,41431
32778,45423,41399
32812,45476,41350
32821,45476,41301
32844,45479,41263
32838,45479,41233
32728,45477,41181
32748,45479,41170
32792,45463,41141
32848,45439,41092
32816,45460,41061
32820,45495,40999
32876,45500,40967
32892,45503,40927
32865,45497,40903
32840,45509,40852
32916,45501,40807
32958,45447,40744
32984,45484,40708
32960,45487,40575
32952,45437,40541
32933,45439,40545
32920,45503,40511
32940,45510,40392
32940,45513,40327
32908,45526,40335
32868,45519,40262
32888,45503,40218
32924,45479,40144
32927,45511,40108
32904,45496,39985
32918,45522,39905
32940,45479,39876
32908,45530,39797
32964,45543,39727
32956,45541,39678
32953,45532,39663
32934,45527,39596
32932,45519,39508
32984,45521,39439
32968,45536,39379
32920,45543,39302
32944,45551,39245
32964,45556,39143
32960,45565,39080
32988,45557,39002
32989,45547,38933
32988,45541,38842
33016,45546,38772
33040,45537,38677
33055,45541,38584
33040,45516,38503
33032,45560,38435
33064,45569,38342
33040,45572,38253
33033,45565,38169
33024,45565,38077
33016,45565,37989
33034,45516,37911
33028,45556,37823
32997,45500,37735
32968,45559,37639
32920,45575,37549
32852,45532,37468
32860,45575,37364
32860,45575,37287
32864,45574,37202
32892,45573,37108
32886,45573,37029
32900,45575,36935
32929,45575,36859
32888,45575,36717
32864,45593,36649
32814,45599,36575
32823,45599,36486
32820,45575,36389
32809,45605,36303
32797,45590,36214
32810,45596,36112
32833,45591,36022
32856,45591,35940
32848,45603,35847
32864,45569,35756
32840,45615,35662
32912,45607,35598
32924,45634,35500
32892,45612,35407
32944,45607,35311
32976,45551,35213
32984,45607,35126
32956,45557,35047
32977,45620,34957
33044,45636,34870
33052,45647,34773
32972,45575,34677
32996,45637,34583
32962,45604,34500
33048,45591,34439
33132,45637,34320
33237,45631,34238
33300,45623,34230
33288,45629,34150
33228,45645,33983
33156,45654,33906
33156,45663,33799
33164,45653,33811
33136,45644,33755
33084,45575,33531
33066,45636,33471
33036,45639,33396
33024,45619,33343
33020,45651,33263
33018,45655,33181
32989,45667,33093
32976,45663,33013
32958,45661,32868
33024,45591,32875
33056,45659,32729
33064,45640,32654
33036,45639,32591
33001,45637,32525
33064,45631,32476
33068,45663,32373
32972,45671,32317
32976,45670,32204
32980,45617,32126
32996,45660,32050
33012,45615,32018
33049,45655,31932
33012,45654,31828
33044,45636,31867
33020,45655,31860
33000,45670,31791
32932,45668,31725
32738,45669,31579
32476,45663,31581
32192,45679,31513
31845,45595,31407
31616,45657,31334
31664,45610,31333
31936,45664,31109
32162,45621,31213
32498,45678,31111
33012,45677,31018
33789,45645,30815
34608,45684,30752
35648,45679,30717
36700,45671,30756
37852,45668,30716
39044,45671,30648
40216,45677,30564
41268,45685,30527
41756,45657,30518
41472,45697,30460
40396,45703,30389
38784,45662,30349
37376,45703,30292
36192,45703,30257
35176,45645,30237
34444,45701,30230
34084,45700,30298
34044,45676,30159
33976,45719,30028
33864,45703,30028
33492,45717,29991
33183,45703,30039
32961,45695,29988
32704,45695,29981
32501,45685,29765
32277,45685,29816
32132,45684,29826
31988,45695,29786
31864,45671,29831
31808,45708,29792
31736,45703,29564
31701,45647,29560
31644,45703,29593
31640,45681,29612
31656,45687,29524
31724,45693,29602
31676,45692,29532
31640,45637,29569
31660,45703,29335
31664,45703,29381
31693,45717,29366
31730,45640,29462
31728,45703,29221
31728,45693,29348
31776,45677,29319
31832,45623,29425
31810,45684,29385
31788,45703,29177
31788,45644,29137
31780,45703,29159
31794,45697,29191
31796,45693,29230
31840,45703,29188
31808,45684,28980
31784,45695,29072
31812,45681,29033
31849,45643,29063
31860,45698,29116
31952,45703,28931
31982,45715,28841
32004,45702,28853
32004,45700,28928
32056,45701,28905
32036,45701,28823
32010,45685,28850
32024,45689,28807
32044,45687,28819
32050,45702,28863
32018,45698,28761
32010,45703,28597
32056,45663,28589
32061,45719,28701
32084,45693,28663
32092,45703,28659
32112,45692,28679
32142,45687,28767
32136,45687,28580
32136,45694,28465
32100,45631,28508
32100,45703,28601
32116,45719,28576
32136,45703,28588
32160,45696,28577
32185,45627,28580
32224,45687,28583
32256,45687,28551
32260,45694,28565
32309,45695,28532
32356,45700,28561
32408,45703,28602
32404,45703,28721
32412,45703,28556
32468,45693,28661
32509,45692,28609
32432,45692,28692
32477,45684,28736
32500,45681,28648
32541,45681,28631
32568,45636,28605
32564,45700,28597
32560,45716,28601
32628,45703,28593
32680,45701,28583
32716,45652,28577
32748,45679,28607
32744,45685,28600
32798,45684,28583
32801,45687,28558
32804,45679,28653
32828,45692,28701
32825,45701,28697
32901,45703,28593
32972,45692,28639
32976,45657,28560
33028,45671,28486
33038,45679,28487
33048,45685,28489
33092,45676,28687
33100,45687,28696
33148,45693,28657
33182,45692,28629
33215,45692,28623
33136,45687,28679
33144,45677,28626
33128,45671,28567
33144,45671,28556
33172,45671,28597
33152,45607,28647
33104,45679,28660
33148,45695,28487
33137,45695,28453
33080,45676,28391
33069,45680,28433
33068,45670,28485
33061,45653,28437
33004,45665,28390
33024,45663,28388
32972,45668,28407
32992,45670,28468
32944,45677,28462
32872,45687,28416
32848,45669,28462
32784,45613,28471
32720,45652,28535
32645,45655,28564
32612,45605,28560
32544,45655,28551
32452,45658,28567
32380,45671,28562
32312,45671,28583
32252,45639,28609
32200,45668,28628
32148,45599,28644
32085,45661,28685
32058,45639,28735
32080,45584,28749
32012,45639,28838
31914,45641,28694
31842,45620,28697
31804,45648,28627
31740,45658,28614
31708,45653,28615
31688,45620,28713
31728,45655,28645
31716,45625,28666
31673,45615,28722
31604,45612,28689
31596,45639,28721
31568,45623,28780
31584,45639,28825
31580,45641,28858
31624,45597,28892
31656,45645,28944
31668,45623,29007
31620,45599,29027
31662,45617,29097
31696,45615,28896
31700,45617,29063
31708,45637,29063
31696,45629,29081
31708,45575,29092
31764,45631,29133
31764,45623,29156
31832,45615,29180
31861,45607,29265
31864,45604,29348
31908,45605,29386
31861,45575,29294
31804,45620,29217
31852,45623,29262
31840,45612,29276
31813,45556,29319
31836,45606,29335
31864,45540,29367
31920,45596,29398
31984,45605,29528
32013,45597,29533
32032,45599,29599
32064,45588,29733
32021,45615,29703
32052,45621,29767
32084,45620,29686
32076,45599,29602
32100,45552,29639
32104,45575,29748
32156,45575,29821
32140,45584,29841
32166,45589,29824
32156,45604,29902
32176,45607,30060
32180,45601,29998
32236,45544,29949
32320,45593,29907
32360,45575,30028
32377,45511,30041
32416,45560,30082
32424,45568,30107
32448,45572,30116
32446,45591,30183
32429,45575,30261
32452,45599,30114
32424,45575,30164
32405,45575,30205
32444,45575,30236
32453,45548,30290
32472,45559,30364
32444,45554,30343
32520,45511,30379
32468,45575,30429
32480,45575,30553
32498,45525,30598
32536,45567,30589
32520,45565,30654
32552,45550,30644
32584,45549,30636
32575,45548,30607
32592,45547,30598
32572,45552,30577
32588,45506,30575
32548,45562,30595
32480,45511,30612
32537,45556,30639
32528,45548,30639
32576,45541,30652
32609,45541,30708
32584,45511,30708
32602,45540,30725
32612,45539,30652
32609,45545,30640
32613,45520,30670
32588,45547,30716
32605,45516,30796
32624,45538,30901
32608,45542,30857
32660,45514,30909
32720,45479,30902
32772,45518,30941
32804,45487,30948
32768,45529,30900
32736,45476,30919
32704,45539,30934
32720,45543,30875
32701,45531,30980
32720,45511,31017
32765,45493,31025
32800,45508,30925
32732,45521,30900
32706,45519,30900
32636,45503,30909
32576,45508,30959
32564,45527,30964
32536,45525,30935
32529,45508,30947
32549,45500,30954
32541,45503,30945
32582,45493,30949
32493,45447,30965
32448,45511,30959
32420,45511,30975
32392,45519,30994
32400,45511,31015
32432,45493,31094
32452,45503,31143
32460,45485,31039
32476,45485,30956
32560,45485,31013
32644,45484,31019
32718,45485,31016
32657,45499,31088
32676,45511,31186
32708,45492,30966
32724,45436,30981
32732,45479,30988
32728,45477,31026
32741,45471,31031
32772,45463,31060
32776,45467,31060
32764,45479,31089
32858,45479,31053
32908,45479,31053
32833,45476,31097
32840,45463,31118
32852,45463,31153
32880,45401,31153
32844,45447,31149
32816,45397,31176
32768,45436,31192
32772,45405,31220
32764,45467,31135
32752,45463,31009
32804,45412,31079
32800,45457,31089
32800,45447,31095
32790,45438,31085
32804,45427,31042
32820,45369,31040
32852,45427,31057
32848,45442,31081
32846,45447,31090
32852,45432,31195
32892,45383,31025
32820,45439,30978
32812,45421,30961
32860,45421,30953
32872,45409,30949
32848,45415,30936
32852,45405,31060
32836,45420,31070
32832,45413,30972
32790,45428,31009
32776,45428,31061
32644,45391,30900
32608,45408,30925
32645,45405,30964
32732,45396,30935
32724,45394,30869
32608,45384,30874
32412,45396,30863
32108,45381,30861
31808,45415,30888
31500,45421,30887
31368,45406,30906
31372,45405,30881
31620,45359,30915
31916,45393,30951
32220,45396,30945
32773,45391,30953
33573,45407,30944
34426,45357,30948
35549,45413,30956
36712,45400,30960
37900,45393,30959
39336,45383,30952
40980,45332,30973
42412,45358,30943
43228,45359,30946
43028,45365,30979
41793,45364,30967
40128,45391,30956
38844,45382,30943
37432,45391,30938
35988,45396,30924
34842,45391,30950
34173,45380,30924
33864,45334,31065
33592,45367,31164
33205,45364,31140
32848,45377,31012
32566,45368,31036
32264,45380,31151
31972,45365,31065
31744,45375,31061
31575,45364,31095
31476,45353,31079
31405,45349,31141
31388,45351,31119
31345,45341,31045
31304,45353,31041
31252,45353,31068
31192,45356,31087
31230,45361,31040
31270,45285,30999
31220,45335,31011
31216,45332,31026
31188,45319,30980
31188,45319,30977
31216,45319,31016
31220,45341,31009
31216,45349,30973
31220,45347,30969
31240,45337,30983
31310,45328,31005
31320,45319,30975
31332,45310,30999
31344,45266,31012
31356,45299,31133
31340,45300,31014
31380,45319,30897
31440,45315,30893
31394,45317,30956
31457,45317,30901
31536,45315,30896
31520,45303,30944
31593,45286,30949
31620,45272,30941
31668,45225,30884
31684,45263,30871
31640,45214,30921
31632,45287,30954
31652,45284,31068
31692,45284,30988
31710,45268,31035
31696,45271,31015
31673,45261,30799
31696,45263,30822
31745,45247,30816
31788,45189,30806
31816,45252,30831
31808,45261,30755
31836,45275,30727
31829,45201,30837
31824,45255,30950
31840,45255,30879
31864,45255,30796
31856,45230,30753
31884,45185,30785
31909,45229,30796
31988,45239,30809
32032,45245,30815
32084,45245,30785
32140,45191,30773
32196,45232,30792
32248,45229,30800
32229,45220,30799
32228,45221,30780
32302,45147,30772
32296,45221,30804
32337,45213,30837
32340,45159,30924
32324,45221,30877
32352,45220,30703
32408,45221,30804
32424,45212,30916
32468,45205,30832
32484,45191,30783
32492,45189,30772
32492,45188,30905
32492,45180,30892
32588,45191,30916
32620,45203,30855
32636,45203,30725
32636,45205,30756
32660,45190,30765
32728,45173,30749
32729,45172,30767
32769,45157,30771
32764,45153,30769
32788,45124,30774
32824,45181,30725
32864,45189,30743
32880,45151,30727
32900,45165,30753
32904,45167,30745
32920,45155,30764
32917,45145,30773
32964,45076,30747
32960,45141,30740
32916,45078,30702
32976,45140,30713
33014,45157,30727
33020,45156,30772
33013,45145,30770
32968,45097,30759
32932,45135,30748
32928,45117,30764
32928,45117,30763
32960,45123,30779
32961,45127,30774
32916,45135,30758
32852,45143,30753
32836,45135,30771
32832,45078,30756
32796,45121,30781
32740,45119,30786
32700,45047,30844
32628,45095,30850
32560,45117,30823
32478,45109,30868
32448,45116,30940
32428,45108,30976
32393,45124,30980
32324,45100,31004
32280,45109,30756
32229,45092,30844
32196,45095,30953
32172,45083,30973
32108,45083,30876
32005,45093,30837
32024,45103,30983
31944,45103,31088
31876,45036,31063
31820,45095,31100
31792,45063,31100
31732,45063,31063
31671,45007,31055
31628,45063,31014
31632,45037,31047
31596,45063,31067
31548,45058,31177
31472,45085,31213
31460,45076,31235
31453,45055,31249
31397,45063,31220
31348,45057,31161
31352,45055,31140
31397,45048,31157
31353,45053,31194
31312,45063,31229
31256,45057,31255
31344,45060,31238
31381,45000,31239
31397,45045,31287
31372,45045,31303
31388,45031,31345
31464,45028,31376
31476,45023,31400
31504,45031,31423
31484,45034,31419
31480,45037,31455
31472,45053,31487
31477,45041,31491
31500,45038,31519
31512,45031,31534
31544,45021,31568
31592,45005,31621
31610,45009,31604
31624,45008,31594
31664,45017,31693
31640,45027,31831
31642,45028,31791
31637,45039,31769
31628,45025,31751
31672,45012,31799
31668,44999,31793
31712,44996,31854
31728,44996,31991
31788,44999,31876
31788,44989,31932
31780,45013,31956
31761,45011,31949
31712,44996,31940
31724,45000,31968
31817,44988,32003
31848,44991,32079
31804,44991,32125
31844,44974,32181
31872,44972,32223
31932,44980,32214
31916,44990,32306
31920,44996,32345
31937,44999,32351
31912,44983,32422
31928,44973,32407
31936,44973,32380
31956,44972,32356
31940,44967,32368
31928,44972,32412
31904,44967,32429
31960,44980,32453
31953,44983,32474
31924,44985,32519
32020,44976,32551
32024,44975,32559
32052,44964,32556
32064,44877,32574
32048,44943,32655
32028,44934,32743
32052,44957,32729
32012,44967,32738
32024,44967,32735
32036,44944,32788
31977,44959,32815
31956,44957,32834
31952,44959,32847
31976,44929,32837
31997,44927,32791
32008,44929,32845
31976,44935,32903
31972,44935,32849
31964,44907,32764
31916,44951,32815
31896,44935,32852
31816,44879,32862
31800,44929,32831
31804,44919,32880
31860,44912,32935
31896,44917,32935
31960,44884,32973
31945,44927,32991
31957,44913,32983
31960,44919,33015
31960,44922,33025
31976,44908,32949
31972,44903,32895
31960,44897,32916
31968,44900,32933
31944,44893,32955
31964,44903,32962
31892,44845,32956
31904,44917,32997
31928,44903,32988
31925,44897,33053
31944,44899,33076
