ECG,EDA,RR
33108,8945,24932
33141,8997,24912
33148,8938,24915
33150,8907,24880
33140,8919,24876
33145,8952,24759
33141,8933,24710
33172,8957,24856
33156,8950,24797
33200,8944,24821
33241,8972,24768
33296,8931,24839
33376,8967,24697
33448,8913,24842
33448,8975,24701
33460,8921,24781
33478,8914,24765
33474,8981,24886
33504,8959,24628
33602,8962,24735
33668,8991,24557
33588,8919,24746
33609,8921,24741
33668,8885,24689
33648,8908,24769
33632,8939,24793
33626,8903,24588
33624,8949,24687
33564,8921,24711
33532,8946,24677
33529,8984,24655
33484,8899,24645
33472,8897,24574
33492,8940,24761
33535,8886,24564
33569,8973,24482
33612,8925,24636
33628,8969,24616
33669,8915,24489
33669,8933,24589
33684,8955,24690
33692,8893,24592
33688,8895,24500
33676,8866,24390
33628,8927,24548
33668,8903,24492
33656,8886,24624
33626,8922,24406
33632,8900,24512
33622,8973,24452
33612,8904,24549
33665,8873,24343
33700,8897,24478
33684,8871,24410
33688,8854,24532
33720,8900,24281
33724,8877,24446
33794,8950,24439
33856,8895,24549
33936,8949,24381
33932,8899,24282
33933,9015,24409
33904,8862,24385
33876,8836,24393
33940,8901,24212
33924,8859,24404
33984,8923,24276
33980,8876,24498
33998,8876,24395
33984,8925,24428
33996,8884,24260
33932,8850,24407
33904,8894,24454
33924,8863,24268
33844,8831,24277
33964,8868,24418
33956,8847,24356
33920,8879,24232
33908,8866,24378
33924,8898,24340
33920,8851,24370
33924,8869,24401
33897,8832,24466
33800,8862,24289
33824,8817,24238
33876,8846,24386
33944,8846,24306
33982,8911,24455
34040,8863,24441
34008,8907,24321
33956,8845,24421
33888,8846,24481
33876,8917,24432
33848,8817,24342
33809,8809,24481
33813,8828,24628
33800,8824,24361
33828,8872,24540
33817,8844,24642
33824,8875,24437
33840,8831,24380
33888,8835,24573
33925,8801,24708
33864,8809,24423
33776,8906,24631
33784,8835,24597
33813,8898,24616
33776,8846,24492
33776,8913,24682
33782,8859,24573
33740,8886,24820
33748,8821,24541
33796,8791,24747
33828,8827,24685
33800,8790,24623
33728,8852,24758
33660,8811,24868
33656,8867,24780
33668,8829,24647
33608,8879,24852
33620,8809,24817
33564,8823,24861
33552,8778,24990
33528,8784,24820
33560,8771,24935
33596,8790,24917
33604,8853,24904
33628,8804,24977
33605,8852,24999
33584,8804,24808
33560,8826,24999
33472,8781,25148
33453,8814,24880
33460,8758,25052
33468,8803,25145
33476,8767,24961
33493,8836,25106
33543,8785,25085
33472,8807,25061
33493,8789,25247
33548,8823,24991
33484,8786,25191
33420,8760,25220
33421,8776,25077
33468,8828,25082
33444,8777,25233
33504,8800,25244
33496,8782,25235
33556,8793,25196
33452,8828,25398
33460,8771,25205
33514,8774,25159
33494,8748,25357
33508,8768,25317
33519,8831,25479
33636,8776,25341
33720,8796,25301
33712,8763,25258
33709,8796,25464
33664,8916,25475
33576,8767,25484
33512,8814,25505
33480,8764,25579
33509,8729,25405
33520,8752,25597
33464,8734,25524
33542,8767,25772
33524,8766,25553
33496,8798,25711
33444,8775,25773
33380,8827,25637
33464,8749,25637
33488,8774,25813
33436,8738,25743
33536,8804,25991
33624,8748,25887
33648,8743,25799
33636,8812,25960
33472,8795,25889
33593,8761,25939
33669,8810,26041
33604,8758,25971
33544,8797,26134
33476,8732,26260
33596,8775,26183
33472,8754,25992
33549,8740,26222
33616,8771,26223
33612,8822,26245
33697,8788,26194
33776,8813,26462
33656,8757,26245
33728,8770,26183
33448,8711,26425
33521,8740,26423
33640,8719,26357
33716,8745,26621
33799,8743,26412
33769,8779,26371
33784,8821,26573
33784,8755,26484
33736,8727,26730
33804,8746,26507
33800,8703,26431
33776,8749,26648
33772,8719,26813
33748,8820,26599
33688,8748,26529
33632,8829,26741
33672,8766,26900
33736,8733,26667
33664,8803,26811
33648,8733,26953
33752,8695,26635
33780,8749,26863
33788,8710,26929
33796,8759,27045
33844,8737,26829
33788,8732,26946
33740,8784,27091
33856,8724,26997
33856,8763,26791
33856,8710,27041
33909,8683,26916
33941,8718,27053
33972,8694,27069
33957,8767,27015
33936,8749,27188
33916,8725,26933
33924,8771,27112
33872,8861,27062
33854,8718,27223
33837,8743,27132
33872,8692,27231
33848,8732,27250
33854,8682,27205
33844,8726,27167
33820,8757,27239
33847,8716,27447
33853,8733,27426
33780,8704,27256
33647,8705,27357
33660,8681,27339
33708,8679,27333
33656,8735,27507
33852,8679,27419
33780,8720,27336
33773,8752,27205
33760,8711,27420
33728,8739,27357
33780,8841,27396
33730,8701,27505
33728,8713,27529
33732,8663,27335
33776,8695,27339
33733,8737,27446
33672,8681,27457
33628,8719,27391
33577,8707,27351
33565,8719,27524
33636,8738,27326
33700,8677,27421
33648,8680,27433
33604,8721,27420
33528,8669,27423
33492,8733,27348
33476,8692,27201
33332,8690,27431
33340,8723,27434
33372,8719,27400
33396,8693,27316
33336,8743,27429
33380,8690,27183
33391,8646,27276
33501,8710,27468
33500,8675,27232
33538,8725,27391
33476,8692,27279
33614,8687,27445
33632,8738,27190
33671,8710,27377
33800,8800,27281
33860,8664,27532
33892,8644,27316
34004,8668,27420
34072,8642,27392
34100,8708,27554
34064,8695,27268
34041,8755,27409
34064,8693,27417
34040,8670,27317
34112,8679,27555
34096,8641,27440
34124,8685,27292
34136,8643,27244
34028,8702,27444
34164,8663,27346
34232,8730,27455
34245,8681,27354
34208,8668,27428
34158,8686,27344
34181,8638,27606
34184,8670,27257
34208,8647,27423
34224,8623,27593
34224,8657,27265
34136,8670,27390
34252,8711,27583
34324,8813,27549
34300,8687,27408
34234,8701,27478
34196,8643,27628
34292,8675,27456
34268,8615,27529
34298,8666,27423
34140,8616,27582
34080,8628,27484
33784,8665,27689
33535,8646,27454
33028,8678,27559
32638,8694,27539
32476,8627,27711
32308,8660,27493
32316,8601,27583
32416,8632,27479
32888,8611,27655
33744,8666,27440
35024,8646,27564
36517,8705,27742
38412,8657,27508
40768,8719,27601
43540,8649,27767
47000,8601,27532
50600,8631,27644
53804,8589,27568
56152,8650,27728
56848,8629,27500
55964,8695,27668
54260,8742,27554
52204,8670,27633
49760,8717,27655
46888,8634,27644
44065,8670,27708
41476,8671,27711
39248,8757,27643
37520,8618,27564
36248,8648,27446
35527,8723,27682
34952,8654,27594
34448,8681,27779
34096,8630,27685
33900,8636,27585
33700,8670,27481
33469,8599,27700
33184,8621,27697
32944,8613,27645
32697,8724,27704
32558,8641,27685
32452,8633,27588
32309,8668,27700
32180,8619,27583
32056,8671,27655
32064,8631,27688
32008,8621,27468
32016,8586,27681
32020,8627,27751
32036,8602,27655
32072,8636,27500
32148,8716,27724
32128,8640,27590
32148,8673,27808
32236,8604,27562
32216,8635,27721
32304,8580,27674
32296,8611,27812
32428,8595,27636
32468,8615,27729
32496,8615,27679
32668,8630,27869
32712,8678,27629
32716,8623,27736
32732,8600,27844
32772,8597,27752
32792,8577,27765
32809,8602,27640
32825,8583,27743
32855,8612,27719
33020,8613,27872
33004,8626,27873
33104,8681,27761
33168,8640,27639
33111,8679,27757
33226,8585,27749
33316,8621,27621
33392,8573,27853
33400,8603,27637
33428,8590,27703
33460,8625,27681
33508,8742,27775
33588,8623,27805
33596,8740,27509
33556,8607,27687
33524,8581,27652
33556,8595,27792
33548,8569,27643
33524,8612,27652
33612,8588,27662
33638,8614,27650
33640,8608,27520
33692,8643,27743
33809,8604,27495
33868,8638,27621
33924,8572,27684
33976,8625,27528
33920,8568,27639
33957,8618,27631
34000,8585,27620
33994,8631,27522
34054,8684,27609
34076,8622,27548
34072,8597,27567
34080,8629,27605
34116,8583,27629
34152,8643,27567
34136,8586,27375
34156,8645,27577
34248,8592,27551
34260,8650,27590
34264,8610,27622
34264,8632,27439
34296,8601,27330
34348,8620,27548
34336,8579,27407
34384,8598,27503
34368,8564,27540
34372,8591,27407
34412,8683,27479
34452,8618,27494
34516,8683,27551
34464,8627,27379
34469,8660,27239
34568,8593,27463
34548,8645,27455
34493,8599,27340
34496,8569,27436
34680,8624,27404
34672,8602,27332
34656,8664,27549
34724,8617,27373
34736,8664,27279
34856,8612,27261
34862,8743,27383
34858,8630,27333
34841,8584,27324
34828,8583,27375
34817,8575,27479
34844,8640,27261
34832,8613,27355
34856,8673,27457
34928,8615,27328
35032,8664,27152
35124,8593,27372
35149,8604,27351
35061,8633,27372
35144,8562,27317
35152,8597,27476
35204,8585,27277
35284,8611,27375
35390,8743,27300
35384,8641,27452
35408,8660,27270
35405,8611,27396
35340,8732,27283
35380,8576,27437
35360,8596,27509
35388,8573,27341
35404,8607,27180
35388,8695,27399
35464,8630,27286
35500,8657,27510
35552,8603,27295
35624,8631,27388
35633,8568,27413
35625,8573,27420
35732,8562,27316
35789,8591,27430
35856,8651,27423
35916,8609,27304
35980,8656,27428
36012,8609,27485
36012,8634,27369
36008,8576,27340
36020,8581,27452
36092,8670,27399
36116,8589,27458
36128,8565,27311
36180,8609,27474
36232,8587,27428
36234,8623,27356
36305,8661,27607
36380,8587,27409
36453,8625,27289
36460,8562,27505
36464,8596,27439
36524,8550,27520
36584,8610,27346
36620,8575,27526
36650,8616,27677
36673,8693,27620
36712,8612,27471
36652,8656,27589
36585,8580,27593
36588,8589,27479
36624,8645,27647
36628,8586,27629
36672,8593,27646
36696,8573,27511
36688,8643,27700
36664,8607,27757
36597,8670,27634
36520,8619,27541
36512,8655,27783
36502,8576,27860
36508,8554,27753
36512,8609,27871
36536,8567,27791
36558,8581,27812
36612,8620,27928
36628,8596,28045
36666,8640,28057
36718,8585,27952
36716,8615,28082
36752,8579,28089
36758,8630,28279
36780,8579,28167
36804,8616,28195
36804,8599,28361
36804,8660,28335
36873,8628,28560
36917,8665,28625
36913,8623,28501
36869,8580,28686
36868,8588,28666
36820,8556,28933
36832,8597,28684
36829,8592,28852
36860,8571,28981
36868,8609,29188
36800,8597,29148
36784,8644,29399
36756,8615,29440
36712,8577,29432
36748,8646,29534
36744,8575,29714
36708,8557,29940
36732,8563,29948
36776,8588,29903
36769,8584,30095
36740,8642,30258
36756,8604,30305
36760,8665,30373
36697,8594,30580
36628,8604,30591
36616,8561,30860
36636,8592,30869
36664,8567,30982
36660,8662,30919
36637,8606,31130
36568,8674,31425
36544,8633,31149
36580,8666,31485
36664,8615,31748
36720,8672,31644
36788,8593,31860
36798,8559,31983
36790,8615,31965
36736,8603,32159
36756,8594,32357
36740,8631,32388
36733,8613,32594
36696,8659,32375
36628,8604,32645
36568,8636,32893
36556,8595,32797
36552,8558,32907
36540,8596,33143
36528,8580,33136
36524,8639,33118
36529,8616,33259
36500,8603,33383
36472,8651,33529
36480,8588,33605
36456,8695,33677
36416,8588,33493
36408,8560,33737
36404,8642,33957
36384,8613,34049
36413,8596,34175
36480,8620,34151
36508,8601,34308
36492,8630,34390
36492,8589,34141
36484,8660,34412
36488,8583,34695
36468,8560,34669
36511,8585,34732
36524,8582,34983
36532,8614,34843
36504,8599,34983
36516,8637,35149
36552,8607,34883
36544,8583,35281
36536,8636,35265
36520,8602,35380
36525,8567,35391
36484,8569,35551
36424,8594,35404
36380,8589,35516
36372,8642,35709
36396,8607,35334
36388,8642,35681
36392,8589,35892
36364,8614,35847
36344,8563,35545
36336,8629,35846
36328,8599,36028
36316,8580,36020
36344,8613,35950
36385,8603,36228
36436,8628,36178
36452,8639,35873
36492,8581,36193
36504,8585,36135
36528,8629,36391
36533,8558,36277
36535,8598,36103
36552,8577,36293
36556,8620,36508
36541,8599,36238
36532,8664,36381
36532,8626,36554
36532,8582,36389
36514,8593,36471
36480,8565,36460
36453,8617,36561
36392,8571,36500
36384,8644,36436
36396,8604,36589
36444,8596,36565
36500,8649,36548
36550,8610,36597
36580,8657,36556
36568,8643,36663
36582,8564,36511
36572,8621,36601
36576,8578,36789
36572,8645,36423
36548,8611,36559
36517,8660,36790
36509,8603,36546
36516,8647,36676
36500,8593,36847
36456,8620,36695
36477,8571,36615
36524,8680,36675
36536,8587,36740
36576,8583,36821
36628,8620,36717
36660,8670,36771
36718,8606,36655
36648,8639,36812
36820,8595,36791
36692,8628,36884
36604,8589,36670
36540,8641,36793
36416,8604,36967
36364,8696,36764
36409,8621,36847
36564,8607,36934
36591,8636,36829
36346,8605,36788
36432,8623,36983
36552,8639,36679
36708,8580,36767
36452,8639,36943
36516,8607,36663
36748,8583,36886
36781,8616,37023
36740,8606,36844
36652,8649,36903
36636,8605,36767
36584,8663,36723
36560,8598,36906
36548,8577,37057
36516,8580,36748
36508,8576,36922
36548,8635,37071
36560,8611,36901
36620,8612,36930
36672,8615,36885
36700,8628,37039
36728,8594,36924
36709,8607,36816
36688,8574,37072
36649,8583,36903
36660,8574,36937
36596,8612,37086
36516,8603,36921
36468,8649,36975
36444,8639,37127
36456,8613,36743
36484,8613,36965
36508,8589,37044
36544,8597,36985
36600,8571,36613
36621,8603,36999
36636,8642,37020
36588,8621,36935
36588,8778,36981
36584,8633,37029
36576,8746,37074
36532,8626,37059
36464,8664,37007
36430,8617,36897
36340,8581,37108
36272,8613,36829
36256,8597,37047
36252,8633,37077
36240,8625,37087
36216,8645,36845
36224,8620,37036
36212,8663,37103
36229,8599,37055
36284,8650,36953
36252,8600,36996
36226,8591,37055
36260,8631,37177
36224,8619,36680
36216,8691,37020
36246,8649,37037
36228,8716,37063
36216,8652,36975
36212,8671,37087
36216,8631,37078
36212,8599,37085
36212,8621,37052
36236,8615,37065
36284,8648,37005
36312,8640,37212
36292,8663,37043
36238,8639,37096
36176,8647,37030
36132,8618,37236
36118,8617,37127
36061,8649,36900
35969,8605,37108
35908,8669,36999
35872,8665,37127
35880,8647,37136
35908,8680,37201
35896,8647,37080
35864,8648,37149
35868,8620,37015
35850,8635,37214
35817,8607,36771
35834,8630,37113
35864,8625,37270
35924,8655,37045
36004,8801,37145
36079,8672,37247
36132,8650,37174
36140,8706,37223
36089,8642,37021
36124,8613,37072
36156,8675,37103
36160,8635,37111
36184,8627,37109
36156,8685,37127
36160,8691,37151
36196,8660,37173
36230,8687,37213
36125,8649,36799
36050,8684,37093
35960,8626,37244
35945,8679,37165
35940,8648,37031
35936,8637,37023
35960,8679,37050
35944,8669,37166
35940,8732,37183
35948,8675,37283
35918,8645,37149
35896,8669,37185
35887,8627,36999
35894,8684,37023
35888,8645,37167
35875,8717,37143
35856,8666,37287
35858,8662,36785
35856,8682,37095
35845,8661,37177
35808,8707,37127
35749,8639,37213
35532,8695,36783
35184,8645,37268
34808,8634,36908
34429,8674,37063
34102,8662,37071
33826,8689,37091
33612,8682,36707
33488,8688,36921
33496,8660,37068
33820,8663,36655
34628,8641,36871
35904,8647,37135
37480,8714,37020
39492,8676,36986
41984,8750,36940
44776,8696,36896
47848,8683,36926
50680,8741,36927
52600,8724,36968
52612,8667,36842
51212,8742,36884
49268,8705,36808
47588,8673,36924
46068,8764,36490
44528,8721,36863
42844,8717,36984
41044,8791,36806
39284,8738,36871
37940,8686,36912
37128,8679,36852
36656,8676,36805
36206,8654,36982
35636,8670,36820
35244,8669,36831
35032,8689,36717
34884,8687,36901
34688,8727,36789
34428,8683,36645
34200,8690,36888
33916,8659,36623
33656,8672,36756
33444,8648,36609
33324,8700,36813
33268,8679,36332
33200,8738,36605
33144,8707,36726
33104,8749,36566
33116,8689,36245
33176,8689,36599
33232,8713,36567
33240,8645,36472
33246,8654,36553
33244,8717,36601
33248,8666,36164
33268,8741,36396
33261,8687,36519
33296,8718,36468
33304,8683,36065
33292,8677,36441
33305,8697,36442
33284,8645,36308
33293,8663,36477
33352,8648,36423
33440,8673,36367
33509,8669,36535
33564,8704,36172
33597,8802,36356
33572,8716,36327
33568,8748,36313
33532,8667,36293
33524,8683,36267
33496,8639,36229
33532,8662,36255
33569,8749,36213
33592,8683,35829
33584,8731,36159
33578,8692,36003
33575,8699,36231
33646,8740,36000
33668,8663,36045
33692,8678,35847
33669,8644,35975
33656,8704,35898
33640,8690,35978
33573,8679,35738
33572,8705,35750
33594,8686,35753
33688,8730,35436
33660,8709,35501
33593,8665,35538
33580,8673,35492
33564,8640,35291
33552,8698,35351
33568,8662,35312
33616,8710,35101
33709,8689,35169
33746,8756,35117
33736,8690,34961
33772,8711,35095
33776,8665,34817
33716,8687,34823
33628,8711,34684
33596,8655,34759
33624,8729,34251
33560,8677,34508
33568,8751,34545
33596,8719,34244
33628,8739,34213
33628,8673,34113
33648,8685,34059
33664,8656,33977
33666,8661,33878
33608,8654,33716
33572,8691,33702
33636,8731,33647
33652,8709,33230
33640,8695,33316
33696,8733,33270
33776,8699,33237
33837,8666,33208
33844,8684,33053
33804,8652,33055
33720,8757,32704
33636,8677,32709
33640,8675,32620
33676,8740,32594
33752,8690,32588
33840,8746,32263
33829,8675,32325
33864,8695,32175
33932,8719,32230
33950,8649,31932
33944,8722,31911
33956,8670,32007
33948,8674,31653
33932,8745,31696
33910,8725,31764
33892,8743,31537
33940,8684,31492
33952,8727,31268
33925,8673,31251
33900,8652,31273
33861,8698,31069
33784,8679,31247
33801,8796,30873
33828,8703,30948
33928,8748,30800
33949,8690,30988
33904,8710,30710
33880,8814,30572
33888,8653,30693
33889,8671,30620
33860,8753,30657
33828,8681,30503
33716,8735,30227
33552,8697,30434
33456,8731,30346
33428,8724,30343
33476,8698,30296
33577,8663,30130
33672,8677,30332
33700,8654,30039
33564,8666,29890
33556,8659,30069
33536,8690,30171
33412,8684,29909
33384,8707,30011
33345,8742,29836
33289,8675,29981
33352,8684,29799
33212,8790,29871
33220,8658,29812
33425,8731,29773
33636,8667,29613
33852,8704,29735
33892,8747,29703
33928,8684,29645
33919,8711,29701
33812,8751,29516
33748,8669,29574
33660,8665,29533
33704,8705,29415
33752,8645,29479
33786,8668,29615
33792,8730,29541
33829,8704,29196
33828,8749,29408
33837,8690,29453
33858,8711,29409
33824,8669,29116
33756,8673,29309
33780,8645,29455
33808,8681,29162
33896,8657,29287
33992,8727,29160
34084,8704,29230
34133,8784,29258
34126,8699,29220
34085,8676,29220
34076,8677,29276
34004,8643,29021
33988,8690,29222
33966,8652,29264
33956,8709,29389
33868,8673,29122
33880,8714,29275
33932,8692,29213
33980,8729,29384
33952,8675,29197
33928,8673,29308
33864,8709,29330
33824,8639,29281
33801,8679,29369
33804,8648,29355
33732,8711,29237
33640,8682,29383
33624,8736,29349
33633,8701,29532
33748,8669,29206
33902,8668,29447
33992,8636,29588
34005,8682,29221
33952,8637,29486
33912,8693,29391
33936,8661,29418
33968,8668,29489
33996,8712,29541
34000,8669,29653
33948,8700,29460
33877,8638,29572
33840,8650,29541
33924,8628,29723
33964,8639,29512
34036,8791,29628
33993,8675,29560
33909,8660,29727
33812,8676,29545
33796,8772,29677
33812,8658,29685
33817,8671,29569
33832,8616,29837
33812,8630,29691
33692,8617,29507
33616,8654,29793
33620,8698,29766
33648,8651,29823
33661,8671,29927
33636,8719,29756
33616,8649,29877
33508,8681,29766
33444,8621,29932
33448,8672,29673
33421,8626,29953
33476,8676,29968
33534,8627,30147
33600,8669,30061
33604,8700,29906
33568,8639,29814
33514,8661,30076
33500,8611,30060
33492,8620,30178
33462,8591,30150
33448,8629,30158
33468,8609,30287
33454,8671,30146
33464,8628,30271
33516,8641,30308
33524,8677,30319
33496,8616,30271
33444,8639,30445
33432,8590,30152
33430,8586,30335
33376,8639,30461
33352,8593,30403
33344,8648,30640
33304,8617,30446
33312,8639,30564
33313,8617,30653
33298,8631,30351
33241,8594,30652
33239,8602,30745
33216,8573,30608
33180,8596,30705
33143,8590,30769
33069,8615,30655
33036,8711,30876
33012,8627,30908
33052,8669,30614
33156,8598,30901
33288,8607,30802
33306,8573,31111
33242,8570,31077
33156,8582,30943
33142,8642,31069
33088,8591,30975
33084,8627,31179
33081,8763,30889
33012,8625,31135
32864,8658,31220
32856,8581,31159
32901,8591,31292
32902,8597,31221
32924,8564,31417
32900,8570,31451
32729,8629,31132
32596,8600,31329
32548,8637,31519
32581,8591,31363
32512,8609,31550
32548,8688,31463
32572,8590,31517
32560,8629,31633
32561,8572,31692
32620,8565,31685
32656,8577,31505
32628,8615,31721
32496,8589,31815
32391,8617,31724
32408,8572,31832
32473,8580,31764
32528,8639,31764
32556,8539,31998
32576,8553,31965
32674,8623,31766
32704,8583,31956
32660,8639,32111
32584,8592,31751
32428,8632,32015
32384,8565,32223
32404,8593,31955
32409,8537,32149
32432,8563,32229
32364,8531,32293
32324,8569,32141
32364,8605,32253
32316,8557,32181
32320,8596,32233
32380,8565,32287
32472,8566,32244
32520,8604,32467
32532,8529,32310
32440,8543,32142
32364,8597,32439
32280,8547,32303
32270,8604,32502
32332,8550,32306
32412,8565,32495
32446,8609,32439
32376,8533,32540
32221,8573,32455
32112,8507,32359
32152,8587,32420
32280,8531,32671
32256,8507,32325
32260,8539,32591
32156,8531,32716
32059,8590,32444
31996,8535,32396
31964,8542,32564
31920,8577,32621
31908,8523,32502
31908,8558,32559
31876,8516,32727
31878,8549,32515
31916,8509,32597
31993,8552,32542
32036,8531,32608
32064,8551,32567
32080,8578,32480
32240,8507,32439
32300,8503,32587
32384,8476,32493
32352,8503,32381
32228,8561,32515
32132,8517,32544
32052,8547,32605
32041,8517,32440
32072,8533,32398
32068,8549,32476
32021,8484,32437
32024,8504,32571
31940,8460,32345
31772,8489,32421
31732,8481,32547
31888,8500,32307
32065,8512,32134
32148,8572,32367
32068,8501,32263
31908,8507,32453
31764,8538,32221
31684,8467,32017
31704,8496,32248
31788,8460,32225
31844,8502,32216
31888,8479,32047
31904,8511,32199
31972,8644,32119
32094,8522,32167
32093,8549,31906
32072,8478,32112
32072,8450,32215
32060,8481,32063
32100,8497,31948
32252,8456,31992
32420,8478,31959
32360,8501,31941
32348,8558,32071
32189,8490,31848
32088,8521,31913
32088,8453,31860
32128,8450,31807
32144,8516,31942
32176,8457,31747
32165,8500,31529
32112,8473,31737
32052,8530,31907
32046,8470,31749
31992,8494,31684
31936,8516,31445
31904,8441,31687
31878,8453,31623
31886,8420,31741
31880,8451,31709
31976,8480,31524
32076,8444,31540
32164,8488,31460
32276,8461,31636
32288,8471,31503
32208,8446,31318
32100,8452,31435
31989,8415,31391
31812,8430,31469
31452,8413,31279
31100,8482,31303
30868,8448,31205
30568,8477,31172
30268,8454,31180
29838,8515,31118
29630,8473,31129
29598,8421,31056
29882,8456,31137
30556,8402,31077
31680,8426,31093
33180,8416,31033
34989,8461,30975
37197,8530,31124
39792,8458,30693
42752,8469,30921
45784,8520,30793
48268,8449,30918
49397,8546,30897
48568,8449,30861
46508,8621,30964
44080,8481,30623
41960,8519,30872
40176,8479,30823
38868,8512,30989
37728,8455,30809
36369,8471,30878
35060,8426,30817
34460,8442,30877
34188,8397,30879
33768,8422,30798
33060,8408,30918
32244,8469,30901
31580,8434,30772
31240,8495,30815
31072,8437,30877
30984,8413,31041
30876,8411,30874
30704,8447,30695
30392,8394,30876
30308,8438,30994
30312,8386,30831
30217,8429,30943
29888,8409,30855
29392,8437,31028
29088,8482,30996
29061,8402,30836
29036,8417,30711
29196,8365,30916
29316,8379,30819
29290,8359,30932
29108,8385,30877
29064,8465,30718
29116,8405,30891
29149,8455,30833
29248,8395,30820
29308,8412,30892
29296,8368,30616
29416,8369,30911
29616,8427,30935
29824,8373,30994
29852,8421,30889
29818,8404,30949
29768,8380,31001
29704,8420,30880
29812,8387,30972
29948,8386,30943
30044,8421,30949
30052,8356,30879
30076,8344,30992
30060,8352,30943
29964,8427,31042
29880,8375,30980
29857,8378,30852
29904,8401,30884
30064,8377,30973
30152,8364,30925
30200,8389,31084
30160,8343,30848
30085,8389,30648
30168,8341,30907
30233,8394,30812
30280,8361,30820
30412,8413,30820
30517,8371,30772
30436,8406,30865
30444,8361,30673
30412,8406,30726
30348,8335,30604
30261,8369,30628
30256,8332,30634
30301,8401,30717
30266,8377,30535
30247,8364,30378
30196,8405,30464
30273,8366,30431
30388,8398,30305
30436,8342,30474
30460,8381,30225
30416,8321,30042
30456,8362,30258
30576,8336,30132
30684,8388,30119
30764,8356,30105
30588,8389,30059
30348,8356,29892
30244,8376,30095
30236,8389,29864
30384,8321,29902
30628,8324,29883
30752,8349,29733
30816,8320,29776
30880,8351,29504
30804,8401,29721
30670,8352,29575
30696,8363,29587
30612,8425,29710
30536,8327,29567
30680,8328,29493
30777,8332,29254
30796,8359,29199
30856,8317,29324
30948,8386,29473
30997,8355,29025
31028,8348,29111
31024,8391,29170
30908,8341,28992
30928,8326,29079
30972,8334,29172
31076,8400,28884
31144,8325,28935
31276,8365,28858
31396,8339,28806
31414,8397,28837
31448,8348,28645
31413,8389,28798
31228,8333,28447
31118,8332,28636
30796,8381,28588
30840,8313,28485
30944,8351,28508
31156,8303,28448
31364,8339,28390
31456,8330,28332
31556,8363,28324
31604,8376,28284
31630,8319,28249
31582,8322,28233
31432,8398,27924
31250,8285,28102
31200,8310,28068
31252,8339,27893
31177,8358,27968
30984,8329,27863
30660,8390,27864
30380,8351,27820
30286,8316,27557
30325,8316,27708
30432,8397,27781
30373,8298,27495
30348,8305,27597
30308,8283,27544
30400,8323,27423
30400,8311,27405
30232,8352,27451
30060,8316,27379
29988,8370,27247
29933,8318,27316
29877,8336,27143
29992,8281,27240
30044,8268,26996
29988,8313,27076
30068,8290,27108
30268,8355,26865
30456,8328,27054
30586,8299,26892
30604,8317,26953
30594,8295,26928
30504,8264,26866
30536,8389,26749
30604,8287,26730
30728,8286,26829
30852,8275,26545
30860,8297,26721
30800,8285,26663
30796,8323,26751
30924,8277,26492
31080,8322,26616
31132,8279,26655
31170,8241,26443
31086,8284,26536
30916,8275,26496
31056,8260,26287
31248,8285,26234
31289,8319,26417
31368,8279,26287
31302,8301,26415
31300,8311,26225
31280,8245,26288
31196,8256,26277
31252,8236,26261
31202,8293,26135
31194,8289,26175
31342,8270,26229
31412,8274,26132
31380,8339,26094
31268,8277,26060
31136,8250,26049
31160,8322,25800
31188,8270,25975
31268,8248,25815
31404,8322,25919
31516,8262,25861
31476,8323,25741
31464,8289,25828
31381,8321,25772
31352,8263,25766
31296,8283,25617
31233,8239,25717
31324,8292,25751
31424,8258,25501
31380,8237,25633
31380,8314,25667
31380,8287,25428
31328,8328,25622
31268,8289,25569
31292,8261,25710
31420,8271,25458
31596,8231,25572
31560,8267,25567
31396,8225,25416
31274,8258,25348
31236,8250,25413
31254,8294,25607
31268,8269,25376
31340,8292,25469
31401,8260,25599
31410,8260,25366
31448,8300,25500
31501,8227,25381
31260,8288,25437
31136,8245,25499
31216,8247,25351
31288,8274,25448
31380,8268,25289
31540,8283,25368
31684,8253,25452
31760,8264,25497
31785,8233,25403
31712,8249,25581
31600,8287,25415
31456,8236,25335
31504,8281,25540
31560,8262,25654
31592,8321,25437
31648,8289,25577
31687,8262,25709
31652,8325,25456
31498,8251,25620
31544,8219,25596
31472,8259,25697
31456,8231,25554
31552,8277,25467
31641,8256,25679
31680,8322,25676
31692,8298,25617
31464,8373,25553
31382,8263,25752
31535,8231,25816
31726,8220,25781
31792,8242,25787
31637,8362,25933
31428,8250,25943
31406,8271,25841
31540,8322,25780
31588,8264,25919
31648,8309,25835
31756,8235,26092
31780,8261,25887
31832,8223,25871
31884,8235,26045
31872,8226,26127
31800,8273,26012
31693,8257,26132
31617,8281,26021
31584,8401,26287
31517,8284,26233
31508,8288,26119
31596,8370,26265
31640,8230,26300
31716,8274,26279
31692,8227,26372
31680,8265,26263
31660,8312,26388
31717,8351,26217
31764,8260,26457
31736,8267,26445
31492,8302,26390
31350,8227,26375
31456,8242,26615
31720,8293,26498
31954,8231,26477
31909,8283,26611
31724,8251,26631
31736,8279,26613
31816,8277,26631
31929,8252,26733
32046,8258,26775
32096,8225,26655
32132,8275,26837
32116,8220,26636
32060,8275,26770
31860,8239,26780
31610,8315,26946
31420,8264,26636
31739,8255,26717
31988,8282,26937
31945,8238,26653
31760,8269,26848
31609,8235,26980
31720,8281,26751
31796,8237,26902
31932,8231,26887
32064,8300,26830
32052,8267,26965
32012,8326,26902
31940,8278,26917
32037,8300,26977
32028,8220,27004
31884,8230,26876
31780,8209,27057
31848,8235,26877
31904,8292,26851
31736,8247,27063
31610,8299,26975
31696,8255,27185
31744,8275,26983
31930,8277,27104
32120,8225,26985
32096,8260,27078
32020,8213,27164
31992,8275,27122
31941,8237,27184
31940,8273,27095
31892,8324,26981
31924,8294,27151
32068,8318,27228
32252,8281,27193
32178,8241,27156
32049,8252,27053
31952,8223,27183
31880,8270,27333
31932,8250,27333
32037,8290,27183
32122,8265,27477
32088,8289,27360
32020,8306,27268
31916,8255,27200
32030,8238,27403
32344,8273,27301
32513,8231,27537
32453,8277,27443
32341,8251,27236
32250,8282,27471
32124,8277,27393
32052,8297,27587
32160,8262,27395
32248,8271,27500
32229,8238,27493
32212,8241,27478
32194,8233,27438
32130,8268,27580
32076,8252,27450
32048,8295,27668
32044,8274,27501
32128,8291,27399
32284,8319,27632
32393,8257,27524
32297,8263,27695
32176,8259,27662
32228,8238,27535
32317,8262,27799
32373,8323,27583
32320,8274,27703
32456,8313,27632
32468,8282,27833
32392,8295,27635
32389,8259,27729
32378,8260,27695
32173,8243,27875
31917,8255,27742
31773,8297,27677
31497,8266,27559
31272,8292,27813
31009,8287,27719
30796,8311,27949
30528,8279,27854
30292,8308,27838
30232,8255,27829
30200,8271,27853
30618,8247,27774
31760,8318,27903
33568,8283,27871
35472,8348,28046
37524,8298,27836
39848,8370,27961
42688,8298,27918
46036,8340,27996
49368,8268,28109
51536,8446,27905
51728,8311,28036
50148,8287,27977
47800,8367,28160
45548,8334,27932
43656,8404,28125
41836,8374,28039
40064,8391,28290
38256,8311,28246
36484,8392,28097
35588,8316,28308
35296,8282,28257
34916,8362,28348
34372,8335,28245
33561,8313,28356
32628,8382,28486
31920,8348,28246
31528,8314,28375
31396,8338,28569
31368,8294,28280
31348,8273,28487
31024,8293,28646
30652,8280,28455
30356,8356,28596
30136,8307,28477
30256,8357,28700
30300,8316,28412
30084,8351,28637
29844,8298,28821
29756,8285,28518
29804,8295,28716
29908,8274,28917
29977,8374,28715
29956,8307,28831
29924,8304,28839
29812,8369,28823
29712,8330,28933
29808,8308,29093
30012,8392,28763
30152,8329,28923
30236,8284,28981
30260,8271,29103
30260,8303,29273
30300,8293,29101
30212,8327,29031
30082,8314,29237
29978,8333,29285
30080,8371,29413
30276,8321,29260
30425,8340,29397
30536,8303,29324
30557,8276,29507
30672,8326,29327
30724,8327,29509
30632,8306,29643
30586,8418,29372
30708,8362,29567
30686,8337,29572
30554,8301,29687
30628,8317,29727
30724,8297,29631
30888,8346,29737
31144,8306,29723
31356,8329,29760
31360,8319,29652
31028,8351,29888
30720,8332,29723
30660,8341,29573
30760,8356,29820
30809,8295,29751
31041,8312,29804
31280,8291,29811
31148,8312,29674
30976,8315,29709
30916,8338,29815
31136,8420,29685
31365,8363,29895
31172,8400,29655
31102,8325,29756
31300,8372,29822
31332,8312,29661
31390,8339,29740
31508,8305,29735
31513,8333,29731
31684,8333,29677
31884,8365,29480
31792,8405,29711
31636,8353,29761
31549,8325,29528
31416,8345,29669
31312,8326,29791
31456,8306,29421
31856,8339,29553
31968,8327,29700
31668,8366,29361
31448,8349,29597
31445,8383,29674
31612,8358,29312
31816,8331,29490
32044,8339,29613
31949,8307,29511
31756,8363,29405
31638,8325,29567
31718,8433,29463
31896,8378,29332
32138,8362,29564
31948,8420,29308
31956,8365,29178
32036,8415,29370
32148,8343,29288
32332,8382,29463
32520,8340,29223
32308,8388,29059
32049,8369,29269
31990,8404,29111
31916,8392,29332
32080,8365,29105
32412,8384,29205
32628,8373,29277
32592,8359,29201
32432,8326,29120
32228,8334,28988
32312,8391,28849
32366,8340,29055
32485,8404,29012
32382,8376,28919
32336,8426,29068
32441,8358,28884
32612,8382,28708
32792,8381,28929
32820,8324,28895
32521,8341,28735
31960,8479,28840
31621,8373,28931
31692,8428,28720
31792,8388,28594
32008,8411,28551
32172,8363,28768
31956,8357,28773
31601,8401,28719
31381,8329,28657
31345,8375,28697
31313,8333,28613
31312,8399,28496
31204,8371,28682
31189,8413,28672
31444,8383,28655
31712,8408,28748
31900,8375,28482
32056,8361,28532
31908,8327,28417
31608,8351,28599
31471,8337,28575
31580,8374,28480
31668,8442,28695
31624,8398,28495
31548,8372,28376
31648,8387,28593
31831,8354,28549
31870,8338,28463
31916,8329,28679
32144,8346,28549
32173,8377,28473
32012,8348,28421
31972,8378,28551
32028,8433,28537
32156,8399,28530
32276,8425,28612
32192,8351,28561
32008,8373,28423
31984,8401,28530
32149,8333,28493
32276,8380,28521
32440,8350,28615
32524,8417,28376
32548,8392,28544
32584,8379,28443
32489,8385,28605
32285,8359,28447
32346,8363,28329
32336,8412,28551
32344,8396,28449
32412,8348,28549
32437,8377,28324
32392,8471,28567
32432,8412,28437
32461,8441,28472
32436,8371,28687
32297,8384,28644
32208,8449,28514
32408,8366,28380
32669,8392,28373
32688,8347,28545
32676,8372,28577
32768,8433,28560
32848,8384,28480
32988,8387,28347
32908,8399,28573
32468,8372,28631
32284,8450,28601
32460,8356,28477
32540,8341,28572
32480,8360,28593
32672,8445,28587
32704,8391,28581
32700,8495,28476
32762,8401,28669
32720,8381,28679
32736,8388,28517
32877,8356,28397
32860,8405,28637
32768,8371,28548
32697,8356,28799
32745,8394,28577
32764,8383,28444
32702,8446,28693
32816,8389,28716
32676,8385,28701
32572,8421,28648
32616,8389,28756
32608,8424,28645
32552,8351,28803
32426,8405,28910
32564,8363,28788
32708,8397,28749
32788,8546,28855
32796,8407,28895
32690,8387,28804
32556,8405,28847
32597,8445,29025
32757,8383,29089
32904,8427,28903
32844,8364,28781
32828,8417,29024
32906,8385,28985
32860,8411,29206
32784,8394,29168
32652,8407,29063
32668,8436,29089
32944,8361,29083
33168,8387,29045
33156,8417,29276
32916,8374,29251
32756,8408,29196
32772,8388,29415
32756,8420,29518
32724,8430,29471
33000,8388,29316
33248,8396,29340
32920,8436,29260
32292,8363,29536
31972,8390,29574
32181,8364,29637
32782,8403,29665
33380,8428,29701
33580,8404,29732
33384,8416,29645
33049,8480,29864
32644,8398,29893
32548,8394,29855
32696,8513,29844
32661,8357,29899
32676,8385,29935
32688,8412,29899
32700,8395,30111
32604,8420,30118
32520,8406,30322
32288,8417,30133
32415,8388,30287
32576,8404,30303
32606,8398,30306
32486,8366,30497
32522,8388,30413
32572,8447,30407
32456,8397,30541
32500,8431,30532
32612,8481,30663
32872,8403,30649
32896,8435,30441
32496,8376,30753
32229,8383,30765
32209,8430,30751
32209,8374,30924
32480,8433,30897
32740,8399,30815
32816,8431,31012
32744,8561,31025
32580,8407,31079
32360,8415,31079
32202,8449,31040
32189,8375,31217
32352,8404,31224
32430,8441,31175
32476,8424,31433
32492,8406,31327
32348,8435,31399
32188,8423,31449
32236,8467,31636
32385,8411,31567
32496,8451,31491
32500,8379,31512
32496,8424,31533
32616,8407,31685
32644,8396,31647
32482,8428,31660
32452,8491,31710
32460,8453,31694
32548,8493,31847
32460,8437,31973
32601,8439,32007
32392,8493,31893
32324,8383,31807
32308,8413,31872
32200,8423,31949
32181,8429,32011
32229,8506,32165
32359,8448,32119
32460,8425,31829
32381,8437,32125
32517,8463,32066
32732,8407,32252
32784,8450,32173
32744,8406,31968
32668,8447,32041
32648,8421,32230
32552,8492,32105
32504,8434,32239
32522,8473,32362
32608,8413,32391
32616,8452,32217
32600,8398,32060
32796,8447,32349
32932,8413,32292
32820,8572,32436
32592,8450,32365
32549,8435,32197
32677,8484,32452
32716,8444,32435
32692,8497,32493
32740,8443,32593
32796,8402,32437
32564,8433,32551
32432,8411,32473
32420,8473,32615
32412,8439,32737
32268,8493,32663
32121,8452,32365
32220,8461,32677
32446,8434,32629
32594,8447,32832
32692,8408,32644
32762,8449,32739
32712,8416,32725
32576,8465,32800
32156,8551,32836
31576,8477,32948
31276,8505,32943
31220,8455,32752
30992,8453,32797
30716,8486,32836
30285,8423,32812
30128,8436,32820
30288,8431,32676
30540,8456,32955
31372,8448,32823
32840,8492,32993
34796,8496,33057
36808,8609,33124
38980,8455,33143
41748,8463,33039
44948,8513,33012
48660,8422,32982
51848,8463,32775
53596,8581,33095
53464,8477,33123
51700,8521,33148
49344,8490,33168
47052,8521,33125
44784,8484,33129
42398,8489,33316
40293,8516,33287
38216,8457,33198
36564,8479,32965
35780,8514,33283
35284,8479,33260
34404,8513,33240
33344,8488,33206
32372,8492,33449
31916,8473,33312
31738,8487,33370
31656,8486,33404
31588,8439,33407
31221,8456,33287
30880,8511,33508
30636,8469,33485
30488,8491,33383
30316,8519,33386
30164,8479,33172
30028,8486,33509
29814,8454,33441
29724,8467,33653
29628,8440,33468
29553,8494,33542
29444,8465,33525
29477,8537,33593
29460,8512,33652
29390,8610,33533
29341,8526,33607
29444,8482,33593
29638,8457,33629
29828,8462,33365
29744,8446,33701
29680,8477,33585
29452,8461,33782
29448,8504,33777
29584,8490,33570
29686,8539,33788
29769,8485,33796
29956,8535,33749
30041,8482,33740
30128,8513,33940
29924,8477,33888
29760,8458,33766
30028,8489,33862
30286,8548,33698
30396,8504,33846
30257,8491,33745
29844,8511,33993
29764,8474,33901
29840,8495,33775
30038,8583,33852
30142,8463,33722
30272,8457,33910
30336,8495,33748
30304,8486,33485
30304,8510,33749
30341,8500,33724
30408,8517,33629
30448,8485,33685
30337,8499,33772
30328,8546,33519
30398,8470,33535
30376,8468,33525
30464,8491,33445
30468,8488,33429
30520,8513,33519
30560,8505,33349
30648,8515,33220
30768,8484,33215
30660,8484,33200
30438,8511,33151
30600,8459,33071
30716,8526,32999
30884,8477,33031
31040,8540,32954
31200,8508,32561
31173,8543,32831
31016,8500,32711
30836,8543,32758
30925,8484,32582
30940,8461,32588
30780,8501,32479
30680,8469,32466
30784,8503,32545
31000,8487,32469
31000,8535,32223
30660,8540,32231
30796,8540,32125
31004,8489,32272
31136,8514,32067
31165,8470,31901
31204,8497,31948
31000,8473,31909
31096,8521,31787
31294,8507,31795
31396,8572,31724
31536,8547,31383
31484,8573,31591
31345,8529,31549
31244,8482,31490
31352,8529,31476
31500,8484,31311
31684,8546,31064
31749,8490,31020
31688,8564,31236
31624,8550,31129
31546,8517,31269
31580,8557,30985
31772,8509,31023
31832,8553,30916
31809,8499,31012
31760,8479,30900
31764,8538,30743
31668,8523,30471
31729,8517,30693
31856,8545,30586
31872,8527,30429
31823,8557,30596
31956,8511,30577
32000,8519,30313
31992,8490,30096
31980,8542,30317
31992,8503,30132
31982,8507,30215
31844,8554,30177
31664,8597,30215
31532,8564,29937
31632,8608,29801
31681,8547,29902
31592,8511,29881
31588,8511,29787
31521,8494,29797
31432,8517,29831
31448,8514,29665
31546,8568,29367
31668,8541,29554
31726,8589,29416
31644,8541,29620
31476,8521,29180
31408,8559,29377
31477,8526,29353
31585,8500,29227
31696,8527,29008
31881,8521,29167
32076,8554,29167
32064,8608,29003
31996,8543,28983
31944,8572,29028
31940,8524,28988
31920,8549,28950
32068,8497,28975
32077,8548,28783
31988,8509,28850
31937,8548,28774
32080,8530,28825
32389,8577,28626
32604,8542,28692
32574,8565,28655
32292,8614,28546
32100,8527,28503
32065,8548,28688
32064,8501,28469
32240,8523,28264
32500,8586,28473
32549,8540,28300
32444,8559,28529
32324,8619,28297
32304,8540,28237
32416,8559,28308
32432,8519,28170
32500,8607,28352
32685,8544,28001
32788,8531,28189
32886,8597,28265
32944,8573,28081
32848,8557,28112
32724,8567,28009
32672,8551,28060
32744,8555,28023
32790,8609,28004
32793,8549,28112
32756,8631,27876
32808,8534,27702
32948,8652,27911
33128,8580,27799
33133,8561,27933
33128,8583,27730
32940,8555,27797
32812,8601,27668
32920,8545,27825
33052,8521,27528
33132,8519,27751
33036,8549,27432
32976,8544,27652
33084,8565,27473
33088,8563,27669
33064,8599,27456
33018,8558,27527
33092,8577,27420
33109,8539,27572
33192,8556,27513
33321,8521,27323
33392,8561,27164
33311,8549,27327
33165,8598,27471
33044,8576,27237
32944,8631,27319
33000,8578,27296
33140,8613,27223
33260,8545,27050
33444,8593,27105
33572,8560,27118
33604,8594,27005
33512,8549,27185
33400,8577,27135
33372,8642,27203
33444,8599,26943
33540,8628,27135
33568,8580,27269
33504,8656,27071
33468,8568,27128
33393,8596,27129
33338,8548,27011
33328,8588,27250
33488,8572,27031
33648,8632,27143
33780,8615,27260
33900,8586,27046
34004,8609,27131
33896,8560,27193
33644,8579,27196
33468,8545,27075
33648,8574,27192
33836,8564,27116
33993,8593,27335
34098,8593,27105
34100,8597,27121
34076,8634,27255
33960,8578,27151
33890,8579,27316
33905,8647,27055
33948,8545,27097
33980,8583,27288
33968,8662,27263
33988,8581,27420
33944,8617,27368
33962,8595,27159
33957,8622,27381
33864,8577,27269
33860,8597,27500
33910,8552,27269
33981,8567,27470
33936,8678,27353
33888,8604,27489
33900,8703,27325
34004,8608,27556
34100,8647,27535
34100,8594,27527
33961,8633,27670
33936,8579,27479
33977,8609,27677
34036,8565,27623
34090,8613,27770
34032,8580,27713
33884,8613,27521
33860,8719,27782
33996,8616,27831
34116,8605,27718
34136,8615,27834
34092,8579,27939
34080,8629,27879
34154,8573,27877
34215,8631,28065
34252,8617,27782
34324,8751,27941
34376,8645,28118
34276,8693,27911
34089,8622,28029
33920,8600,27972
33772,8598,28200
33820,8573,27981
34032,8614,28112
34220,8580,28055
34336,8630,28262
34324,8601,28129
34272,8645,27961
34112,8740,28193
34085,8644,28075
34068,8729,28295
34137,8620,28125
34200,8659,28015
34157,8589,28223
34088,8583,28377
34024,8633,28156
33992,8618,28284
34068,8617,28261
34157,8641,28234
34170,8616,28311
34188,8630,28233
34218,8589,28397
34172,8647,28120
34128,8592,28328
34108,8582,28207
34124,8655,28319
34168,8638,28405
34260,8621,28124
34415,8663,28308
34488,8628,28399
34526,8757,28367
34540,8617,28287
34464,8585,28500
34496,8599,28295
34572,8587,28394
34670,8643,28493
34652,8613,28324
34687,8681,28415
34724,8629,28411
34720,8664,28430
34696,8608,28550
34636,8616,28341
34496,8585,28446
34368,8595,28456
34396,8587,28327
34532,8628,28492
34604,8688,28535
34612,8645,28385
34541,8679,28263
34456,8634,28515
34444,8674,28477
34564,8601,28633
34644,8613,28433
34634,8587,28549
34532,8625,28484
34448,8606,28590
34460,8649,28552
34496,8632,28404
34492,8652,28319
34569,8703,28580
34589,8651,28566
34612,8702,28492
34596,8599,28540
34585,8646,28511
34540,8611,28706
34288,8662,28610
33908,8621,28511
33508,8656,28399
33144,8639,28634
32932,8661,28516
32813,8628,28767
32576,8631,28543
32396,8672,28412
32454,8611,28661
32952,8648,28648
34140,8610,28631
35877,8657,28576
37792,8687,28757
39836,8641,28741
42484,8660,28530
45748,8629,28724
49468,8647,28686
53172,8685,28738
56072,8608,28853
57624,8678,28636
57320,8638,28757
55600,8714,28761
53100,8673,28716
50456,8703,28744
47800,8791,28893
45300,8700,28614
42904,8714,28839
40452,8638,28745
38492,8670,28840
37204,8627,28961
36308,8668,28798
35516,8656,28768
34688,8668,28793
33968,8684,28785
33520,8725,28705
33288,8646,28911
33096,8667,28879
32944,8617,28807
32709,8631,29028
32423,8659,28935
32152,8624,28816
31828,8663,28673
31535,8647,28916
31360,8663,28868
31260,8649,28944
31212,8668,28802
31152,8625,28923
31092,8705,29053
31040,8624,28695
31041,8613,28955
31116,8635,29004
31184,8631,28793
31142,8774,28869
31056,8660,29086
30944,8721,28921
30972,8633,28825
31072,8673,28944
31169,8613,29124
31292,8629,29028
31368,8603,29143
31372,8639,29076
31340,8697,29249
31316,8656,28989
31324,8772,29248
31340,8652,29256
31332,8707,29364
31308,8613,29258
31272,8634,29095
31404,8598,29371
31460,8630,29377
31508,8617,29554
31620,8643,29494
31652,8678,29377
31608,8645,29234
31536,8668,29469
31445,8629,29540
31428,8648,29594
31448,8602,29422
31498,8643,29526
31616,8602,29556
31676,8650,29426
31717,8696,29435
31740,8632,29513
31701,8665,29692
31680,8639,29311
31717,8685,29463
31764,8639,29703
31796,8654,29572
31848,8606,29372
31832,8651,29572
31776,8615,29525
31716,8688,29692
31705,8660,29537
31684,8639,29413
31672,8683,29667
31688,8626,29433
31744,8662,29540
31780,8612,29623
31796,8657,29621
31736,8630,29397
31688,8679,29483
31709,8648,29317
31728,8689,29557
31724,8640,29361
31744,8677,29200
31828,8628,29384
31886,8630,29485
31892,8601,29250
31877,8609,29332
31868,8601,29152
31844,8622,29373
31877,8687,29027
31956,8668,29169
31972,8636,29271
31956,8674,28916
31972,8642,29023
31948,8676,29146
31972,8615,28917
31945,8596,29009
31944,8631,29092
31928,8607,28741
31956,8644,28928
31933,8628,28828
31896,8644,28948
31976,8632,28743
32056,8642,28748
32122,8603,28713
32151,8620,28814
32168,8595,28421
32212,8652,28541
32296,8629,28683
32356,8613,28351
32388,8650,28478
32373,8631,28589
32308,8677,28287
32280,8621,28372
32264,8740,28423
32218,8599,28079
32238,8583,28255
32296,8626,28285
32356,8601,28206
32456,8678,28078
32524,8647,28077
32476,8629,28125
32484,8658,28141
32463,8607,27860
32540,8660,28009
32596,8592,27903
32613,8578,27967
32532,8628,28083
32500,8588,27769
32460,8630,27934
32492,8609,27769
32508,8635,28004
32552,8610,27795
32596,8612,27837
32560,8583,27772
32460,8588,27897
32388,8564,27694
32417,8579,27805
32400,8638,27725
32380,8603,27888
32476,8659,27644
32548,8613,27693
32609,8730,27825
32632,8613,27614
32600,8571,27695
32612,8571,27799
32612,8552,27538
32660,8582,27668
32672,8564,27687
32698,8586,27541
32696,8651,27604
32746,8593,27503
32832,8614,27703
32862,8566,27351
32901,8593,27469
32924,8540,27667
32960,8566,27391
33046,8539,27501
33072,8583,27569
33032,8572,27268
32996,8614,27285
32988,8601,27487
32948,8647,27367
32921,8585,27224
32865,8606,27295
32820,8539,27066
32854,8525,27125
32897,8555,27265
32964,8602,27199
33037,8577,27015
33116,8563,26902
33124,8678,26988
33096,8575,26991
33052,8544,27006
33072,8573,26993
33116,8519,26912
33084,8660,26905
33076,8525,26785
33056,8634,26951
33068,8571,26707
33056,8614,26553
33052,8566,26703
33040,8614,26831
33056,8564,26452
33072,8521,26524
33128,8523,26703
33164,8571,26412
33188,8512,26556
33260,8570,26659
33313,8527,26388
33388,8595,26384
33397,8574,26445
33340,8537,26429
33280,8554,26289
33256,8511,26473
33256,8532,26157
33287,8493,26348
33260,8525,26192
33230,8509,26226
33300,8572,26280
33324,8541,26158
33304,8562,26102
33280,8527,26248
33254,8556,26039
33248,8500,26199
33296,8533,26030
33300,8487,26254
33308,8501,26257
33268,8577,26069
33210,8540,25900
33198,8585,26092
33208,8528,25955
33184,8547,25925
33176,8573,25996
33198,8495,25913
33205,8495,25980
33220,8535,26105
33249,8537,25988
33268,8509,25868
33228,8505,25851
33120,8514,25969
33098,8535,25863
33124,8514,25913
33108,8546,25921
33020,8496,25816
33000,8548,25930
33028,8474,25844
33060,8519,25781
33100,8479,25896
33136,8527,25880
33146,8504,25748
33152,8528,26007
33108,8506,25766
33128,8511,25861
33140,8553,25893
33108,8484,25863
33080,8509,26008
33076,8461,25924
33120,8501,25900
33116,8537,25805
33132,8513,25756
33172,8534,25916
33196,8498,25930
33225,8502,25949
33194,8473,25833
33188,8478,25991
33233,8521,25897
33313,8465,25777
33332,8463,25989
33324,8483,26004
33272,8510,25997
33276,8493,25895
33287,8510,26157
33248,8478,25956
33232,8486,25867
33223,8595,25863
33224,8457,25919
33208,8484,25916
33172,8452,26137
33188,8506,26005
33201,8477,26245
33216,8516,26309
33180,8536,26260
33172,8470,26101
33197,8485,26132
33180,8504,26151
33172,8451,26084
33176,8501,26283
33176,8450,26193
33200,8507,26477
33277,8479,26351
33260,8517,26289
33232,8479,26431
33230,8521,26459
33248,8441,26484
33260,8487,26494
33268,8449,26708
33246,8424,26494
33232,8487,26630
33224,8463,26792
33232,8548,26840
33264,8494,26666
33256,8458,26592
33253,8516,26850
33224,8473,26821
33204,8453,27044
33212,8415,26885
33173,8438,26999
33182,8438,26834
33216,8436,27076
33218,8516,27237
33240,8472,27333
33281,8495,27371
33296,8441,27389
33304,8449,27300
33300,8411,27212
33264,8460,27386
33236,8421,27608
33216,8419,27488
33172,8458,27348
33116,8440,27636
33108,8468,27666
33128,8439,27686
33136,8444,27712
33148,8504,27783
33176,8433,27908
33204,8544,28015
33220,8396,28124
33201,8428,28097
33216,8486,28102
33162,8440,28045
33132,8505,28203
33120,8449,28260
33092,8544,28359
33044,8428,28327
33044,8401,28292
33016,8443,28480
33004,8391,28448
32976,8422,28627
32957,8421,28646
32952,8447,28609
32880,8500,28570
32864,8433,28807
32837,8455,28901
32824,8407,28868
32792,8425,28935
32732,8438,28970
32640,8391,29153
32648,8421,29094
32714,8420,29007
32788,8441,29319
32836,8436,29255
32830,8444,29559
32864,8419,29404
32900,8421,29317
32984,8395,29624
33044,8411,29628
33074,8455,29637
33112,8418,29749
33132,8467,30000
33108,8443,29780
33112,8474,29988
33088,8429,30033
33056,8442,29997
33008,8397,30254
32996,8449,30029
33012,8401,30215
33048,8437,30477
33029,8399,30428
33075,8437,30381
33088,8474,30524
33076,8425,30542
33040,8443,30502
33018,8473,30711
33010,8430,30816
32985,8428,30746
33024,8377,30892
33078,8398,30863
33124,8484,31143
33142,8416,31005
33124,8463,30951
33140,8420,31040
33148,8441,30991
33155,8402,31302
33148,8423,31319
33144,8441,31349
33076,8376,31348
33060,8404,31575
33092,8381,31686
33156,8410,31557
33206,8404,31678
33176,8437,31661
33148,8412,31775
33084,8401,31719
32952,8419,31869
32712,8380,31903
32340,8519,31897
31904,8389,31991
31540,8374,31952
31408,8449,32197
31288,8429,32089
31220,8405,32135
31256,8425,32212
31592,8395,32193
32480,8511,32293
33676,8408,32340
35336,8354,32347
37344,8423,32272
39896,8390,32576
42984,8404,32475
46676,8385,32545
50740,8424,32665
54892,8393,32461
58120,8489,32694
59872,8425,32583
59732,8463,32900
58248,8395,32887
56008,8477,32711
53124,8417,32932
49588,8480,32925
45916,8428,32992
42916,8453,33115
40084,8412,33191
37494,8427,33020
35488,8391,33264
34201,8398,33287
33415,8416,33239
32878,8357,33408
32468,8390,33620
32176,8381,33604
31877,8409,33517
31628,8458,33468
31296,8389,33397
31004,8399,33755
30688,8369,33809
30412,8373,33864
30181,8393,33903
30028,8371,34013
29844,8354,34023
29758,8380,34046
29708,8448,34085
29668,8408,34157
29678,8495,34248
29676,8400,34156
29704,8357,34329
29700,8378,34536
29704,8336,34372
29726,8369,34524
29768,8345,34559
29772,8412,34549
29752,8385,34677
29909,8410,34749
29984,8373,34711
30036,8375,35001
30166,8425,34936
30249,8348,34662
30377,8325,34995
30480,8352,35221
30584,8336,35222
30640,8410,35261
30673,8370,35260
30616,8420,35221
30636,8366,35543
30668,8404,35404
30688,8351,35502
30708,8397,35527
30760,8351,35498
30800,8326,35791
30820,8372,35524
30800,8369,35641
30810,8357,35943
30820,8384,35765
30904,8361,35879
30976,8371,35892
31064,8336,35847
31104,8339,35841
31116,8426,36096
31164,8332,36151
31216,8374,36205
31266,8346,36125
31284,8432,35909
31289,8390,36163
31305,8451,36064
31300,8356,36276
31320,8337,36270
31292,8353,35895
31264,8316,36200
31240,8319,35924
31238,8356,36257
31316,8341,36111
31392,8382,36388
31396,8358,36193
31384,8386,35900
31426,8349,36220
31408,8365,36253
31384,8324,36192
31460,8374,36267
31436,8348,36198
31425,8346,36191
31429,8333,36308
31462,8364,36261
31464,8356,36113
31452,8385,36196
31461,8420,36188
31452,8347,36197
31436,8320,36118
31424,8361,36129
31528,8331,36271
31518,8384,36116
31540,8346,36061
31552,8351,36054
31545,8386,35983
31552,8355,36075
31564,8365,35925
31576,8332,35988
31588,8351,35905
31654,8341,35775
31732,8345,36007
31768,8325,35519
31736,8390,35975
31660,8350,35815
31748,8405,35751
31788,8353,35693
31792,8369,35640
31792,8332,35790
31780,8339,35612
31742,8311,35582
31727,8341,35591
31732,8379,35540
31732,8341,35445
31746,8410,35522
31836,8379,35276
31872,8403,35430
31879,8345,35359
31944,8387,35484
31984,8329,35335
32057,8361,35199
32089,8308,34917
32092,8329,35217
32100,8380,35202
32160,8355,35300
32208,8451,34948
32248,8363,35113
32229,8372,34812
32276,8360,34742
32301,8315,35057
32340,8327,34900
32364,8304,34972
32344,8353,34644
32352,8328,34961
32376,8363,34872
32340,8343,34941
32369,8402,34903
32412,8351,34879
32420,8320,34783
32440,8325,34841
32461,8447,34749
32448,8307,34921
32485,8339,34823
32460,8323,34695
32524,8349,34532
32504,8381,34395
32572,8337,34729
32644,8367,34665
32657,8317,34719
32677,8359,34735
32712,8319,34333
32776,8359,34652
32780,8329,34499
32752,8385,34741
32792,8337,34564
32692,8383,34274
32812,8340,34596
32852,8380,34439
32821,8313,34653
32813,8357,34513
32840,8304,34529
32840,8288,34485
32828,8312,34567
32868,8306,34498
32876,8347,34215
32848,8334,34420
32848,8388,34611
32808,8343,34463
32788,8375,34183
32774,8299,34384
32762,8276,34517
32804,8339,34274
32812,8308,34345
32824,8299,34398
32816,8357,34367
32804,8330,34287
32808,8320,34205
32805,8317,34367
32840,8331,33925
32817,8309,34182
32804,8381,34087
32810,8311,34222
32780,8354,34215
32821,8315,34120
32794,8375,34039
32756,8331,33848
32849,8376,34094
32778,8329,33988
32719,8302,34070
32704,8314,33829
32736,8275,34018
32708,8318,33845
32702,8291,34002
32681,8453,33972
32636,8335,33857
32765,8320,34055
32832,8324,33620
32821,8346,33884
32894,8335,34028
32916,8287,33679
32896,8320,33876
32868,8278,33893
32868,8317,33868
32884,8298,33732
32920,8377,33911
32948,8344,33783
32924,8330,33828
32916,8380,33838
32872,8327,33854
32824,8293,33893
32836,8339,33744
32932,8311,33645
32976,8293,33813
33052,8361,33677
33020,8340,33797
32988,8393,33949
32944,8343,33729
32993,8332,33812
32869,8305,33677
32960,8328,33895
33008,8305,33637
33068,8284,33796
33156,8331,33685
33116,8314,33861
33116,8317,33631
33176,8420,33783
33133,8350,33679
33092,8327,33796
33084,8308,33767
33056,8336,33756
33012,8292,33773
32984,8283,33829
32996,8316,33883
32948,8309,33588
32960,8455,33796
32904,8341,33719
33004,8322,33927
32980,8364,33718
32954,8337,33799
32948,8287,33653
32888,8393,33791
32960,8300,33494
33024,8293,33799
33029,8329,33552
33024,8318,33809
32992,8340,33830
32984,8389,33775
33012,8333,33693
32960,8302,33887
32928,8329,33807
32960,8294,33844
33040,8341,33687
33124,8314,33932
33134,8299,33521
33110,8345,33693
32960,8319,33884
33057,8367,33901
33088,8313,33892
33068,8326,33767
33060,8285,33527
33092,8302,33863
33072,8279,33767
33096,8323,33972
33049,8301,33788
32992,8365,33844
32932,8325,33828
32924,8374,33712
32980,8313,33934
33012,8330,33911
33013,8286,33789
33032,8319,33665
32972,8278,33551
33048,8301,33591
33052,8361,33600
33060,8319,33886
33117,8362,33892
33086,8320,33863
33004,8353,33909
33008,8301,33884
33088,8333,33796
33072,8280,33881
33048,8309,33909
33029,8289,33925
33004,8330,33922
33024,8318,34027
32964,8343,34045
33048,8374,34047
33069,8313,34048
32998,8326,33932
33020,8292,33911
33030,8285,33735
33072,8314,33609
33126,8290,33613
33156,8325,33935
33125,8311,33917
33112,8360,33940
33128,8347,33927
33208,8320,33799
33192,8358,34036
33068,8297,34041
33064,8367,33903
33121,8297,33799
33124,8290,33925
33136,8303,33799
33172,8352,34023
33164,8345,33889
33120,8331,33573
33089,8382,33841
33076,8330,33989
33096,8294,33869
33092,8325,33798
32976,8294,33880
32988,8357,33861
33020,8303,33820
33070,8381,33878
33160,8357,33983
33160,8329,33804
33080,8342,33671
33084,8307,33860
33056,8344,33799
33036,8293,33821
32992,8351,34005
33012,8311,33879
33057,8308,33748
33096,8371,33559
33012,8361,33856
33012,8333,33861
32973,8397,33852
32916,8326,33990
32948,8330,33874
32952,8287,33856
32964,8327,33783
33004,8302,33996
33020,8378,33781
32972,8336,33842
33010,8326,33844
33008,8345,33748
32981,8325,33960
32976,8338,33972
33056,8359,33937
32964,8323,33771
33020,8357,33600
33004,8329,33836
33037,8377,33793
33135,8327,33703
33096,8365,33839
33148,8328,33920
33076,8337,33893
33108,8366,33877
33080,8301,33753
33084,8325,33712
33088,8287,33541
33081,8328,33846
33058,8316,33744
33052,8370,33887
33028,8332,33913
33004,8357,33921
33012,8417,33836
32996,8333,33846
32912,8383,33740
32864,8311,33562
32820,8350,33821
32920,8300,33844
32908,8354,33783
32881,8332,33693
32886,8389,33911
32876,8353,33940
32844,8395,33741
32930,8351,33814
32908,8379,33821
32948,8311,33799
32978,8365,33799
33016,8336,33883
33084,8390,33677
33076,8349,33787
33068,8411,33799
33038,8344,33767
32964,8396,33638
32924,8355,33898
33008,8313,33750
33014,8326,33503
33012,8305,33760
32920,8374,33633
32828,8357,33769
32910,8341,33460
32840,8371,33744
32896,8346,33862
32878,8406,33679
32877,8354,33689
32845,8325,33789
32888,8309,33761
32893,8358,33637
32752,8347,33852
32776,8327,33613
32744,8373,33745
32792,8357,33702
32824,8357,33708
32884,8449,33759
32893,8356,33606
32948,8323,33705
33009,8316,33751
33084,8374,33659
33060,8340,33754
33084,8357,33724
33040,8351,33729
33033,8355,33645
33044,8395,33701
33007,8364,33663
33108,8336,33855
33156,8465,33641
33161,8378,33669
33140,8340,33827
33132,8346,33703
33112,8333,33798
33048,8348,33388
32972,8375,33639
33065,8359,33691
33068,8406,33852
32989,8355,33516
32921,8335,33674
32968,8388,33813
32928,8335,33642
32956,8327,33724
33032,8399,33823
33012,8378,33441
32933,8375,33703
32968,8367,33828
33005,8399,33627
32924,8380,33711
32964,8335,33581
32942,8328,33765
32900,8386,33516
32820,8349,33590
32852,8346,33767
32900,8384,33740
32900,8367,33607
32916,8433,33359
32860,8387,33599
32884,8353,33550
32896,8342,33557
32812,8401,33559
32392,8369,33537
31984,8365,33449
31652,8356,33303
31184,8460,33471
31000,8390,33383
30748,8380,33562
30716,8381,33225
30785,8413,33385
31076,8374,33340
31744,8351,33377
32701,8339,33036
34100,8409,33263
35944,8381,33439
38180,8484,33428
40936,8406,33201
44212,8390,33257
47892,8473,33148
51616,8405,33332
54688,8366,33126
56256,8577,33145
55924,8453,33151
54312,8452,33252
52132,8439,32949
49596,8437,33052
46568,8424,33084
43368,8480,32996
40628,8459,32996
38217,8412,32910
36100,8413,33070
34360,8387,32647
33258,8377,32844
32737,8413,33004
32359,8420,32604
32080,8401,32855
31780,8446,32721
31502,8418,32795
31340,8464,32897
30990,8426,32671
30652,8385,32729
30396,8431,32788
30126,8417,32508
30028,8393,32613
29904,8389,32737
29788,8399,32436
29758,8429,32577
29684,8411,32407
29664,8465,32606
29648,8409,32340
29674,8405,32482
29577,8382,32583
29432,8365,32333
29672,8451,32371
29726,8417,32500
29780,8428,32146
29830,8410,32303
29910,8453,32187
29845,8423,32313
29828,8388,32135
29908,8380,32183
29988,8412,32183
29973,8388,32197
30176,8483,31929
30144,8417,32078
30166,8407,32151
30261,8404,31916
30264,8472,31971
30364,8425,31981
30396,8422,31713
30436,8378,31840
30420,8435,31933
30545,8378,31502
30576,8377,31686
30490,8386,31697
30616,8473,31393
30672,8449,31524
30721,8423,31670
30808,8401,31443
30888,8491,31483
30861,8437,31491
30934,8388,31149
30876,8372,31335
30816,8371,31445
30812,8454,31017
30904,8442,31138
30900,8419,31220
30864,8415,31190
31000,8405,31009
31029,8441,31200
30821,8392,30813
30928,8370,31052
30896,8403,30916
30940,8392,31052
31034,8384,30663
31080,8399,30787
31046,8468,30760
31037,8459,30828
31080,8434,30688
31060,8394,30865
30896,8420,30453
30913,8392,30682
30980,8375,30687
31024,8378,30543
31000,8408,30306
31044,8403,30506
31078,8503,30625
31080,8456,30389
31076,8414,30432
31137,8400,30375
31129,8449,30286
31108,8398,30342
31148,8369,30281
31081,8383,30357
31120,8413,30037
31184,8430,30193
31264,8535,30314
31232,8451,30087
31233,8413,29903
31244,8448,30129
31264,8404,30110
31288,8388,30007
31344,8380,29799
31360,8408,30001
31324,8397,29916
31296,8437,29921
31364,8434,30016
31473,8426,29661
31420,8423,29871
31431,8473,29989
31616,8421,29752
31488,8400,29791
31580,8380,29648
31549,8395,29663
31588,8444,29743
31644,8432,29831
31678,8439,29591
31714,8433,29679
31672,8425,29535
31718,8445,29748
31732,8399,29511
31760,8437,29489
31776,8405,29556
31760,8457,29510
31816,8435,29627
31860,8419,29415
31828,8425,29478
31740,8510,29573
31925,8452,29436
31956,8425,29255
31936,8409,29408
31992,8444,29335
32016,8417,29477
31968,8481,29340
31960,8441,29182
31896,8478,29097
31960,8517,29203
32016,8471,29065
31880,8442,29276
31912,8420,29224
32028,8475,29191
31980,8448,29212
31986,8415,29071
32014,8421,29136
31980,8411,29173
32168,8437,29121
32164,8433,29188
32161,8480,29074
32236,8443,29083
32104,8453,29084
32220,8406,29061
32340,8448,28911
32332,8410,29109
32342,8393,28780
32380,8485,28960
32412,8458,28846
32412,8433,29117
32376,8482,28868
32336,8441,28958
32392,8415,28892
32493,8463,28983
32520,8407,28709
32492,8391,28896
32452,8448,28881
32524,8436,28899
32560,8420,28903
32480,8428,29012
32440,8436,28662
32506,8429,28988
32542,8481,28872
32612,8464,28983
32557,8466,28866
32572,8446,28958
32560,8423,28823
32660,8418,28876
32680,8442,28570
32645,8431,28663
32680,8438,28692
32784,8514,28670
32696,8455,28789
32644,8406,28580
32692,8471,28741
32616,8401,28898
32629,8394,28668
32664,8500,28757
32660,8443,28865
32576,8439,28551
32676,8434,28741
32714,8442,28784
32516,8419,28797
32616,8491,28839
32832,8423,28841
32824,8404,28738
32850,8400,28849
32864,8429,28727
32804,8442,28948
32816,8506,28718
32840,8468,28860
32880,8457,28975
32833,8428,28695
32847,8487,28854
32797,8440,28843
32836,8422,28979
32936,8505,28842
32909,8432,29130
32912,8438,29102
32909,8460,28949
32980,8448,29048
33060,8507,29012
33084,8465,29144
32972,8421,29115
32846,8437,28900
32823,8412,29167
32884,8482,29036
32871,8460,29314
32884,8442,29172
32900,8491,29000
33012,8473,29287
33089,8513,29268
33048,8447,29191
33056,8493,29285
33040,8453,29481
33017,8426,29172
33004,8420,29405
33016,8490,29471
33080,8473,29474
33116,8461,29381
33176,8500,29492
33224,8465,29533
33189,8515,29422
33188,8441,29433
33133,8570,29725
32958,8461,29392
33137,8427,29615
33272,8509,29650
33220,8477,29641
33288,8457,29738
33232,8491,29764
33212,8457,29613
33232,8511,29737
33232,8459,29710
33253,8427,29801
33304,8471,29859
33312,8439,29679
33168,8440,29611
33148,8505,29814
33173,8492,29756
33128,8544,29776
33142,8498,29703
33158,8450,29984
33100,8477,29860
33312,8430,29791
33438,8496,29900
33412,8460,29907
33247,8447,29773
33192,8481,29853
33220,8469,30057
33252,8537,29989
33132,8481,29879
33033,8462,29981
33016,8492,29945
33052,8439,29984
33100,8544,30045
33180,8495,29794
33212,8461,30053
33208,8595,30072
33184,8494,29984
33116,8493,30196
33256,8475,30043
33133,8481,30095
33092,8453,30015
33020,8487,30167
33038,8455,30114
33048,8509,30156
32988,8470,30215
32980,8465,30028
32982,8542,30215
33028,8512,30116
32984,8478,30401
32886,8524,30180
33012,8484,30288
33077,8515,30319
33012,8470,30255
33172,8447,30361
33116,8523,30301
33172,8490,30377
33110,8510,30248
33168,8487,30483
33144,8526,30223
33104,8491,30392
33080,8460,30548
33036,8527,30309
33082,8470,30471
33045,8469,30415
32932,8464,30559
32982,8522,30272
33072,8502,30373
33036,8567,30604
32984,8503,30436
33100,8479,30546
32988,8540,30535
32932,8466,30577
33044,8445,30343
33072,8564,30543
33064,8502,30693
33025,8506,30516
32948,8486,30584
33056,8495,30501
33200,8534,30657
33148,8495,30614
33132,8475,30348
33052,8538,30620
33020,8470,30484
32988,8455,30750
33062,8532,30619
33056,8501,30367
32981,8499,30617
32968,8495,30782
33025,8564,30541
33134,8542,30655
33184,8481,30657
33148,8456,30800
33001,8516,30617
33086,8490,30574
33033,8599,30438
32976,8504,30724
32924,8501,30580
33001,8559,30717
32980,8524,30793
33010,8487,30532
32957,8513,30774
32872,8475,30708
32894,8600,30923
33016,8487,30653
33000,8476,30804
32936,8558,30655
32952,8512,30940
32986,8524,30587
32996,8517,30695
32956,8498,30843
33020,8501,30743
33008,8471,30864
33092,8468,30842
33028,8504,30781
32988,8516,30900
33028,8498,30785
33086,8552,30920
33088,8516,30821
33080,8511,30908
33093,8525,30867
32908,8498,31086
32790,8485,30676
33032,8487,30927
33045,8479,31013
33156,8503,31054
33116,8503,30903
33032,8542,30995
33072,8518,30871
33100,8559,30900
33120,8543,31020
33045,8495,30933
33040,8531,31023
32976,8513,30924
32880,8485,31141
32896,8522,30971
32944,8523,31047
32964,8525,31054
32992,8546,30920
32953,8521,31089
32948,8535,31204
32997,8506,31194
33010,8525,31048
32840,8497,30901
32929,8535,30832
33065,8511,31111
33040,8625,30964
33068,8539,31225
33096,8531,31019
33054,8567,31023
32992,8525,30848
33068,8595,31090
32940,8517,31127
32932,8523,31032
32876,8492,31115
32773,8548,31127
32904,8539,31005
32869,8534,31201
32817,8601,31076
32722,8548,31028
32794,8525,31166
32894,8552,31138
32836,8508,31029
32912,8500,31196
32868,8531,30915
32784,8508,31188
32900,8576,31163
32860,8550,31199
32824,8540,31116
32856,8669,31215
32872,8546,31087
32877,8647,31220
32916,8538,31367
32928,8505,31223
32796,8527,31079
32799,8511,31239
32840,8547,31267
32884,8540,31226
32952,8575,31332
32869,8546,31335
32821,8540,31145
32745,8531,31041
32833,8511,31334
32842,8551,31292
32812,8533,31295
32868,8516,31440
32748,8570,31291
32836,8579,31356
32796,8548,31267
32916,8569,31305
32928,8537,31239
32900,8583,31513
32924,8544,31362
32968,8511,31217
32960,8541,31432
32921,8522,31403
32908,8597,31335
32832,8562,31511
32618,8546,31375
32780,8623,31480
32668,8584,31364
32736,8559,31618
32804,8513,31438
32828,8511,31525
32741,8577,31415
32775,8553,31556
32816,8573,31252
32762,8549,31508
32766,8625,31684
32753,8586,31326
32757,8576,31546
32696,8534,31701
32724,8519,31330
32656,8573,31591
32560,8535,31683
32584,8527,31654
32788,8603,31516
32648,8571,31641
32814,8574,31695
32921,8668,31646
32876,8594,31657
32840,8562,31588
32884,8519,31809
32808,8575,31589
32712,8538,31676
32808,8551,31817
32784,8563,31726
32760,8548,31829
32846,8556,31606
32856,8615,31751
32805,8572,31653
32796,8535,31879
32800,8582,31793
32676,8536,31564
32584,8523,31764
32740,8533,31924
32728,8601,31532
32765,8576,31695
32852,8572,31898
32888,8626,31695
32942,8568,31853
32928,8545,31719
32888,8615,31985
32785,8573,31788
32748,8557,31892
32644,8539,31797
32685,8565,31999
32756,8565,31814
32824,8643,31910
32830,8591,31829
32718,8563,31949
32828,8621,31662
32696,8552,31917
32652,8535,32053
32836,8533,31949
32836,8623,32079
32792,8588,31967
32952,8583,32130
32989,8599,31995
33005,8596,32073
33036,8570,32012
33004,8560,31927
32917,8544,31904
33132,8534,31841
33276,8538,32005
33260,8619,31900
33264,8604,31913
33244,8607,31972
33260,8578,32029
33208,8650,32010
33181,8633,32047
33172,8569,32212
33208,8550,31812
33256,8542,32028
33240,8575,32244
33196,8578,31885
33060,8562,32051
33036,8665,32064
33129,8611,32124
33144,8614,32262
33084,8572,31838
33040,8615,32135
33040,8546,32109
33036,8611,32183
33025,8572,32146
33052,8571,32275
33077,8597,32156
33112,8616,32183
33132,8589,32146
33049,8709,31993
32924,8610,32161
32838,8580,32148
32880,8557,31998
32906,8619,32201
33024,8572,32125
33016,8560,32006
32984,8640,32154
32980,8631,32100
32912,8597,32108
32688,8591,32036
32400,8609,32164
31974,8571,32015
31645,8562,32101
31478,8595,32086
31396,8560,32225
31362,8643,31989
31380,8591,32052
31580,8601,31935
32168,8597,31994
32864,8670,32055
34037,8611,32198
35528,8581,31815
37344,8560,31943
39584,8632,31969
42304,8580,32026
45392,8564,32157
48384,8790,31756
50792,8654,31964
51844,8651,32135
51412,8612,32015
50004,8612,31987
48248,8665,31919
46348,8620,31983
44024,8582,31853
41564,8661,32109
39412,8625,31686
37484,8627,31895
35804,8612,32060
34556,8647,31717
33804,8631,31923
33252,8606,32063
32828,8652,31764
32556,8602,31812
32308,8585,31983
32160,8695,31799
31980,8592,31887
31717,8591,31895
31421,8712,31924
31188,8655,31801
30964,8621,31886
30868,8623,32007
30744,8589,31774
30540,8572,31861
30473,8628,31711
30452,8597,31933
30414,8604,31558
30400,8590,31829
30416,8648,31847
30394,8626,31732
30448,8619,31829
30538,8599,31801
30560,8675,31783
30556,8609,31793
30490,8593,31745
30588,8567,31765
30642,8637,31495
30596,8620,31780
30632,8687,31749
30688,8644,31779
30764,8622,31689
30768,8601,31751
30800,8693,31753
30844,8623,31591
30878,8597,31662
30836,8597,31849
30885,8579,31711
30953,8593,31631
30936,8630,31829
30972,8619,31539
31016,8615,31644
30988,8656,31679
30981,8602,31566
30988,8577,31576
30988,8632,31535
31028,8584,31669
31032,8581,31436
31142,8596,31495
31168,8632,31325
31116,8617,31475
31176,8670,31330
31126,8633,31397
31168,8593,31231
31215,8624,31470
31304,8581,31221
31204,8575,31277
31212,8632,31260
31264,8606,31100
31297,8619,31252
31316,8615,31216
31310,8707,31193
31277,8668,31063
31384,8637,31135
31412,8612,31127
31488,8573,31116
31424,8646,30889
31393,8632,30992
31336,8623,31143
31400,8626,30708
31456,8615,30940
31464,8684,31076
31502,8643,30832
31585,8604,30913
31578,8647,30767
31556,8591,30844
31516,8676,30935
31553,8611,30617
31592,8594,30791
31608,8612,30868
31656,8673,30647
31734,8650,30701
31766,8659,30653
31694,8613,30673
31780,8618,30761
31748,8585,30359
31772,8582,30588
31780,8624,30514
31776,8605,30679
31804,8685,30405
31796,8663,30447
31852,8655,30493
31860,8638,30225
31780,8606,30399
31660,8673,30503
31776,8625,30383
31776,8604,30172
31822,8605,30338
31824,8616,30167
31865,8682,30254
31852,8649,30240
31848,8635,30204
31888,8663,30177
31872,8635,30088
31877,8601,30140
31876,8649,30284
31829,8619,30025
31768,8671,30124
31717,8628,29949
31808,8633,30132
31814,8695,30029
31748,8666,29982
31776,8631,30101
31808,8636,30060
31852,8605,29804
31884,8739,29829
31816,8621,29884
31788,8609,29916
31845,8665,29858
31940,8665,29920
31984,8643,29649
32038,8671,29876
31988,8653,29985
31976,8663,29754
31988,8660,29796
31876,8618,29884
31968,8601,29550
31997,8677,29747
31948,8641,29900
31953,8637,29524
31972,8681,29734
31928,8677,29869
31856,8633,29624
31900,8709,29721
31928,8631,29822
31988,8615,29587
32100,8600,29690
32084,8668,29737
32112,8647,29735
32101,8697,29610
32120,8664,29674
32172,8642,29532
32192,8710,29671
32244,8645,29462
32325,8612,29645
32288,8702,29559
32369,8617,29689
32460,8609,29530
32497,8699,29641
32520,8655,29493
32544,8663,29598
32572,8641,29381
32557,8669,29631
32572,8639,29529
32548,8613,29661
32528,8622,29725
32575,8599,29541
32616,8662,29647
32660,8645,29581
32632,8732,29591
32616,8655,29644
32621,8642,29526
32605,8661,29729
32656,8622,29567
32656,8681,29685
32648,8630,29685
32612,8610,29587
32558,8613,29703
32672,8677,29759
32622,8655,29622
32631,8649,29731
32664,8665,29737
32664,8638,29687
32732,8656,29884
32608,8618,29735
32636,8704,29564
32664,8634,29819
32709,8617,29807
32736,8649,29807
32744,8643,29625
32702,8709,29885
32685,8676,29989
32736,8644,30085
32704,8646,29940
32688,8616,30003
32732,8681,29974
32714,8639,30181
32725,8761,29993
32708,8657,30107
32657,8645,30029
32704,8732,30153
32716,8685,30203
32688,8653,30203
32672,8698,30250
32636,8649,30415
32644,8612,30159
32673,8638,30380
32544,8621,30481
32608,8659,30462
32616,8648,30237
32684,8675,30551
32748,8662,30538
32760,8691,30719
32804,8643,30749
32812,8674,30439
32768,8626,30748
32832,8748,30628
32832,8658,30895
32880,8642,30836
32884,8673,30613
32772,8664,30868
32832,8800,31019
32804,8705,30724
32668,8676,30973
32740,8629,31186
32735,8683,30893
32713,8637,31064
32761,8629,31280
32820,8706,30960
32812,8688,31269
32805,8669,31163
32824,8732,31458
32796,8673,31277
32792,8651,31415
32776,8721,31564
32772,8634,31398
32753,8622,31528
32720,8668,31477
32768,8645,31727
32804,8735,31538
32831,8685,31652
32772,8666,31647
32804,8701,31618
32752,8648,31888
32714,8674,31783
32732,8641,31829
32740,8621,31728
32764,8658,32007
32700,8645,31840
32688,8681,31951
32656,8666,32007
32712,8679,31931
32740,8681,32126
32740,8660,32103
32724,8638,31967
32660,8644,32185
32644,8621,32143
32740,8662,32288
32764,8647,32200
32752,8687,32029
32760,8727,32341
32808,8686,32509
32844,8666,32185
32868,8686,32447
32799,8631,32417
32796,8643,32526
32846,8699,32604
32842,8650,32429
32860,8719,32596
32876,8671,32531
32916,8689,32651
32920,8694,32407
32868,8665,32710
32848,8660,32699
32829,8671,32733
32836,8633,32820
32828,8675,32718
32880,8639,32825
32884,8713,32721
32900,8693,32994
32861,8781,32836
32849,8680,32601
32816,8700,32938
32844,8663,32900
32852,8659,33065
32880,8724,33001
32888,8654,32775
32900,8740,33047
32949,8681,32932
32988,8736,33215
32956,8683,33044
32946,8716,32949
32988,8689,33015
32888,8663,33151
32880,8669,32879
32876,8646,33181
32917,8674,33071
32920,8730,33319
32984,8676,33165
32932,8727,33249
32905,8683,33284
32992,8693,33271
33000,8754,33170
32980,8682,33409
32972,8706,33413
32972,8645,33332
32968,8664,33253
32972,8650,33380
32964,8721,33333
32973,8680,33383
32960,8734,33540
32933,8688,33373
32904,8724,33139
32984,8671,33431
32984,8675,33483
32968,8759,33428
32969,8676,33415
32950,8717,33573
33017,8669,33583
33088,8721,33484
33068,8689,33451
33076,8721,33447
33092,8743,33249
33144,8677,33573
33166,8688,33327
33165,8709,33381
33148,8671,33580
33156,8719,33596
33176,8701,33462
33144,8680,33700
33190,8707,33528
33212,8693,33447
33176,8741,33582
33176,8701,33724
33144,8746,33540
33236,8676,33620
33304,8646,33580
33348,8692,33785
33332,8672,33651
33400,8762,33373
33472,8722,33644
33500,8765,33665
33544,8713,33647
33495,8679,33820
33500,8704,33633
33492,8667,33667
33486,8719,33671
33489,8681,33577
33544,8745,33799
33564,8711,33368
33509,8702,33615
33509,8763,33754
33440,8716,33830
33388,8686,33607
33348,8705,33448
33360,8715,33768
33358,8656,33724
33340,8679,33604
33344,8729,33620
33361,8693,33635
33356,8714,33593
33358,8709,33652
33288,8733,33671
33328,8766,33585
33340,8689,33695
33312,8706,33749
33304,8662,33605
33332,8687,33487
33254,8824,33312
33248,8723,33606
33185,8769,33500
33236,8713,33683
33204,8755,33581
33204,8693,33501
33288,8711,33219
33285,8673,33514
33256,8711,33363
33304,8676,33591
33272,8743,33415
33356,8715,33425
33436,8708,33377
33440,8773,33525
33440,8722,33309
33408,8724,33333
33414,8679,33447
33436,8669,33303
33448,8724,33218
33380,8705,33401
33392,8685,33038
33407,8755,33181
33438,8723,33327
33400,8710,32961
33368,8837,33036
33256,8716,33239
33256,8748,33213
33229,8686,32891
33182,8667,32978
33172,8720,33117
33240,8697,32809
33292,8706,32951
33325,8738,32817
33316,8713,32943
33260,8729,32789
33245,8703,32840
33212,8683,32931
33196,8685,32735
33236,8807,32475
33236,8687,32705
33240,8690,32773
33244,8740,32605
33293,8706,32683
33232,8740,32492
33276,8708,32623
33197,8716,32530
33156,8679,32469
33188,8691,32540
33189,8670,32473
33188,8733,32407
33192,8698,32487
33152,8766,32489
33117,8740,32189
33172,8775,32377
33154,8717,32197
33196,8743,32429
33180,8683,32317
33180,8695,32151
33214,8756,32080
33192,8697,32174
33244,8692,32103
33229,8740,31994
33184,8717,32152
33124,8783,31733
33200,8728,31933
33196,8701,32037
33144,8737,31836
33132,8692,31847
33174,8744,31781
33152,8697,31884
33160,8698,31685
33112,8768,31457
33088,8755,31639
33096,8722,31677
33028,8750,31621
33020,8711,31639
33020,8694,31394
33020,8709,31414
33024,8697,31353
33004,8689,31395
32944,8720,31367
32948,8714,31175
32965,8769,31204
32980,8740,31189
32953,8855,31015
32925,8743,31156
32938,8721,30787
32932,8693,31033
32904,8730,30853
32896,8708,30941
32840,8707,30644
32808,8764,30893
32773,8736,30725
32756,8793,30927
32752,8732,30877
32736,8770,30644
32625,8727,30740
32572,8699,30675
32530,8711,30701
32540,8703,30549
32488,8753,30381
32536,8725,30597
32578,8774,30518
32600,8740,30489
32572,8799,30568
32516,8749,30508
32458,8710,30235
32492,8737,30453
32484,8700,30391
32500,8729,30381
32553,8714,30505
32612,8766,30279
32684,8743,30221
32725,8789,30343
32721,8740,30245
32760,8759,30380
32782,8713,30322
32813,8738,30175
32840,8786,30125
32812,8740,30215
32804,8727,30179
32817,8768,30061
32807,8812,30257
32812,8769,30260
32780,8792,30087
32783,8734,30039
32836,8751,29900
32844,8708,30126
32832,8772,30071
32788,8731,30239
32776,8722,30033
32744,8770,30098
32720,8749,30095
32716,8770,30107
32700,8741,30014
32714,8760,30119
32709,8726,30021
32700,8736,30158
32688,8710,30133
32656,8755,30111
32648,8737,30296
32698,8809,30077
32685,8770,30202
32693,8755,30308
32694,8790,30121
32693,8754,30251
32677,8729,30396
32664,8760,30034
32628,8733,30183
32612,8719,30230
32598,8778,30348
32448,8754,30260
32164,8810,30473
31784,8776,30425
31484,8806,30398
31268,8757,30287
31048,8781,30467
30808,8728,30497
30577,8766,30496
30389,8756,30308
30436,8744,30577
30892,8778,30505
31844,8866,30727
33256,8783,30735
35016,8834,30598
37192,8786,30734
39708,8815,30692
42556,8753,30932
45464,8826,30741
47968,8782,30861
49424,8836,30880
49189,8782,30881
47808,8818,30922
46084,8875,30903
44405,8795,31151
42677,8823,30971
40800,8776,31076
39000,8797,31116
37056,8827,31094
35312,8757,31065
34098,8800,31347
33388,8827,31356
32972,8791,31312
32576,8805,31239
32200,8783,31402
31956,8799,31365
31759,8755,31597
31568,8791,31463
31400,8735,31605
31223,8773,31607
30989,8760,31844
30772,8828,31623
30572,8807,31833
30360,8779,31748
30188,8797,32050
30052,8764,31999
29912,8781,31784
29853,8740,32087
29836,8745,32165
29849,8869,32080
29920,8767,32372
29980,8827,32302
30024,8803,32204
29999,8837,32447
30004,8775,32519
29996,8811,32581
29988,8796,32551
29984,8740,32396
29981,8754,32740
30004,8737,32775
30096,8785,32993
30180,8765,32953
30224,8800,32932
30264,8775,33156
30332,8780,33214
30341,8826,33273
30336,8767,33284
30324,8740,33433
30304,8774,33415
30294,8759,33710
30316,8751,33501
30348,8798,33679
30365,8775,33769
30414,8823,33821
30425,8773,33799
30392,8786,33629
30400,8793,34021
30436,8736,34007
30456,8760,34131
30485,8740,34183
30496,8779,33903
30540,8767,34188
30572,8830,34433
30584,8786,34300
30524,8815,34166
30550,8765,34481
30592,8809,34389
30564,8766,34539
30580,8784,34533
30636,8740,34647
30670,8787,34639
30664,8768,34861
30696,8789,34781
30703,8916,34623
30712,8789,34509
30705,8804,34893
30756,8756,34909
30816,8756,34951
30832,8774,34996
30824,8745,34973
30853,8772,34911
30860,8771,35086
30844,8814,35236
30880,8837,35261
30908,8783,35269
30912,8786,35301
30932,8756,35199
30912,8767,35151
30896,8747,35146
30925,8780,35015
30949,8834,35281
30960,8797,35254
31000,8861,35175
31000,8812,35206
31020,8844,35317
31076,8778,35324
31156,8809,35463
31176,8756,35408
31172,8887,35098
31148,8777,35335
31132,8764,35384
31058,8805,35513
31028,8795,35532
31036,8828,35367
31016,8792,35335
31036,8793,35319
31060,8835,35244
31112,8785,35207
31168,8800,35062
31214,8760,35079
31244,8790,35428
31300,8784,35397
31368,8815,35417
31448,8802,35527
31420,8813,35399
31380,8783,35316
31341,8782,35402
31312,8764,35435
31320,8771,35406
31325,8766,35265
31333,8790,35445
31384,8852,35462
31420,8800,35372
31452,8833,35264
31484,8817,35463
31512,8790,35406
31532,8774,35309
31552,8807,35508
31584,8772,35335
31578,8767,35205
31592,8837,35408
31636,8809,35493
31687,8807,35247
31688,8839,35407
31655,8803,35357
31608,8883,35543
31621,8804,35337
31614,8765,35433
31620,8815,35454
31580,8775,35393
31576,8833,35095
31576,8803,35412
31577,8870,35532
31574,8838,35379
31524,8807,35412
31536,8812,35420
31588,8782,35301
31637,8830,35539
31664,8779,35324
31692,8775,35422
31772,8860,35321
31825,8813,35527
31877,8815,35076
31921,8810,35263
31968,8869,35479
31976,8817,35346
31964,8847,35095
31969,8773,35402
32036,8815,35350
32110,8780,35354
32190,8853,35392
32245,8817,35143
32272,8817,35396
32326,8940,35255
32316,8831,35515
32308,8799,35325
32284,8811,35060
32288,8775,35409
32257,8771,35429
32244,8819,35357
32288,8804,35394
32352,8827,35349
32420,8813,35497
32424,8884,35029
32420,8830,35349
32397,8802,35255
32388,8839,35477
32448,8810,35100
32484,8772,35351
32512,8804,35239
32552,8791,35454
32592,8852,35406
32612,8828,35004
32652,8820,35325
32668,8829,35271
32685,8798,35394
32722,8818,35168
32732,8779,35362
32744,8829,35335
32752,8805,35268
32800,8857,35492
32864,8807,35436
32876,8813,35372
32824,8875,35264
32848,8846,35372
32900,8811,35359
32920,8787,35335
32940,8822,35450
33012,8803,35378
33032,8775,35427
33044,8819,35118
33044,8801,35377
33064,8823,35487
33092,8943,35471
33140,8821,35260
33156,8868,35447
33136,8805,35444
33100,8883,35300
33132,8791,35533
33144,8777,35376
33132,8838,35092
33144,8813,35400
33128,8813,35525
33150,8857,35372
33184,8819,35079
33294,8866,35420
33324,8804,35272
33312,8773,35500
33368,8787,35382
33388,8779,35151
33376,8837,35373
33356,8802,35334
33328,8837,35261
33344,8820,35249
33380,8826,35503
33372,8877,35431
33348,8806,35265
33324,8782,35365
33314,8805,35228
33348,8804,35418
33361,8790,35023
33415,8861,35289
33444,8833,35292
33460,8822,35354
33405,8863,35201
33360,8823,35441
33389,8800,35174
33444,8814,35271
33452,8784,35409
33478,8869,35012
33538,8817,35198
33484,8810,35412
33404,8878,35282
33364,8854,35327
33364,8906,35273
33365,8841,35444
33452,8802,35287
33524,8802,35143
33468,8846,35363
33444,8813,35218
33436,8858,35382
33472,8813,35510
33524,8871,35424
33509,8844,35165
33428,8884,35410
33376,8829,35396
33328,8802,35380
33324,8854,35415
33360,8807,35324
33368,8790,35409
33400,8852,35108
33424,8829,35414
33428,8827,35591
33440,8847,35407
33517,8827,35463
33478,8867,35455
33445,8821,35620
33420,8796,35429
33382,8855,35492
33364,8809,35380
33380,8801,35654
33413,8838,35535
33381,8828,35180
33349,8877,35526
33326,8829,35492
33316,8853,35466
33328,8805,35655
33328,8824,35569
33324,8788,35452
33357,8862,35541
33405,8835,35486
33356,8833,35627
33317,8854,35557
33308,8837,35495
33316,8846,35661
33294,8818,35495
33294,8837,35414
33308,8791,35221
33368,8819,35585
33396,8795,35511
33388,8851,35620
33384,8832,35562
33428,8831,35581
33480,8851,35585
33464,8827,35489
33356,8886,35521
33297,8820,35588
33296,8794,35493
33344,8840,35719
33400,8822,35511
33440,8802,35540
33484,8890,35700
33480,8858,35561
33448,8841,35492
33412,8837,35663
33368,8839,35525
33390,8810,35620
33392,8871,35463
33416,8815,35706
33412,8794,35483
33384,8872,35615
33338,8855,35629
33318,8848,35566
33272,8975,35309
33285,8863,35605
33317,8823,35479
33316,8836,35569
33264,8801,35727
33236,8848,35553
33280,8809,35296
33270,8902,35623
33228,8839,35676
33198,8831,35774
33248,8855,35609
33284,8833,35434
33311,8877,35621
33256,8821,35783
33189,8799,35535
33172,8852,35635
33180,8805,35520
33228,8927,35705
33273,8839,35319
33300,8833,35644
33268,8888,35655
33212,8860,35652
33149,8888,35652
33104,8819,35516
33100,8793,35724
33092,8810,35335
33086,8802,35535
33064,8803,35686
33021,8884,35654
33020,8853,35542
33100,8847,35585
33108,8832,35663
33100,8844,35565
33110,8805,35780
33052,8845,35591
33008,8789,35303
32962,8851,35622
32972,8815,35748
33018,8879,35732
33028,8839,35572
33012,8837,35652
33040,8882,35517
33080,8849,35760
33076,8900,35573
33104,8812,35641
33128,8791,35661
33125,8797,35645
33140,8857,35597
33092,8837,35669
33080,8824,35589
33080,8869,35642
33020,8839,35493
32972,8970,35717
32938,8828,35407
32924,8798,35623
32950,8816,35602
33016,8870,35553
33032,8831,35660
33080,8814,35372
33132,8871,35572
33128,8846,35723
33088,8826,35292
33060,8883,35588
33032,8818,35460
33052,8858,35671
33088,8821,35373
33210,8786,35524
33260,8795,35661
33254,8863,35553
33208,8843,35564
33148,8829,35575
33206,8868,35545
33280,8843,35508
33308,8809,35709
33344,8819,35473
33368,8787,35573
33420,8823,35462
33412,8799,35674
33380,8847,35608
33344,8827,35452
33312,8878,35553
33340,8839,35477
33388,8864,35669
33376,8824,35332
33353,8888,35544
33312,8804,35381
33264,8791,35660
33260,8831,35487
33312,8815,35172
33317,8855,35524
33316,8836,35375
33356,8875,35641
33413,8824,35552
33464,8861,35436
33436,8820,35502
33421,8793,35477
33392,8811,35431
33432,8800,35580
33437,8859,35514
33468,8833,35242
33420,8863,35157
33468,8839,35517
33500,8853,35372
33484,8814,35599
33472,8816,35583
33429,8794,35181
33384,8821,35508
33374,8805,35493
33377,8857,35500
33374,8847,35439
33369,8838,35519
33380,8861,35477
33389,8830,35405
33396,8855,35639
33336,8821,35439
33388,8843,35301
33396,8799,35141
33396,8843,35500
33420,8817,35349
33464,8864,35620
33456,8837,35519
33532,8860,35438
33655,8899,35355
33728,8844,35478
33733,8815,35335
33720,8800,35557
33708,8843,35421
33680,8811,35455
33594,8885,35437
33536,8861,35556
33520,8838,35361
33552,8878,35438
33590,8844,35392
33624,8874,35367
33656,8812,35410
33616,8895,35364
33568,8812,35564
33476,8866,35548
33488,8837,35369
33556,8898,35105
33612,8853,35416
33696,8893,35310
33784,8823,35255
33712,8831,35503
33664,8861,35511
33680,8839,35384
33680,8808,35299
33584,8870,35384
33564,8828,35520
33572,8827,35451
33580,8852,35303
33644,8829,35355
33704,8856,35311
33632,8827,35364
33432,8812,35327
33196,8786,35301
32868,8834,35396
32520,8815,35324
32189,8825,35265
31916,8898,35479
31684,8849,35344
31373,8835,35110
31260,8849,34983
31280,8811,35313
31536,8831,35252
32198,8791,35164
33318,8820,35402
34888,8807,35380
36648,8985,35223
38916,8857,35293
41632,8840,35164
44628,8838,35284
47680,8856,35070
50236,8810,35284
51372,8879,35148
50540,8855,35420
48700,8891,35303
46544,8864,35365
44716,8957,35252
43092,8884,34973
41372,8864,35274
39756,8905,35356
37988,8860,35388
36376,8901,35045
35460,8837,35383
35068,8871,35351
34630,8815,35289
34164,8901,35454
33644,8857,35081
33220,8845,35397
32972,8905,35353
32784,8857,35605
32592,8921,35412
32432,8850,35492
32268,8817,35425
32040,8796,35575
31768,8845,35493
31504,8836,35524
31266,8824,35533
31136,8891,35612
31080,8867,35417
31038,8835,35556
31020,8857,35428
31034,8815,35604
31109,8863,35589
31148,8813,35228
31172,8796,35565
31206,8858,35482
31101,8833,35732
31021,8884,35637
30936,8837,35609
30940,8873,35556
30980,8826,35612
30992,8839,35508
31068,8799,35685
31104,8849,35547
31184,8800,35824
31156,8845,35712
31168,8815,35399
31312,8866,35760
31424,8843,35694
31517,8877,35768
31540,8827,35899
31542,8812,35770
31552,8820,35770
31512,8799,35962
31564,8905,35761
31665,8829,35639
31748,8818,35845
31733,8859,35781
31644,8837,35769
31605,8889,35937
31596,8855,35798
31584,8812,35775
31626,8829,35752
31752,8804,35903
31808,8876,35809
31772,8823,35564
31764,8821,35663
31732,8855,35664
31693,8837,35497
31800,8837,35711
31920,8875,35407
31944,8831,35530
31888,8805,35366
31804,8934,35463
31860,8812,35271
31853,8803,35367
31790,8875,35208
31657,8853,35335
31644,8849,34857
31712,8898,35133
31828,8854,35108
31916,8961,34943
31916,8817,34941
32065,8794,35028
32093,8807,34823
32088,8804,34804
32086,8836,34690
32048,8831,34815
32020,8887,34604
32076,8837,34493
32072,8853,34327
32032,8809,34118
32032,8856,34388
32048,8804,34173
32037,8794,34252
32112,8822,34190
32237,8818,34253
32285,8845,34215
32365,8850,34013
32368,8835,33953
32244,8841,33860
32200,8804,33757
32188,8820,33623
32182,8791,33693
32176,8846,33737
32297,8811,33500
32438,8897,33188
32524,8841,33440
32542,8839,33349
32550,8847,33268
32512,8827,33183
32516,8833,33096
32580,8793,32999
32556,8817,32897
32488,8799,32903
32456,8841,32773
32384,8829,32968
32401,8887,32857
32532,8851,32446
32556,8839,32626
32644,8823,32487
32744,8900,32559
32808,8831,32483
32905,8796,32277
32913,8852,32205
32892,8835,31932
32920,8816,32160
32892,8886,31997
32884,8847,32007
32936,8834,31980
32876,8854,31991
32796,8840,31860
32804,8798,31674
32856,8839,31445
32888,8799,31350
32958,8807,31522
32997,8838,31407
33008,8829,31578
32873,8895,31308
32701,8845,31311
32536,8856,31181
32456,8814,31281
32458,8799,30959
32432,8824,31076
32376,8927,31008
32380,8812,30902
32300,8813,30948
32216,8938,30807
32248,8852,30775
32380,8830,30593
32504,8896,30727
32564,8825,30510
32580,8798,30517
32545,8853,30449
32497,8802,30508
32464,8804,30295
32533,8882,30157
32648,8859,30270
32665,8851,30077
32673,8835,30300
32586,8859,30017
32468,8814,30079
32436,8791,29919
32376,8781,29871
32424,8849,29921
32596,8835,29971
32740,8818,29832
32870,8821,29602
32964,8854,29736
33056,8837,29626
33140,8877,29507
33244,8814,29665
33260,8788,29593
33208,8843,29311
32997,8799,29471
32794,8795,29405
32613,8869,29349
32376,8869,29380
32453,8836,29329
32804,8819,29430
33060,8872,29158
33156,8814,29289
33196,8785,29156
33132,8831,29373
33077,8778,29303
33104,8844,29130
33210,8815,29169
33221,8826,29051
33148,8825,29277
33213,8857,29060
33112,8825,28958
33044,8797,29140
33020,8849,28982
33140,8817,29046
33220,8790,29076
33306,8865,29076
33268,8823,29022
33248,8957,29210
33216,8841,29036
33226,8820,28856
33252,8893,29045
33312,8817,29180
33252,8801,28959
33264,8780,29057
33256,8804,28981
33240,8790,29099
33220,8901,28993
33272,8851,28944
33272,8881,28860
33391,8822,28764
33444,8845,28999
33397,8801,28948
33278,8865,29091
33212,8805,29097
33236,8845,29009
33312,8824,28813
33285,8814,28967
33264,8834,28879
33190,8829,29085
33116,8854,28917
33261,8820,28957
33316,8867,28946
33388,8802,28896
33481,8784,28932
33472,8785,28965
33616,8811,28935
33836,8809,28831
33840,8860,28957
33620,8822,29007
33403,8867,29055
33180,8816,28917
33176,8849,28876
33284,8785,28861
33444,8809,28833
33567,8781,29058
33604,8839,29073
33584,8809,29047
33570,8886,29087
33460,8846,29243
33519,8888,29191
33484,8838,29276
33428,8881,29151
33428,8803,29069
33413,8779,28964
33437,8806,29228
33420,8791,29257
33444,8879,29241
33461,8836,29162
33460,8822,29428
33492,8875,29452
33450,8813,29328
33376,8858,29268
33373,8820,29179
33472,8777,29412
33597,8820,29315
33540,8822,29544
33416,8805,29280
33332,8883,29498
33322,8859,29463
33360,8836,29679
33388,8810,29377
33448,8877,29591
33548,8806,29489
33576,8785,29770
33528,8880,29587
33540,8800,29575
33652,8806,29599
33716,8849,29479
33640,8824,29764
33472,8894,29721
33226,8877,29917
33153,8826,29772
33218,8792,29681
33373,8844,29717
33532,8815,29879
33560,8795,29796
33580,8840,29950
33588,8855,29903
33408,8831,29765
33420,8838,29737
33432,8907,29700
33392,8830,29968
33477,8843,29995
33548,8787,29976
33545,8826,29920
33532,8794,29984
33428,8831,29932
33360,8826,30201
33312,8977,29984
33252,8863,29969
33344,8833,30116
33372,8801,29991
33444,8861,30265
33452,8798,30211
33500,8791,30149
33413,8819,30119
33444,8895,30173
33580,8837,30102
33615,8830,29967
33473,8868,30252
33231,8819,30253
33052,8840,30215
33088,8799,30359
33248,8896,30200
33412,8821,30327
33408,8874,30214
33350,8846,30505
33164,8827,30281
33089,8865,30141
33120,8965,30407
33189,8851,30502
33116,8825,30431
33076,8871,30211
33013,8802,30501
33036,8789,30392
33196,8836,30661
33268,8825,30324
33322,8837,30567
33356,8898,30622
33348,8828,30650
33248,8831,30655
33064,8805,30771
32920,8824,30663
33025,8789,30650
33140,8809,30497
33230,8801,30797
33276,8833,30745
33184,8834,30752
33133,8861,30925
33140,8828,31005
33102,8839,30855
33056,8805,30811
33032,8809,30674
33008,8791,30975
33104,8805,30980
33268,8843,30868
33376,8956,31060
33300,8859,31101
33032,8883,30997
32960,8831,31026
32972,8836,30894
33064,8943,31162
33182,8823,31183
33220,8847,31193
33241,8793,31229
33216,8833,31215
33192,8884,31139
33104,8841,31383
33140,8850,31314
33241,8884,31233
33212,8855,31468
33140,8810,31310
33101,8839,31444
33252,8801,31415
33224,8863,31471
33096,8842,31425
33010,8837,31415
32816,8827,31685
32764,8862,31508
32892,8830,31357
33040,8854,31642
33168,8805,31623
33077,8831,31801
32932,8793,31828
32773,8821,31669
32780,8802,31788
32892,8829,31814
32940,8900,31852
32992,8851,31887
33116,8888,31919
33076,8821,31814
32944,8845,31955
32924,8799,32045
33132,8810,31982
33228,8836,32060
33248,8805,31968
33213,8836,31988
33132,8887,32197
33120,8838,32314
33180,8832,32037
33180,8834,31975
33166,8807,32302
33148,8827,32271
33196,8785,32231
33220,8818,32304
33152,8797,32422
33084,8830,32612
33004,8821,32486
33004,8853,32448
33040,8841,32544
33108,8815,32745
33102,8835,32544
33148,8793,32654
33312,8779,32571
33384,8807,32791
33208,8827,32756
33012,8869,32700
32940,8835,32901
33004,8881,32771
33088,8819,32583
33060,8863,32828
32904,8796,33063
32949,8813,32877
33034,8780,32679
33013,8792,33015
32975,8841,33031
33028,8805,32957
33032,8866,33121
32789,8851,33100
32420,8869,33110
31896,8815,33055
31328,8855,33159
31144,8806,33272
31024,8783,33113
30892,8842,33222
30872,8823,33112
30808,8811,33287
31001,8867,33269
31761,8837,33189
33072,8826,33327
34917,8853,33360
37005,8829,33484
39557,8884,33369
42440,8820,33452
45596,8794,33605
48704,8802,33309
51224,8815,33558
52560,8877,33580
52088,8848,33380
50128,8894,33701
47592,8935,33695
45196,8840,33671
43156,8881,33811
41492,8816,33984
40008,8839,34055
38286,8918,34055
36816,8849,34138
36012,8844,34166
35586,8863,34224
35036,8900,34264
34228,8839,34300
33252,8831,34182
32642,8925,33927
32436,8832,34301
32216,8872,34336
31976,8813,34364
31652,8868,34372
31192,8835,34465
30846,8869,34614
30894,8837,34559
31192,8866,34463
31208,8816,34600
30820,8850,34610
30392,8804,34658
29988,8854,34807
29920,8807,34695
29957,8878,34815
29884,8858,34801
29992,8900,34717
30217,8844,35005
30356,8822,34873
30396,8817,34641
30456,8795,34975
30445,8831,35149
30340,8815,34884
30288,8846,35079
30270,8811,35126
30304,8859,35129
30372,8832,35241
30528,8850,35297
30577,8821,35035
30592,8849,35305
30604,8797,35310
30640,8804,35237
30676,8837,35319
30768,8799,35335
30856,8828,35471
30748,8828,35377
30660,8854,35460
30613,8832,35457
30716,8836,35361
31020,8877,35396
31296,8811,35628
31308,8823,35649
31140,8791,35444
30770,8838,35526
30624,8814,35429
30677,8848,35596
30821,8834,35543
30988,8861,35497
31100,8823,35388
31228,8857,35097
31304,8805,35385
31300,8856,35265
31040,8802,35460
30905,8844,35396
30880,8813,35281
31017,8839,35165
31076,8833,34843
31020,8860,35135
30856,8851,35057
30924,8804,35069
31104,8798,34763
31333,8824,34903
31524,8818,34751
31480,8803,34858
31189,8867,34704
30892,8840,34517
30828,8834,34705
30920,8847,34533
31136,8821,34205
31148,8877,34284
31224,8798,34266
31097,8805,34172
31066,8793,34117
31160,8817,33969
31288,8897,33701
31356,8857,33876
31364,8903,33767
31364,8847,33815
31420,8827,33388
31489,8887,33529
31369,8823,33543
31208,8800,33361
31056,8921,33157
31168,8815,33231
31313,8820,33080
31349,8850,32993
31352,8837,33050
31325,8879,32741
31372,8834,32732
31616,8877,32493
31712,8822,32667
31804,8854,32487
31644,8818,32053
31232,8845,32255
31012,8836,32135
30928,8967,31950
31028,8876,31911
31236,8848,31919
31500,8894,31479
31790,8841,31596
31908,8803,31682
32016,8814,31422
32044,8801,31222
31884,8839,31268
31940,8823,31145
32046,8845,30945
32041,8943,31001
32076,8852,30917
32008,8901,30708
31881,8845,30674
31670,8862,30578
31640,8820,30352
31628,8847,30511
31760,8805,30276
31958,8837,30092
31905,8833,30125
31660,8859,29957
31476,8835,30055
31388,8850,29831
31426,8818,29739
31425,8827,29483
31356,8866,29665
31088,8804,29590
30912,8844,29463
30956,8815,29428
31176,8843,29496
31236,8839,29351
31204,8861,29217
30812,8885,29078
30353,8817,29095
30292,8839,29063
30476,8799,28871
30684,8849,28997
30696,8819,28732
30634,8938,28833
30582,8826,28711
30552,8880,28753
30528,8839,28568
30586,8854,28499
30992,8807,28423
31168,8817,28516
31233,8800,28385
31112,8787,28300
30841,8824,28116
30561,8807,28305
30536,8852,28215
30792,8826,28260
31204,8859,28194
31320,8823,27985
31200,8845,28057
30921,8792,28031
30704,8798,27985
30732,8846,27901
30990,8807,27925
31128,8860,27972
31132,8820,27860
31160,8837,27765
31318,8889,27639
31140,8839,27497
30832,8807,27698
30864,8817,27521
31124,8789,27628
31348,8849,27375
31445,8807,27585
31336,8838,27448
31268,8927,27511
31300,8857,27364
31364,8826,27509
31196,8829,27365
31056,8811,27221
31128,8810,27391
31240,8787,27373
31226,8825,27429
31348,8794,27260
31408,8837,27361
31524,8821,27318
31729,8953,27224
31428,8837,27323
30928,8935,27287
30736,8831,27137
30948,8854,27375
31380,8811,27128
31512,8856,27023
31545,8803,27214
31552,8879,27202
31561,8843,27262
31532,8886,27074
31582,8838,27171
31620,8868,27143
31600,8794,27070
31616,8828,27140
31564,8778,27220
31556,8832,26884
31685,8789,27087
31696,8843,27061
31432,8817,26920
31116,8887,27105
30945,8843,26859
31044,8807,27055
31304,8819,27029
31552,8839,26970
31608,8783,27079
31574,8831,27023
31452,8811,27004
31560,8863,27015
31780,8817,26991
31976,8903,27124
31888,8823,27074
31584,8857,27033
31294,8788,26953
31277,8797,26943
31233,8898,27039
31336,8792,26994
31568,8865,27006
31597,8795,26932
31508,8837,27175
31560,8806,27105
31777,8865,26966
31764,8828,27143
31700,8788,27033
31584,8788,27285
31484,8767,27101
31524,8780,27013
31468,8773,27266
31701,8800,27285
31917,8803,27271
31980,8836,27201
32048,8857,27339
32036,8798,27519
31872,8832,27448
31992,8771,27351
32252,8792,27335
32356,8763,27332
32222,8774,27556
31681,8846,27619
31372,8802,27637
31394,8847,27484
31735,8806,27695
32024,8858,27727
32324,8804,27773
32540,8766,27692
32368,8775,27849
32068,8759,27833
31653,8782,28025
31440,8856,28053
31452,8819,27909
31933,8865,27871
32220,8804,28071
32304,8873,28039
32148,8807,28241
31952,8787,28217
31964,8757,28103
32112,8785,28405
32164,8766,28190
32144,8801,28247
32376,8857,28337
32448,8800,28356
32469,8837,28340
32396,8804,28530
32377,8826,28747
32444,8763,28605
32592,8777,28514
32616,8827,28788
32636,8772,28825
32692,8823,28753
32664,8788,29005
32838,8816,28869
32713,8799,28775
32428,8803,29070
32256,8823,29089
32364,8759,29152
32724,8783,29168
32856,8749,29084
32604,8803,29281
32364,8775,29296
32544,8798,29277
32924,8797,29422
33212,8807,29241
33300,8854,29464
33348,8773,29452
33193,8812,29599
32748,8748,29470
32696,8763,29341
32945,8844,29620
33172,8802,29597
33321,8837,29821
33286,8799,29752
33340,8810,29788
33542,8923,29749
33601,8796,29722
33672,8809,29605
33592,8749,29873
33416,8779,29921
33356,8756,29888
33484,8796,30031
33728,8780,30005
33880,8803,29944
33825,8838,30052
33572,8791,29863
33508,8836,30060
33648,8770,30241
33836,8744,30071
33982,8765,29939
34000,8760,30212
33996,8788,30120
33924,8779,30355
33856,8848,30289
33834,8823,30224
33799,8788,30319
33680,8791,30107
33596,8758,30373
33649,8798,30400
33948,8762,30399
34136,8764,30432
34180,8820,30199
34096,8814,30503
34264,8794,30477
34460,8853,30461
34596,8807,30573
34540,8776,30629
34549,8815,30693
34708,8785,30563
34860,8754,30677
35114,8804,30657
34916,8804,30812
34628,8787,30560
34592,8917,30719
34785,8843,30928
35060,8891,30724
35168,8785,30784
34949,8759,30977
34956,8775,30788
35028,8751,30799
35072,8772,30769
35184,8770,30905
35444,8904,31076
35648,8813,30903
35660,8789,31009
35496,8824,31047
35256,8769,30983
35144,8795,31111
35264,8748,31145
35288,8804,31010
35388,8754,31032
35606,8813,31143
35532,8796,31127
35309,8863,31196
35344,8806,31140
35453,8784,30932
35740,8807,31218
35957,8762,31189
36144,8783,31095
36040,8753,31279
35732,8794,31351
35388,8863,31397
34960,8807,31173
34748,8797,31284
34832,8857,31225
34616,8828,31309
33940,8781,31389
33461,8789,31222
33633,8760,31081
34878,8783,31276
36688,8767,31220
38472,8890,31178
40280,8822,31254
42520,8801,31143
45154,8846,31329
48456,8823,31207
51960,8869,31149
55196,8809,30999
57000,8759,31206
57276,8791,31095
56548,8786,31282
54756,8834,31333
52788,8815,31255
50956,8853,31168
48842,9026,31127
46800,8831,31127
44896,8858,31048
43036,8798,31201
41849,8841,31129
41228,8777,31317
40356,8837,31109
39232,8800,31030
38404,8826,30972
37964,8887,31031
37844,8818,31195
37696,8824,31186
37561,8794,31094
37424,8814,31034
37182,8775,31236
36932,8807,31055
36696,8842,30884
36680,8790,31147
36685,8842,31020
36644,8813,31221
36865,8881,30983
36876,8831,31104
36572,8803,31220
36304,8779,31072
36392,8798,30918
36812,8767,31154
37112,8851,30812
37185,8811,30981
37200,8807,31115
37278,8850,31105
37440,8819,30879
37696,8863,30948
37848,8803,30959
37984,8861,30877
38144,8804,30912
38257,8777,31001
38432,8813,30814
38748,8800,30902
38766,8871,30855
38552,8822,30807
38656,8862,30877
38832,8833,30829
39384,8856,30727
39932,8798,30788
40152,8942,30785
40209,8813,30833
40244,8788,30660
40172,8878,30748
40224,8840,30634
40464,8826,30679
40522,8844,30568
40711,8826,30637
41125,8838,30584
41404,8793,30463
41480,8822,30604
41496,8788,30404
41486,8851,30471
41460,8804,30437
41748,8849,30319
41952,8941,30203
41996,8868,30420
41968,8902,30361
42216,8814,30309
42567,8875,30055
42972,8797,30076
43332,8806,30047
43380,8931,30005
43216,8839,29927
43256,8896,29860
43288,8863,29836
43471,8908,29887
43908,8862,29649
44224,8886,29442
44436,8807,29642
44580,8821,29524
44820,8784,29523
44740,8863,29415
44520,8809,29334
44588,8856,29271
44884,8946,29095
44976,8853,29264
45136,8899,29175
45296,8811,29039
45280,8873,29213
45616,8799,29005
45932,8863,28786
46212,8837,28957
46400,8804,28996
46560,8849,28789
46556,9005,28644
46444,8870,28751
46572,8919,28697
46864,8855,28502
47280,8896,28706
47472,8805,28621
47492,8865,28399
47540,8832,28462
47708,8890,28357
47960,8847,28393
48124,8836,28156
48020,8871,28284
48060,8834,28230
48216,8862,28325
48600,8801,28064
49148,8858,28145
49456,8788,28044
49583,8849,28186
49484,8821,27804
49220,8919,27896
49068,8871,28073
49008,8926,27776
49128,8873,27783
49536,8819,27876
50056,8833,27585
50388,8797,27743
50585,8814,27732
50564,8802,27623
50760,8848,27681
51080,8830,27564
51404,8909,27504
51718,8879,27604
51792,8958,27600
51704,8877,27444
51612,8821,27530
51574,8794,27583
51648,8874,27380
51820,8818,27461
51900,8815,27509
51996,8822,27319
52236,8901,27398
52548,8872,27524
52628,8823,27273
52484,8871,27359
52217,8808,27335
51821,8787,27371
51932,8833,27140
52372,8800,27293
52684,8871,27303
52544,8813,27394
52508,8904,27228
52700,8868,27124
52696,8987,27311
52612,8820,27293
52492,8791,27196
52380,8821,27216
52272,8853,27280
52168,8807,27412
52057,8880,27295
51948,8842,27060
51820,8950,27269
51712,8857,27217
51616,8806,27279
51517,8814,27321
51396,8784,27134
51288,8811,27253
51180,8784,27199
51072,8890,27225
50976,8801,27108
50872,8794,27255
50768,8822,27244
50672,8993,27220
50556,8816,27175
50468,8843,27098
50372,8767,27351
50264,8785,27190
50168,8757,27116
50060,8779,27205
49957,8771,27215
49864,8799,27111
49772,8789,27245
49684,8819,27063
49572,8778,27214
49488,8799,27204
49392,8793,27327
49300,8741,27099
49212,8823,27180
49096,8773,27319
49012,8757,27119
48928,8895,27201
48828,8803,27113
48744,8785,27198
48645,8839,26978
48564,8804,27175
48468,8753,27097
48388,8728,27173
48296,8757,27093
48200,8743,27165
48120,8837,27213
48032,8805,27089
47952,8782,27266
47848,8767,27062
47772,8865,27359
47700,8783,27149
47597,8746,27273
47524,8808,27348
47445,8758,27225
47360,8902,27288
47272,8775,27208
47196,8751,27404
47106,8772,27188
47028,8921,27101
46956,8786,27325
46868,8879,27333
46792,8742,27351
46712,8701,27127
46632,8745,27348
46564,8732,27481
46484,8822,27258
46396,8773,27357
46329,8740,27360
46256,8752,27473
46172,8843,27408
46102,8758,27301
46020,8708,27408
45948,8733,27423
45880,8695,27453
45804,8724,27400
45732,8707,27465
45657,8780,27402
45584,8763,27625
45504,8734,27413
45444,8734,27526
45372,8704,27567
45300,8741,27445
45224,8682,27746
45160,8729,27655
45092,8683,27566
45016,8743,27550
44952,8704,27748
44880,8752,27639
44808,8703,27928
44740,8761,27749
44679,8701,27895
44612,8747,27943
44548,8709,27967
44480,8699,27900
44412,8665,27820
44344,8691,28103
44292,8682,27996
44212,8727,28303
44156,8695,28251
44088,8713,28173
44032,8768,28197
43968,8693,28378
43896,8728,28297
43840,8654,28543
43774,8687,28511
43716,8649,28319
43648,8698,28603
43592,8677,28518
43536,8734,28743
43476,8672,28705
43400,8731,28554
43356,8667,28853
43296,8685,28851
43232,8649,29068
43172,8657,28952
43120,8741,28951
43060,8670,29135
43004,8675,29165
42943,8652,29082
42884,8720,29201
42836,8678,29330
42789,8648,29420
42724,8603,29349
42664,8639,29276
42604,8609,29501
42556,8670,29631
42500,8630,29741
42448,8709,29577
42388,8662,29800
42336,8764,29862
42276,8617,29868
42224,8582,30069
42180,8635,29922
42116,8596,30109
42072,8562,30215
42016,8637,30117
41956,8609,29996
41910,8704,30330
41864,8631,30428
41808,8598,30349
41764,8687,30471
41708,8597,30508
41660,8563,30559
41616,8612,30727
41557,8568,30727
41512,8623,30647
41469,8578,30536
41408,8570,30816
41368,8635,30828
41324,8570,30889
41276,8649,30929
41228,8561,30721
41172,8518,31050
41136,8545,31041
41080,8531,31260
41045,8616,31084
40988,8584,31199
40944,8545,31231
40896,8612,31340
40860,8535,31260
40804,8576,31367
40760,8531,31364
40716,8491,31413
40676,8517,31515
40628,8484,31536
40584,8533,31644
40536,8509,31568
40492,8600,31644
40448,8527,31668
40404,8500,31680
40360,8507,31860
40328,8468,31712
40276,8527,31829
40248,8466,31830
40198,8452,31917
40157,8474,32079
40112,8567,32108
40084,8478,32079
40032,8505,32188
39980,8466,31988
39956,8512,32119
39920,8451,32047
39872,8486,32216
39832,8427,32314
39792,8498,32100
39752,8479,32164
39716,8449,32428
39676,8498,32276
39628,8448,32173
39600,8502,32405
39556,8426,32361
39520,8455,32428
39488,8388,32580
39452,8409,32476
39412,8379,32519
39368,8417,32531
39336,8403,32434
39309,8446,32492
39264,8403,32741
39228,8452,32561
39196,8394,32370
39152,8446,32705
39120,8367,32668
39086,8519,32756
39048,8378,32791
39016,8363,32552
38976,8392,32509
38944,8450,32831
38920,8370,32845
38862,8405,32876
38836,8349,32903
38805,8368,32921
38782,8405,32956
38740,8325,32940
38708,8360,32938
38672,8337,32919
38625,8367,32919
38608,8398,33151
38576,8356,33201
38544,8372,33068
38512,8420,33076
38476,8332,33105
38440,8353,33084
38412,8358,33054
38372,8323,33228
38348,8353,33185
38320,8344,33111
38292,8359,33383
38256,8504,33248
38228,8335,33238
38204,8356,33061
38161,8297,33377
38136,8345,33248
38118,8272,33511
38073,8347,33395
38052,8291,33267
38016,8309,33409
37996,8277,33170
37964,8305,33501
37924,8331,33468
37900,8259,33556
37869,8289,33639
37844,8212,33513
37260,8249,33298
36672,8212,33323
36428,8251,33305
36289,8298,33620
35808,8239,33630
35454,8251,33618
35396,8371,33616
35414,8220,33620
35256,8256,33738
35172,8210,33703
35052,8261,33628
34744,8203,33751
34404,8237,33780
34226,8191,33756
34389,8212,33740
34549,8260,33775
34448,8206,33910
33849,8227,33793
33420,8156,33701
33012,8178,33884
33140,8135,33788
33460,8163,34020
33604,8150,33910
33418,8191,33893
33300,8239,33840
32972,8191,33963
33030,8224,33927
32880,8175,34068
32676,8197,34028
32517,8148,33873
32300,8170,33735
32276,8114,34000
32124,8133,34020
31752,8193,33860
31284,8154,34026
31268,8184,34082
31780,8125,33934
31956,8132,33644
31896,8177,33959
31692,8105,33915
31280,8142,33765
31120,8073,33817
31136,8116,33917
30953,8125,33848
30862,8132,33693
30628,8121,33909
30272,8093,33733
30109,8135,33723
30041,8080,33714
30056,8052,33620
30228,8066,33772
30352,8044,33701
30124,8065,33688
29916,8131,33621
29648,8082,33412
29465,8075,33332
29402,8100,33386
29462,8068,33300
29445,8095,33205
29328,8047,33223
29200,8015,33308
29189,8067,33092
29144,8032,32990
29124,8100,32908
29300,8053,33020
29320,8048,32868
29028,8079,32918
28764,8037,32924
28540,8062,32650
28604,8001,32463
28940,8036,32713
29032,7987,32652
28748,8044,32485
28028,8008,32647
27892,8055,32519
27888,8011,32405
27941,8021,32224
28121,7989,32296
28206,8006,32261
28198,7961,32164
28288,8000,32055
28244,7959,32110
28108,8036,32135
27984,7999,32065
28064,8068,31891
28276,7994,31829
28274,8025,31719
28172,7962,31636
28080,7971,31556
27848,7933,31343
27654,7945,31573
27608,7929,31447
27648,7949,31423
27736,7995,31444
27784,7956,31420
27702,7963,31353
27684,8002,31113
27678,7954,31030
27508,7919,31042
27248,7929,30980
27020,7895,30919
27244,7913,30852
27504,7909,30636
27720,7991,30828
27614,7947,30487
27476,7927,30581
27496,7955,30519
27462,7908,30313
27308,7927,30391
27178,7876,30424
26934,7916,30207
26593,7876,29937
26604,7935,30148
26796,7912,30052
26677,7902,30055
26161,7916,29732
25936,7889,29872
25910,7926,29817
26040,7885,29916
26063,7917,29653
26108,7851,29692
25937,7930,29524
25573,7867,29603
25449,7858,29410
25590,7884,29455
25709,7869,29399
25642,7878,29316
25420,7845,29167
25276,7846,29304
25420,7816,29325
25504,7837,29097
25408,7810,29004
25301,7845,29031
25316,7831,28961
25252,7879,28829
25072,7846,28955
25000,7901,28711
25281,7827,28572
25388,7835,28748
25368,7782,28690
25256,7796,28541
24876,7835,28724
24712,7783,28661
24704,7813,28516
24740,7806,28378
24712,7830,28322
24804,7863,28147
24660,7801,28340
24424,7773,28279
24188,7780,28139
24132,7792,28144
24210,7753,28263
24280,7783,28167
24388,7772,27954
24438,7790,27841
24534,7841,27943
24545,7784,27896
24512,7765,27880
24417,7776,27939
24228,7739,27739
24008,7772,27526
23926,7736,27708
23848,7732,27655
23812,7768,27761
23928,7752,27554
24104,7788,27324
24248,7759,27501
24208,7810,27415
24084,7739,27444
23889,7712,27285
23693,7716,27254
23504,7756,27103
23288,7721,27293
23176,7728,27106
23268,7749,27277
23430,7738,27197
23438,7744,27159
23380,7719,26999
23388,7722,26878
23506,7693,26917
23157,7697,27015
22912,7693,26980
22824,7719,26909
22880,7748,26876
23136,7719,26876
23205,7733,26849
22960,7717,26661
22644,7733,26803
22536,7689,26803
22617,7713,26823
22616,7674,26791
22576,7708,26731
22529,7683,26592
22520,7740,26458
22354,7717,26538
22280,7708,26535
22436,7736,26469
22536,7693,26409
22550,7676,26532
22540,7682,26516
22568,7687,26447
22564,7663,26369
22412,7676,26279
22072,7700,26209
21812,7697,26406
21913,7715,26421
22053,7739,26343
22100,7682,26222
22132,7710,26118
22057,7659,26108
22116,7691,26036
22177,7653,26199
22328,7707,26139
22296,7686,26048
22172,7685,26252
22352,7719,25954
22532,7695,26157
22492,7718,26161
22128,7661,26175
22040,7673,26143
22032,7635,26135
22124,7649,26095
22340,7699,26047
22564,7668,26134
22729,7707,26278
22732,7678,26148
22596,7703,26042
22576,7679,26183
22552,7692,26210
22424,7648,26125
22280,7672,26229
22208,7630,26265
22232,7661,26269
22300,7648,26297
22480,7682,26133
22681,7662,26279
22808,7669,26280
22608,7649,26315
22396,7655,26175
22392,7623,26458
22486,7649,26485
22584,7618,26421
22688,7638,26276
22700,7642,26268
22680,7664,26199
22465,7656,26438
22388,7659,26439
22397,7701,26351
22432,7633,26372
22641,7646,26520
22901,7610,26560
22840,7637,26615
22668,7666,26661
22572,7638,26631
22497,7664,26479
22528,7652,26501
22657,7658,26476
22820,7651,26503
22808,7671,26555
22736,7611,26582
22898,7628,26496
22950,7611,26508
22920,7627,26745
22976,7671,26575
22984,7637,26773
22900,7651,26714
22953,7663,26728
22789,7627,26704
22777,7627,26780
22892,7652,26795
22720,7599,26728
22624,7626,26941
22574,7616,26957
22545,7648,26995
22506,7634,27015
22481,7652,26900
22657,7637,27014
22852,7641,27196
22908,7671,27174
22856,7609,27102
22497,7615,27109
22346,7598,27052
22528,7612,27072
22805,7641,27015
22992,7632,27235
22820,7661,27223
22568,7639,27270
22460,7655,27181
22566,7610,27111
22896,7614,27316
23349,7591,27424
23432,7620,27323
23268,7609,27175
23088,7662,27435
23028,7648,27439
23162,7672,27550
23308,7631,27327
23404,7641,27536
23468,7608,27548
23388,7613,27509
23213,7622,27588
23228,7595,27711
23252,7625,27592
23286,7671,27443
23388,7629,27678
23396,7643,27722
23338,7629,27604
23304,7633,27817
23308,7607,27825
23412,7615,27711
23420,7665,27819
23472,7601,27828
23592,7600,27923
23677,7640,28039
23604,7629,27825
23585,7646,27962
23577,7627,28017
23646,7639,28092
23516,7647,27963
23533,7592,27940
23622,7616,28061
23608,7593,28095
23468,7604,28119
23230,7633,28132
23054,7625,28013
23099,7658,28177
23178,7631,28244
23327,7664,28033
23257,7618,28246
22924,7598,28129
22445,7616,28428
21852,7595,28353
21332,7631,28233
21208,7622,28364
21260,7672,28335
21341,7647,28519
21616,7637,28327
22082,7649,28271
23084,7655,28473
24589,7597,28452
26626,7618,28558
28872,7597,28541
31612,7642,28452
34754,7656,28382
38408,7636,28583
42208,7655,28516
45604,7636,28749
48064,7653,28548
48820,7715,28642
47557,7644,28685
45377,7708,28648
42572,7669,28725
39344,7723,28522
36296,7690,28753
33460,7737,28792
30812,7676,28839
28576,7696,28738
26896,7705,28713
25640,7643,28616
24690,7647,28865
23824,7626,28767
23060,7643,28929
22496,7636,28844
22126,7681,28672
21768,7670,28855
21541,7709,29009
21502,7683,28868
21420,7720,28861
21164,7660,28984
20858,7630,28948
20456,7631,29156
20260,7680,29033
20204,7645,28953
20105,7692,28839
19946,7678,29089
19856,7720,29095
20004,7678,29050
20184,7651,29287
20276,7659,29160
20404,7631,28969
20469,7657,29220
20429,7631,29139
20408,7676,29255
20336,7668,29313
20348,7662,29039
20520,7691,29319
20681,7665,29223
20724,7701,29313
20661,7644,29311
20620,7653,29260
20800,7626,29233
20808,7652,29460
20534,7688,29484
20532,7660,29461
20716,7687,29415
20884,7674,29457
21024,7679,29496
21127,7680,29543
21186,7649,29516
21164,7658,29433
21205,7676,29458
21276,7638,29633
21440,7684,29544
21474,7692,29589
21420,7679,29632
21344,7691,29723
21340,7674,29712
21558,7681,29605
21784,7711,29535
21843,7652,29591
21848,7712,29567
21976,7655,29703
21970,7657,29484
21784,7716,29552
21752,7694,29527
22016,7735,29391
22324,7685,29454
22254,7710,29394
22070,7659,29252
21968,7676,29441
21844,7646,29333
21994,7675,29411
22212,7692,29367
22194,7689,29452
22284,7727,29393
22392,7700,29257
22382,7719,29149
22573,7683,29081
22729,7679,28887
22652,7739,28837
22436,7657,29045
22344,7703,29004
22436,7675,28908
22720,7729,29038
23072,7697,28959
23138,7747,28713
23128,7700,28676
23050,7719,28490
22702,7681,28676
22456,7685,28616
22508,7712,28559
22825,7685,28519
23092,7709,28447
23264,7695,28356
23341,7720,28311
23134,7717,28185
22762,7726,28197
22772,7737,28281
22900,7695,28188
23124,7712,28007
23372,7677,27902
23599,7702,27862
23694,7695,27795
23660,7731,27639
23568,7755,27642
23580,7725,27559
23720,7739,27441
23836,7765,27608
23913,7716,27540
24001,7742,27452
23884,7703,27527
23800,7741,27416
23844,7707,27221
24037,7735,27175
24053,7732,27007
23864,7748,26951
23842,7786,27084
24016,7727,27031
24180,7724,26970
24263,7760,26900
24329,7700,26836
24316,7716,26783
24421,7758,26735
24684,7801,26549
24897,7763,26504
25010,7807,26404
25166,7751,26286
25088,7735,26446
24821,7735,26389
24804,7797,26309
24752,7728,26281
24664,7753,26231
24624,7721,26146
24712,7772,26023
24864,7747,25935
24698,7773,25892
24571,7753,26068
24510,7775,25836
24745,7729,25745
24944,7732,25604
25052,7775,25758
25124,7729,25724
25060,7743,25671
25020,7793,25614
25048,7757,25575
25244,7789,25502
25364,7754,25420
25376,7768,25548
25400,7737,25362
25434,7749,25239
25346,7770,25095
25352,7743,25251
25312,7781,25202
25577,7748,25116
25720,7789,25055
25936,7766,25095
25972,7775,25128
25904,7795,25052
25893,7737,24855
25856,7741,24785
25784,7724,24689
25796,7744,24819
26062,7742,24653
26166,7762,24786
26236,7769,24612
26241,7792,24484
26222,7814,24613
26148,7760,24571
25966,7779,24469
25960,7785,24458
26056,7737,24532
26221,7770,24274
26492,7753,24362
26468,7800,24297
26287,7780,24295
26180,7806,24356
26272,7850,24093
26522,7775,24037
26772,7798,23949
26656,7752,24081
26402,7776,24030
26012,7753,24135
25904,7781,23997
26213,7847,23849
26532,7805,23799
26616,7850,23824
26480,7803,23701
26396,7851,23837
26356,7793,23885
26324,7771,23668
26280,7794,23764
26389,7775,23747
26433,7796,23606
26496,7798,23801
26586,7841,23620
26662,7814,23519
26780,7883,23633
27004,7817,23512
27100,7841,23514
26992,7788,23664
27092,7821,23419
27162,7784,23369
27044,7821,23501
26904,7814,23486
26732,7845,23351
26948,7831,23526
27256,7844,23516
27223,7825,23263
26960,7828,23369
26804,7801,23367
26788,7804,23350
27056,7873,23206
27325,7839,23367
27488,7883,23294
27348,7863,23158
27164,7911,23092
27185,7854,23241
27361,7852,23077
27384,7950,23226
27365,7837,23225
27372,7873,23154
27261,7843,23287
27122,7893,23185
27228,7845,23037
27232,7877,23037
27444,7861,22998
27564,7888,23174
27678,7849,23076
27718,7879,23260
27828,7849,23069
27869,7896,22996
27864,7858,23158
27856,7847,23026
27780,7872,23256
27736,7873,23021
27768,7926,23156
27868,7891,23109
27868,7869,23151
27828,7911,23154
27936,7871,23049
27876,7862,23012
27792,7973,23080
27764,7876,23244
27686,7876,23079
27824,7896,23060
27813,7948,23252
27841,7893,23216
27708,7905,23233
27557,7876,23204
27801,7887,23118
28060,7860,23328
28199,7898,23220
28128,7881,23436
27976,7903,23484
27940,7908,23368
28080,7931,23265
28260,7913,23421
28238,7936,23381
27960,7895,23461
27732,7899,23386
27800,7883,23346
27874,7901,23551
27708,7911,23490
27636,7934,23687
27712,7931,23524
27773,7963,23511
27906,7980,23501
28164,7927,23716
28320,7973,23620
28316,7928,23902
28140,7951,23928
28012,7911,23948
28176,7954,23892
28180,7941,23784
28189,7989,23769
28188,7959,23999
28252,7991,23994
28292,7948,24182
28413,7979,24119
28452,7923,24023
28440,7933,24055
28312,7989,24044
28078,7959,24285
27960,8073,24236
28000,7991,24252
28044,7986,24392
28002,8085,24308
28162,8015,24271
28316,7953,24511
28372,7986,24420
28380,7936,24640
28216,7957,24711
28014,8014,24615
27952,7975,24583
28160,8005,24716
28341,8041,24778
28300,7994,24814
28007,8005,24829
27816,7993,24823
27828,8015,24809
27908,7953,24818
27944,7990,25053
28037,8029,24908
28088,7985,24869
28144,8012,24953
28221,8063,25121
28188,8004,25174
28126,8023,25204
28100,8020,25237
28100,7975,25258
28112,7991,25299
28228,7991,25369
28332,8049,25400
28316,8011,25412
28304,8057,25374
28269,8022,25622
28264,8036,25655
28298,8061,25682
28298,8001,25749
28416,8014,25746
28532,7987,25669
28668,8004,25625
28689,8065,25581
28640,8014,25601
28564,8039,25844
28544,8094,25893
28600,8031,25927
28736,8044,25960
28810,8065,25969
28732,8000,25944
28636,8009,25940
28430,8082,25962
28372,8039,26110
28264,8076,26293
28336,8038,26314
28500,8052,26335
28808,8088,26361
29044,8035,26216
29096,8035,26249
28996,8109,26185
28721,8031,26433
28597,8062,26471
28764,8022,26506
28916,8049,26519
28836,8096,26433
28988,8052,26697
29094,8077,26773
28981,8099,26661
28801,8037,26551
28652,8049,26533
28549,8146,26572
28760,8021,26710
28960,8028,26775
29177,8055,26908
29132,8083,26903
28942,8122,27061
28632,8121,26989
28560,8062,27031
28726,8099,26964
28752,8046,26882
28766,8025,27146
28644,8048,27183
28340,8048,27151
27889,8088,27200
27458,8117,27265
27072,8082,27336
26944,8093,27364
26776,8122,27394
26754,8061,27327
27032,8094,27574
27745,8062,27545
28942,8103,27466
30601,8064,27404
32620,8124,27594
35112,8080,27645
38068,8147,27670
41480,8111,27665
45228,8135,27626
48908,8089,27882
51916,8158,27812
53980,8080,27720
54312,8172,27857
53033,8132,27849
50832,8122,28052
48248,8210,27851
45088,8153,27851
41949,8175,27907
39053,8140,27828
36100,8148,27847
33776,8108,28090
31972,8141,28069
30726,8103,28132
29800,8182,28209
28912,8142,27999
28360,8142,28214
28092,8156,28221
27978,8192,28260
27864,8131,28287
27673,8146,28084
27328,8161,28324
26953,8123,28350
26804,8164,28376
26644,8144,28384
26592,8180,28382
26566,8141,28406
26317,8169,28384
26004,8148,28375
25740,8156,28450
25792,8189,28596
25908,8139,28655
25933,8163,28573
26088,8121,28551
26278,8158,28588
26376,8140,28486
26375,8187,28734
26290,8162,28748
26258,8189,28915
26273,8149,28996
26433,8170,28897
26468,8140,28760
26616,8121,29019
26781,8135,29053
26845,8177,29057
26876,8149,28967
26812,8180,29262
26752,8169,29317
26736,8196,29136
26868,8160,29157
27074,8170,29125
27185,8167,29151
27148,8185,29101
27128,8135,29132
27232,8160,29211
27256,8211,29197
27328,8176,29471
27356,8211,29528
27368,8222,29549
27428,8172,29587
27384,8163,29592
27505,8171,29633
27589,8202,29640
27476,8149,29677
27406,8188,29681
27393,8173,29698
27556,8198,29625
27721,8251,29665
27933,8197,29701
27944,8211,29868
27984,8268,29825
27928,8165,29943
27737,8176,29948
27604,8183,29773
27648,8173,29901
27853,8233,29940
28004,8208,29742
28004,8260,29569
27899,8221,29583
27860,8247,29593
27892,8201,29831
27946,8237,29789
28088,8166,29807
28221,8191,29751
28240,8189,29733
28196,8211,29819
28200,8213,29724
28342,8257,29476
28417,8217,29701
28408,8231,29685
28460,8237,29671
28508,8181,29650
28460,8210,29510
28501,8185,29667
28480,8215,29668
28356,8214,29636
28332,8245,29447
28376,8233,29588
28470,8287,29372
28405,8242,29279
28387,8307,29258
28344,8213,29258
28328,8239,29295
28532,8203,29269
28692,8227,29223
28732,8316,29181
28612,8253,29153
28630,8273,28879
28752,8326,28886
28944,8241,28916
28988,8282,29012
28944,8223,28969
28972,8213,28839
29076,8229,28871
29260,8243,28949
29372,8306,28807
29344,8256,28720
29194,8295,28685
29188,8386,28757
29294,8279,28671
29524,8283,28623
29565,8226,28525
29532,8257,28452
29413,8253,28468
29460,8305,28397
29580,8257,28332
29776,8286,28295
29940,8279,28143
29948,8285,28333
30012,8317,28307
30052,8256,28263
30087,8293,28122
30124,8237,28052
30124,8252,28213
29964,8255,28183
29846,8276,28002
29808,8282,27942
29756,8299,27869
29734,8348,27985
29721,8287,27796
29826,8263,28011
29996,8267,27752
30084,8297,27814
30002,8252,27760
29812,8288,27671
29868,8273,27772
30145,8319,27510
30300,8290,27647
30369,8309,27588
30373,8387,27447
30400,8289,27437
30316,8293,27612
30260,8249,27429
30356,8274,27234
30460,8263,27221
30536,8295,27372
30636,8370,27333
30829,8321,27152
30977,8293,27389
31160,8298,27209
31318,8348,27087
31212,8259,27057
30988,8305,26931
31046,8257,27100
31090,8291,27047
31104,8340,27033
31080,8293,27003
31088,8305,26746
31042,8385,26943
30912,8303,26879
30756,8278,26816
30761,8291,26967
30834,8261,26862
31000,8274,26878
31016,8390,26682
30824,8315,26500
30728,8370,26675
30713,8321,26647
30745,8353,26571
30772,8297,26463
30820,8327,26660
30894,8273,26493
30936,8287,26452
31008,8345,26365
31008,8309,26278
31005,8395,26367
30986,8342,26212
30868,8322,26165
30784,8335,26132
30845,8439,26124
30908,8315,26321
30913,8287,26186
31012,8293,26084
31096,8344,25991
31216,8304,25885
31236,8353,26038
31380,8330,26029
31516,8403,25903
31521,8341,26084
31568,8319,25933
31492,8336,25772
31360,8297,25726
31168,8322,25668
31092,8300,25844
31112,8337,25799
31084,8339,25825
31126,8415,25673
31160,8360,25566
31098,8397,25730
31064,8340,25693
31062,8386,25709
31038,8332,25744
31072,8365,25662
31136,8345,25458
31204,8412,25618
31276,8366,25557
31222,8392,25444
31016,8355,25661
30908,8381,25668
30852,8348,25485
31004,8348,25412
31168,8325,25317
31236,8350,25513
31237,8372,25503
31232,8333,25461
31229,8381,25479
31136,8359,25588
31053,8394,25532
31008,8429,25389
31018,8383,25281
31072,8413,25458
31148,8343,25517
31232,8374,25463
31360,8329,25358
31456,8367,25470
31453,8358,25465
31328,8414,25422
31248,8383,25551
31352,8463,25309
31468,8395,25500
31488,8415,25522
31396,8341,25515
31296,8351,25436
31189,8339,25579
31132,8356,25680
31052,8378,25548
31048,8389,25490
31128,8450,25612
31189,8394,25646
31220,8375,25815
31188,8425,25588
31124,8364,25719
31080,8345,25723
31092,8380,25725
31047,8357,25863
31008,8381,25853
30996,8477,25760
30928,8404,25853
30911,8392,25899
30838,8409,25900
30836,8438,26085
30820,8366,26042
30804,8413,25927
30832,8356,25863
31008,8408,26100
31109,8379,26073
31108,8416,26140
31100,8400,26285
31088,8425,26096
31064,8393,26081
31092,8403,26286
31034,8362,26203
31024,8405,26486
31012,8370,26286
31080,8373,26441
31088,8420,26518
30996,8492,26387
30912,8419,26661
30924,8402,26392
30953,8434,26631
30992,8385,26541
31112,8422,26769
31321,8392,26602
31348,8369,26791
31302,8393,26680
31284,8397,26964
31252,8438,26901
31333,8477,26818
31464,8420,26855
31448,8445,26841
31388,8388,27061
31324,8391,27105
31306,8447,27103
31284,8395,27113
31272,8445,27329
31304,8426,27134
31333,8489,27311
31308,8457,27458
31324,8427,27273
31332,8453,27439
31328,8407,27466
31293,8450,27551
31372,8421,27488
31460,8485,27372
31367,8418,27625
31292,8565,27630
31261,8445,27569
31248,8492,27847
31284,8439,27681
31334,8469,27799
31356,8433,27799
31392,8465,27841
