ECG,EDA,RR
32944,9071,22889
32932,9183,22988
32924,9060,22919
32960,9123,22903
32976,9128,22797
33053,9125,22821
33144,9130,22807
33128,9119,22966
33072,9129,23039
32961,9100,22982
32864,9087,23045
32917,9095,22995
32916,9086,22929
32916,9091,22956
32984,9092,22889
33034,9085,22917
32984,9100,22883
32901,9106,23161
32832,9101,23076
32850,9090,23118
32916,9079,23085
32978,9066,22960
32964,9062,23004
32976,9157,22959
32940,9221,23225
32884,9148,23127
32881,9119,23057
32946,9136,23000
33000,9129,23210
33000,9096,23140
33024,9083,23119
32960,9127,22994
32868,9084,23057
32836,9087,23028
32804,9097,23069
32824,9093,23061
32712,9122,23077
32565,9107,23054
32316,9103,23111
32012,9093,23037
31722,9088,23205
31420,9073,23197
31088,9073,23034
30768,9070,23191
30564,9074,23140
30452,9084,23093
30621,9093,23111
31324,9107,23078
32656,9167,23221
34452,9129,23230
36517,9093,23076
39112,9096,23246
42044,9085,23084
45252,9104,23348
48384,9112,23265
50844,9104,23166
52016,9151,23276
51412,9160,23324
49488,9157,23293
47192,9157,23163
44984,9146,23288
42932,9122,23196
41135,9126,23278
39541,9134,23209
37756,9151,23319
36255,9104,23284
35288,9106,23545
34558,9119,23459
33928,9115,23493
33252,9103,23524
32728,9100,23398
32504,9099,23535
32360,9079,23447
32192,9077,23487
32012,9087,23449
31740,9095,23595
31389,9116,23511
31094,9128,23753
30848,9123,23540
30684,9113,23800
30576,9083,23598
30484,9076,23671
30420,9052,23709
30352,9071,23808
30229,9084,23727
30128,9065,23863
30098,9084,23775
30045,9150,23716
30036,9143,23972
30114,9133,23940
30236,9104,23975
30268,9093,23949
30300,9073,23868
30296,9056,23933
30342,9079,23877
30356,9081,24068
30352,9097,23983
30404,9093,24142
30552,9093,24196
30641,9079,24176
30616,9079,24205
30594,9053,24164
30508,9069,24245
30472,9065,24229
30532,9074,24359
30596,9071,24276
30628,9079,24428
30710,9080,24369
30749,9079,24631
30828,9069,24629
30912,9057,24761
30892,9047,24727
30798,9039,24805
30724,9093,24807
30743,9081,24975
30808,9091,24886
30912,9074,25057
31009,9083,24794
31073,9135,25017
31056,9115,25060
31048,9095,25214
31113,9059,24950
31094,9049,25266
31028,9053,25159
31008,9077,25092
31100,9097,25135
31154,9112,25111
31213,9129,25154
31265,9134,25105
31264,9134,25442
31204,9059,25340
31212,9046,25331
31167,9104,25377
31164,9041,25369
31138,9183,25389
31212,9167,25279
31288,9118,25372
31364,9125,25295
31392,9092,25421
31436,9085,25467
31488,9093,25393
31552,9075,25308
31616,9055,25418
31620,9051,25548
31552,9043,25227
31408,9054,25343
31404,9071,25213
31450,9081,25325
31532,9174,25213
31576,9134,25263
31628,9120,25268
31706,9116,25328
31692,9125,25276
31728,9096,25365
31760,9109,25353
31788,9103,25378
31768,9103,25474
31769,9107,25152
31847,9135,25424
31960,9117,25153
31921,9087,25413
31857,9082,25175
32000,9057,25287
32140,9045,25225
32080,9049,25206
31918,9066,25311
31744,9085,25408
31813,9089,25303
31940,9091,25209
32056,9081,25081
32184,9070,25381
32304,9061,25237
32376,9111,25143
32358,9106,25063
32367,9109,25127
32412,9100,25063
32408,9116,25175
32368,9111,25149
32320,9107,25187
32292,9097,25135
32260,9094,25159
32276,9068,25249
32316,9051,24937
32348,9125,24988
32432,9090,24980
32500,9099,25092
32448,9089,25139
32246,9100,24955
31980,9159,25052
31856,9116,25143
31844,9095,25011
31900,9076,24860
31982,9067,24858
31980,9050,24947
31930,9060,24911
31868,9078,24935
31808,9129,24876
31674,9107,24876
31529,9147,24860
31421,9108,24737
31344,9097,24838
31381,9074,24722
31416,9054,24762
31488,9053,24679
31528,9056,24724
31616,9070,24637
31680,9086,24706
31758,9141,24859
31840,9125,24718
31912,9103,24804
31989,9086,24693
32049,9071,24670
31921,9065,24654
31708,9073,24537
31684,9059,24549
31784,9066,24461
31952,9082,24735
32116,9083,24604
32184,9083,24713
32157,9146,24415
32148,9078,24583
32149,9079,24564
32220,9050,24552
32249,9046,24431
32228,9046,24543
32172,9059,24651
32161,9095,24397
32278,9109,24512
32156,9085,24489
32064,9123,24549
32052,9083,24316
32064,9054,24452
32156,9109,24404
32320,9062,24285
32416,9057,24369
32488,9065,24401
32493,9168,24180
32498,9094,24342
32520,9099,24449
32472,9065,24145
32398,9121,24308
32328,9095,24296
32368,9069,24326
32478,9066,24376
32552,9057,24292
32652,9053,24330
32660,9072,24153
32688,9134,24187
32644,9104,24143
32598,9091,24236
32584,9067,24364
32684,9048,24119
32724,9036,24217
32792,9032,24098
32806,9047,24171
32716,9141,24100
32615,9110,24199
32552,9103,24084
32633,9098,24218
32781,9084,24207
32856,9064,24030
32896,9117,24180
32956,9049,24108
32936,9072,24191
32924,9044,24297
32916,9123,24049
32894,9095,24181
32916,9108,24233
32929,9081,24053
32856,9217,24184
32752,9110,24244
32710,9065,24053
32776,9043,24007
32868,9042,24060
32828,9113,24113
32844,9084,24004
32800,9102,24060
32764,9083,24127
32816,9141,24100
32918,9091,24086
32992,9065,24261
33008,9137,24049
33036,9078,24216
33022,9055,24364
32928,9060,24141
32889,9060,24268
32932,9084,24284
32886,9091,24319
32796,9155,24367
32864,9116,24184
32916,9084,24236
32968,9056,24335
33029,9127,24394
33020,9087,24389
32937,9076,24281
32948,9095,24438
32936,9222,24593
32986,9118,24381
33048,9115,24517
33037,9089,24575
32904,9105,24580
32738,9063,24487
32688,9055,24534
32840,9095,24663
32932,9071,24809
32941,9067,24562
32968,9134,24644
32964,9116,24793
32964,9092,24654
32952,9111,24879
32967,9077,24892
33016,9065,24821
33000,9102,24982
32980,9066,25140
32924,9055,24869
32976,9067,24967
32960,9135,25147
32960,9101,25151
32988,9095,25185
33004,9090,25116
33060,9108,25289
33156,9076,25287
33144,9055,25321
33061,9137,25227
32980,9075,25425
32910,9071,25434
32908,9138,25559
32920,9125,25428
32952,9099,25579
33008,9167,25730
33085,9119,25551
33188,9098,25679
33180,9067,25857
33117,9205,25577
33065,9116,25715
33072,9097,25915
33028,9119,25806
32957,9107,25919
32912,9216,25879
32904,9156,26023
32936,9115,26149
32996,9089,25917
33056,9117,26143
33116,9084,26340
33090,9082,26052
33060,9151,26268
33084,9147,26237
33120,9124,26191
33084,9187,26340
33088,9156,26443
33092,9124,26526
33122,9119,26664
33064,9094,26425
32992,9093,26551
32944,9159,26580
33018,9122,26717
33132,9125,26871
33156,9196,26683
33184,9170,26823
33236,9144,26974
33224,9117,26727
33176,9170,26957
33117,9113,26844
33004,9099,27119
32940,9175,26851
32932,9153,27066
32988,9132,27183
33060,9186,27169
33060,9170,27130
33108,9147,27153
33133,9183,27293
33160,9146,27348
33134,9123,27221
33092,9114,27385
33084,9155,27279
33048,9159,27395
32948,9142,27459
32857,9217,27369
32820,9176,27558
32824,9161,27343
32888,9226,27612
32964,9138,27614
32949,9117,27799
32880,9162,27636
32848,9121,27617
32881,9140,27766
32900,9213,27868
32844,9178,27600
32800,9180,27783
32850,9188,27751
32964,9147,27889
33044,9194,27883
33104,9147,27845
33172,9141,27918
33260,9127,28007
33278,9137,28022
33200,9147,28077
33196,9159,28032
33200,9254,27986
33117,9157,28001
33056,9212,28175
33015,9176,28162
33052,9154,28165
33140,9138,28118
33253,9133,28207
33316,9133,28279
33276,9253,28308
33144,9197,28435
33040,9173,28174
33005,9151,28380
33028,9197,28513
33120,9143,28305
33180,9142,28311
33220,9109,28390
33225,9117,28508
33277,9182,28663
33266,9156,28397
33193,9156,28551
33044,9151,28566
32968,9241,28617
32973,9197,28612
33024,9156,28686
33048,9116,28648
33084,9107,28630
33092,9149,28757
33112,9132,28785
33134,9206,28695
33132,9184,28814
33096,9177,28965
33088,9146,28681
32982,9166,28839
32813,9119,29029
32537,9148,28823
32196,9105,28955
31888,9165,28969
31652,9136,28873
31340,9137,28904
31064,9207,29092
30817,9178,29037
30598,9161,28935
30776,9141,29044
31616,9158,29089
33136,9122,29012
35056,9103,29221
37241,9234,29176
39992,9198,29264
43132,9205,29196
46488,9181,29322
49732,9169,29263
52276,9191,29385
53352,9149,29162
52508,9150,29255
50520,9204,29375
48212,9183,29349
45952,9148,29273
43709,9156,29333
41684,9251,29420
39856,9196,29620
38008,9191,29372
36576,9180,29505
35736,9182,29703
35106,9143,29423
34446,9190,29644
33644,9124,29572
32914,9124,29694
32480,9197,29728
32229,9174,29837
32088,9167,29541
31988,9169,29785
31824,9154,29957
31588,9137,29620
31361,9191,29782
31152,9149,29828
31005,9122,29972
30864,9124,30031
30680,9125,29877
30489,9135,29929
30360,9145,29981
30296,9276,30040
30302,9191,30241
30356,9159,30045
30484,9117,30168
30540,9107,30324
30500,9161,30205
30444,9157,30316
30444,9157,30269
30453,9153,30264
30464,9138,30253
30552,9143,30376
30628,9184,30412
30688,9151,30403
30768,9108,30501
30841,9142,30389
30805,9123,30621
30828,9102,30365
30756,9175,30613
30724,9133,30665
30813,9129,30800
30846,9193,30684
30876,9145,30784
30950,9117,30855
30966,9148,30844
31006,9119,31054
31072,9105,30965
31088,9108,31108
31103,9100,30973
31132,9157,30902
31188,9157,31139
31226,9133,31220
31236,9128,31207
31268,9169,31278
31316,9119,31215
31414,9106,31318
31444,9085,31385
31384,9092,31495
31356,9099,31439
31356,9165,31474
31351,9140,31394
31376,9161,31487
31420,9128,31517
31460,9186,31533
31512,9124,31438
31572,9111,31540
31612,9083,31604
31636,9129,31573
31664,9103,31773
31765,9113,31364
31746,9170,31524
31704,9137,31589
31608,9120,31684
31606,9195,31812
31640,9144,31414
31724,9121,31669
31784,9111,31692
31816,9199,31615
31836,9131,31700
31862,9126,31837
31896,9153,31703
31961,9138,31661
31937,9124,31655
31980,9107,31405
31976,9125,31655
31982,9109,31820
31993,9080,31391
31992,9075,31519
32052,9094,31588
32134,9157,31668
32228,9124,31554
32224,9138,31561
32216,9115,31647
32201,9108,31351
32190,9091,31589
32180,9137,31622
32192,9094,31321
32252,9092,31581
32352,9086,31489
32416,9155,31541
32446,9149,31550
32480,9135,31508
32552,9104,31436
32541,9158,31485
32576,9105,31382
32636,9086,31409
32680,9073,31430
32712,9070,31487
32720,9076,31253
32696,9149,31290
32688,9111,31399
32732,9106,31176
32775,9166,31247
32840,9103,31405
32927,9078,31007
32984,9060,31170
33032,9149,31142
33088,9085,31190
33068,9073,31101
33028,9080,31100
32998,9119,30972
32952,9124,31076
32932,9089,31215
32876,9141,30980
32856,9077,31063
32844,9047,30964
32805,9095,31108
32724,9077,30725
32638,9057,31015
32584,9069,30702
32621,9079,31005
32612,9138,30668
32572,9094,30916
32584,9086,30685
32612,9050,30907
32613,9118,30802
32620,9061,30821
32621,9039,30791
32593,9045,30832
32580,9052,30813
32617,9053,30810
32688,9124,30840
32776,9086,30813
32829,9073,30749
32896,9033,30799
32904,9026,30831
32952,8997,30805
32964,9110,30746
32976,9053,30725
32976,9036,30773
33014,9061,30767
33068,9029,30667
33112,9021,30705
33132,9093,30812
33208,9011,30549
33205,8987,30565
33256,8969,30606
33304,9018,30669
33320,8999,30529
33288,8998,30660
33248,9011,30646
33252,9052,30606
33240,9015,30645
33268,8989,30605
33248,9042,30711
33255,8972,30463
33261,8954,30552
33268,8947,30633
33342,9015,30525
33456,8987,30628
33432,8978,30309
33341,9044,30459
33312,8991,30572
33321,8969,30158
33348,8949,30270
33396,8988,30304
33401,8954,30377
33479,8931,30471
33560,9015,30261
33604,8980,30298
33617,8984,30367
33628,8963,30324
33684,8992,30269
33664,8964,30215
33620,8930,30300
33624,8949,30384
33568,8918,30008
33526,8907,30200
33546,8981,30182
33605,8945,30264
33644,8930,30231
33688,8957,30295
33753,8933,30167
33788,8932,30215
33780,8900,30210
33772,8885,30204
33744,8978,30269
33688,8925,30173
33709,8902,30045
33716,8903,30215
33741,8947,29884
33740,8919,30107
33764,8907,30233
33829,8961,29853
33864,8933,30022
33836,8881,30040
33870,8879,30028
33880,8881,30041
33852,8885,30050
33832,8892,30082
33808,8887,29933
33824,8892,29940
33864,8968,29949
33824,8905,30025
33788,8876,30143
33781,8848,29863
33788,8892,29983
33796,8857,30143
33804,8845,29865
33792,8927,29991
33752,8881,30148
33752,8878,29791
33712,8870,29895
33696,8911,30054
33713,8869,30037
33756,8836,30140
33812,8819,30069
33814,8816,30198
33800,8882,29831
33804,8872,30132
33760,8883,29864
33768,8870,30196
33761,8842,30105
33789,8861,30095
33793,8831,30173
33788,8805,30268
33756,8935,30257
33736,8849,30236
33728,8826,30257
33716,8834,30348
33704,8819,30435
33712,8893,30459
33632,8842,30591
33608,8836,30413
33572,8817,30423
33596,8787,30572
33652,8765,30655
33672,8839,30833
33632,8825,30517
33568,8813,30782
33528,8799,30844
33524,8798,30727
33500,8854,30878
33516,8803,31076
33532,8781,31049
33536,8746,31109
33552,8784,31095
33557,8771,31239
33536,8761,31330
33532,8756,31156
33556,8764,31317
33550,8767,31191
33553,8827,31503
33532,8771,31719
33492,8756,31647
33504,8751,31703
33492,8717,31727
33460,8770,31813
33448,8737,31716
33444,8737,31837
33392,8821,31929
33356,8789,31949
33352,8767,32087
33352,8727,32263
33344,8761,31953
33350,8727,32100
33352,8687,32292
33328,8757,32312
33273,8709,32498
33261,8713,32109
33260,8800,32322
33249,8775,32412
33232,8768,32391
33244,8740,32477
33241,8701,32583
33250,8670,32788
33252,8813,32691
33248,8700,32639
33237,8685,32693
33252,8688,32725
33226,8685,32807
33204,8693,32894
33209,8719,32775
33209,8697,33008
33212,8658,32999
33184,8648,32901
33184,8716,32967
33173,8681,33014
33138,8665,33153
33128,8648,32908
33080,8661,33207
33081,8735,33065
33088,8703,33155
33072,8695,33221
33042,8653,33332
33012,8645,33476
32972,8614,33404
32988,8606,33579
32960,8615,33473
32945,8691,33638
32961,8664,33513
32986,8653,33668
32984,8661,33584
33012,8624,33685
32972,8607,33628
32920,8596,33584
32857,8580,33594
32832,8582,33407
32785,8682,33638
32730,8628,33841
32776,8616,33793
32800,8615,33891
32848,8601,33709
32916,8649,33856
32976,8601,33975
33020,8569,33855
33004,8551,34041
32992,8679,33920
32960,8612,34053
32972,8581,33695
33009,8604,33861
33000,8599,33965
33020,8576,34010
33041,8570,33997
33028,8544,34047
33032,8527,34068
33036,8578,34103
33009,8557,34199
33032,8548,34129
33060,8525,34172
33088,8538,33868
33065,8547,34055
33020,8618,34092
32921,8561,34124
32925,8527,34189
32952,8518,34262
32964,8482,34292
32952,8479,34215
32976,8561,34183
32960,8549,34268
32925,8530,34340
32885,8521,34532
32885,8505,34068
32856,8562,34389
32812,8495,34415
32780,8491,34471
32765,8462,34486
32740,8541,34468
32740,8486,34493
32758,8490,34404
32772,8469,34412
32764,8472,34520
32756,8529,34541
32728,8517,34586
32636,8476,34599
32485,8448,34631
32210,8448,34567
31848,8420,34580
31492,8420,34627
31160,8437,34532
30941,8469,34812
30692,8463,34687
30420,8445,34720
30158,8430,34733
30192,8520,34847
30784,8437,34532
31876,8407,34624
33628,8401,34598
35764,8414,34876
38373,8430,34617
41464,8411,34772
45040,8421,34761
48936,8530,34793
52684,8507,34668
55608,8468,34740
56900,8421,34932
56236,8424,34929
54492,8403,35033
52292,8404,34940
49592,8544,34842
46388,8454,35074
43196,8471,35033
40620,8462,35198
38164,8433,35077
35988,8394,35189
34232,8472,35108
33164,8397,35292
32372,8371,35161
31894,8390,35318
31582,8380,35216
31304,8373,35357
31037,8381,34915
30768,8412,35165
30496,8370,35239
30164,8341,35327
29848,8403,35475
29572,8353,35319
29332,8327,35446
29130,8336,35344
28961,8325,35303
28848,8333,35277
28760,8395,35320
28716,8364,35417
28728,8332,35437
28736,8300,35639
28768,8281,35520
28768,8333,35685
28765,8294,35548
28781,8291,35653
28821,8282,35564
28824,8359,35664
28844,8337,35838
28912,8307,35436
28908,8302,35695
28880,8266,35809
28852,8253,35832
28869,8293,35964
28908,8261,35612
28996,8241,35969
29076,8260,36151
29180,8309,36022
29220,8305,36181
29264,8272,36151
29289,8259,36335
29324,8255,36215
29329,8220,36423
29328,8212,36341
29365,8202,36540
29392,8207,36428
29466,8218,36636
29537,8288,36540
29568,8272,36497
29558,8242,36603
29552,8225,36716
29604,8197,36892
29648,8266,36773
29692,8237,36965
29708,8219,36902
29732,8216,37009
29792,8212,36955
29840,8212,36972
29872,8216,36982
29904,8232,37026
29928,8186,37049
29942,8310,37163
29936,8220,37127
29900,8196,37231
29888,8178,37167
29884,8175,37279
29948,8191,37183
30001,8170,37209
30041,8180,37055
30068,8179,36884
30076,8161,37111
30093,8149,37068
30136,8137,37102
30136,8124,36766
30149,8119,37204
30148,8127,36992
30148,8133,36815
30176,8201,36929
30154,8181,36774
30156,8174,37151
30169,8159,36995
30168,8134,36965
30173,8108,36759
30220,8097,36769
30284,8175,36954
30284,8132,36428
30330,8129,36734
30343,8132,36663
30329,8129,36636
30318,8188,36683
30368,8147,36571
30416,8119,36652
30436,8093,36409
30460,8125,36423
30496,8103,36527
30568,8081,36076
30604,8148,36291
30652,8125,36381
30676,8117,36161
30698,8108,36164
30746,8099,35975
30756,8116,36015
30764,8084,35914
30792,8060,35862
30857,8108,35879
30912,8085,35829
30936,8074,35712
30988,8145,35706
30948,8107,35645
30932,8091,35589
30921,8103,35169
30948,8076,35460
31030,8052,35471
31085,8103,35341
31088,8055,35399
31132,8075,34903
31181,8053,35100
31208,8121,35255
31260,8103,34802
31269,8079,34964
31296,8096,35045
31324,8046,34823
31312,8107,34591
31305,8074,34638
31324,8052,34685
31304,8031,34619
31256,8070,34556
31200,8056,34454
31222,8054,34437
31188,8094,34300
31152,8071,34303
31152,8027,34258
31181,8114,34132
31200,8023,34125
31214,8014,34076
31232,8008,33868
31284,8037,34085
31252,8026,33909
31256,8092,33733
31294,8053,33772
31356,8031,33762
31385,8127,33572
31384,8011,33580
31428,7987,33381
31445,7981,33396
31500,8018,33391
31556,8005,33444
31592,7999,33191
31636,8069,33205
31692,8035,33026
31720,7997,33049
31724,7987,32978
31728,8037,32956
31700,8017,32847
31700,7978,32895
31738,7974,32735
31725,7969,32829
31724,8027,32516
31724,8019,32557
31773,7986,32591
31828,8052,32443
31912,7981,32252
31945,7958,32246
31936,7939,32263
31916,8010,32329
31944,7972,31949
31973,7973,31973
31996,7959,32039
32013,8032,31968
32004,8005,31937
32064,7977,31760
32048,8068,31777
32004,7968,31847
32000,7953,31632
32000,7920,31546
31964,7930,31348
31964,7937,31327
31976,8015,31327
32040,7994,31304
32020,7964,31345
32033,7958,31217
32096,7927,31204
32164,7981,30956
32156,7919,31028
32148,7908,31096
32132,7990,30716
32136,7985,30768
32112,7993,30670
32104,7972,30667
32128,7972,30698
32149,7933,30436
32169,7954,30498
32180,7911,30343
32164,7901,30470
32192,7893,30288
32228,7905,30373
32260,7979,30170
32256,7968,30215
32248,7963,30057
32248,7960,30119
32284,7935,29657
32260,7935,29965
32288,7918,29575
32264,7885,29616
32212,7892,29631
32192,7974,29652
32248,7973,29519
32277,7965,29551
32320,7960,29461
32397,7959,29492
32436,7916,29587
32428,8023,29421
32436,7937,29525
32460,7902,29357
32436,7883,29191
32444,7955,29365
32444,7928,29238
32424,7929,29101
32404,7915,29122
32452,7985,29131
32481,8022,28953
32536,7958,29021
32548,7906,29046
32512,7892,29083
32453,7871,29191
32428,7950,29095
32400,7937,29151
32448,7914,29063
32492,7908,28953
32557,7977,28940
32544,7950,28989
32500,7905,28871
32500,7886,28863
32540,7860,28900
32516,7919,28969
32480,7881,29015
32472,7890,28967
32520,7895,29076
32474,7905,28919
32414,7982,29060
32352,7921,28692
32389,7908,28772
32449,7871,28652
32473,7927,28759
32516,7877,28674
32568,7875,28829
32578,7875,28773
32564,7948,28855
32576,7921,28837
32572,7900,28703
32556,7951,28775
32557,7897,28876
32556,7867,28820
32556,7934,28837
32600,7874,28738
32608,7862,28780
32600,7942,28884
32624,7898,28812
32601,8005,28774
32544,7944,28896
32552,7901,28621
32604,7876,28689
32632,7897,28904
32654,7857,28602
32696,7853,28957
32748,7926,28855
32708,7886,28737
32665,7892,28772
32620,7887,28861
32552,7962,29016
32584,7897,28703
32560,7875,28775
32560,7862,28932
32620,7911,28919
32656,7862,29029
32622,7875,28679
32615,7865,28954
32613,7885,28831
32608,7935,28927
32592,7897,29117
32570,7886,28745
32572,7932,28922
32568,7880,28918
32540,7859,28935
32544,7847,29063
32540,7917,29095
32509,7897,29199
32502,7910,28905
32517,7889,29293
32516,7894,28925
32497,7939,29138
32500,7894,29071
32508,7878,29332
32520,7867,29020
32517,7847,29167
32528,7917,29255
32532,7886,29331
32526,7909,29306
32560,7882,29349
32596,7994,29428
32597,7909,29491
32584,7893,29552
32524,7857,29468
32468,7848,29563
32428,7893,29624
32368,7863,29647
32384,7860,29736
32512,7871,29633
32545,7879,29591
32501,7884,29886
32436,7881,29804
32426,7924,29954
32408,7891,29906
32398,7869,30041
32400,7843,29750
32368,8005,29903
32334,7876,30137
32304,7902,30084
32271,7880,30137
32262,7947,30184
32260,7905,30252
32252,7882,30098
32256,7852,30257
32284,7911,30087
32332,7862,30398
32392,7852,30432
32432,7861,30621
32488,7874,30535
32576,7943,30500
32612,7944,30784
32632,7937,30691
32648,7918,30673
32656,7902,30664
32648,7874,30781
32641,7843,30885
32625,7844,30860
32656,7972,30964
32628,7905,31124
32608,7912,31116
32648,7882,31306
32652,7881,31191
32605,7970,31385
32558,7901,31281
32528,7877,31255
32524,7842,31372
32549,7896,31531
32549,7888,31631
32576,7873,31511
32597,7961,31653
32592,7940,31699
32604,7896,31845
32632,7876,32053
32612,7981,31751
32612,7863,32064
32654,7844,32105
32652,7883,32281
32672,7892,32263
32686,7876,32259
32664,7953,32460
32652,7905,32184
32664,7891,32551
32680,7873,32791
32669,7969,32708
32672,7889,32647
32657,7873,32839
32646,7854,32957
32549,7866,33063
32329,7882,33116
31996,7973,33264
31620,7948,33261
31332,7911,33428
31118,7916,33083
30840,7877,33463
30581,7864,33365
30316,7861,33661
30308,7932,33695
30924,7887,33711
32029,7911,33797
33640,7905,33860
35600,7902,34023
38013,7938,33749
40788,7923,34246
44028,7911,34183
47456,7894,34426
50704,7901,34018
53196,7892,34356
54212,7902,34484
53392,8022,34575
51792,8025,34700
49828,8037,34717
47588,8146,34777
44936,8047,34845
42304,8080,34870
40032,7982,34927
37980,7972,34787
36260,7970,35284
34880,7977,35239
34001,7983,35255
33206,7954,35272
32580,7966,35397
32193,7950,35397
31908,7909,35572
31676,8013,35663
31460,7961,35744
31192,7925,35784
30884,7921,36003
30596,7913,35909
30340,7931,36063
30130,7928,35649
29953,7928,36100
29833,7924,36125
29700,8009,36314
29608,7954,35846
29548,7948,36278
29525,7940,36150
29532,7931,36375
29580,7920,36353
29656,7923,36474
29720,7928,36638
29792,7939,36585
29836,7993,36781
29867,7983,36708
29916,7951,36900
29966,7912,36405
29972,7906,36951
29993,7907,36495
30020,7914,36903
30084,7926,36613
30108,7934,37033
30112,7940,37060
30126,8000,37133
30112,7949,37047
30136,7923,37280
30164,7903,37285
30196,7956,37239
30204,7937,37445
30217,7949,37421
30256,7936,37369
30326,7943,37511
30356,8019,37489
30408,7983,37622
30460,7949,37740
30464,7922,37871
30492,7967,37807
30524,7949,38038
30552,7943,37951
30567,7946,38044
30582,7943,38005
30576,7952,38244
30589,7961,38160
30608,8040,38266
30652,7989,38249
30676,7949,38439
30712,7950,38327
30744,7921,38516
30749,7925,38407
30768,7963,38527
30780,7966,38297
30784,7964,38407
30864,8038,38623
30908,8007,38588
30900,8015,38737
30876,7959,38604
30904,7967,38791
30916,7951,38655
30926,7965,38830
30940,7974,38690
30920,7970,38756
30924,7972,38687
30952,7979,38817
30994,7980,38743
31052,8031,38901
31068,7998,38303
31108,7960,38613
31108,7972,38708
31092,7943,38708
31080,8091,38773
31100,8021,38705
31096,8009,38709
31118,8005,38647
31193,7980,38656
31236,8066,38546
31244,7981,38633
31278,7954,38613
31258,7951,38701
31246,8001,38565
31280,7991,38635
31332,7989,38535
31392,7985,38581
31429,8059,38372
31452,8039,38308
31508,7999,38502
31520,7983,38351
31532,7964,38203
31584,8021,38270
31596,7983,38213
31664,7977,38357
31730,7996,38220
31749,8028,38221
31736,8022,38086
31760,8009,38072
31772,8036,38149
31800,7992,38046
31840,7978,38101
31896,8006,37557
31940,7989,38104
31992,8012,37925
32030,8004,37951
32016,8015,37849
31975,8061,37860
31996,8046,37782
32012,8015,37702
32028,7988,37615
32064,8045,37665
32101,8004,37558
32116,8004,37620
32132,7999,37569
32096,8050,37705
32064,8023,37543
32026,8099,37511
32018,8054,37334
32016,8017,37543
31976,8006,37401
31972,8055,37287
31948,8006,37361
31904,8007,37304
31924,8005,37405
31944,8012,36836
31946,8079,37101
31949,8045,37269
31948,8026,36895
31988,8071,37048
32002,8018,37191
32044,7990,36761
32080,8059,36988
32136,8020,37078
32160,8014,36908
32184,8029,36857
32230,8025,36788
32284,8104,36790
32320,8077,36871
32333,8037,36578
32374,8012,36550
32409,7990,36771
32437,8055,36562
32420,8029,36580
32436,8013,36708
32464,8037,36511
32516,8032,36484
32532,8070,36405
32558,8047,36389
32589,8033,36485
32620,8008,36380
32656,8068,36323
32652,8025,36249
32700,8030,36184
32740,8020,36224
32726,8024,36287
32705,8144,36393
32728,8116,36240
32748,8069,36260
32745,8065,36156
32744,8015,36167
32724,8082,36285
32736,8013,36099
32704,8015,36103
32676,8015,36117
32726,8099,36140
32752,8115,36239
32728,8103,36103
32760,8081,36215
32766,8069,35920
32768,8033,36031
32752,8016,35989
32740,8012,35965
32752,8089,36037
32784,8080,36012
32780,8063,36068
32772,8081,36028
32785,8063,36134
32767,8057,35966
32760,8053,36126
32796,8037,35967
32828,8137,36038
32840,8105,35871
32832,8081,35815
32808,8066,35769
32817,8075,35781
32840,8070,35680
32844,8083,35519
32868,8073,35788
32864,8061,35412
32860,8051,35847
32860,8038,35700
32864,8034,35726
32881,8116,35666
32861,8084,35716
32844,8093,35383
32856,8079,35497
32869,8083,35501
32900,8212,35517
32916,8194,35513
32933,8130,35377
32910,8108,35423
32916,8105,35383
32952,8117,35285
32968,8119,35332
32968,8095,35461
32917,8103,35380
32909,8106,35439
32908,8099,35391
32904,8086,35378
32919,8073,35372
32892,8167,35519
32872,8103,34990
32912,8076,35445
32944,8092,34999
32944,8087,35438
32912,8101,35028
32904,8218,35463
32900,8161,35313
32901,8116,35277
32894,8110,35280
32916,8075,35328
32904,8067,35492
32896,8154,34983
32872,8122,35206
32880,8117,35463
32888,8106,35092
32884,8265,35221
32882,8160,35324
32892,8120,35362
32895,8093,35453
32916,8076,35015
32980,8141,35279
32960,8107,35423
32928,8123,35369
32920,8102,35430
32892,8123,35039
32892,8186,35301
32890,8164,35333
32896,8143,35389
32920,8132,35546
32892,8101,35407
32892,8083,35463
32916,8089,35077
32928,8101,35294
32901,8166,35463
32852,8149,35452
32868,8166,35540
32900,8133,35100
32892,8121,35497
32876,8267,35204
32868,8165,35430
32868,8148,35296
32844,8128,35495
32812,8145,35364
32765,8125,35469
32736,8135,35505
32718,8141,35497
32732,8139,35569
32772,8182,35508
32772,8150,35653
32792,8141,35191
32796,8103,35492
32812,8229,35648
32816,8175,35527
32828,8150,35396
32889,8160,35465
32904,8151,35420
32888,8151,35558
32853,8222,35551
32820,8174,35651
32816,8153,35535
32800,8113,35645
32812,8239,35228
32808,8161,35406
32780,8161,35567
32768,8161,35573
32784,8209,35505
32800,8197,35524
32805,8151,35583
32800,8186,35635
32800,8162,35496
32840,8124,35559
32826,8256,35719
32800,8205,35550
32788,8165,35521
32780,8168,35637
32769,8210,35529
32801,8206,35554
32804,8164,35431
32752,8216,35548
32734,8171,35517
32708,8161,35484
32668,8143,35431
32644,8161,35452
32664,8241,35530
32684,8202,35436
32660,8203,35289
32602,8184,35387
32532,8262,35373
32481,8229,35386
32440,8185,35362
32488,8180,35461
32540,8159,35260
32574,8225,35266
32592,8202,35356
32578,8211,35266
32616,8199,35244
32660,8266,35154
32693,8213,35213
32741,8186,35041
32808,8170,35207
32840,8281,35128
32868,8236,35087
32904,8223,35055
32956,8222,35047
32964,8204,34707
32946,8334,34982
32960,8251,34939
32977,8231,34925
32985,8187,34996
33000,8178,34942
33008,8246,35056
32937,8223,34889
32896,8201,34753
32821,8210,34788
32824,8212,34817
32880,8270,34773
32872,8249,34716
32880,8215,34725
32896,8196,34789
32913,8225,34604
32896,8213,34620
32884,8204,34675
32892,8193,34599
32880,8274,34660
32921,8251,34332
32944,8261,34393
32930,8236,34414
32944,8220,34433
32980,8252,34445
32929,8214,34397
32908,8193,34511
32848,8263,34267
32784,8223,34293
32832,8250,34341
32804,8239,34261
32713,8236,34127
32520,8386,34121
32204,8282,34115
31829,8276,34049
31503,8226,34129
31252,8210,34254
31070,8284,33865
30796,8241,34015
30532,8237,34164
30388,8245,34040
30732,8249,34106
31544,8250,33997
32912,8283,33851
34828,8249,33984
37264,8220,33927
40108,8212,33966
43460,8220,33908
47128,8335,33912
50948,8314,33773
54284,8303,33828
56340,8297,33892
56264,8296,33844
54912,8394,33829
52864,8331,33775
50348,8327,33813
47168,8276,33757
43828,8362,33759
41241,8331,33813
38884,8309,33972
36757,8338,33856
34980,8311,33862
33821,8304,33760
33024,8384,33821
32504,8325,33898
32176,8321,33864
31924,8309,33952
31649,8292,33908
31368,8276,34030
31064,8277,33916
30696,8289,33783
30400,8375,33845
30144,8345,33897
29916,8317,33988
29732,8284,33911
29558,8266,34029
29420,8250,33629
29320,8319,33839
29284,8298,33892
29304,8289,33902
29305,8289,34013
29329,8393,33940
29326,8326,33882
29380,8295,33989
29388,8270,33989
29425,8319,34007
29464,8286,33881
29492,8265,33983
29512,8260,34119
29556,8326,33959
29604,8297,34049
29708,8292,33937
29804,8357,33981
29829,8313,34073
29830,8294,34039
29884,8261,33987
29908,8257,33971
29932,8293,34097
29984,8268,34061
30018,8353,34006
30097,8301,34265
30144,8291,34063
30210,8328,34172
30240,8289,34028
30288,8340,34213
30312,8297,34199
30340,8286,34087
30352,8259,34293
30356,8349,34254
30437,8326,34305
30468,8304,34270
30517,8307,34414
30532,8300,34281
30580,8351,34426
30601,8313,34311
30630,8284,34465
30629,8271,34358
30660,8259,34497
30708,8347,34329
30751,8335,34415
30792,8319,34400
30800,8305,34075
30805,8347,34399
30852,8320,34511
30848,8289,34189
30844,8274,34527
30872,8266,34079
30928,8269,34464
30984,8279,34290
31012,8290,34407
30996,8308,34204
31084,8382,34244
31162,8385,34288
31177,8375,34319
31208,8350,34401
31208,8347,34308
31196,8313,34356
31172,8300,34268
31156,8301,34378
31212,8362,34346
31272,8368,34190
31306,8370,34133
31346,8367,33992
31376,8343,33855
31388,8320,34167
31404,8305,34022
31428,8286,34116
31437,8283,33983
31452,8293,34031
31502,8307,33861
31504,8321,33804
31520,8333,33749
31532,8412,33631
31553,8385,33767
31608,8355,33559
31637,8312,33664
31732,8309,33668
31774,8320,33627
31792,8330,33654
31824,8325,33546
31892,8336,33603
31959,8339,33471
32000,8485,33360
32052,8362,33409
32036,8335,33359
32040,8332,33380
32056,8317,33253
32116,8334,33143
32138,8308,33059
32164,8323,32965
32196,8407,32976
32236,8390,32989
32268,8382,32953
32293,8349,32921
32320,8327,32945
32322,8395,33037
32344,8367,32852
32332,8327,32781
32352,8320,32740
32357,8407,32764
32352,8369,32709
32352,8370,32583
32348,8361,32634
32344,8385,32713
32316,8355,32263
32284,8355,32383
32232,8326,32557
32208,8387,32443
32193,8355,32361
32172,8343,32289
32172,8504,32344
32168,8403,32401
32166,8378,32162
32192,8356,32229
32216,8341,32318
32236,8330,31854
32252,8322,32103
32302,8387,31961
32360,8355,31894
32436,8356,31931
32449,8356,31975
32484,8428,31781
32508,8389,31832
32541,8365,31743
32592,8352,31721
32616,8329,31821
32662,8322,31735
32689,8318,31836
32720,8409,31653
32684,8367,31750
32492,8382,31567
32780,8361,31401
32852,8364,31279
32837,8428,31442
32864,8366,31389
32908,8334,31377
32945,8394,31194
32943,8338,31280
32940,8333,31269
32933,8412,31165
32948,8378,31183
32981,8357,30905
32996,8422,31099
32982,8364,31191
32993,8358,30800
33040,8330,30939
33084,8359,31077
33084,8347,30831
33082,8329,30886
33088,8371,30686
33092,8382,30698
33088,8365,30753
33092,8443,30679
33116,8372,30575
33136,8342,30618
33128,8419,30692
33112,8357,30399
33105,8337,30492
33132,8408,30335
33132,8360,30499
33124,8359,30119
33126,8460,30242
33140,8404,30383
33196,8389,30129
33188,8353,30183
33192,8377,30068
33199,8367,30031
33200,8334,30041
33206,8403,29884
33202,8381,29959
33208,8394,29916
33166,8397,30039
33168,8383,29796
33224,8434,29844
33236,8381,29942
33249,8353,29802
33264,8348,29783
33244,8419,29804
33252,8418,29497
33268,8407,29559
33290,8401,29637
33298,8426,29655
33292,8400,29565
33332,8399,29485
33372,8441,29479
33433,8405,29537
33441,8393,29652
33448,8362,29418
33412,8490,29506
33392,8462,29604
33412,8462,29228
33448,8431,29305
33452,8429,29350
33460,8404,29165
33473,8459,29307
33504,8537,29307
33519,8455,29373
33512,8411,29246
33481,8413,29367
33472,8394,29313
33484,8530,29333
33508,8478,29047
33520,8442,29222
33556,8415,29388
33560,8409,29009
33540,8398,29181
33544,8388,29007
33532,8444,29157
33508,8415,29300
33530,8420,28972
33556,8420,29172
33588,8533,29053
33588,8477,29119
33572,8441,29112
33508,8415,29123
33516,8475,29032
33528,8431,29156
33532,8429,28896
33504,8407,29081
33534,8468,29061
33557,8450,28951
33557,8461,29051
33564,8449,28967
33584,8509,28963
33584,8454,29037
33574,8437,29136
33632,8419,28917
33656,8409,29010
33664,8469,29079
33668,8449,28903
33641,8473,28982
33680,8455,29087
33693,8457,28980
33695,8505,28933
33716,8455,28935
33732,8435,28996
33736,8422,28860
33704,8477,28932
33684,8483,28964
33678,8469,29102
33656,8481,28882
33644,8486,28919
33616,8475,28935
33608,8480,29013
33613,8450,28957
33588,8438,28951
33588,8481,29017
33604,8459,29148
33592,8460,29009
33616,8471,29004
33612,8461,28887
33620,8461,28999
33644,8524,29102
33600,8493,28959
33604,8461,29052
33565,8459,29053
33564,8451,28941
33561,8435,28932
33580,8458,28982
33572,8438,29093
33592,8454,29204
33580,8453,28975
33566,8545,29124
33536,8507,29137
33577,8454,29148
33584,8446,29166
33580,8419,29287
33524,8414,28992
33506,8416,29149
33520,8432,29151
33480,8525,29249
33473,8538,29356
33424,8523,29307
33432,8498,29447
33430,8465,29081
33448,8470,29349
33464,8428,29337
33461,8411,29159
33420,8419,29353
33400,8430,29487
33436,8512,29273
33436,8513,29403
33440,8486,29470
33404,8471,29580
33393,8432,29738
33352,8490,29488
33334,8462,29532
33316,8463,29479
33278,8460,29669
33268,8454,29783
33288,8452,29807
33249,8453,29889
33261,8517,29876
33228,8482,29831
33288,8474,29873
33318,8459,29945
33332,8442,29942
33360,8429,30009
33444,8430,30092
33577,8434,30197
33585,8452,29953
33664,8458,30134
33684,8533,30180
33694,8495,30294
33725,8478,30284
33796,8462,30391
33792,8420,30509
33742,8542,30251
33695,8458,30485
33676,8484,30324
33664,8499,30748
33708,8482,30671
33724,8465,30828
33693,8455,30485
33660,8522,30682
33645,8494,30771
33580,8441,30899
33580,8451,31043
33548,8453,30964
33608,8462,30997
33558,8486,31044
33636,8472,31095
33632,8471,30962
33628,8462,30921
33608,8441,31135
33616,8431,30956
33644,8503,31349
33652,8475,31248
33680,8463,31412
33704,8471,31256
33684,8491,31145
33664,8493,31452
33601,8487,31381
33640,8475,31448
33726,8476,31412
33734,8435,31543
33709,8421,31273
33680,8517,31449
33640,8492,31492
33596,8478,31661
33478,8472,31554
33108,8487,31685
32678,8472,31580
32508,8463,31735
32233,8505,31559
32029,8475,31654
31769,8449,31704
31532,8430,31725
31296,8430,31824
31488,8443,31769
32278,8449,31870
33700,8532,31834
35488,8516,31999
37644,8492,31795
40384,8464,31892
43504,8461,31657
46892,8428,31947
50324,8434,31817
53252,8570,31960
55076,8568,31948
55045,8551,32048
53716,8539,32062
51892,8535,32114
49728,8551,32056
46984,8500,32146
44112,8484,32308
41584,8550,32228
39288,8499,32343
37392,8504,31974
35916,8481,32201
34980,8492,32228
34323,8496,32302
33740,8580,32071
33326,8491,32500
33064,8539,32230
32844,8513,32393
32604,8514,32122
32364,8515,32556
32064,8450,32440
31732,8463,32567
31511,8478,32447
31232,8550,32570
31008,8539,32136
30872,8500,32391
30716,8485,32465
30616,8468,32442
30560,8468,32558
30500,8450,32406
30465,8461,32566
30580,8459,32128
30608,8468,32485
30606,8482,32413
30604,8623,32528
30604,8542,32431
30600,8513,32454
30632,8479,32172
30632,8457,32282
30692,8453,32263
30704,8444,32271
30736,8460,32320
30733,8476,32280
30696,8485,32397
30776,8487,32460
30825,8481,32399
30804,8538,32546
30808,8505,32415
30748,8467,32460
30828,8449,32257
30885,8454,32344
30876,8539,32351
30885,8517,32391
30952,8515,32321
30913,8516,32263
30936,8515,32204
30952,8497,32341
30997,8476,32114
31020,8463,32518
31040,8452,32367
31016,8456,32492
31008,8468,32374
31020,8484,32277
31044,8499,32517
31052,8516,32333
31066,8498,32287
31068,8486,32263
31120,8534,32263
31168,8542,32288
31156,8523,32354
31140,8519,32457
31140,8525,32324
31092,8532,32263
31160,8564,32263
31204,8567,32066
31197,8575,32455
31169,8541,32327
31196,8509,32413
31168,8509,32263
31150,8498,32225
31148,8498,32159
31136,8509,32279
31148,8528,32420
31140,8534,32268
31196,8546,32175
31220,8521,32158
31200,8521,32229
31220,8512,32172
31244,8484,32196
31268,8550,32223
31296,8549,32130
31284,8500,32054
31292,8631,31970
31294,8599,31836
31288,8583,32170
31293,8562,32036
31296,8537,32025
31280,8517,31832
31265,8530,31957
31276,8537,31975
31272,8548,31874
31262,8551,31941
31324,8564,31835
31340,8558,31879
31320,8549,31750
31372,8536,31769
31392,8527,31702
31404,8619,31740
31414,8566,31623
31437,8561,31631
31452,8548,31543
31514,8537,31482
31572,8548,31492
31620,8546,31501
31680,8549,31418
31692,8551,31505
31652,8635,31343
31660,8588,31441
31690,8580,31281
31680,8569,31213
31708,8562,31143
31704,8548,31239
31694,8556,31143
31769,8588,31163
31800,8561,31060
31812,8563,31144
31780,8606,31003
31760,8580,31097
31753,8570,30925
31772,8545,30993
31769,8539,30855
31788,8571,30804
31732,8570,30797
31696,8583,30775
31664,8581,30848
31600,8590,30673
31536,8559,30670
31512,8535,30647
31480,8527,30745
31460,8585,30564
31422,8563,30577
31400,8551,30477
31408,8565,30497
31384,8559,30253
31420,8558,30346
31424,8618,30333
31432,8583,30382
31410,8556,30372
31452,8512,30230
31492,8591,30212
31493,8541,30327
31516,8535,30239
31508,8536,30286
31564,8546,30148
31585,8549,30095
31604,8601,30118
31628,8567,29973
31678,8526,30071
31720,8524,30026
31768,8497,29919
31836,8496,29927
31880,8512,29691
31868,8605,30033
31904,8563,29692
31912,8555,29780
31932,8565,29635
31920,8553,29956
31888,8527,29782
31888,8507,29739
31924,8487,29733
31956,8490,29712
31960,8503,29631
31926,8515,29565
31944,8525,29481
31932,8535,29588
31908,8542,29685
31900,8511,29540
31932,8616,29660
31936,8550,29467
31880,8551,29580
31892,8535,29177
31944,8529,29410
31956,8551,29129
31912,8556,29411
31898,8570,29343
31916,8562,29393
31916,8535,29307
31912,8509,29408
31941,8521,29276
31944,8501,29366
31968,8492,29231
32006,8494,29336
32032,8511,29191
32020,8524,29245
32024,8589,28906
32061,8565,29036
32088,8543,28879
32080,8523,29157
32084,8505,29063
32094,8491,29085
32076,8501,29024
32068,8529,29164
32088,8523,29029
32092,8551,28992
32068,8556,28923
32102,8550,28977
32124,8526,28876
32130,8527,28849
32132,8488,28862
32168,8481,28756
32200,8485,28749
32188,8548,28841
32188,8543,28615
32222,8534,28973
32224,8543,28823
32281,8530,28794
32308,8538,28788
32260,8522,28697
32200,8484,28735
32250,8537,28820
32264,8541,28772
32309,8527,28705
32321,8543,28515
32300,8539,28646
32320,8541,28532
32324,8546,28725
32305,8519,28492
32328,8524,28742
32352,8500,28500
32368,8478,28761
32376,8483,28491
32396,8557,28599
32356,8575,28501
32326,8567,28771
32348,8535,28641
32334,8539,28687
32364,8545,28532
32385,8543,28820
32393,8530,28526
32380,8548,28919
32368,8543,28801
32388,8542,28908
32420,8569,28839
32476,8559,28987
32482,8546,28617
32504,8527,28798
32480,8511,28964
32488,8572,28895
32477,8517,28862
32456,8497,28996
32428,8515,28981
32420,8507,29072
32434,8519,28791
32442,8525,29120
32452,8530,29095
32469,8530,29262
32452,8513,29153
32424,8501,29147
32416,8484,29057
32408,8485,29276
32432,8484,29049
32469,8494,29206
32485,8517,29282
32524,8527,29290
32500,8526,29372
32513,8525,29405
32520,8515,29468
32512,8503,29474
32492,8491,29435
32476,8489,29710
32517,8490,29661
32508,8507,29788
32480,8574,29952
32500,8596,29649
32512,8643,30039
32528,8607,29750
32524,8530,30206
32536,8514,30124
32544,8505,30114
32524,8501,30012
32528,8505,30197
32496,8513,30214
32464,8535,30372
32448,8550,30523
32464,8551,30449
32464,8550,30413
32472,8543,30715
32424,8530,30727
32420,8524,30770
32404,8516,30693
32400,8519,30813
32412,8533,30956
32444,8657,30927
32458,8605,31049
32494,8597,31263
32492,8562,31200
32512,8549,31397
32516,8544,31324
32525,8590,31431
32524,8553,31259
32484,8541,31341
32460,8559,31483
32492,8556,31605
32460,8636,31803
32456,8591,31495
32509,8588,31727
32550,8577,31764
32544,8549,31873
32544,8606,32055
32524,8567,31965
32544,8556,31973
32534,8549,31992
32489,8628,32125
32512,8603,32182
32520,8613,32132
32484,8580,32260
32488,8647,32377
32534,8623,32340
32560,8594,32471
32532,8556,32400
32488,8553,32512
32460,8580,32311
32420,8595,32398
32452,8601,32369
32484,8579,32565
32502,8583,32775
32508,8628,32416
32476,8595,32655
32436,8569,32863
32444,8542,32631
32468,8537,32812
32424,8658,32853
32440,8671,32548
32440,8649,32791
32412,8637,32839
32383,8623,32886
32388,8580,32984
32413,8556,32985
32452,8541,32927
32460,8536,32847
32460,8577,33064
32444,8574,33153
32428,8574,32984
32428,8572,33111
32412,8573,33279
32432,8578,33165
32464,8562,33287
32444,8629,32900
32400,8578,33091
32316,8555,33188
32328,8555,33183
32364,8567,33308
32360,8563,33279
32377,8655,33271
32340,8598,33377
32325,8596,33324
32328,8562,33263
32261,8555,33300
32192,8594,33373
32116,8548,33271
32032,8542,33420
32037,8615,33347
32054,8580,33447
32136,8582,33303
32208,8596,33378
32268,8579,33476
32336,8579,33554
32354,8562,33494
32373,8546,33468
32390,8541,33427
32452,8543,33455
32468,8556,33488
32484,8565,33476
32484,8578,33559
32452,8587,33708
32456,8586,33565
32433,8581,33625
32448,8559,33581
32458,8553,33693
32444,8546,33609
32448,8549,33567
32412,8646,33559
32384,8617,33657
32288,8622,33584
32246,8607,33603
32252,8599,33597
32284,8585,33692
32317,8631,33647
32340,8588,33593
32368,8575,33629
32379,8564,33625
32385,8568,33621
32388,8587,33616
32388,8685,33604
32408,8650,33645
32436,8635,33660
32413,8631,33660
32381,8591,33695
32320,8581,33657
32280,8566,33637
32229,8573,33679
32198,8637,33708
32236,8625,33719
32254,8614,33848
32270,8615,33703
32276,8767,33657
32172,8649,33683
31946,8643,33671
31608,8613,33511
31272,8611,33692
31022,8588,33516
30852,8594,33775
30600,8617,33562
30360,8629,33641
30180,8695,33705
30113,8694,33794
30586,8673,33631
31592,8640,33936
33108,8640,33796
34976,8621,33864
37304,8618,33848
40056,8636,33951
43092,8643,33859
46268,8640,34005
49144,8651,33849
51164,8843,33905
51444,8775,33721
50224,8765,34016
48488,8767,33913
46696,8737,33999
44716,8679,33940
42472,8664,33820
40336,8765,33953
38236,8711,33996
36260,8698,34135
34785,8690,34007
33776,8743,34154
33197,8688,33799
32632,8661,34005
32140,8643,34172
31810,8672,33765
31577,8676,34092
31364,8658,34031
31164,8732,34111
30948,8733,34079
30688,8694,34127
30460,8678,34005
30294,8673,34111
30112,8644,34019
29951,8637,34240
29818,8639,34218
29698,8649,34388
29662,8783,34261
29656,8726,34405
29636,8692,34055
29576,8674,34263
29540,8666,34308
29616,8716,34301
29678,8679,34364
29730,8652,34345
29768,8661,34452
29872,8643,34387
29937,8664,34469
30004,8672,34351
30038,8678,34327
30060,8743,34272
30084,8708,34371
30124,8670,34343
30152,8645,34512
30180,8697,34143
30184,8649,34436
30152,8656,34446
30196,8663,34513
30176,8730,34601
30200,8706,34596
30256,8708,34664
30288,8676,34644
30332,8750,34784
30400,8702,34687
30453,8693,34721
30488,8687,34695
30559,8665,34802
30551,8669,34431
30554,8677,34604
30576,8745,34677
30621,8749,34885
30640,8727,34799
30636,8683,34963
30688,8669,34852
30743,8657,34971
30778,8648,34847
30821,8657,34897
30854,8726,34823
30881,8737,34900
30896,8717,34917
30911,8722,34951
30924,8717,34959
30996,8686,35084
31012,8661,34957
31018,8659,35004
31044,8711,34919
31036,8703,34770
31088,8696,34839
31110,8717,34817
31120,8709,34916
31088,8703,34924
31064,8697,34799
31085,8681,34708
31124,8673,34796
31172,8721,34815
31216,8692,34852
31264,8707,34916
31290,8688,34492
31300,8703,34676
31337,8751,34737
31389,8725,34774
31412,8713,34887
31468,8828,34636
31492,8706,34695
31504,8675,34516
31460,8676,34550
31485,8724,34573
31528,8709,34685
31564,8713,34257
31609,8721,34359
31608,8783,34365
31652,8750,34349
31672,8713,34429
31724,8690,33965
31764,8685,34183
31788,8723,34309
31844,8729,33852
31860,8714,34140
31893,8725,33996
31932,8774,34023
31916,8765,34114
31932,8727,33871
31952,8766,33893
31936,8717,33727
31964,8696,33764
31952,8692,33727
31976,8706,33828
32024,8785,33328
31992,8755,33479
32008,8749,33493
32028,8749,33497
32066,8735,33448
32080,8769,33373
32096,8735,33358
32116,8702,33331
32118,8800,33063
32092,8740,33165
32100,8721,33220
32137,8737,33151
32165,8744,33237
32176,8809,32976
32164,8777,32978
32128,8746,32927
32096,8738,32964
32068,8706,33027
32056,8701,32589
32040,8763,32774
32024,8745,32896
31996,8747,32796
31880,8781,32887
31928,8749,32613
31936,8740,32695
31944,8730,32634
31922,8790,32669
31929,8737,32684
31925,8719,32512
31944,8725,32553
31976,8727,32657
32030,8740,32390
32077,8799,32507
32116,8767,32623
32104,8749,32188
32136,8729,32441
32188,8773,32526
32232,8795,32433
32264,8706,32439
32293,8716,32131
32308,8779,32292
32344,8785,32186
32324,8765,32293
32404,8771,32390
32452,8738,32335
32488,8828,32301
32469,8765,32301
32489,8719,32293
32552,8707,32159
32604,8711,32165
32613,8787,32231
32613,8754,32247
32614,8754,32003
32596,8743,32152
32624,8740,32171
32621,8775,32193
32612,8721,32063
32654,8709,32093
32692,8703,32157
32644,8863,32145
32725,8787,32036
32758,8789,32047
32745,8779,32007
32732,8778,32093
32764,8740,32196
32741,8881,31893
32780,8765,32004
32800,8737,32073
32812,8743,32005
32792,8722,32065
32796,8733,31787
32788,8823,31885
32796,8815,31673
32824,8782,31823
32828,8779,31933
32856,8735,31854
32892,8833,31689
32912,8730,31933
32889,8715,31694
32908,8845,31751
32916,8781,31855
32953,8766,31583
33000,8757,31665
33060,8765,31576
33004,8752,31525
33024,8812,31591
32956,8749,31546
33004,8751,31623
32921,8723,31367
32974,8785,31428
32982,8768,31489
33060,8793,31075
33104,8766,31185
33097,8903,31174
33056,8796,31220
33056,8770,31303
33072,8750,31005
33092,8733,31040
33092,8729,31029
33144,8881,30983
33160,8800,31090
33164,8797,30663
33165,8775,30722
33200,8777,30749
33236,8773,30673
33205,8804,30825
33252,8762,30572
33240,8739,30668
33341,8779,30674
33380,8759,30519
33332,8761,30564
33336,8837,30661
33352,8793,30420
33348,8783,30467
33372,8844,30527
33389,8779,30269
33364,8762,30311
33348,8751,30215
33305,8740,30228
33220,8820,30236
33292,8799,30199
33308,8794,30292
33276,8789,30001
33284,8845,29975
33304,8800,30183
33380,8856,29931
33332,8812,29976
33310,8782,30037
33324,8767,29893
33288,8756,29803
33261,8830,29786
33320,8799,29813
33352,8829,29804
33338,8828,29506
33228,8788,29709
33237,8845,29703
33277,8821,29527
33264,8774,29604
33245,8782,29692
33300,8761,29447
33220,8781,29602
33216,8867,29504
33228,8842,29393
33262,8822,29377
33208,8819,29417
33221,8781,29505
33222,8771,29411
33164,8810,29256
33210,8784,29287
33216,8777,29366
33208,8782,29492
33169,8794,29081
33317,8863,29287
33324,8850,29247
33288,8814,29294
33256,8787,29360
33232,8774,29153
33212,8791,29244
33150,8774,29313
33152,8805,29188
33149,8794,29122
33164,8797,29140
33152,8810,29237
33068,8852,28909
33124,8827,29106
33100,8795,29261
33132,8890,28957
33144,8811,29058
33168,8796,29205
33158,8782,28974
33212,8861,29042
33188,8827,29183
33207,8817,28951
33140,8857,28997
33092,8812,28991
33102,8853,29119
33060,8808,28881
33084,8782,28967
33112,8842,28943
33088,8824,28876
33148,8805,28886
33140,8879,28761
33116,8857,29017
33104,8835,28629
33121,8887,28711
33093,8832,28981
33116,8871,28786
33124,8832,28837
33100,8828,28903
33101,8810,28791
33056,8816,28863
33052,8903,28531
33044,8868,28682
33072,8852,28882
33046,8901,28604
33020,8888,28871
32993,8854,28724
33041,8832,28647
33040,8806,28613
33024,8940,28577
33005,8877,28629
32964,8863,28695
32980,8868,28836
32989,8864,28703
32964,8866,28745
33032,8887,28597
33040,8851,28660
33023,8841,28596
33006,8825,28640
32974,8834,28573
32976,8850,28708
32944,8937,28448
32920,8932,28567
32898,8915,28605
32908,8903,28677
32928,8863,28698
32968,8845,28653
32988,8927,28607
33008,8879,28677
32964,8861,28700
32957,8887,28711
32936,8876,28761
32950,8883,28709
32892,8951,28673
32960,8935,28520
32928,8908,28641
32924,8869,28597
32981,8860,28628
32906,8857,28632
32888,8853,28663
32877,8867,28624
32913,8933,28719
32892,8916,28716
32884,8915,28737
32909,8924,28854
32864,8877,28565
32880,8864,28689
32876,8908,28805
32852,8867,28722
32824,8862,28615
32812,8940,28813
32792,8919,28708
32740,8930,28674
32728,8916,28679
32688,8902,28697
32690,8945,28815
32745,8935,28565
32780,8900,28679
32760,8897,28803
32772,8886,28711
32792,8884,28783
32856,8903,28679
32912,8912,28586
32984,8921,28580
32964,8914,28542
33005,8974,28639
33060,8973,28671
33088,8927,28733
33060,8911,28665
33044,8905,28720
33044,8932,28414
33077,8914,28546
33112,9075,28604
33140,9021,28648
33120,8925,28565
33089,9052,28623
33072,8901,28581
33016,8890,28591
32932,8886,28602
32928,8906,28508
32960,8919,28503
32948,8919,28601
32940,8934,28598
32968,8951,28634
32948,8931,28548
32952,8919,28597
32972,8964,28725
32964,8906,28351
32952,8895,28614
32977,8899,28559
32976,8905,28724
32984,8922,28596
32964,8937,28669
32940,9004,28592
32925,8991,28493
32929,8987,28572
32952,8970,28585
32980,8953,28669
32976,8939,28543
32952,8921,28474
32937,8946,28477
32824,8957,28391
32566,8976,28559
32256,8948,28423
31912,9053,28442
31640,8981,28493
31436,8947,28560
31132,8908,28623
30856,9050,28590
30696,8939,28703
30785,8936,28343
31360,9079,28448
32444,8997,28482
34025,8975,28452
36001,8992,28363
38432,8944,28679
41228,8934,28349
44364,8986,28552
47652,8948,28519
50660,8956,28521
52888,8956,28481
53388,8974,28516
52244,9183,28444
50548,9081,28476
48532,9041,28495
46156,9014,28451
43480,9023,28591
40932,8972,28717
38608,9029,28357
36588,9005,28547
35064,8983,28383
34108,8995,28594
33564,8997,28629
33080,9066,28770
32637,9023,28457
32320,9008,28564
32100,8969,28616
31908,8953,28679
31718,8945,28835
31554,9005,28704
31349,8996,28750
31085,9003,28628
30804,9007,28631
30560,8995,28559
30352,8992,28710
30216,9022,28902
30112,8981,28844
30018,8963,28805
30010,8951,28752
30020,9027,28861
30040,8991,29029
30068,8987,28761
30080,9045,28878
30120,9021,29081
30132,9006,29031
30168,8988,29106
30180,8967,29075
30232,9015,29043
30285,8967,29021
30309,8974,29151
30348,8975,29125
30384,9015,29208
30372,9005,29214
30400,9003,29209
30416,8996,29206
30481,8984,29290
30508,9034,29388
30536,9010,29381
30561,8968,29524
30598,8962,29663
30620,8974,29373
30632,9025,29636
30600,9009,29486
30628,9000,29670
30632,9099,29727
30676,9047,29746
30722,9015,29812
30776,8975,29953
30817,8976,29931
30868,8976,29959
30904,8988,29860
30936,9005,30169
30976,9061,30274
30993,9029,30278
30976,9029,30459
30960,8991,30117
30980,8973,30417
31004,9080,30383
31036,9015,30532
31028,8983,30709
31052,8993,30587
31056,8996,30800
31044,9000,30709
31084,9009,30692
31135,9006,30742
31168,8995,30596
31164,9039,31005
31172,8983,30703
31189,8975,30937
31209,8996,31014
31256,9006,31156
31273,9006,31084
31264,9014,31162
31301,9073,31157
31332,9033,31308
31317,9037,31237
31304,9020,31288
31352,8992,31249
31360,8980,31220
31368,8987,31318
31396,8999,31375
31444,9022,31313
31473,9033,31423
31481,9037,31169
31469,9028,31475
31512,9119,31211
31548,9069,31500
31608,9060,31537
31632,9054,31588
31638,9027,31574
31644,9041,31517
31653,9068,31716
31652,9076,31623
31685,9068,31781
31710,9058,31672
31737,9062,31604
31772,9025,31567
31812,9005,31429
31824,9004,31819
31840,9011,31689
31856,9021,31495
31836,9039,31796
31852,9076,31909
31912,9075,31807
31952,9062,31814
31992,9053,31694
31988,9028,31748
31996,9015,31727
32012,9069,31891
32020,9041,31879
32000,9050,31969
31992,9044,31911
32011,9146,32007
32004,9111,31927
32008,9091,32047
32032,9061,31924
32036,9036,31937
32060,9020,31688
32072,9090,31862
32108,9066,31828
32105,9068,32031
32112,9067,32017
32076,9091,32132
32056,9094,32000
32048,9081,31972
32040,9052,31939
32040,9043,32013
32065,9092,32007
32048,9066,31860
32032,9055,32002
32021,9041,32077
32024,9055,32144
32016,9127,32100
32014,9089,32054
31968,9079,32047
31948,9073,32094
31953,9039,32146
31992,9028,32165
32028,9030,32007
32052,9090,32248
32100,9063,32164
32160,9079,32254
32172,9063,32285
32192,9070,32308
32208,9125,32447
32228,9103,32336
32228,9084,32425
32285,9076,32353
32356,9042,32359
32368,9040,32204
32320,9069,32245
32300,9071,32157
32354,9061,32253
32404,9134,32427
32532,9077,32396
32580,9077,32321
32608,9064,32297
32616,9057,32377
32626,9028,32417
32576,9029,32481
32560,9104,32527
32597,9084,32449
32656,9097,32335
32652,9090,32406
32617,9073,32484
32608,9058,32612
32628,9046,32473
32644,9034,32512
32676,9031,32373
32716,9079,32463
32813,9084,32580
32838,9092,32225
32788,9089,32391
32760,9081,32455
32733,9144,32468
32694,9105,32580
32676,9067,32196
32708,9047,32344
32760,9173,32494
32764,9080,32447
32820,9084,32407
32840,9069,32353
32860,9079,32406
32900,9084,32460
32924,9137,32424
32884,9091,32412
32873,9071,32346
32892,9050,32417
32929,9040,32461
32936,9046,32349
32928,9063,32328
32936,9135,32370
32925,9134,32398
32924,9120,32493
32978,9099,32384
33012,9101,32412
33033,9066,32340
33060,9054,32295
33049,9116,32327
33056,9101,32291
33100,9099,32343
33140,9091,32140
33152,9116,32363
33160,9097,32044
33173,9095,32383
33180,9148,32301
33180,9110,32463
33172,9081,32133
33164,9071,32447
33136,9071,32311
33129,9077,32436
33132,9090,31999
33152,9115,32376
33156,9108,32276
33176,9103,32409
33176,9091,32279
33188,9086,32357
33246,9069,32214
33276,9058,32282
33288,9065,32218
33328,9073,32106
33295,9087,32348
33248,9099,32231
33244,9177,32337
33262,9160,32221
33240,9157,32231
33220,9141,32193
33228,9066,32101
33244,9061,32086
33276,9061,32164
33281,9076,32161
33272,9181,32129
33241,9111,32190
33224,9170,32111
33247,9142,32082
33306,9150,31776
33288,9123,31973
33256,9087,31941
33204,9096,31974
33174,9069,32117
33156,9079,31940
33153,9157,31780
33164,9171,31695
33192,9228,31999
33220,9180,31837
33236,9163,31941
33264,9115,31575
33264,9097,31637
33214,9087,31655
33136,9073,31636
33141,9085,31573
33144,9147,31622
33128,9137,31550
33092,9114,31503
33108,9187,31519
33129,9141,31591
33176,9145,31429
33197,9181,31148
33157,9134,31343
33140,9139,31063
33080,9149,31415
33020,9145,31014
32984,9167,31177
32961,9149,31097
32976,9144,31112
32992,9108,31143
33053,9094,31069
33109,9166,31105
33152,9138,30995
33148,9125,31043
33108,9111,30749
33060,9141,30727
33025,9129,30751
32984,9129,30663
32972,9125,30682
32956,9112,30638
33021,9101,30618
33092,9189,30612
33108,9153,30623
33108,9127,30591
33092,9123,30696
33053,9110,30533
33037,9191,30503
33028,9145,30381
33044,9163,30359
33032,9153,30300
33020,9107,30324
33004,9099,30282
33028,9089,30269
33032,9090,30256
32992,9212,30276
33008,9183,30268
33005,9180,29949
33040,9191,30129
33032,9159,30152
33006,9140,30151
32989,9136,30177
33000,9099,30004
33032,9096,30020
33036,9097,29981
33060,9111,30008
33036,9183,30111
33048,9196,29984
33020,9191,30015
33000,9190,29944
33005,9188,29999
33012,9162,29677
33068,9164,29828
33093,9156,29731
33100,9101,29895
33120,9108,29850
33104,9120,29927
33044,9133,29591
32994,9271,29746
32992,9227,29732
32965,9261,29831
32956,9114,29565
33021,9103,29925
33080,9099,29816
33097,9132,29722
33076,9140,29746
33028,9148,29807
33012,9137,29780
32992,9141,29790
33016,9153,29828
33025,9147,29729
33048,9135,29749
33104,9136,29589
33064,9147,29988
33008,9181,29858
33061,9203,29777
33080,9131,29940
33104,9141,29876
33088,9262,30048
33084,9231,29935
33076,9134,29893
33022,9124,29834
33023,9107,29892
33012,9102,29860
33024,9101,29769
33032,9116,30144
33080,9130,30068
33080,9146,30175
33054,9210,30125
33024,9205,30089
33010,9200,30039
33012,9175,29941
32993,9181,30273
32948,9179,30140
32912,9172,30045
32900,9186,30299
32910,9134,30356
32896,9148,30308
32912,9158,30257
32932,9151,30341
32904,9145,30318
32880,9133,30510
32877,9122,30655
32837,9110,30294
32788,9114,30721
32724,9125,30636
32725,9137,30751
32736,9152,30713
32714,9157,30678
32720,9158,30727
32768,9164,30702
32800,9166,30908
32836,9135,30900
32856,9131,30948
32884,9145,30860
32893,9191,31015
32940,9138,30951
32956,9150,31188
32997,9159,31116
33036,9171,31095
33052,9156,31172
33058,9136,31260
33050,9125,31280
33036,9122,31389
33040,9118,31325
33008,9129,31317
33022,9144,31457
33012,9164,31519
33009,9172,31593
33000,9196,31578
33042,9178,31637
33064,9158,31616
33068,9157,31651
33092,9148,31684
33100,9159,31588
33132,9157,32047
33100,9152,31952
33080,9164,32134
33117,9171,32058
33118,9170,32033
33124,9159,32109
33120,9145,32257
33104,9135,32409
33148,9125,32339
33176,9129,32364
33188,9140,32389
33152,9237,32493
33157,9227,32588
33178,9217,32608
33096,9201,32647
32972,9191,32700
32736,9173,32889
32436,9156,32647
32148,9155,33133
31888,9157,33073
31668,9173,33207
31361,9212,33155
31153,9242,33087
30988,9255,33489
30900,9261,33389
31268,9233,33492
32168,9217,33479
33634,9186,33519
35465,9185,33500
37708,9186,33457
40432,9222,33915
43420,9246,33852
46488,9271,33844
49116,9294,33900
50708,9290,33732
50460,9307,34244
48940,9269,34173
47004,9240,34369
45120,9227,34316
43268,9228,34463
41496,9245,34396
39888,9255,34257
38133,9271,34695
36424,9292,34663
35300,9293,34665
34717,9298,34961
34332,9277,34887
33920,9191,34900
33373,9187,34903
32984,9244,35109
32784,9241,35169
32602,9225,35391
32416,9241,35311
32240,9241,35431
31985,9235,35124
31757,9220,35612
31546,9225,35250
31355,9194,35689
31196,9188,35385
31076,9187,35761
30936,9192,35927
30816,9204,35908
30725,9217,36036
30689,9241,36018
30732,9239,36117
30744,9235,36141
30744,9218,36317
30729,9193,36247
30720,9198,36383
30724,9207,36335
30728,9209,36374
30733,9226,36397
30768,9230,36464
30784,9254,36543
30828,9239,36273
30872,9228,36765
30912,9222,36663
30936,9195,36713
30972,9194,36487
30988,9211,36933
31012,9216,36956
31048,9254,37112
31072,9282,37020
31084,9272,37204
31112,9257,37186
31144,9259,37335
31180,9247,37272
31180,9244,37348
31200,9243,37277
31222,9238,37127
31276,9220,37495
31284,9249,37555
31296,9287,37527
31300,9283,37589
31348,9257,37498
31368,9243,37679
31382,9224,37469
31428,9209,38008
31462,9203,37911
31482,9201,38021
31508,9207,37943
31512,9227,37959
31536,9243,38100
31572,9257,38109
31608,9273,37957
31618,9257,38301
31604,9278,38151
31580,9214,38060
31564,9332,38247
31568,9199,38268
31592,9205,38463
31608,9227,38271
31632,9258,38145
31680,9264,38468
31720,9257,38090
31720,9239,38245
31732,9226,38317
31758,9210,38407
31720,9203,38405
31728,9207,38555
31732,9212,38398
31752,9262,38342
31776,9281,38551
31808,9284,38397
31828,9305,38404
31845,9310,38252
31824,9235,38375
31870,9222,38407
31883,9220,38303
31876,9230,38140
31876,9283,38437
31912,9238,38228
31952,9255,38223
31969,9259,38159
31980,9254,38250
32004,9249,38151
32029,9238,38260
32036,9225,38118
32060,9236,38104
32068,9230,38025
32072,9261,38019
32076,9297,38033
32092,9323,37873
32112,9263,37835
32144,9267,37837
32168,9253,37788
32231,9247,37732
32280,9241,37783
32268,9277,37679
32272,9218,37815
32292,9227,37636
32300,9262,37269
32300,9317,37671
32319,9260,37472
32308,9261,37426
32340,9259,37377
32352,9247,37362
32357,9253,37230
32364,9236,37316
32360,9240,37414
32367,9267,37190
32400,9281,36981
32424,9290,37195
32436,9294,36871
32408,9319,37249
32388,9296,37077
32359,9269,37117
32319,9270,36871
32266,9289,36975
32217,9221,36836
32165,9241,37018
32111,9265,36739
32104,9321,36840
32081,9342,36886
32076,9327,36720
32065,9268,36585
32036,9252,36732
32029,9239,36469
32030,9226,36759
32008,9228,36615
32044,9237,36541
32056,9252,36495
32084,9259,36240
32092,9274,36629
32088,9273,36460
32088,9362,36556
32132,9347,36423
32144,9347,36359
32161,9229,36295
32184,9236,36324
32204,9255,36199
32224,9301,36375
32224,9387,36124
32234,9381,36206
32264,9337,36331
32312,9317,36117
32328,9357,36102
32345,9236,35974
32372,9224,35881
32398,9223,36077
32400,9229,35663
32440,9246,36103
32460,9261,35933
32476,9272,36043
32469,9284,35871
32452,9282,35805
32452,9284,35719
32484,9285,35538
32488,9263,35709
32504,9257,35375
32508,9271,35796
32532,9285,35639
32536,9312,35591
32556,9347,35501
32572,9277,35580
32564,9267,35544
32568,9259,35456
32568,9270,35487
32596,9264,35559
32624,9261,35436
32640,9271,35375
32660,9286,35373
32664,9318,35365
32696,9331,35334
32688,9327,35276
32709,9300,35287
32744,9309,35127
32756,9303,35214
32729,9330,35243
32716,9234,35055
32748,9253,35159
32740,9271,35199
32749,9308,34999
32760,9332,35079
32772,9413,35121
32784,9274,34908
32796,9259,35012
32780,9253,35053
32800,9254,34903
32788,9272,34711
32832,9297,35017
32836,9325,34884
32832,9372,34957
32852,9284,34821
32868,9285,34879
32880,9280,34763
32892,9263,34823
32876,9252,34676
32833,9241,34604
32828,9239,34513
32805,9252,34556
32828,9263,34492
32841,9281,34241
32860,9284,34511
32880,9285,34525
32872,9280,34608
32844,9272,34460
32870,9274,34439
32884,9273,34367
32853,9268,34335
32832,9278,34256
32809,9292,34335
32852,9310,34468
32854,9303,34289
32864,9318,34221
32840,9309,34219
32808,9302,34175
32796,9311,34382
32788,9291,34250
32802,9275,34372
32840,9280,34222
32860,9279,34325
32888,9313,34210
32908,9317,34125
32924,9305,34128
32900,9281,34128
32886,9271,34021
32892,9255,33836
32908,9247,34159
32932,9245,34100
32894,9255,34084
32900,9343,34055
32892,9342,34039
32906,9354,34000
32833,9380,34018
32832,9347,33996
32846,9337,33915
32844,9333,34180
32852,9252,34082
32876,9250,34046
32884,9260,34068
32864,9273,33991
32848,9284,33953
32828,9294,34036
32800,9295,34132
32788,9287,34018
32792,9274,34164
32812,9261,34037
32848,9361,34160
32864,9319,34023
32876,9333,34151
32904,9346,34031
32940,9355,34064
32957,9365,33975
32972,9354,33952
32960,9341,33945
32940,9314,33948
32926,9285,33892
32908,9276,33716
32904,9283,34035
32892,9278,33999
32916,9293,34161
32916,9309,34031
32918,9317,33975
32900,9303,34036
32894,9294,34151
32869,9282,34029
32854,9265,34119
32828,9255,34015
32828,9256,34027
32836,9270,33967
32837,9281,33927
32792,9381,33873
32800,9351,33935
32848,9335,33887
32880,9313,33933
32876,9314,33895
32901,9277,34001
32901,9291,34004
32904,9292,34116
32880,9289,33969
32896,9321,33829
32908,9343,33903
32932,9361,33839
32948,9351,33948
32933,9338,33933
32924,9307,33988
32908,9287,34119
32936,9269,34015
32908,9273,34087
32918,9279,33717
32924,9299,34119
32924,9318,33780
32912,9325,34007
32896,9353,34028
32904,9321,33991
32908,9301,33927
32900,9287,33868
32860,9284,33693
32848,9276,34031
32830,9295,33966
32796,9303,33916
32852,9321,33685
32928,9327,34127
32932,9351,33957
32928,9348,33895
32908,9331,33985
32937,9327,33957
32956,9293,34045
32948,9285,33945
32980,9294,34032
33000,9309,33924
32937,9437,34036
32900,9391,33718
32877,9394,33981
32912,9393,33861
32912,9427,33841
32916,9406,33793
32929,9298,33676
32868,9300,33684
32900,9302,33789
32936,9314,33920
32960,9331,33773
32972,9350,33797
32948,9364,33631
32944,9368,33724
32964,9367,33865
32958,9356,33703
32933,9337,33679
32933,9335,33564
32940,9350,33495
32960,9386,33740
32925,9402,33629
32864,9416,33721
32809,9413,33609
32764,9386,33639
32758,9365,33572
32756,9342,33597
32726,9349,33449
32736,9333,33476
32740,9344,33396
32737,9361,33233
32720,9383,33498
32694,9380,33429
32736,9397,33348
32734,9376,33392
32720,9378,33581
32720,9385,33412
32740,9351,33404
32789,9365,33367
32844,9373,33085
32892,9385,33429
32980,9411,33372
33034,9442,33263
33044,9477,33279
33080,9383,33216
33056,9365,33428
33036,9363,33261
33013,9356,33175
32980,9375,33209
32936,9373,33205
32956,9391,33284
32984,9402,33109
33046,9418,33063
33028,9428,33045
32988,9442,32789
32921,9377,33159
32884,9359,33039
32860,9351,33045
32912,9348,32980
32913,9364,32896
32924,9382,32772
32932,9389,32684
32936,9423,32983
32952,9422,32799
32980,9453,32597
32992,9381,32853
32976,9380,32556
32896,9383,32541
32852,9357,32477
32832,9382,32364
32820,9394,32685
32778,9405,32489
32758,9423,32423
32784,9444,32358
32796,9456,32148
32740,9381,32450
32644,9371,32292
32472,9359,32287
32209,9359,32173
31905,9375,32047
31612,9409,32095
31380,9416,32084
31156,9422,31945
30900,9426,31965
30660,9439,31959
30556,9439,31861
30956,9433,31744
31884,9464,31823
33356,9433,31919
35153,9442,31759
37337,9389,31777
39942,9512,31693
42936,9484,31701
46084,9485,31604
49120,9474,31714
51516,9471,31544
52429,9444,31552
51520,9456,31495
49880,9467,31450
47964,9483,31433
45976,9505,31420
43672,9454,31340
41316,9456,31284
39036,9455,31196
36928,9447,31171
35304,9444,31420
34274,9417,31020
33701,9409,31396
33148,9404,31245
32673,9407,31359
32336,9435,31221
32096,9442,31109
31928,9489,31263
31740,9437,31022
31584,9433,31148
31358,9415,31280
31042,9400,31127
30748,9392,31181
30524,9388,31056
30316,9395,30969
30198,9413,31073
30136,9447,31072
30074,9444,31185
30061,9452,31056
30072,9457,30887
30092,9476,31169
30045,9405,31009
30028,9386,30893
30032,9390,31071
30030,9419,31038
30056,9443,30940
30070,9474,31061
30156,9429,30999
30217,9445,30854
30260,9459,31052
30308,9442,30963
30321,9453,30752
30301,9443,31066
30328,9442,30983
30360,9445,31055
30369,9409,30937
30396,9424,30767
30416,9434,30919
30460,9441,31097
30517,9434,31038
30540,9414,31040
30607,9407,31036
30652,9415,31070
30752,9415,30893
30741,9443,31183
30716,9501,30929
30745,9422,31076
30724,9435,31052
30721,9451,31063
30798,9455,31085
30856,9443,31107
30884,9464,30957
30972,9527,31115
31010,9386,31076
31008,9431,31141
31016,9428,31129
31012,9469,31047
31048,9440,31271
31085,9437,31147
31116,9452,30976
31144,9455,31191
31184,9409,31050
31194,9396,31143
31160,9408,31233
31136,9429,31091
31110,9435,30865
31148,9446,31168
31182,9486,30996
31237,9487,31043
31213,9437,31039
31192,9428,30860
31181,9430,30980
31218,9423,30879
31237,9442,30767
31304,9481,30865
31326,9415,30941
31348,9436,30763
31332,9464,30511
31364,9461,30776
31364,9473,30655
31381,9471,30663
31396,9461,30524
31424,9477,30332
31448,9407,30583
31516,9403,30407
31524,9417,30416
31524,9571,30310
31550,9444,30364
31580,9446,30180
31592,9445,30111
31617,9431,30041
31624,9414,29918
31649,9399,29889
31681,9403,29725
31694,9405,29719
31704,9415,29764
31710,9431,29744
31692,9448,29636
31708,9452,29559
31733,9449,29461
31800,9458,29231
31836,9434,29559
31860,9458,29355
31872,9449,29310
31852,9460,29210
31824,9474,29132
31830,9485,29106
31877,9503,28927
31868,9445,29153
31888,9433,28972
31852,9426,28847
31862,9433,28807
31848,9441,28804
31845,9437,28903
31860,9459,28724
31880,9480,28740
31880,9421,28489
31892,9436,28383
31876,9437,28655
31892,9433,28484
31908,9421,28477
31934,9408,28417
31956,9395,28197
31960,9418,28294
31952,9431,28382
31936,9477,28256
31924,9421,28067
31836,9434,28189
31820,9443,28322
31816,9428,28165
31836,9434,28193
31844,9426,27990
31838,9446,27974
31826,9455,27955
31866,9386,27852
31896,9402,28191
31968,9430,28053
31998,9435,28115
32008,9454,27961
32045,9479,27775
32110,9404,28018
32140,9390,27970
32174,9386,27865
32200,9385,27819
32268,9402,27771
32276,9447,28063
32268,9402,27895
32276,9413,27815
32281,9430,27952
32328,9442,27902
32336,9470,27789
32356,9380,27918
32400,9378,27879
32445,9375,27773
32489,9416,27897
32508,9377,27879
32548,9407,27738
32568,9452,27854
32588,9477,27853
32592,9455,27994
32572,9383,27845
32576,9375,27899
32584,9367,28014
32604,9351,27695
32602,9390,27949
32644,9391,27782
32688,9426,27927
32696,9478,28017
32732,9400,27937
32740,9402,27875
32749,9393,28090
32748,9393,28012
32728,9415,27925
32724,9354,28018
32728,9355,27853
32772,9373,28221
32809,9382,28130
32808,9400,28227
32848,9421,28219
32868,9420,28218
32844,9431,28145
32921,9410,28088
32972,9407,28476
32993,9407,28374
32961,9350,28233
32972,9367,28589
33042,9391,28460
33054,9418,28474
33036,9412,28482
33048,9419,28482
33028,9442,28829
33013,9427,28759
33032,9357,28894
33023,9471,28829
33025,9357,28708
33052,9367,29055
33064,9379,29013
33072,9407,28903
33068,9409,29047
33120,9424,29140
33140,9441,29060
33120,9365,29302
33176,9351,29268
33204,9347,29231
33176,9367,29469
33176,9417,29351
33196,9457,29233
33229,9392,29588
33216,9396,29487
33228,9406,29421
33216,9388,29654
33236,9401,29617
33242,9406,29743
33244,9405,29689
33208,9350,29655
33192,9362,29669
33225,9373,29655
33213,9387,29753
33232,9394,29727
33200,9385,29932
33216,9370,29785
33230,9359,30059
33252,9348,30111
33248,9343,30245
33229,9351,30205
33226,9361,30244
33272,9372,30304
33220,9389,30499
33238,9419,30404
33244,9397,30437
33236,9387,30460
33216,9383,30501
33244,9377,30495
33240,9391,30535
33256,9389,30623
33268,9412,30605
33316,9426,30721
33272,9413,30887
33281,9424,30815
33326,9435,30924
33281,9433,30844
33321,9434,30853
33316,9411,30915
33294,9447,30893
33308,9342,30995
33312,9355,31057
33352,9362,31033
33380,9378,31039
33405,9385,31140
33382,9380,31268
33364,9457,31190
33368,9352,31219
33320,9369,31301
33292,9363,31286
33321,9340,31184
33340,9349,31353
33340,9373,31100
33344,9391,31504
33364,9416,31413
33360,9428,31357
33320,9429,31395
33336,9351,31292
33348,9336,31606
33376,9332,31524
33396,9339,31433
33405,9353,31372
33421,9365,31709
33416,9399,31611
33372,9413,31634
33345,9377,31672
33312,9370,31660
33268,9375,31796
33256,9364,31420
33228,9357,31860
33216,9400,31678
33248,9351,31500
33265,9370,31892
33281,9402,31797
33261,9416,31732
33238,9439,31827
33236,9433,31679
33230,9451,31933
33200,9396,31887
33226,9403,31933
33208,9413,31637
33220,9412,31893
33212,9425,31751
33222,9426,31881
33180,9429,31893
33160,9431,31952
33132,9361,31903
33136,9347,31999
33168,9335,31781
33160,9349,32196
33176,9374,32068
33220,9428,32069
33216,9359,32056
33208,9373,32024
33216,9388,32166
33196,9430,32103
33196,9363,31879
33182,9362,32269
33204,9354,32140
33164,9385,32095
33172,9382,32111
33168,9485,31925
33169,9357,32366
33140,9367,32247
33124,9369,32389
33092,9381,32276
33088,9385,32233
33068,9369,32173
33094,9393,32295
33120,9319,32244
33105,9333,32193
33140,9356,32072
33144,9402,32453
33089,9367,32300
33080,9372,32121
33061,9390,32519
33048,9366,32388
33049,9382,32545
33057,9387,32429
33052,9319,32439
33040,9331,32311
33012,9349,32458
32996,9373,32586
32976,9425,32468
32980,9360,32379
32948,9372,32559
32925,9393,32404
32876,9335,32500
32858,9332,32573
32865,9326,32492
32888,9343,32461
32916,9355,32581
32984,9405,32572
33000,9355,32494
33032,9356,32669
33061,9353,32575
33102,9355,32708
33124,9345,32626
33165,9321,32740
33168,9319,32647
33156,9328,32677
33183,9381,32519
33200,9333,32469
33192,9357,32717
33168,9366,32703
33156,9375,32815
33142,9381,32671
33149,9320,32452
33156,9307,32623
33136,9303,32686
33096,9313,32809
33108,9335,32509
33104,9348,32831
33124,9369,32713
33132,9366,32775
33140,9359,32807
33141,9362,32879
33166,9339,32733
33160,9335,32903
33140,9325,33063
33072,9316,32983
33061,9333,32934
33068,9357,32901
33036,9359,32775
33032,9390,33102
33032,9404,33065
33016,9328,33061
33032,9311,33031
33044,9311,32884
33044,9310,33360
33024,9337,33233
33020,9357,33268
32976,9391,33257
32873,9439,33347
32700,9344,33325
32389,9341,33406
32034,9331,33389
31673,9313,33457
31428,9303,33447
31196,9297,33504
30956,9302,33166
30740,9309,33453
30652,9324,33565
31034,9332,33557
31982,9338,33710
33448,9358,33588
35256,9346,33593
37512,9363,33484
40212,9351,33561
43340,9343,33536
46648,9341,33620
49840,9349,33662
52360,9404,33658
53500,9476,33664
52688,9369,33693
51048,9366,33741
48985,9355,33620
46740,9350,33713
44100,9361,33745
41496,9346,34014
39104,9366,33927
36980,9364,33961
35369,9362,33710
34312,9377,34020
33684,9373,33965
33185,9379,33989
32712,9397,33926
32376,9322,34242
32172,9329,34137
31956,9318,34305
31732,9338,34225
31532,9365,34275
31248,9429,34223
30932,9333,34245
30696,9337,34261
30484,9334,34240
30280,9328,34295
30116,9316,34177
29976,9325,34599
29912,9315,34493
29889,9303,34638
29878,9315,34580
29888,9341,34663
29881,9348,34631
29920,9343,34740
29942,9356,34700
29953,9358,34711
29956,9358,34720
29988,9289,34724
30012,9279,34840
30044,9308,34884
30102,9313,34836
30126,9307,35043
30145,9316,34916
30180,9343,34903
30190,9359,34868
30200,9307,35079
30218,9295,35207
30240,9282,35113
30272,9275,35137
30320,9287,35164
30353,9319,35276
30433,9344,35452
30484,9313,35346
30532,9318,35333
30564,9345,35417
30580,9324,35476
30604,9307,35487
30614,9332,35588
30600,9272,35693
30660,9273,35644
30696,9293,35644
30720,9330,35647
30760,9321,35631
30804,9353,35866
30844,9311,35877
30836,9311,35889
30852,9304,35829
30844,9321,36000
30848,9267,36087
30852,9283,36079
30852,9333,36079
30908,9299,36092
30936,9321,36308
30948,9329,36208
30926,9349,36215
30942,9358,36213
30948,9284,36103
31008,9284,36447
31016,9279,36281
30973,9296,36279
30988,9369,36412
31020,9285,36357
31064,9302,36372
31088,9319,36237
31088,9334,36276
31096,9308,36324
31132,9341,36404
31129,9269,36421
31125,9260,36327
31118,9281,36351
31148,9289,36468
31192,9319,36304
31192,9380,36265
31208,9303,36230
31196,9309,36287
31184,9305,36359
31192,9311,36223
31216,9262,36197
31240,9255,36167
31236,9255,36205
31222,9268,36084
31212,9290,36028
31220,9319,35973
31244,9333,35920
31277,9316,35888
31316,9304,35669
31341,9278,35847
31372,9260,35715
31404,9282,35559
31452,9267,35716
31516,9292,35653
31552,9323,35669
31604,9429,35556
31640,9303,35373
31668,9319,35453
31645,9320,35429
31589,9275,35020
31548,9264,35325
31513,9282,35109
31496,9285,35020
31528,9349,35116
31548,9285,35161
31577,9324,34999
31616,9325,35047
31637,9351,34855
31644,9417,34766
31672,9272,34674
31708,9265,34384
31757,9274,34752
31802,9287,34577
31781,9322,34463
31782,9282,34512
31780,9299,34431
31825,9315,34392
31832,9317,34197
31824,9314,34221
31780,9321,34331
31748,9263,34138
31760,9262,33986
31760,9279,34029
31796,9277,33671
31841,9306,34055
31872,9338,33858
31872,9367,33743
31865,9291,33855
31870,9310,33669
31872,9320,33351
31836,9252,33695
31840,9266,33525
31857,9285,33423
31870,9335,33321
31937,9271,33118
32008,9279,33375
32034,9317,33319
32080,9324,33237
32132,9343,33121
32166,9259,32959
32232,9247,33127
32276,9263,32774
32284,9253,33117
32308,9284,32692
32348,9311,33031
32373,9270,32911
32398,9271,32956
32392,9280,32802
32404,9293,32887
32416,9259,32451
32444,9281,32804
32428,9227,32617
32440,9223,32679
32468,9258,32485
32472,9263,32413
32456,9321,32578
32476,9269,32345
32484,9283,32239
32504,9284,32229
32500,9300,31971
32532,9329,32213
32580,9349,31810
32578,9212,32026
32594,9234,31716
32612,9261,32076
32602,9270,31895
32633,9291,31922
32652,9292,31791
32668,9275,31717
32676,9264,31663
32696,9243,31545
32693,9250,31558
32692,9274,31524
32724,9311,31583
32748,9305,31429
32788,9255,31374
32777,9255,31180
32768,9256,30999
32788,9249,31105
32788,9233,31074
32772,9219,31102
32748,9240,30970
32768,9231,30964
32804,9246,30868
32836,9290,30752
32816,9360,30701
32812,9256,30916
32892,9271,30723
32876,9281,30813
32842,9267,30558
32864,9361,30300
32864,9208,30624
32854,9213,30420
32866,9234,30265
32927,9265,30307
32952,9305,30237
32980,9322,30205
32964,9255,30044
32965,9244,29953
33000,9224,29940
33028,9212,29855
33012,9208,29823
33000,9209,29733
33032,9237,29656
33008,9247,29586
33000,9267,29557
32998,9285,29463
33044,9262,29303
33052,9254,29280
32999,9257,29280
32972,9270,29242
32970,9257,29119
33001,9264,28903
33020,9287,29206
33048,9311,28999
33060,9247,29105
33084,9251,28909
33072,9255,28982
33076,9273,28619
33072,9243,28621
33045,9224,28679
33049,9227,28654
33032,9260,28672
33008,9364,28533
33048,9236,28405
33064,9263,28340
33072,9285,28297
33068,9281,28360
33112,9288,28097
33112,9269,28187
33118,9272,28136
33096,9334,28079
33056,9209,27992
33045,9228,27988
33072,9251,27991
33064,9277,28026
33108,9265,28045
33140,9270,27815
33120,9254,27881
33092,9271,27791
33080,9262,27863
33065,9248,27927
33084,9248,27823
33044,9244,27662
33060,9247,27697
33082,9266,27740
33120,9315,27816
33096,9246,27661
33094,9261,27773
33118,9247,27634
33108,9245,27527
33080,9245,27476
33068,9273,27525
33056,9210,27472
33076,9221,27537
33092,9237,27632
33124,9241,27324
33148,9259,27514
33136,9261,27317
33133,9237,27436
33088,9236,27241
33112,9253,27373
33112,9249,27316
33080,9242,27399
33140,9257,27453
33156,9257,27295
33140,9269,27405
33128,9271,27277
33120,9265,27353
33120,9246,27297
33084,9230,27378
33012,9231,27397
33016,9217,27374
33052,9223,27492
33060,9234,27389
33076,9259,27452
33057,9282,27396
33064,9303,27396
33068,9229,27361
33080,9206,27308
33015,9195,27282
33052,9188,27317
33056,9330,27425
32988,9199,27511
33012,9208,27463
32992,9224,27605
33012,9228,27476
32940,9234,27441
32932,9280,27632
33048,9237,27328
33014,9215,27433
32988,9197,27466
32996,9215,27592
32952,9196,27732
32992,9203,27404
33008,9347,27615
33008,9259,27688
32972,9247,27551
33009,9251,27689
32989,9235,27562
33006,9190,27731
32952,9182,27708
33012,9183,27693
32984,9246,27857
32994,9252,27510
32968,9255,27718
33000,9247,27786
33088,9247,27647
33052,9239,27524
33040,9205,27623
33016,9189,27671
33032,9181,27761
32960,9182,27892
32957,9195,27558
32980,9206,27757
33032,9218,27667
33000,9224,27759
33024,9229,27757
32880,9216,27727
33032,9209,27823
32992,9196,27673
32964,9189,27600
32964,9188,27650
32932,9195,27647
32952,9212,27718
32929,9226,27663
32924,9239,27678
32925,9238,27736
32884,9319,27731
32856,9286,27604
32804,9259,27662
32789,9292,27620
32800,9197,27623
32709,9207,27631
32820,9251,27639
32824,9257,27620
32804,9300,27540
32864,9388,27655
32889,9275,27612
32890,9362,27638
32960,9211,27682
33017,9202,27682
33084,9199,27687
33100,9207,27663
33164,9224,27723
33264,9239,27828
33295,9247,27797
33273,9253,27758
33228,9247,27855
33244,9255,27911
33244,9234,28007
33100,9228,27969
33164,9220,28033
33175,9236,28019
33181,9261,28163
33156,9269,27833
33124,9271,28068
33136,9273,27936
33173,9258,28117
33172,9254,27990
33216,9229,28175
33224,9229,28254
33152,9210,28305
33246,9212,28230
33273,9217,28265
33245,9230,28287
33240,9239,28345
33216,9237,28397
33220,9227,28415
33257,9214,28431
33200,9198,28532
33340,9321,28626
33212,9191,28569
33189,9296,28676
33324,9275,28738
33296,9281,28775
33316,9273,28913
33173,9248,28660
32948,9251,28772
32650,9223,28671
32302,9203,28957
31984,9198,28714
31805,9191,29025
31572,9204,28887
31233,9233,29152
31148,9226,29071
31128,9235,29217
31528,9240,29116
32482,9238,29092
33940,9232,29189
35648,9205,29167
37832,9208,29096
40460,9228,29020
43396,9348,29402
46504,9208,29296
49280,9226,29228
51264,9353,29310
51584,9247,29198
50388,9241,29511
48628,9246,29391
46792,9228,29341
44828,9223,29348
42732,9211,29252
40712,9226,29620
38649,9246,29525
36792,9259,29534
35436,9259,29521
34680,9272,29403
34136,9271,29551
33684,9285,29621
33172,9333,29427
32893,9197,29812
32640,9191,29735
32448,9277,29868
32268,9283,29784
32078,9282,29933
31848,9279,29820
31571,9294,29876
31284,9282,29871
31182,9271,29861
31009,9261,29839
30857,9249,29830
30724,9238,29883
30688,9216,29908
30623,9217,29984
30608,9225,30113
30572,9239,30009
30589,9253,30132
30556,9245,29997
30580,9235,30068
30580,9209,29877
30594,9212,30023
30616,9197,29860
30594,9199,29974
30676,9211,30114
30578,9239,30229
30652,9234,30141
30760,9254,30285
30789,9229,29901
30772,9213,30159
30741,9217,30047
30864,9213,30208
30892,9188,30008
30840,9197,30278
30916,9209,30004
30912,9231,30340
31000,9239,30040
30968,9245,30380
30993,9246,30089
30996,9219,30488
30956,9203,30231
31030,9182,30384
31060,9176,30445
31068,9301,30334
31096,9239,30449
31148,9228,30566
31140,9231,30206
31230,9251,30373
31264,9225,30309
31288,9214,30373
31304,9196,30425
31286,9199,30405
31333,9196,30392
31328,9208,30445
31344,9210,30663
31352,9239,30306
31396,9235,30437
31440,9239,30353
31448,9225,30396
31416,9219,30493
31444,9217,30548
31528,9193,30436
31502,9197,30290
31460,9203,30396
31500,9215,30417
31540,9242,30500
31574,9237,30612
31588,9233,30319
31592,9237,30438
31576,9237,30235
31584,9220,30284
31548,9196,30451
31575,9193,30375
31576,9194,30495
31564,9204,30319
31580,9222,30401
31578,9235,30292
31588,9232,30297
31604,9226,30120
31604,9348,30196
31580,9237,30132
31572,9219,30220
31572,9192,30084
31584,9189,30076
31580,9209,29952
31612,9281,30005
31572,9247,29844
31636,9255,29980
31597,9226,29624
31614,9303,29803
31740,9264,29900
31712,9225,29511
31700,9203,29575
31728,9217,29703
31768,9223,29647
31800,9222,29633
31808,9238,29550
31837,9235,29525
31812,9284,29262
31804,9256,29319
31846,9223,29364
31856,9209,29349
31852,9212,29270
31852,9202,29168
31832,9214,29212
31802,9338,29286
31832,9269,28943
31837,9273,29050
31876,9244,28977
31895,9244,29033
31848,9216,29108
31940,9196,28702
32024,9195,28831
32048,9200,28781
32044,9215,28813
32048,9229,28837
32032,9244,28771
32065,9249,28868
32086,9243,28715
32064,9292,28788
32015,9284,28415
31998,9256,28565
31964,9260,28351
31944,9258,28498
31928,9254,28532
31964,9255,28503
31909,9257,28568
31916,9271,28204
31892,9247,28468
31876,9229,28267
31900,9215,28373
31932,9255,28225
31968,9217,28306
32020,9218,28263
31996,9251,28118
31976,9250,28269
32064,9255,27961
32056,9254,28228
32036,9263,28121
32116,9243,28076
32184,9220,28060
32172,9201,28025
32202,9199,27985
32204,9201,28073
32269,9312,28011
32296,9292,28041
32304,9303,27809
32316,9239,27958
32264,9231,27724
32268,9274,27876
32368,9232,28024
32366,9203,27653
32332,9218,27749
32328,9203,27744
32356,9209,27724
32352,9224,27712
32420,9235,27756
32464,9287,27877
32472,9287,27770
32468,9257,27826
32445,9220,27575
32544,9211,27697
32552,9194,27804
32562,9190,27710
32572,9279,27681
32512,9277,27594
32540,9276,27671
32544,9254,27761
32541,9249,27699
32552,9238,27645
32545,9209,27574
32548,9214,27639
32532,9193,27597
32520,9191,27677
32524,9204,27753
32560,9221,27681
32548,9297,27733
32588,9300,27474
32592,9307,27796
32588,9281,27671
32605,9343,27685
32592,9197,27639
32612,9242,27726
32616,9222,27687
32540,9235,27684
32633,9257,27669
32716,9275,27684
32712,9270,27672
32708,9264,27572
32708,9233,27649
32701,9216,27732
32728,9224,27663
32737,9208,27783
32752,9215,27655
32804,9208,27497
32764,9328,27534
32768,9294,27517
32758,9311,27409
32764,9288,27642
32784,9268,27567
32798,9239,27718
32780,9210,27559
32740,9217,27560
32720,9199,27344
32757,9212,27519
32776,9276,27444
32812,9252,27540
32832,9239,27548
32842,9351,27422
32868,9248,27500
32884,9236,27414
32856,9194,27393
32844,9197,27436
32824,9201,27364
32828,9267,27423
32885,9251,27381
32848,9252,27429
32824,9249,27527
32792,9238,27423
32836,9268,27341
32868,9239,27280
32877,9225,27441
32908,9231,27409
32924,9256,27200
32932,9269,27476
32924,9254,27170
32879,9262,27322
32884,9240,27177
32892,9235,27479
32879,9319,27385
32848,9271,27282
32820,9231,27276
32836,9224,27244
32828,9221,27233
32856,9221,27126
32876,9231,27469
32884,9236,27343
32864,9240,27157
32876,9234,27244
32872,9289,27265
32868,9236,27313
32904,9202,27418
32892,9197,27279
32862,9342,27169
32872,9257,27196
32888,9243,27269
32920,9241,27338
32928,9239,27263
32912,9301,27329
32861,9249,27129
32876,9227,27268
32880,9200,27183
32868,9188,27278
32868,9193,27265
32864,9209,27264
32860,9343,27244
32884,9348,27300
32845,9294,27244
32816,9293,27284
32824,9281,27228
32881,9245,27308
32924,9222,27249
32934,9212,27266
32912,9213,27277
32925,9229,27268
32920,9239,27207
32917,9261,27540
32884,9268,27451
32852,9239,27588
32880,9224,27271
32888,9283,27413
32862,9250,27501
32853,9212,27561
32824,9227,27652
32840,9218,27453
32876,9230,27541
32900,9389,27669
32928,9336,27694
32948,9313,27772
32956,9285,27758
32964,9251,27866
32980,9243,27735
32964,9212,27883
32937,9210,27968
32904,9322,27847
32908,9281,27997
32904,9268,28167
32884,9257,27920
32920,9253,28050
32928,9287,28237
32960,9247,28220
32970,9225,28193
32980,9206,28233
32984,9287,28359
32953,9269,28396
32896,9261,28466
32876,9264,28633
32841,9260,28594
32828,9258,28727
32850,9303,28575
32856,9285,28756
32832,9279,28833
32814,9263,29004
32808,9231,28713
32844,9231,28960
32857,9313,29191
32864,9288,29137
32856,9293,29245
32836,9257,29187
32821,9300,29317
32812,9247,29309
32809,9220,29414
32820,9299,29515
32820,9272,29716
32776,9249,29390
32764,9253,29687
32804,9262,29675
32824,9317,29822
32820,9299,29876
32785,9265,29940
32788,9251,30128
32789,9229,30116
32792,9216,30200
32772,9220,30245
32693,9337,30196
32628,9318,30273
32624,9293,30372
32724,9279,30561
32760,9261,30594
32788,9308,30564
32772,9253,30662
32732,9229,30801
32692,9220,30980
32640,9292,30943
32614,9285,31116
32604,9280,31074
32638,9297,31253
32632,9269,31111
32568,9267,31231
32504,9306,31443
32476,9268,31426
32508,9244,31636
32576,9247,31570
32660,9229,31524
32688,9319,31645
32688,9302,31781
32716,9282,31814
32792,9274,31869
32812,9347,31993
32816,9275,32117
32816,9243,32039
32888,9228,32199
32896,9303,32332
32880,9257,32253
32868,9263,32423
32860,9258,32531
32864,9326,32511
32836,9287,32632
32871,9285,32702
32888,9254,32539
32897,9337,32793
32824,9303,32911
32817,9286,32980
32822,9269,33158
32868,9255,32974
32868,9290,33049
32824,9293,33187
32820,9272,33217
32828,9278,33332
32810,9293,33453
32725,9273,33647
32680,9246,33609
32668,9226,33685
32712,9372,33717
32724,9277,33884
32718,9285,33527
32700,9277,33878
32745,9281,33636
32748,9291,34141
32708,9268,34046
32704,9259,34087
32708,9229,34156
32720,9225,34281
32680,9235,34260
32572,9337,34375
32344,9296,34327
32000,9292,34333
31680,9290,34267
31420,9274,34391
31184,9267,34488
30896,9303,34572
30721,9275,34433
30548,9248,34543
30564,9258,34547
31156,9256,34601
32340,9263,34567
33933,9277,34662
35800,9348,34749
38008,9308,34556
40636,9299,34841
43524,9253,34572
46476,9243,35013
49008,9244,34919
50496,9352,35041
50126,9346,34948
48704,9356,34917
47016,9336,34915
45440,9363,35055
43692,9322,35143
41692,9401,34913
39768,9326,35063
37732,9297,35143
35888,9279,35108
34585,9268,35207
33912,9282,35169
33505,9381,35000
33012,9362,35469
32588,9323,35205
32308,9316,35387
32072,9284,35493
31881,9269,35438
31704,9323,35552
31484,9283,35548
31180,9283,35716
30922,9269,35612
30750,9276,35647
30632,9346,35591
30540,9306,35693
30417,9291,35653
30300,9321,35684
30216,9287,35716
30130,9254,35714
30120,9281,35728
30136,9275,35841
30132,9258,35815
30104,9335,35950
30116,9307,35879
30196,9301,35967
30304,9289,35556
30368,9279,35974
30376,9310,35922
30380,9264,36060
30404,9252,35901
30432,9307,35959
30478,9277,36143
30528,9284,36012
30548,9288,36172
30576,9348,35692
30632,9345,36217
30624,9316,36098
30628,9282,36263
30649,9267,36136
30688,9268,36268
30716,9256,36152
30784,9263,36342
30844,9274,36223
30872,9350,36311
30885,9333,36213
30928,9314,36188
31024,9303,36189
31064,9284,36180
31050,9281,36287
31069,9250,36381
31064,9257,36272
31076,9326,36184
31144,9302,36327
31188,9321,36327
31212,9301,36452
31168,9296,36359
31153,9345,36496
31144,9315,36370
31164,9310,36351
31184,9268,36375
31196,9259,36495
31260,9272,36325
31300,9312,36215
31348,9311,36327
31396,9308,36319
31460,9348,36436
31508,9316,35949
31502,9276,36244
31496,9294,36376
31464,9291,36212
31424,9261,36067
31428,9323,36204
31460,9319,36116
31480,9312,36220
31520,9303,35847
31525,9301,35896
31488,9385,35955
31532,9340,35925
31588,9299,36015
31616,9276,35877
31607,9293,35967
31630,9281,35780
31712,9289,35778
31800,9316,35629
31800,9311,35557
31804,9308,35488
31816,9297,35438
31812,9380,35401
31772,9318,35404
31796,9286,35359
31862,9282,35338
31857,9298,35252
31880,9301,35290
31884,9305,35109
31880,9311,35123
31908,9307,34766
31988,9417,34933
32048,9331,34859
32064,9284,34857
32085,9274,34900
32084,9267,34624
32128,9396,34661
32141,9327,34744
32155,9329,34409
32164,9310,34516
32150,9317,34569
32134,9381,34085
32104,9314,34309
32112,9285,34415
32137,9264,34061
32152,9276,34183
32144,9418,33871
32164,9355,34137
32204,9359,33857
32196,9330,33998
32238,9328,33972
32200,9303,33969
32192,9325,33881
32236,9304,33813
32188,9271,33846
32168,9271,33936
32176,9301,33590
32216,9344,33673
32216,9345,33687
32196,9328,33685
32184,9343,33695
32192,9318,33621
32148,9287,33687
32129,9275,33471
32132,9382,33479
32093,9295,33627
32120,9313,33348
32125,9321,33356
32112,9311,33369
32132,9317,33380
32168,9453,33362
32184,9330,33308
32176,9280,33381
32236,9271,33359
32268,9265,33223
32292,9321,33287
32320,9309,33393
32334,9313,33287
32348,9324,33306
32436,9333,33013
32489,9305,33130
32504,9291,33158
32529,9349,33173
32584,9296,33257
32580,9289,33212
32576,9257,33201
32616,9268,32893
32664,9285,33083
32720,9409,33127
32705,9365,33145
32737,9369,33143
32744,9325,33151
32748,9285,33068
32813,9287,33103
32808,9272,33135
32812,9255,33274
32852,9263,33143
32896,9279,33188
32932,9293,33099
32964,9361,33086
32953,9308,33183
32972,9292,32927
32948,9268,33052
32964,9256,33072
32952,9281,32855
32984,9282,33031
32950,9279,33018
32949,9296,33119
32948,9283,33220
32980,9294,33148
32992,9298,33255
33004,9343,33065
33032,9295,33167
33052,9258,33140
33064,9249,33119
33101,9310,33193
33124,9273,33109
33120,9300,33114
33140,9289,33183
33156,9295,33317
33180,9297,33206
33188,9345,33271
33212,9347,33105
33209,9327,33106
33256,9299,33160
33300,9286,33192
33268,9281,33311
33273,9297,33222
33260,9290,33216
33280,9299,33076
33302,9356,33225
33338,9302,33216
33316,9301,33219
33312,9262,33229
33332,9260,33092
33356,9310,33255
33352,9291,33233
33372,9295,33309
33373,9324,32959
33369,9303,33103
33380,9302,33229
33384,9290,33252
33396,9280,33383
33420,9366,32986
33440,9354,33145
33409,9333,33194
33389,9330,33223
33376,9343,33215
33364,9439,33244
33352,9443,33239
33364,9359,33332
33364,9317,33389
33327,9311,33209
33341,9271,33261
33304,9258,33321
33310,9261,33346
33325,9268,33447
33340,9290,33436
33348,9298,33461
33336,9363,33425
33352,9348,33480
33336,9324,33576
33354,9296,33543
33316,9281,33697
33284,9285,33500
33304,9297,33455
33336,9283,33562
33348,9292,33627
33356,9307,33676
33356,9317,33687
33340,9323,33737
33324,9336,33676
33308,9325,33702
33312,9292,33797
33320,9275,33912
33332,9272,33845
33360,9283,33867
33358,9297,33832
33317,9311,33837
33324,9324,33893
33328,9325,33990
33340,9405,34000
33365,9355,34074
33349,9331,33812
33352,9295,34032
33354,9315,34160
33352,9312,34124
33381,9309,34199
33344,9321,33909
33312,9333,34174
33300,9329,34005
33268,9389,34113
33232,9374,34204
33216,9357,34183
33248,9344,34093
33290,9344,34236
33308,9318,34348
33320,9324,34407
33336,9329,34567
33304,9407,34399
33308,9362,34520
33305,9356,34518
33296,9308,34703
33292,9435,34439
33324,9336,34624
33316,9313,34717
33276,9316,34695
33244,9315,34729
33252,9391,34790
33261,9353,34624
33260,9356,34807
33240,9327,34957
33240,9311,34895
33240,9296,34980
33240,9293,34866
33241,9295,34684
33232,9306,34853
33240,9317,34946
33232,9399,34908
33240,9403,35017
33217,9398,35113
33233,9371,35253
33208,9342,35173
33176,9330,35222
33164,9299,35144
33124,9301,35219
33140,9350,35420
33170,9339,35084
33193,9366,35327
33177,9341,35309
33176,9343,35340
33164,9335,35335
33148,9396,35388
33184,9356,35526
33216,9341,35431
33188,9342,35447
33164,9335,35523
33168,9341,35580
33140,9364,35559
33144,9375,35647
33140,9375,35591
33128,9353,35632
33140,9335,35629
33140,9328,35623
33168,9327,35621
33140,9312,35391
33112,9326,35844
33124,9326,35780
33120,9337,35880
33096,9351,35831
33040,9343,35980
33000,9333,35864
32944,9388,35844
32932,9359,35679
32960,9327,35831
32933,9340,35847
32916,9316,35815
32864,9328,35888
32860,9343,35940
32848,9421,36071
32852,9397,36037
32877,9361,36141
32864,9357,36041
32856,9319,36045
32924,9305,35812
32984,9324,36261
33036,9333,36137
33068,9334,36293
33093,9358,36176
33124,9359,36320
33124,9358,36202
33153,9349,36373
33124,9362,36215
33112,9334,36228
33112,9323,36266
33104,9340,36262
33120,9331,36284
33100,9345,36322
33068,9372,36296
33000,9381,36287
32989,9390,36324
32998,9358,36255
32982,9334,36311
32996,9316,36076
32984,9313,36456
32996,9307,36088
32957,9446,36326
32964,9404,36351
32984,9487,36652
33041,9406,36505
33020,9420,36677
32982,9397,36263
32960,9391,36682
32937,9376,36565
32944,9358,36644
32964,9356,36596
33000,9353,36768
33042,9348,36643
33020,9372,36817
33012,9377,36681
32974,9362,36731
32900,9352,36354
32774,9334,36841
32585,9325,36359
32348,9459,36797
32032,9384,36407
31736,9370,36789
31521,9361,36484
31258,9358,36758
30966,9364,36898
30696,9369,36829
30570,9413,36944
30924,9387,36847
31916,9358,36975
33444,9343,36847
35312,9351,36908
37636,9348,36560
40335,9348,36815
43388,9370,36876
46660,9386,36984
49688,9396,36876
51804,9413,36847
52176,9398,37055
50880,9393,36919
49080,9395,36904
47185,9393,36879
45192,9388,36937
42910,9407,36813
40657,9444,36957
38496,9468,36988
36564,9470,36871
35168,9385,36998
34340,9368,37095
33786,9351,36967
33320,9342,36949
32856,9341,36999
32536,9349,37118
32284,9362,37015
32074,9371,37047
31916,9373,36991
31740,9374,36721
31502,9371,37220
31244,9370,37060
31004,9372,36863
30829,9375,37141
30678,9380,36759
30508,9394,37252
30417,9412,37134
30310,9365,37127
30256,9373,37093
30252,9374,37089
30212,9365,37048
30192,9349,36816
30248,9342,37076
30296,9329,36865
30324,9331,37317
30386,9343,37187
30356,9359,37242
30344,9380,37229
30296,9377,37208
30344,9374,37169
30400,9365,37213
30460,9363,37276
30508,9359,37199
30588,9332,37351
30632,9333,37255
30676,9334,37397
30700,9348,37289
30692,9367,37367
30732,9433,37101
30760,9413,37295
30770,9380,37381
30752,9365,37373
30784,9350,37520
30836,9350,37356
30868,9381,37505
30896,9396,37417
30940,9428,37572
30944,9399,37375
30964,9389,37452
30974,9390,37528
30972,9369,37485
31017,9354,37612
31061,9356,37183
31060,9331,37424
31088,9325,37474
31080,9332,37452
31096,9339,37497
31140,9362,37447
31168,9380,37548
31156,9377,37645
31140,9368,37541
31157,9367,37628
31200,9342,37565
31240,9338,37681
31280,9330,37557
31286,9348,37664
31276,9387,37476
31287,9345,37508
31284,9355,37570
31348,9354,37347
31340,9365,37440
31328,9361,37493
31301,9348,37379
31353,9340,37443
31412,9328,37320
31428,9334,37393
31420,9354,37212
31425,9366,37237
31388,9367,36776
31392,9367,37062
31424,9356,36773
31418,9343,36943
31432,9318,36940
31464,9303,36855
31488,9310,36918
31520,9379,36750
31553,9381,36813
31580,9404,36581
31577,9375,36391
31588,9381,36137
31614,9373,36260
31678,9361,36324
31696,9334,36316
31789,9326,36055
31812,9338,36124
31829,9353,36029
31836,9371,35903
31801,9391,35889
31792,9394,35945
31797,9386,35743
31812,9385,35646
31828,9365,35572
31848,9350,35526
31858,9331,35437
31872,9348,35431
31896,9353,35281
31904,9340,35359
31885,9356,34812
31916,9422,35132
31916,9399,34823
31912,9374,34868
31900,9355,34909
31904,9334,34780
31948,9324,34652
31981,9324,34502
31982,9332,34263
31980,9353,34575
32020,9356,34166
32000,9369,34399
32004,9374,34055
32020,9362,34276
32016,9357,33847
32038,9392,33973
32042,9343,34085
31992,9332,33959
31940,9334,33911
31936,9351,33612
31929,9414,33735
31952,9398,33876
31936,9375,33493
31945,9360,33759
31928,9357,33565
31908,9333,33487
31912,9318,33415
31884,9321,33397
31878,9432,33345
31960,9339,33360
32000,9487,33245
32044,9428,33326
32063,9397,32828
32056,9380,33212
32092,9362,33031
32120,9355,32885
32144,9327,32864
32180,9339,32860
32236,9319,32823
32245,9328,32893
32288,9339,32718
32356,9483,32775
32412,9400,32631
32417,9337,32460
32432,9326,32511
32405,9314,32459
32392,9304,32426
32388,9301,32243
32389,9431,32193
32421,9373,32328
32473,9377,32229
32520,9369,32272
32570,9358,32118
32588,9365,32209
32597,9352,31729
32560,9313,31844
32540,9319,31919
32533,9296,31927
32540,9305,31599
32556,9380,31674
32580,9390,31634
32556,9377,31687
32568,9352,31764
32600,9350,31312
32648,9319,31505
32670,9300,31525
32654,9294,31446
32656,9292,31394
32636,9299,31408
32644,9377,31436
32656,9374,31316
32652,9350,31217
32688,9341,31183
32724,9325,31225
32748,9371,31329
32764,9352,31175
32784,9325,31237
32764,9302,31103
32784,9312,30983
32800,9319,30932
32788,9347,30923
32768,9326,30945
32757,9333,30859
32780,9346,30782
32781,9321,30624
32808,9317,30897
32813,9335,30847
32840,9320,30912
32844,9312,30598
32888,9307,30582
32912,9321,30607
32928,9326,30525
32926,9340,30471
32932,9322,30524
32932,9325,30479
32964,9298,30412
32916,9307,30501
32872,9291,30525
32860,9287,30325
32888,9305,30383
32936,9334,30235
32964,9310,30243
33001,9315,30137
33010,9308,30373
33000,9289,30151
32992,9277,30215
33028,9269,30272
33020,9263,30215
33008,9339,30281
33024,9309,29908
33028,9311,30123
33052,9324,30037
33056,9307,30111
33036,9375,30226
33044,9349,30100
33020,9316,30205
32972,9286,29806
32989,9308,30180
33004,9324,30052
33081,9339,30118
33076,9332,30024
33080,9315,30125
33086,9324,29749
33044,9307,30128
33036,9286,29991
33056,9270,30073
33044,9261,29970
33016,9257,30022
33020,9384,29967
33052,9342,30089
33056,9356,29956
33024,9356,30081
33016,9345,29941
33026,9322,30026
33008,9293,29736
33033,9295,29895
33056,9258,29897
33076,9252,29927
33044,9259,30068
32996,9323,29786
32990,9300,29887
33061,9302,29959
33084,9320,29925
33054,9282,30027
33104,9271,29786
33116,9312,29792
33104,9279,29900
33080,9255,29953
33071,9273,30077
33061,9256,29769
32984,9368,29953
32972,9317,30069
33002,9315,29803
33052,9278,29839
33057,9264,29839
33041,9238,29852
33022,9230,29906
33052,9222,29917
33076,9232,29774
33100,9247,30031
33062,9300,30010
33049,9276,30048
33012,9281,30167
33020,9274,30058
33008,9246,30168
33045,9233,30063
33016,9283,30033
33004,9257,29986
32996,9236,30087
32992,9249,30017
33028,9260,30034
33020,9273,30080
33008,9256,30120
33004,9246,30284
32984,9317,29997
32966,9278,30149
32972,9245,29964
32984,9223,30140
33000,9240,30092
33016,9247,30144
33028,9237,30213
33012,9251,30161
33017,9278,30226
33033,9257,30269
33016,9255,30335
33016,9218,30022
32970,9197,30356
32932,9199,30167
32968,9263,30301
32993,9282,30397
33024,9290,30372
33028,9295,30489
33020,9288,30383
33016,9254,30509
33020,9237,30431
32992,9232,30557
32980,9197,30313
32936,9187,30375
32904,9202,30402
32944,9266,30470
32956,9243,30545
32912,9242,30540
32888,9246,30607
32870,9238,30561
32852,9234,30532
32832,9207,30559
32802,9188,30596
32792,9246,30642
32808,9247,30736
32796,9245,30432
32764,9234,30709
32784,9249,30701
32793,9240,30852
32800,9233,30727
32800,9223,30855
32786,9231,30741
32812,9207,30763
32848,9213,30720
32868,9208,30757
32882,9225,30821
32992,9239,30940
33032,9232,30621
33064,9241,31014
33084,9253,30907
33108,9270,31043
33160,9188,30974
33125,9173,30914
33120,9169,30877
33117,9173,30936
33100,9190,31055
33070,9198,31077
33068,9208,30851
33017,9234,31189
32982,9220,31135
32992,9218,31165
32972,9220,31176
32976,9224,31265
32972,9225,31179
32976,9254,31151
32972,9183,31129
32840,9338,31192
33012,9270,31248
33017,9243,31388
32996,9211,31342
33008,9196,31494
33001,9202,31367
33010,9183,31519
33004,9183,31412
33062,9169,31412
33056,9173,31418
33014,9185,31385
32993,9201,31453
32929,9212,31489
32864,9212,31644
32960,9238,31507
32920,9256,31444
32736,9150,31468
32456,9149,31285
32248,9176,31668
31933,9191,31552
31509,9189,31524
31497,9199,31456
31292,9202,31326
31064,9224,31674
30869,9225,31516
31016,9219,31468
31676,9142,31679
32904,9134,31537
34577,9140,31404
36624,9163,31605
39072,9197,31412
41872,9212,31514
44928,9245,31599
47804,9365,31396
50028,9329,31400
50624,9162,31432
49456,9157,31200
47676,9165,31341
45780,9258,31368
43916,9263,31319
42276,9263,31365
40516,9279,31375
38812,9285,31151
37152,9191,31565
35572,9178,31427
34704,9157,31510
34352,9146,31367
34012,9143,31301
33508,9160,31267
33154,9167,31109
32972,9207,31381
32808,9218,31312
32658,9221,31253
32444,9194,31201
32252,9170,31255
31969,9148,31234
31736,9140,31223
31576,9147,31298
31440,9154,31035
31232,9170,31426
31152,9202,31265
30916,9219,31148
30948,9212,31151
30892,9224,31100
30904,9140,31113
30924,9204,31074
30937,9167,31111
30976,9155,31178
30980,9159,31031
31008,9178,31140
31056,9189,30991
31073,9201,31092
31152,9222,30919
31168,9209,30829
31188,9184,30868
31201,9172,30865
31188,9156,30823
31208,9160,30745
31253,9113,30681
31296,9177,30719
31368,9184,30661
31420,9205,30623
31481,9137,30844
31453,9138,30735
31512,9124,30831
31508,9110,30695
31504,9165,30786
31564,9153,30663
31628,9143,30738
31648,9162,30628
31628,9159,30749
31592,9161,30585
31636,9172,30703
31640,9162,30577
31678,9172,30668
31660,9149,30554
31704,9137,30641
31693,9126,30517
31700,9127,30600
31785,9138,30481
31824,9149,30565
31805,9163,30439
31784,9188,30489
31804,9202,30377
31792,9211,30305
31821,9098,30269
31844,9087,30223
31840,9081,30260
31852,9090,30143
31864,9094,30357
31872,9113,30214
31920,9132,30245
31956,9130,30159
31956,9124,30172
31964,9114,30092
31940,9095,30146
31941,9082,30044
31868,9195,30085
31858,9125,29857
31946,9114,29887
31972,9129,29703
32000,9134,29846
31989,9145,29736
32026,9119,29756
32045,9108,29788
32060,9093,29692
32032,9081,29640
32036,9078,29543
32064,9200,29551
32102,9149,29662
32088,9133,29268
32081,9133,29353
32091,9137,29444
32077,9135,29431
32036,9118,29514
32069,9115,29355
32124,9105,29308
32056,9084,29268
32172,9095,29275
32180,9095,29357
32149,9111,29225
32134,9121,29190
32108,9116,29049
32125,9115,29093
32156,9201,29166
32181,9164,29087
32208,9146,29201
32204,9199,29024
32176,9144,29023
32180,9150,28980
32145,9165,29025
32143,9157,28935
32144,9135,28765
32157,9117,28894
32196,9173,28859
32192,9133,28797
32232,9091,28708
32196,9092,28791
32192,9074,28622
32192,9086,28641
32252,9104,28727
32181,9154,28764
32249,9143,28570
32264,9114,28660
32264,9100,28529
32208,9153,28675
32184,9127,28590
32190,9104,28617
32140,9087,28465
32046,9090,28319
32050,9094,28400
31996,9110,28611
32005,9111,28484
31986,9105,28593
31936,9229,28494
31936,9156,28581
31930,9170,28453
31932,9134,28387
31944,9069,28232
31936,9132,28423
31940,9115,28532
31936,9129,28319
31970,9205,28294
31968,9155,28397
32014,9118,28517
32036,9085,28140
32028,9082,28228
32036,9077,28191
32088,9071,28293
32100,9086,28479
32124,9081,28097
32128,9092,28232
32221,9099,28213
32268,9097,28164
32260,9085,28209
32308,9066,28288
32320,9057,28409
32316,9049,28031
32332,9050,28181
32378,9059,28316
32360,9074,28241
32365,9086,28279
32380,9095,28112
32396,9086,28098
32385,9073,28154
32349,9065,28167
32332,9052,28215
32321,9044,28166
32342,9044,28014
32372,9141,28049
32412,9133,28148
32420,9124,28279
32428,9125,27991
32430,9120,28079
32484,9093,28112
32480,9066,28143
32442,9065,28002
32461,9029,28212
32533,9100,27903
32533,9081,28121
32540,9073,28271
32572,9065,28007
32566,9075,28153
32568,9135,28280
32553,9108,27985
32549,9072,28127
32584,9050,28224
32592,9044,28167
32541,9051,28244
32501,9041,28095
32548,9057,28187
32576,9126,28103
32568,9123,27999
32612,9124,28095
32624,9120,28101
32616,9092,28196
32592,9060,28275
32544,9058,28022
32637,9050,28167
32620,9064,28155
32632,9068,28216
32613,9101,28223
32628,9088,28037
32676,9077,28101
32710,9060,28111
32677,9046,28149
32673,9109,28287
32692,9084,28200
32696,9081,28317
32680,9061,27956
32708,9069,28139
32708,9094,28073
32724,9101,28135
32720,9100,28063
32700,9076,28087
32684,9060,28121
32656,9060,28093
32704,9071,28017
32668,9051,28128
32677,9065,28191
32684,9077,28151
32692,9093,28159
32692,9092,28153
32700,9092,28197
32764,9088,28031
32804,9044,28143
32768,9119,28231
32708,9075,28149
32696,9050,28263
32689,9054,28167
32680,9077,28289
32656,9079,28167
32668,9083,28124
32668,9075,28052
32644,9061,27950
32636,9042,28177
32622,9033,27960
32633,9028,28295
32600,9095,28185
32640,9097,28327
32672,9072,28055
32688,9089,28263
32712,9085,28076
32692,9088,28341
32677,9071,28238
32700,9060,28349
32696,9021,28217
32692,9132,28143
32705,9092,28057
32685,9090,28248
32708,9090,28023
32712,9081,28295
32700,9075,28009
32684,9068,28285
32652,9047,28087
32664,9135,28117
32681,9076,28308
32670,9039,28263
32673,9039,28317
32698,9030,28162
32654,9041,28281
32644,9122,28389
32672,9109,28055
32644,9071,28141
32676,9071,28290
32676,9044,28278
32706,9012,28198
32716,9084,28205
32677,9070,28278
32668,9046,28356
32696,9061,28039
32684,9059,28224
32668,9058,28393
32657,9050,28061
32717,9036,28236
32733,9085,28343
32752,9044,28265
32744,9016,28377
32696,9006,28141
32684,9010,28252
32692,9026,28263
32713,9037,28117
32718,9104,28219
32716,9072,28351
32680,9046,27980
32657,9048,28085
32672,9015,28215
32632,8995,28193
32652,9004,28171
32623,9047,28206
32668,9053,27979
32676,9035,28052
32706,9111,28173
32680,9097,28177
32689,9060,28295
32647,9046,28003
32660,9008,28141
32692,8998,28223
32701,9025,28180
32704,9073,28197
32708,9103,27983
32788,9078,28060
32748,9071,28098
32741,9064,28073
32760,9047,28085
32720,9040,28211
32712,9005,28283
32676,8995,28221
32644,9060,28128
32612,9061,28159
32632,9042,28267
32648,9061,28409
32648,9044,28277
32668,9039,28403
32698,9027,28105
32696,9064,28284
32692,9012,28475
32676,9002,28255
32664,8995,28356
32680,9068,28508
32692,9055,28415
32660,9044,28373
32609,9057,28349
32628,9036,28471
32644,9081,28363
32644,9051,28406
32652,9027,28495
32660,9030,28654
32640,9007,28559
32609,9001,28489
32585,9021,28521
32573,9036,28515
32548,9040,28611
32508,9112,28718
32466,9095,28865
32432,9078,28775
32404,9063,28866
32424,9022,28781
32484,9029,28636
32492,9011,28831
32536,9021,28992
32576,9039,29007
32596,9118,29159
32624,9110,28853
32662,9084,29087
32704,9031,29244
32732,9015,28971
32744,9001,29217
32772,9054,29447
32804,9028,29300
32812,9047,29401
32813,9035,29422
32848,9106,29630
32864,9057,29447
32840,9025,29608
32804,9040,29629
32812,8999,29831
32780,9055,29671
32740,9013,29835
32709,9008,29804
32704,9127,29933
32708,9095,29959
32704,9093,29959
32708,9076,30020
32730,9044,30135
32706,9031,30228
32706,8999,30127
32764,9052,30365
32746,9011,30377
32744,9022,30383
32764,9019,30421
32764,9029,30575
32736,9102,30703
32716,9086,30455
32724,9057,30756
32676,9015,30895
32640,9003,30884
32640,8997,31017
32632,9045,31020
32618,9044,31157
32580,9063,31143
32528,9047,31277
32396,9052,31261
32100,9060,31247
31764,9053,31282
31448,9032,31367
31212,9003,31425
31024,8994,31537
30785,8995,31605
30600,9004,31709
30412,9022,31724
30621,9088,31811
31369,9065,31879
32628,9054,31916
34321,9048,31956
36400,9041,32012
38856,9027,32095
41696,9022,32136
44800,9041,32228
47804,9011,32341
50292,9025,32387
51356,9045,32423
50624,9239,32476
49056,9159,32497
47260,9118,32588
45484,9069,32673
43416,9058,32735
41240,9024,32951
39160,9028,32866
37116,9103,33004
35408,9105,32991
34244,9112,33155
33608,9095,33089
33128,9077,33310
32616,9063,33232
32233,9045,33252
31969,9021,33257
31802,9029,33285
31652,9030,33351
31512,9028,33204
31316,9026,33643
31142,9032,33606
30900,9041,33807
30668,9037,33703
30440,9028,33796
30260,9012,33751
30152,9000,33836
30069,8991,34021
30084,8993,33949
30064,9102,34065
30040,9081,33719
30041,9090,34132
30056,9114,34137
30061,9028,34119
30061,9023,34175
30118,9101,34197
30120,9055,34164
30152,8989,34109
30160,8987,34525
30201,8997,34398
30253,9006,34391
30277,9016,34381
30276,9030,34397
30324,9029,34478
30412,9017,34598
30456,8999,34681
30480,8989,34369
30516,8982,34901
30554,8980,34792
30600,8991,34884
30653,9003,34855
30668,9016,34980
30696,9023,34935
30716,9030,34902
30732,9036,35079
30749,9012,35011
30732,8996,35129
30780,9001,35109
30832,8999,35264
30877,9009,35132
30912,9023,35119
30956,9049,35140
30980,9064,35040
31012,9085,35332
31004,9077,35079
30994,9114,35439
30976,8991,34972
30936,8982,35357
31000,9072,35258
31080,8987,35495
31116,9023,35413
31164,9041,35452
31220,9054,35369
31280,9066,35137
31292,9066,35583
31280,9044,35431
31216,9015,35549
31196,9003,35397
31172,9012,35421
31192,9016,35283
31221,9026,35388
31272,9047,35516
31326,9057,35361
31358,9039,35269
31320,9037,35321
31352,9033,35311
31356,9026,35310
31338,9029,35103
31349,9042,35216
31388,9060,35237
31421,9080,35052
31468,9028,34772
31468,9030,35149
31464,9036,34999
31470,9023,35014
31466,9008,34922
31537,8997,34899
31584,8991,34793
31614,9044,34745
31600,9048,34391
31540,9047,34521
31486,9048,34510
31500,9069,34562
31512,9060,34455
31601,9088,34511
31668,9071,34356
31756,9048,34311
31737,9035,34189
31772,9027,34137
31769,9043,33991
31768,9058,33812
31824,9068,34009
31884,9069,33596
31852,9084,33973
31820,9084,33799
31836,9071,33806
31896,9060,33668
31885,9046,33719
31876,9055,33543
31812,9124,33441
31782,9083,33382
31852,9084,33391
31872,9082,33268
31901,9094,33205
31912,9074,33153
31940,9050,33089
31993,9021,33071
32032,9009,33084
32044,9009,32983
32040,9025,32981
32024,9047,32853
32032,9044,32887
32033,9060,32732
32036,9071,32645
31996,9064,32546
31960,9077,32636
31926,9009,32718
31832,8998,32548
31792,8999,32630
31736,9005,32461
31694,9015,32509
31704,9049,32340
31780,9054,32342
31836,9059,32309
31916,9046,32292
31933,9023,32252
31924,9004,32358
31924,9005,32189
31992,9010,32062
32064,9025,32063
32104,9028,32081
32168,9052,31980
32180,9062,32012
32208,9086,32116
32244,9082,31962
32264,9073,31832
32324,9064,31956
32352,9083,31892
32329,9081,31879
32352,9075,31788
32364,9069,31715
32372,9032,31883
32400,9039,31747
32392,9039,31687
32445,9031,31533
32453,9021,31394
32472,9022,31719
32488,9002,31333
32504,8997,31597
32516,9005,31310
32538,9015,31692
32568,9026,31511
32544,9037,31592
32548,9037,31250
32564,9142,31424
32600,9015,31461
32608,9012,31481
32600,9005,31423
32592,8996,31509
32572,8998,31388
32586,9012,31367
32644,9024,31310
32636,9115,31383
32658,9092,31341
32681,9085,31290
32744,9064,31204
32756,9062,31071
32754,9061,31428
32788,9069,31284
32822,8993,31133
32864,9019,31180
32880,9029,31015
32880,9063,31360
32862,9083,31152
32884,9067,31308
32876,9057,31298
32860,9055,31364
32864,9068,31309
32904,8989,31337
32928,8999,31186
32945,9038,31287
32934,9032,31415
32885,9061,31260
32858,9075,31225
32895,9090,31384
32956,9071,31316
33000,9076,31293
33004,8982,31232
33020,8983,31328
33004,9005,31356
33045,9019,31309
33060,9025,31335
33094,9025,31293
33072,9023,31239
33102,9023,31212
33080,9028,31353
33096,9024,31256
33080,9000,31329
33096,9026,31381
33096,9081,31373
33116,9002,31337
33104,9020,31102
33088,9023,31383
33076,9026,31398
33072,9042,31373
33060,9033,31319
33068,9007,31406
33088,8993,31367
33116,9014,31558
33150,9016,31485
33116,9059,31407
33120,9083,31483
33096,9090,31535
33056,9097,31628
33060,9130,31534
33084,9004,31349
33092,8991,31717
33080,8988,31559
33048,8977,31487
33076,9012,31795
33080,9033,31682
33088,9034,31704
33088,9057,31684
33060,9080,31767
33040,9079,31824
33040,9065,31812
33040,9062,31821
33077,8989,31742
33036,8983,31909
33030,9020,31950
33048,9019,31870
33032,9039,31803
33057,9060,32135
33060,9050,31859
33088,9057,32188
33110,9052,32117
33092,9028,32219
33108,9049,32229
33106,8978,32185
33112,8990,32337
33076,8999,32351
33071,9022,32341
33069,9056,32453
33062,9085,32480
33060,9077,32463
33062,9047,32445
33084,9038,32543
33097,9042,32792
33088,8979,32655
33093,9007,32775
33116,9029,32805
33089,9035,32789
33092,9063,32929
33084,9041,33095
33064,9032,33037
33034,9027,33075
33034,9036,33004
33036,9035,33180
33040,9041,33301
33032,9051,33159
33004,9045,33268
33015,9052,33393
33017,9079,33460
33045,9087,33412
33032,9085,33661
33010,9063,33620
33000,9052,33580
33012,9049,33736
33016,9105,33772
33004,8988,33887
33044,8999,33828
33053,9015,33799
33040,9025,34020
32968,9022,34055
32988,9049,34015
33012,9025,34301
33024,9027,34201
33028,9023,34196
33044,9033,34285
33040,9031,34209
33026,9019,34396
32997,9029,34264
32968,9050,34413
32960,9025,34439
32927,9016,34500
32992,9000,34495
32980,8988,34812
33000,8980,34805
33008,9042,34980
33044,9031,34894
33020,9039,35059
33034,9078,34951
33028,9019,34870
33010,9117,35052
32996,9020,35145
32980,9006,35293
32976,8994,35233
33000,9131,35285
33016,8976,35230
32993,9100,35100
32988,8997,35540
32992,9014,35457
32996,9023,35455
32974,9023,35428
32936,9013,35509
32940,9004,35623
32928,8997,35652
32912,8982,35852
32918,8975,35697
32952,8987,35583
32960,8998,35945
32940,9022,35871
32936,9044,35793
32936,9029,35943
32896,9025,35911
32886,9010,36132
32824,8997,36024
32775,9109,36028
32716,9035,36132
32740,9018,36186
32780,9031,36068
32789,9061,36263
32800,9071,36248
32844,9066,36333
32852,9076,36224
32868,9057,36524
32912,9016,36421
32997,9023,36580
33037,8996,36422
33078,9023,36201
33092,9022,36676
33118,9032,36538
33132,9047,36333
33121,9040,36772
33120,9036,36555
33100,9023,36711
33080,9029,36703
33093,9006,36784
33112,9000,36813
33100,8999,36767
33062,9025,37020
33008,9033,36905
32992,9036,36913
33012,9039,36939
32988,9037,37020
32944,9025,36985
32916,9010,37077
32884,8999,37087
32960,8999,37253
33030,9011,37092
33040,9020,37200
33021,9041,36900
33013,9060,37335
33006,9045,37263
33052,9039,37213
33096,9026,37488
33053,9020,37308
33008,9033,37383
32968,9025,37543
33012,9041,37325
33020,9037,37095
33020,9039,37631
33012,9049,37519
32928,9057,37503
32749,9046,37579
32480,9036,37593
32160,9144,37660
31792,9067,37591
31500,9068,37469
31317,9025,37709
31072,9035,37804
30912,9051,37661
30700,9123,37806
30792,9129,37660
31468,9116,37709
32673,9107,37777
34352,9100,37764
36388,9058,37380
38932,9048,37913
41862,9074,37781
45088,9113,37816
48304,9155,37767
50936,9164,37852
52276,9079,37837
51612,9089,37613
49936,9076,37937
47982,9071,37756
45988,9063,37844
43848,9157,37991
41704,9137,37908
39654,9117,37893
37568,9125,37943
35916,9124,37970
34860,9127,37861
34242,9114,38023
33804,9107,38028
33292,9112,37975
32812,9106,38191
32504,9111,37940
32256,9041,38089
32056,9056,38038
31884,9183,38232
31688,9147,37999
31452,9209,38116
31188,9153,38162
30976,9061,38293
30784,9096,38157
30604,9086,37931
30464,9087,38185
30384,9165,38334
30284,9051,38124
30278,9065,38185
30224,9069,37942
30233,9070,38264
30240,9080,38208
30264,9084,38166
30292,9054,38207
30341,9060,38117
30357,9083,38237
30381,9085,38343
30392,9047,38103
30372,9061,38253
30368,9085,38268
30396,9100,38327
30436,9093,38385
30428,9101,38183
30484,9095,38321
30480,9086,38356
30488,9079,38247
30516,9088,38365
30560,9072,38428
30608,9081,38245
30650,9093,38399
30696,9094,38429
30685,9087,38461
30740,9072,38404
30766,9067,38420
30781,9057,38567
30820,9028,38492
30862,9033,38551
30872,9042,38564
30880,9064,38509
30862,9083,38150
30873,9067,38484
30916,9109,38628
30960,9077,38605
30989,9041,38756
31010,9033,38631
31020,9120,38719
31104,9077,38636
31156,9057,38791
31160,9066,38650
31124,9079,38701
31128,9069,38601
31113,9194,38598
31112,9055,38724
31101,9037,38263
31076,9033,38527
31124,9028,38242
31144,9033,38725
31161,9045,38562
31221,9059,38350
31289,9063,38631
31290,9073,38495
31316,9140,38615
31334,9125,38421
31368,9094,38495
31384,9065,38369
31400,9046,38463
31420,9070,38279
31416,9072,38333
31480,9080,38135
31520,9101,37949
31568,9109,38103
31581,9116,38023
31569,9119,38079
31577,9108,37486
31600,9097,37894
31616,9096,37781
31612,9111,37692
31616,9117,37503
31596,9132,37444
31572,9149,37486
31588,9222,37442
31628,9082,37398
31680,9071,37204
31735,9061,37173
31772,9047,37060
31800,9046,36788
31844,9124,36974
31874,9106,37028
31921,9111,36852
31942,9124,36783
31936,9153,36840
31924,9146,36636
31936,9136,36600
31928,9128,36413
31964,9115,36324
32006,9121,36327
31984,9127,36249
32008,9139,36210
32024,9140,36095
32022,9151,36057
32008,9235,35789
32000,9093,35854
32004,9117,35762
31968,9089,35709
31976,9088,35591
32016,9085,35647
32040,9105,35487
32084,9120,35388
32104,9139,35188
32133,9154,34916
32118,9141,35163
32122,9129,34933
32092,9119,35055
32024,9079,34636
31956,9067,34985
31872,9061,34532
31805,9063,34833
31750,9084,34652
31777,9100,34500
31776,9118,34583
31780,9121,34518
31777,9130,34304
31836,9189,34489
31841,9076,34256
31844,9085,34239
31858,9064,34279
31862,9072,34115
31887,9080,34097
31921,9089,33988
31940,9097,33861
31956,9113,33993
31953,9100,33813
31944,9085,33671
31952,9071,33549
31972,9064,33622
32012,9061,33584
32026,9057,33412
32064,9065,33343
32120,9087,33260
32165,9157,33137
32164,9156,33279
32188,9153,33228
32194,9183,33100
32214,9066,33159
32214,9061,33031
32236,9065,32901
32224,9055,32780
32220,9072,32577
32228,9097,32954
32240,9109,32764
32268,9125,32669
32296,9114,32497
32301,9096,32493
32336,9091,32654
32361,9088,32151
32388,9096,32540
32428,9119,32331
32444,9070,31996
32465,9082,32371
32488,9092,32162
32504,9108,32046
32544,9127,31957
32502,9103,32021
32420,9100,31929
32381,9111,31913
32420,9056,31867
32420,9061,31569
32405,9074,31900
32452,9093,31668
32560,9120,31455
32632,9117,31637
32644,9099,31605
32646,9116,31554
32620,9087,31476
32597,9085,31382
32597,9069,31287
32612,9091,31127
32656,9095,31429
32684,9111,31302
32736,9126,31228
32740,9135,31154
32704,9113,30965
32696,9106,31284
32688,9101,31087
32684,9095,30868
32700,9099,31151
32733,9104,30982
32732,9111,30925
32718,9125,30855
32688,9143,30583
32692,9154,30887
32724,9121,30748
32752,9114,30684
32784,9095,30424
32796,9101,30785
32852,9091,30618
32856,9071,30612
32856,9082,30517
32877,9095,30586
32900,9101,30446
32909,9123,30208
32871,9129,30467
32832,9123,30279
32832,9122,30311
32836,9094,30281
32852,9081,30009
32864,9078,30263
32916,9097,30108
32896,9118,30047
32856,9160,30199
32845,9180,30060
32864,9169,30154
32896,9139,30012
32869,9104,30047
32833,9086,29942
32860,9104,29775
32904,9136,29935
32933,9087,29895
32932,9098,29815
32912,9108,29703
32919,9119,29572
32900,9122,29909
32864,9127,29793
32896,9117,29716
32876,9091,29635
32879,9087,29477
32864,9092,29811
32856,9104,29483
32858,9130,29703
32876,9144,29436
32856,9124,29574
32864,9121,29565
32877,9119,29501
32868,9092,29629
32870,9127,29605
32888,9109,29516
32896,9095,29573
32936,9102,29597
32993,9124,29711
32960,9129,29573
32920,9134,29660
32916,9135,29300
32957,9111,29508
33006,9093,29334
33012,9081,29603
33072,9076,29541
33076,9093,29575
33026,9119,29445
32972,9121,29367
32908,9136,29460
32848,9147,29525
32852,9163,29633
32817,9167,29518
32848,9099,29383
32900,9082,29628
32964,9076,29525
33044,9087,29639
33053,9098,29540
33040,9129,29658
33004,9145,29561
32928,9125,29614
32872,9119,29311
32894,9105,29678
32928,9093,29334
32927,9079,29599
32916,9076,29399
32945,9082,29479
32952,9097,29537
32964,9163,29647
32973,9185,29644
32956,9183,29679
32916,9166,29828
32886,9160,29728
32900,9163,29772
32968,9164,29769
33031,9167,29892
33066,9150,29821
33102,9230,29891
33048,9176,29853
32988,9250,29931
32988,9189,29905
32978,9185,30052
32945,9176,29959
32929,9157,30084
32936,9164,30012
32952,9143,30088
32977,9140,30076
32996,9156,30205
32985,9171,30111
32976,9167,30215
32948,9155,30052
32924,9164,30145
32896,9168,30232
32902,9213,30383
32912,9166,30319
32912,9077,30368
32948,9073,30357
33016,9089,30343
33052,9110,30319
33036,9139,30385
33032,9151,30356
33054,9149,30428
33048,9145,30421
32976,9136,30509
32960,9135,30595
32972,9145,30572
33008,9076,30575
33005,9088,30727
33024,9106,30887
33040,9122,30521
33012,9146,30959
32980,9123,30871
33028,9121,30967
33062,9140,30799
33064,9132,30717
32993,9151,31094
32956,9158,31049
32969,9154,31218
33028,9168,31124
33032,9228,31059
33020,9185,31064
32960,9157,31047
32929,9139,31263
32948,9150,31321
32961,9153,31450
32993,9071,31264
33016,9074,31405
33052,9089,31593
33024,9094,31484
33019,9112,31669
33024,9121,31587
33004,9117,31737
32993,9106,31632
33008,9111,31800
33008,9109,31585
32962,9103,31863
32876,9098,31524
32848,9111,31889
32885,9127,31893
32894,9163,31845
32892,9188,31857
32916,9233,31743
32944,9106,32069
32980,9101,32073
33032,9108,32216
33040,9094,31845
33081,9099,32311
33136,9111,32203
33200,9129,32304
33222,9139,32284
33200,9141,32343
33180,9132,32135
33232,9109,32289
33245,9097,32511
33232,9142,32471
33220,9128,32467
33228,9095,32479
33248,9124,32529
33208,9138,32529
33144,9139,32514
33134,9129,32623
33136,9122,32673
33128,9109,32725
33109,9095,32789
33125,9086,32809
33120,9085,32818
33141,9095,32821
33148,9125,32976
33148,9124,32970
33156,9153,33074
33156,9181,32948
33148,9189,32840
33080,9114,33231
33200,9096,33097
33200,9113,33061
33204,9095,33090
33156,9098,32895
33124,9126,33340
33188,9151,33255
33180,9183,33285
33120,9207,33287
33144,9189,33372
33028,9177,33348
32754,9177,33412
32433,9166,33375
32060,9151,33439
31772,9149,33428
31521,9155,33561
31318,9179,33456
31116,9183,33519
30920,9189,33462
30998,9151,33639
31509,9137,33520
32592,9129,33569
34161,9129,33543
36021,9109,33705
38404,9112,33575
41196,9148,33750
44260,9187,33630
47388,9240,33624
49980,9138,33536
51428,9150,33420
50920,9156,33849
49316,9154,33734
47388,9173,33695
45464,9173,33927
43516,9201,33764
41696,9205,33757
39966,9231,34015
38104,9229,33919
36420,9213,34116
35260,9213,34023
34600,9197,34197
34124,9185,34096
33640,9167,34229
33108,9144,33964
32780,9129,34062
32557,9140,34039
32396,9163,34254
32256,9181,34055
32074,9166,34191
31872,9157,34277
31612,9150,34353
31397,9147,34367
31200,9117,34454
31050,9131,34541
30904,9119,34502
30780,9135,34624
30696,9156,34565
30640,9159,34719
30612,9176,34508
30624,9157,34500
30608,9159,34436
30592,9145,34516
30608,9104,34684
30642,9101,34711
30627,9100,34892
30672,9181,34512
30669,9167,34767
30732,9185,34911
30804,9186,34873
30805,9179,34985
30793,9175,34755
30829,9153,34991
30852,9160,35014
30884,9156,35129
30944,9225,34895
30980,9110,35132
31000,9152,35116
31012,9153,35122
31022,9160,35180
31005,9170,35351
31020,9158,35239
31024,9140,35268
31072,9118,35311
31100,9134,35401
31165,9137,35399
31184,9168,35286
31221,9178,35428
31256,9195,35503
31296,9198,35540
31326,9209,35439
31352,9164,35647
31340,9168,35520
31344,9191,35817
31380,9107,35438
31376,9174,35810
31380,9146,35880
31388,9163,35889
31414,9176,36036
31424,9191,35925
31472,9187,36031
31468,9179,35597
31513,9175,36043
31565,9135,35708
31584,9136,35959
31604,9111,36145
31600,9126,35648
31632,9133,35925
31624,9149,36032
31636,9212,36028
31622,9191,36095
31636,9176,35847
31645,9149,35965
31644,9128,36132
31637,9119,35999
31628,9131,36007
31652,9138,35895
31688,9137,35945
31724,9150,36087
31752,9227,35735
31756,9204,35906
31722,9171,35928
