ECG,EDA,RR
33000,36680,26098
32936,36671,26116
32880,36670,26073
32797,36701,26113
32712,36711,26157
32720,36708,26234
32820,36711,26332
32852,36711,26325
32924,36708,26276
33060,36701,26337
33060,36689,26402
33020,36685,26413
32964,36688,26441
32892,36708,26528
32829,36710,26631
32856,36727,26696
32928,36720,26725
32980,36725,26712
33084,36719,26742
33172,36703,26777
33148,36708,26849
33076,36700,26911
33025,36705,26960
32969,36713,26978
32924,36733,27054
32972,36738,27170
33032,36743,27244
33052,36740,27263
33060,36719,27321
33132,36719,27304
33137,36711,27369
33104,36717,27415
33060,36709,27484
32996,36735,27559
32944,36743,27608
32964,36766,27650
33056,36756,27708
33104,36740,27749
33148,36743,27893
33204,36739,27918
33182,36724,27942
33088,36708,27987
33040,36701,28048
32978,36719,28089
32908,36756,28133
32968,36772,28167
33020,36774,28244
33072,36764,28324
33120,36759,28318
33180,36743,28363
33172,36733,28431
33120,36739,28440
33045,36735,28524
32984,36733,28591
32869,36764,28593
32864,36788,28645
32884,36783,28699
32924,36782,28717
32945,36780,28757
32996,36759,28848
32961,36751,28896
32924,36753,28950
32896,36757,28987
32896,36764,29015
32816,36785,29055
32806,36800,29112
32868,36797,29153
32900,36806,29194
32937,36786,29246
32944,36780,29332
32904,36779,29348
32800,36773,29400
32756,36783,29452
32672,36807,29471
32617,36783,29561
32652,36812,29609
32756,36816,29653
32872,36821,29694
32992,36812,29758
33100,36806,29812
33132,36802,29860
33152,36796,29910
33104,36800,29959
33062,36818,30018
33030,36822,30084
33052,36837,30137
33110,36837,30196
33192,36836,30248
33244,36832,30305
33252,36815,30367
33209,36819,30432
33124,36810,30485
33044,36820,30550
32925,36829,30576
32840,36836,30660
32929,36843,30720
33008,36855,30790
33068,36855,30880
33088,36836,30938
33128,36828,30998
33120,36820,31068
33092,36812,31135
33080,36821,31164
32988,36815,31253
32940,36823,31310
32932,36868,31382
32932,36864,31471
32968,36838,31580
33032,36852,31655
33076,36846,31682
33012,36844,31807
32920,36832,31891
32860,36829,31933
32846,36847,31991
32780,36866,32088
32752,36871,32176
32792,36880,32292
32848,36884,32368
32920,36871,32436
33008,36856,32516
33000,36845,32588
32980,36850,32683
32940,36852,32759
32928,36868,32832
32886,36884,32935
32928,36896,33012
33064,36903,33095
33116,36893,33107
33156,36885,33181
33165,36892,33287
33140,36865,33415
33052,36871,33469
32972,36871,33561
32856,36903,33637
32700,36911,33671
32648,36924,33748
32577,36929,33884
32412,36927,33951
32100,36916,34024
31800,36919,34106
31318,36916,34183
31048,36918,34268
31180,36931,34358
31644,36932,34449
32353,36946,34409
33528,36956,34502
34832,36945,34669
36184,36938,34757
37916,36924,34817
39784,36901,34900
41624,36876,34901
43488,36861,34997
44576,36869,35183
44864,36885,35213
44356,36911,35305
43360,36921,35428
42124,36933,35416
40736,36932,35466
39696,36928,35672
39000,36929,35759
38384,36922,35828
37768,36922,35908
37196,36933,36028
36512,36924,36113
35828,36956,36196
35316,36973,36231
34917,36983,36349
34456,36983,36453
33980,36964,36434
33560,36964,36492
33028,36956,36608
32444,36964,36805
31884,36970,36823
31332,36996,36944
30856,36999,37057
30608,37011,36983
30440,37012,37193
30356,37017,37308
30376,37007,37383
30420,36994,37412
30396,36995,37532
30336,36993,37615
30304,36998,37691
30286,37013,37653
30232,36999,37697
30257,37015,37755
30296,37040,37884
30352,37043,38012
30424,37025,38116
30504,37020,38080
30520,37015,38206
30480,37023,38128
30413,37031,38212
30392,37047,38438
30380,37061,38428
30448,37053,38542
30508,37046,38645
30596,37066,38575
30636,37063,38805
30704,37045,38773
30704,37047,38942
30648,37041,39023
30648,37055,38919
30613,37062,39023
30568,37072,39101
30573,37091,39220
30676,37092,39385
30748,37095,39404
30848,37092,39505
30967,37072,39400
31000,37061,39566
31006,37062,39720
30964,37077,39729
30900,37084,39746
30868,37100,39857
30904,37110,39878
30968,37124,39977
31048,37085,40076
31148,37074,40166
31272,37084,40037
31280,37097,40263
31229,37093,40352
31200,37092,40417
31192,37109,40489
31148,37127,40500
31208,37128,40468
31280,37143,40580
31344,37148,40660
31388,37141,40735
31468,37127,40583
31492,37119,40664
31492,37127,40740
31508,37122,40953
31512,37147,40991
31484,37156,41035
31556,37164,40952
31669,37173,40996
31776,37175,41088
31893,37159,41152
31996,37155,41161
32038,37144,41177
32044,37144,41189
32068,37156,41223
32096,37175,41181
32112,37191,41200
32184,37195,41279
32300,37191,41217
32416,37202,41280
32500,37175,41316
32622,37191,41123
32644,37182,41310
32650,37165,41367
32660,37180,41309
32640,37193,41358
32596,37208,41157
32664,37225,41368
32813,37220,41296
32878,37225,41339
32960,37217,41125
33040,37204,41178
33052,37204,41364
33049,37203,41296
33020,37207,41275
32969,37220,41300
32932,37249,41108
32980,37220,41196
33044,37244,41255
33068,37255,41173
33144,37246,41223
33188,37245,41005
33133,37225,41235
33032,37199,41149
32917,37207,41094
32824,37252,41157
32708,37269,41177
32660,37277,41164
32664,37287,41151
32660,37285,40932
32672,37268,40943
32693,37255,41124
32616,37255,41094
32524,37263,41063
32448,37267,41040
32388,37265,41071
32328,37285,41091
32320,37309,41074
32373,37304,40910
32372,37283,41023
32388,37289,41019
32438,37287,41040
32401,37279,40820
32352,37280,40967
32320,37273,41060
32293,37292,40967
32232,37317,40997
32248,37319,40774
32324,37326,40920
32404,37321,40997
32485,37313,40916
32556,37268,40931
32549,37289,40941
32528,37295,40711
32500,37284,40697
32472,37315,40684
32472,37312,40692
32508,37338,40812
32576,37335,40849
32620,37332,40791
32664,37325,40777
32752,37290,40769
32740,37293,40703
32673,37303,40645
32644,37301,40669
32612,37317,40444
32582,37341,40455
32644,37356,40607
32688,37343,40439
32728,37326,40414
32800,37327,40420
32864,37311,40398
32885,37317,40388
32817,37308,40148
32760,37319,40137
32718,37343,40135
32665,37359,40228
32708,37370,40216
32768,37371,40144
32808,37356,40109
32904,37346,40005
32940,37341,39943
32944,37324,39989
32864,37334,39940
32764,37345,39898
32720,37353,39882
32670,37372,39822
32726,37372,39737
32794,37365,39709
32840,37368,39661
32889,37366,39686
32912,37356,39681
32884,37348,39655
32812,37352,39644
32756,37356,39619
32700,37368,39599
32664,37383,39564
32701,37401,39545
32744,37405,39540
32821,37399,39524
32856,37383,39516
32950,37373,39327
32925,37341,39349
32896,37371,39364
32848,37364,39447
32789,37383,39481
32716,37405,39477
32736,37405,39405
32793,37412,39422
32797,37415,39431
32888,37369,39428
32948,37383,39246
32952,37383,39244
32946,37383,39236
32944,37383,39270
32896,37404,39383
32868,37426,39302
32908,37428,39293
32952,37414,39317
33032,37413,39320
33084,37427,39173
33124,37407,39180
33100,37412,39257
33037,37405,39268
32988,37412,39253
32948,37428,39278
32900,37443,39256
32900,37452,39238
32964,37449,39208
33008,37449,39121
33068,37446,39109
33129,37433,39089
33164,37427,39081
33120,37423,39125
33104,37437,39145
33068,37451,39068
32973,37460,39093
32996,37465,39077
33052,37476,39068
33116,37445,39070
33180,37471,39063
33252,37444,39061
33232,37455,38884
33148,37447,38897
33108,37449,38876
33085,37465,38884
33036,37479,39023
33052,37488,38984
33112,37494,39005
33152,37489,38981
33156,37485,38940
33222,37470,38872
33200,37460,38868
33106,37461,38876
33052,37470,38855
33013,37484,38885
32914,37497,38917
32916,37511,38900
32980,37511,38900
33013,37501,38745
33056,37470,38740
33120,37455,38726
33112,37463,38725
33072,37473,38725
33064,37485,38733
33008,37492,38764
32928,37505,38796
32932,37535,38879
32980,37527,38918
32988,37519,38901
33056,37511,38851
33120,37505,38865
33084,37495,38903
33008,37501,38937
32948,37500,38959
32884,37509,38987
32793,37532,38990
32816,37543,38916
32862,37542,38919
32932,37548,39000
33000,37530,38989
33108,37527,38980
33116,37506,39056
33008,37511,39069
32900,37511,39077
32836,37535,39073
32740,37543,39138
32712,37556,39168
32720,37558,39107
32748,37567,39137
32784,37557,39148
32916,37511,39230
32956,37536,39297
32957,37529,39273
33004,37536,39284
33024,37558,39308
33052,37569,39365
33124,37575,39370
33210,37579,39380
33248,37572,39405
33312,37556,39365
33380,37557,39329
33376,37552,39429
33380,37545,39452
33364,37558,39461
33280,37569,39462
33156,37587,39295
33141,37580,39327
33144,37591,39420
33112,37564,39519
33120,37559,39527
33192,37551,39540
33208,37556,39554
33148,37559,39535
33108,37571,39456
33048,37573,39392
32972,37597,39468
32968,37599,39476
33029,37596,39583
33077,37596,39589
33148,37584,39596
33216,37576,39636
33188,37575,39620
33132,37562,39624
33116,37565,39638
33060,37580,39565
33000,37598,39632
32964,37607,39661
32992,37615,39520
32992,37617,39524
33036,37603,39580
33100,37581,39647
33096,37575,39730
33072,37572,39786
33041,37583,39796
32972,37596,39780
32933,37604,39820
32988,37606,39768
33056,37620,39844
33088,37601,39726
33133,37609,39778
33140,37594,39884
33108,37584,39917
33048,37589,39997
32984,37596,39991
32942,37607,39926
32932,37622,39974
32977,37623,40010
33024,37620,40060
33012,37601,40065
32982,37607,39903
32936,37605,39943
32761,37599,40016
32473,37599,40076
32032,37613,40079
31504,37631,40144
30968,37655,40177
30574,37668,40168
30664,37669,40110
31172,37663,40132
31830,37671,40213
32912,37624,40245
34228,37629,40253
35712,37613,40287
37380,37600,40297
39232,37584,40324
41408,37609,40145
43932,37607,40196
46448,37591,40228
48096,37580,40327
48732,37575,40406
48264,37552,40324
47028,37559,40409
45560,37556,40420
44110,37570,40438
42840,37594,40468
41661,37613,40327
40808,37631,40335
39664,37628,40381
38252,37639,40495
36992,37626,40604
36072,37624,40612
35236,37624,40530
34384,37620,40597
33652,37631,40636
32940,37639,40664
32232,37663,40508
31672,37669,40711
31105,37655,40668
30656,37639,40676
30364,37670,40728
30120,37660,40752
29920,37639,40764
29764,37653,40583
29648,37669,40744
29572,37675,40805
29504,37692,40797
29533,37653,40693
29596,37692,40756
29652,37688,40806
29724,37671,40604
29784,37669,40701
29756,37661,40765
29696,37669,40748
29704,37663,40704
29692,37624,40767
29688,37703,40784
29744,37660,40804
29852,37671,40825
29892,37681,40821
30000,37671,40661
30064,37673,40820
30064,37668,40896
30042,37671,40881
30056,37668,40867
30024,37686,40900
29988,37691,40879
30060,37703,40831
30132,37713,40903
30178,37710,40931
30276,37681,40742
30360,37678,40967
30380,37676,40881
30372,37671,40957
30372,37687,40794
30344,37668,40996
30336,37701,40967
30424,37711,40839
30540,37674,41069
30584,37708,41061
30640,37705,40893
30732,37686,41073
30756,37679,41041
30740,37650,41120
30700,37684,40967
30672,37693,41180
30636,37704,41159
30700,37716,40999
30821,37715,41189
30886,37725,41265
30952,37689,41142
31040,37692,41256
31064,37687,41095
31024,37689,41197
31008,37692,41284
30981,37681,41268
30964,37672,41327
31012,37730,41151
31081,37731,41318
31192,37722,41343
31324,37679,41312
31420,37692,41373
31452,37698,41193
31416,37695,41397
31384,37661,41269
31384,37704,41377
31386,37711,41208
31465,37729,41415
31588,37737,41341
31680,37722,41381
31792,37723,41180
31908,37716,41360
31948,37701,41391
31944,37700,41277
31996,37703,41364
32030,37710,41153
32000,37727,41220
32084,37735,41397
32212,37749,41277
32328,37732,41348
32399,37724,41375
32504,37716,41197
32548,37685,41404
32548,37708,41364
32517,37709,41335
32485,37716,41382
32468,37741,41175
32540,37741,41220
32664,37714,41426
32792,37741,41320
32881,37725,41233
32960,37725,41247
32992,37700,41462
32976,37711,41404
32920,37703,41449
32824,37730,41244
32768,37741,41287
32796,37752,41492
32840,37755,41389
32868,37748,41456
32877,37733,41489
32894,37722,41520
32808,37724,41319
32668,37724,41400
32580,37727,41427
32556,37743,41508
32460,37753,41497
32404,37746,41529
32468,37753,41605
32468,37749,41485
32504,37739,41607
32513,37703,41385
32484,37715,41485
32428,37708,41645
32356,37720,41580
32277,37723,41620
32220,37741,41636
32264,37749,41661
32356,37748,41676
32416,37745,41477
32472,37727,41468
32536,37711,41520
32520,37707,41621
32476,37701,41732
32432,37702,41615
32396,37724,41729
32352,37732,41544
32409,37734,41576
32488,37724,41659
32497,37735,41787
32568,37711,41829
32636,37702,41745
32604,37669,41596
32558,37684,41668
32532,37695,41832
32504,37703,41808
32492,37721,41848
32508,37710,41870
32548,37727,41885
32600,37719,41938
32676,37697,41777
32724,37692,41983
32716,37682,41916
32688,37685,41957
32648,37684,42028
32620,37696,41920
32600,37700,41844
32622,37723,41863
32668,37709,41879
32701,37672,41901
32768,37693,41953
32820,37682,42031
32824,37676,42184
32765,37665,42260
32788,37671,42244
32746,37693,42176
32718,37703,42268
32716,37705,42327
32768,37703,42132
32836,37689,42394
32828,37672,42313
32896,37671,42404
32880,37661,42413
32800,37652,42247
32724,37639,42332
32684,37661,42405
32648,37681,42482
32652,37696,42539
32728,37696,42473
32740,37693,42524
32792,37673,42581
32873,37668,42570
32900,37647,42367
32824,37630,42480
32745,37653,42592
32704,37665,42663
32656,37684,42695
32700,37676,42731
32782,37681,42639
32801,37691,42743
32868,37671,42772
32948,37659,42549
32952,37637,42593
32892,37639,42828
32852,37608,42740
32792,37653,42817
32716,37677,42852
32752,37679,42620
32848,37683,42788
32896,37669,42881
32948,37663,42812
32996,37649,42873
32976,37639,42649
32916,37629,42886
32900,37639,42833
32848,37640,42851
32768,37665,42864
32792,37663,42725
32896,37677,42796
32974,37668,42812
33016,37671,42553
33032,37639,42578
32973,37598,42759
32896,37625,42740
32828,37631,42672
32808,37639,42695
32807,37663,42700
32862,37671,42631
32948,37678,42663
32984,37661,42663
33032,37658,42423
33140,37613,42631
33136,37625,42541
33064,37629,42605
33028,37637,42359
32960,37607,42580
32856,37647,42446
32876,37660,42488
32968,37656,42529
32964,37654,42274
32982,37639,42374
33040,37607,42476
33020,37599,42476
32964,37615,42409
32956,37628,42345
32880,37628,42349
32856,37636,42365
32876,37639,42323
32896,37652,42297
32924,37639,42284
32948,37633,42187
33008,37620,42229
32997,37615,42244
32926,37608,41989
32905,37613,41985
32813,37625,42110
32764,37653,42072
32788,37639,42071
32840,37639,42077
32869,37633,41803
32932,37628,41820
32960,37615,42006
32972,37604,41976
32933,37609,41828
32892,37605,41861
32832,37589,41860
32745,37628,41597
32744,37637,41654
32792,37637,41774
32844,37637,41644
32886,37587,41697
32956,37612,41479
32960,37592,41664
32908,37591,41572
32888,37600,41566
32812,37594,41556
32760,37621,41316
32784,37628,41284
32828,37633,41443
32852,37625,41460
32892,37599,41368
32936,37597,41385
32898,37589,41177
32824,37589,41132
32764,37588,41132
32684,37596,41178
32612,37618,41216
32620,37631,41268
32704,37628,41254
32769,37612,41119
32766,37617,41163
32784,37592,41163
32704,37584,41135
32648,37578,41117
32668,37588,40887
32634,37606,40860
32602,37607,40881
32656,37604,40967
32760,37620,41025
32893,37605,40961
33006,37606,40869
33108,37584,40911
33096,37581,40900
33028,37574,40663
33000,37572,40702
32908,37581,40709
32860,37602,40815
32890,37600,40774
32976,37613,40636
33096,37607,40671
33149,37604,40671
33135,37560,40461
33088,37572,40445
32981,37565,40424
32917,37565,40540
32856,37575,40551
32805,37589,40437
32840,37565,40273
32860,37605,40376
32865,37600,40358
32929,37580,40354
32980,37535,40144
32928,37560,40173
32897,37546,40175
32860,37548,40148
32812,37573,40216
32756,37582,40108
32796,37566,40125
32813,37580,39941
32864,37583,40037
32916,37568,40021
32936,37549,39893
32900,37549,39940
32836,37545,39919
32805,37544,39719
32732,37525,39869
32689,37572,39743
32720,37583,39783
32792,37583,39621
32860,37572,39700
32888,37548,39712
32916,37542,39636
32856,37535,39559
32784,37535,39633
32709,37543,39442
32628,37540,39593
32588,37563,39543
32640,37565,39457
32704,37573,39489
32760,37567,39480
32816,37549,39313
32864,37542,39396
32813,37494,39365
32742,37521,39332
32697,37497,39313
32613,37543,39344
32444,37556,39357
32346,37567,39183
32223,37565,39164
31956,37567,39176
31552,37571,39149
31128,37557,39145
30676,37548,39284
30588,37506,39223
30984,37548,39268
31558,37549,39175
32476,37566,39117
33829,37575,39268
35376,37548,39204
37088,37540,39228
38932,37529,39071
41124,37496,39128
43588,37472,39224
45992,37456,39196
47656,37447,39236
48336,37453,39240
47828,37464,39079
46632,37479,39101
45368,37489,39256
44080,37492,39188
42932,37484,39236
41880,37476,39273
40960,37471,39099
39696,37477,39279
38104,37484,39277
36712,37489,39261
35604,37511,39236
34772,37526,39288
34036,37509,39153
33430,37524,39277
32836,37511,39276
32209,37508,39319
31536,37500,39172
30868,37501,39299
30400,37511,39252
30020,37527,39311
29668,37548,39352
29444,37558,39268
29396,37535,39272
29413,37540,39361
29484,37543,39292
29504,37525,39268
29506,37505,39337
29444,37508,39209
29433,37508,39256
29405,37524,39310
29380,37540,39148
29426,37543,39273
29516,37551,39191
29566,37543,39120
29676,37502,39206
29761,37505,39257
29796,37502,39283
29756,37491,39261
29746,37508,39124
29736,37511,39207
29708,37522,39231
29748,37532,39084
29828,37540,39248
29884,37541,39168
29972,37532,39228
30084,37500,39076
30120,37497,39190
30084,37501,39212
30093,37502,39175
30094,37511,39196
30064,37519,39197
30110,37535,39104
30188,37524,39081
30228,37535,39120
30280,37519,38959
30393,37508,38964
30436,37491,39008
30408,37469,39053
30420,37492,39089
30408,37496,39055
30356,37511,38955
30428,37521,38976
30492,37527,39007
30576,37518,38828
30640,37509,38821
30717,37495,38940
30740,37487,38964
30692,37471,38895
30668,37484,38876
30680,37492,38903
30656,37511,38741
30693,37521,38825
30768,37484,38887
30852,37521,38829
30952,37493,38759
31032,37497,38825
31040,37481,38663
31024,37479,38743
31024,37447,38773
31012,37488,38699
30984,37508,38686
31072,37511,38695
31188,37519,38524
31297,37511,38543
31424,37495,38556
31520,37490,38567
31552,37474,38567
31532,37469,38476
31512,37479,38407
31548,37495,38407
31560,37506,38372
31684,37511,38367
31813,37509,38341
31918,37511,38151
31988,37495,38114
32085,37477,38175
32146,37479,38135
32140,37471,38119
32152,37472,37948
32132,37481,37991
32117,37503,38004
32216,37503,37895
32332,37509,37863
32392,37503,37828
32521,37493,37796
32656,37477,37786
32692,37475,37749
32660,37463,37563
32644,37471,37524
32600,37493,37529
32542,37511,37582
32568,37508,37484
32644,37511,37485
32679,37508,37447
32712,37501,37404
32768,37455,37221
32724,37471,37303
32664,37476,37220
32556,37474,37241
32456,37481,37102
32344,37498,37090
32348,37503,36977
32358,37509,37067
32332,37493,37029
32319,37479,36870
32312,37470,36908
32224,37466,36871
32093,37471,36848
32052,37476,36807
32012,37487,36789
31964,37492,36629
31980,37493,36708
32025,37507,36687
32052,37495,36593
32068,37476,36582
32152,37464,36575
32136,37468,36459
32116,37452,36372
32052,37457,36497
31997,37461,36439
31936,37485,36297
31968,37476,36329
32028,37487,36359
32100,37476,36302
32184,37477,36289
32276,37460,36284
32320,37441,36167
32276,37443,36132
32244,37445,36064
32188,37445,36188
32164,37468,36129
32192,37469,36024
32276,37468,35975
32342,37447,36063
32397,37441,36008
32498,37430,35988
32496,37428,35989
32470,37416,35879
32448,37415,35805
32420,37433,35888
32368,37448,35900
32396,37463,35823
32496,37455,35807
32536,37452,35789
32608,37437,35807
32660,37416,35660
32629,37401,35685
32561,37407,35727
32516,37408,35692
32477,37412,35607
32444,37447,35530
32420,37445,35629
32528,37438,35596
32564,37428,35621
32636,37419,35468
32686,37407,35564
32612,37383,35519
32516,37383,35566
32437,37398,35460
32416,37397,35409
32392,37421,35416
32456,37421,35510
32508,37417,35469
32568,37420,35492
32640,37408,35407
32716,37404,35374
32724,37353,35453
32688,37383,35468
32650,37383,35495
32548,37361,35453
32484,37404,35468
32500,37415,35495
32576,37408,35412
32616,37414,35487
32680,37402,35514
32796,37377,35517
32760,37377,35564
32712,37347,35596
32704,37356,35519
32676,37367,35536
32608,37405,35556
32656,37407,35541
32716,37405,35573
32728,37403,35585
32770,37383,35701
32816,37372,35747
32824,37335,35724
32780,37359,35754
32710,37359,35780
32704,37383,35804
32664,37399,35841
32686,37404,35767
32704,37401,35744
32740,37396,35743
32817,37381,35813
32904,37360,35860
32932,37365,35904
32916,37353,35824
32888,37361,35821
32888,37381,35821
32868,37383,35829
32892,37359,35844
32988,37383,35917
33024,37383,35911
33060,37376,35940
33076,37361,35945
33044,37351,35956
32950,37342,35868
32888,37348,35903
32828,37367,35952
32768,37382,35945
32788,37351,35967
32840,37382,35822
32884,37381,35847
32956,37373,35943
33016,37357,35881
32992,37356,35902
32896,37316,35904
32844,37345,35812
32832,37359,35828
32808,37370,35869
32816,37375,35857
32876,37350,35806
32908,37375,35844
32968,37373,35835
33048,37351,35687
33024,37348,35660
32945,37335,35774
32904,37328,35732
32869,37349,35711
32772,37364,35706
32804,37365,35708
32856,37369,35599
32916,37370,35591
32956,37357,35598
32989,37339,35640
32976,37329,35573
32868,37332,35556
32804,37333,35591
32742,37343,35583
32688,37353,35537
32709,37367,35540
32744,37367,35534
32756,37367,35530
32785,37359,35519
32901,37330,35398
32916,37321,35343
32872,37327,35396
32844,37332,35399
32832,37335,35436
32789,37325,35384
32844,37356,35376
32924,37358,35412
32974,37349,35282
32992,37348,35265
33044,37322,35296
32996,37311,35356
32912,37319,35322
32892,37320,35180
32829,37327,35277
32756,37340,35278
32789,37354,35238
32868,37357,35233
32904,37341,35229
32980,37324,35235
33036,37323,35106
32992,37280,35152
32910,37311,35173
32880,37312,35068
32852,37321,35108
32764,37332,35127
32776,37346,35012
32836,37349,35077
32892,37311,35047
32944,37304,35018
32952,37317,35021
32912,37285,34981
32816,37303,34975
32760,37304,34983
32692,37316,34961
32644,37336,34840
32724,37340,34911
32832,37332,34900
32909,37333,34805
32948,37316,34766
33008,37316,34860
32976,37281,34823
32853,37292,34701
32797,37300,34812
32757,37318,34769
32677,37334,34792
32732,37335,34646
32772,37334,34652
32820,37324,34732
32920,37318,34716
32948,37311,34680
32876,37303,34695
32772,37300,34567
32708,37293,34582
32652,37306,34646
32568,37319,34601
32552,37335,34581
32617,37337,34584
32592,37332,34567
32637,37297,34514
32677,37311,34540
32684,37313,34513
32657,37297,34452
32640,37303,34507
32632,37305,34456
32598,37332,34480
32736,37335,34343
32896,37334,34415
32988,37300,34413
33048,37311,34391
33076,37303,34321
33056,37299,34270
33008,37299,34361
32988,37283,34326
32960,37301,34310
32928,37319,34308
32929,37320,34241
33020,37326,34214
33040,37326,34165
33056,37309,34149
33104,37296,34159
33092,37281,34192
33020,37300,34177
32968,37277,34191
32888,37305,34156
32772,37320,34132
32777,37325,34112
32845,37323,34124
32848,37322,34120
32896,37314,34030
32964,37303,34001
32960,37252,34001
32973,37276,34015
32964,37287,34010
32900,37297,34031
32820,37308,34021
32832,37317,34028
32885,37319,33989
32900,37309,33985
32960,37302,33996
32996,37303,33927
32972,37273,33876
32884,37273,33861
32856,37283,33960
32773,37292,33935
32668,37284,33893
32661,37315,33848
32700,37309,33919
32756,37314,33940
32796,37287,33928
32852,37283,33845
32860,37269,33908
32816,37271,33924
32780,37273,33906
32744,37295,33919
32684,37301,33866
32704,37312,33870
32744,37310,33925
32800,37308,33895
32836,37300,33917
32892,37277,33820
32842,37282,33888
32734,37262,33910
32652,37277,33917
32548,37279,33869
32378,37301,33844
32237,37295,33924
31988,37319,33924
31601,37330,33903
31238,37319,33911
30872,37304,33925
30672,37309,33927
30936,37301,33912
31540,37295,33936
32416,37302,33833
33580,37318,33848
34928,37321,33925
36508,37309,33936
38158,37290,33927
40040,37269,33917
42316,37245,33925
44624,37213,33926
46360,37209,33958
47188,37204,33852
47040,37220,33847
45980,37245,33929
44680,37237,33912
43440,37271,33916
42384,37265,33943
41416,37255,33924
40632,37247,33932
39568,37243,33857
38092,37244,33840
36740,37255,33881
35726,37271,33889
34916,37287,33900
34228,37299,33877
33576,37302,33868
33020,37295,33889
32449,37307,33788
31888,37299,33757
31285,37289,33743
30740,37273,33740
30360,37285,33751
30016,37307,33776
29716,37306,33780
29644,37335,33744
29652,37335,33741
29684,37326,33664
29728,37319,33596
29774,37309,33592
29745,37265,33637
29704,37271,33615
29696,37265,33569
29676,37297,33529
29676,37321,33459
29753,37318,33413
29876,37330,33475
29968,37327,33429
30016,37318,33415
30065,37302,33409
30093,37295,33295
30016,37289,33308
29964,37273,33332
29916,37302,33287
29864,37303,33304
29920,37331,33220
29989,37324,33219
30068,37306,33249
30210,37312,33206
30292,37300,33185
30340,37284,33172
30308,37295,33108
30300,37300,33063
30296,37311,33076
30288,37319,33096
30368,37319,33097
30465,37317,33053
30556,37332,33057
30600,37319,32998
30668,37287,33012
30648,37293,32995
30652,37285,32984
30632,37295,32985
30584,37310,32911
30584,37327,32884
30676,37332,32920
30760,37338,32944
30836,37337,32918
30924,37319,32914
31032,37293,32910
31044,37277,32911
31009,37292,32828
31036,37297,32809
31044,37316,32807
30998,37317,32791
31084,37336,32797
31176,37341,32796
31272,37334,32813
31348,37319,32818
31432,37284,32797
31440,37295,32816
31432,37295,32781
31444,37301,32765
31468,37317,32743
31481,37317,32733
31520,37340,32720
31616,37347,32709
31701,37330,32701
31844,37327,32621
31972,37311,32567
31996,37300,32584
31988,37303,32568
31989,37318,32564
32012,37317,32558
32052,37330,32529
32160,37341,32485
32292,37340,32480
32414,37341,32423
32456,37332,32377
32552,37308,32375
32584,37308,32391
32608,37307,32354
32628,37316,32329
32600,37326,32322
32584,37339,32312
32640,37353,32228
32760,37335,32268
32848,37330,32245
32968,37340,32223
33080,37305,32207
33084,37300,32191
33060,37300,32185
33044,37284,32175
33028,37302,32172
32936,37312,32108
32972,37321,32087
33068,37346,32091
33082,37345,32104
33117,37315,32112
33132,37316,32093
33080,37313,32050
32988,37303,32028
32917,37313,32063
32824,37321,32079
32696,37343,32077
32632,37336,32007
32608,37353,32063
32588,37340,32036
32560,37351,32045
32532,37325,31988
32462,37316,32032
32348,37285,32042
32252,37295,32028
32196,37324,32036
32172,37333,32007
32132,37355,31979
32188,37324,31980
32193,37357,31980
32244,37334,32005
32356,37317,32047
32332,37303,32032
32256,37308,32037
32202,37317,32063
32162,37323,31995
32152,37329,32060
32188,37348,32076
32252,37347,32079
32342,37340,32091
32393,37320,32052
32456,37309,32054
32420,37309,32060
32388,37303,32100
32364,37292,32143
32325,37310,32132
32309,37321,32145
32364,37332,32108
32436,37332,32124
32524,37327,32176
32580,37318,32183
32600,37296,32199
32576,37279,32141
32536,37280,32215
32512,37284,32220
32476,37296,32236
32420,37318,32193
32472,37321,32231
32568,37318,32261
32584,37313,32287
32653,37308,32292
32672,37285,32276
32680,37281,32292
32644,37279,32308
32641,37252,32317
32601,37289,32325
32560,37313,32332
32584,37308,32295
32673,37308,32284
32712,37311,32321
32757,37303,32359
32796,37272,32351
32760,37271,32356
32704,37266,32356
32640,37277,32324
32596,37291,32303
32536,37295,32372
32576,37285,32358
32668,37276,32380
32740,37263,32356
32789,37277,32343
32842,37264,32400
32784,37267,32393
32780,37255,32396
32760,37247,32404
32716,37271,32375
32652,37277,32380
32684,37292,32433
32709,37289,32442
32752,37289,32384
32800,37275,32461
32856,37252,32457
32832,37255,32484
32783,37244,32429
32757,37263,32444
32704,37271,32505
32650,37284,32501
32680,37284,32512
32752,37284,32487
32808,37253,32473
32872,37279,32528
32920,37249,32548
32928,37255,32561
32900,37253,32500
32864,37255,32519
32832,37253,32519
32800,37271,32519
32844,37284,32532
32932,37276,32582
32968,37276,32603
32996,37261,32596
33060,37255,32565
33040,37247,32537
32964,37245,32540
32896,37255,32564
32817,37255,32556
32756,37264,32574
32792,37272,32628
32852,37283,32612
32916,37273,32605
32992,37255,32620
33092,37249,32581
33112,37244,32555
33080,37229,32568
33056,37231,32577
33016,37253,32566
32956,37255,32583
32968,37271,32623
33028,37268,32600
33112,37264,32613
33172,37253,32621
33200,37247,32556
33136,37236,32527
33068,37230,32536
32988,37236,32587
32912,37249,32583
32860,37255,32580
32872,37239,32543
32924,37271,32558
33001,37269,32524
33096,37223,32524
33172,37208,32519
33144,37225,32523
33064,37229,32516
32984,37229,32501
32904,37238,32497
32825,37255,32492
32854,37261,32491
32924,37263,32412
32960,37254,32412
32968,37249,32457
32985,37231,32444
32940,37223,32421
32905,37218,32423
32912,37237,32420
32924,37244,32381
32952,37252,32343
32974,37253,32344
33008,37247,32366
33049,37253,32386
33128,37231,32372
33210,37221,32356
33184,37223,32369
33125,37215,32359
33068,37209,32300
33002,37231,32328
32912,37245,32341
32908,37252,32316
32964,37223,32329
32992,37250,32260
33040,37221,32258
33088,37220,32263
33084,37207,32308
33024,37204,32300
33000,37207,32287
32992,37220,32297
32928,37239,32239
32936,37249,32281
32982,37231,32279
33012,37228,32268
33080,37231,32250
33100,37188,32263
33052,37207,32257
32952,37192,32199
32940,37199,32192
32868,37207,32176
32809,37204,32182
32909,37220,32204
32900,37223,32212
32933,37201,32198
32976,37190,32177
33056,37204,32183
32972,37199,32108
32884,37197,32117
32820,37197,32135
32768,37223,32144
32708,37228,32119
32728,37228,32118
32768,37229,32103
32788,37228,32086
32844,37209,32093
32944,37191,32023
32988,37184,32060
32960,37191,32073
32944,37196,32044
32880,37191,32046
32780,37219,32044
32824,37215,32012
32964,37218,32016
33036,37217,32007
33153,37207,31967
33200,37199,31940
33166,37177,31972
33092,37167,31986
33012,37183,31972
32953,37171,31964
32842,37205,31932
32860,37213,31909
32913,37204,31901
32944,37191,31913
32956,37207,31919
33048,37184,31941
32996,37181,31921
32932,37181,31906
32860,37185,31908
32784,37197,31908
32704,37213,31911
32662,37218,31896
32696,37221,31893
32664,37221,31888
32692,37198,31895
32680,37182,31865
32612,37180,31860
32576,37169,31860
32588,37183,31852
32584,37191,31881
32612,37192,31870
32684,37208,31879
32792,37204,31888
32916,37200,31841
33060,37205,31876
33133,37167,31884
33129,37169,31893
33060,37166,31895
33029,37175,31855
32992,37187,31845
32964,37196,31879
33070,37204,31905
33212,37212,31902
33241,37209,31858
33278,37191,31873
33284,37164,31938
33184,37173,31927
33024,37167,31937
32925,37161,31925
32844,37181,31913
32802,37184,31963
32876,37172,31969
32952,37165,31973
33017,37177,31936
33089,37183,31964
33132,37163,32005
33092,37153,31990
33044,37157,32007
32984,37159,31976
32896,37172,32027
32856,37183,32036
32876,37151,32005
32948,37183,32033
32944,37175,32053
32980,37161,32058
32996,37151,32077
32982,37148,32040
32888,37143,32032
32848,37151,32093
32816,37153,32079
32876,37175,32095
32960,37167,32063
33032,37179,32046
33088,37168,32121
33156,37172,32119
33184,37149,32116
33128,37097,32132
33021,37116,32093
32946,37127,32132
32908,37143,32156
32828,37157,32149
32858,37172,32173
32932,37171,32175
32909,37165,32157
32956,37148,32164
33004,37127,32206
32992,37127,32221
32884,37123,32231
32824,37127,32212
32752,37148,32221
32636,37157,32284
32604,37172,32287
32508,37159,32317
32336,37157,32293
32048,37157,32293
31734,37144,32345
31320,37133,32383
30976,37140,32418
31028,37149,32435
31468,37119,32454
32096,37163,32485
33200,37164,32506
34492,37165,32468
35828,37152,32517
37400,37116,32590
39140,37100,32593
41028,37072,32641
43204,37061,32624
45104,37057,32676
46220,37060,32686
46520,37061,32725
45900,37076,32717
44736,37081,32704
43460,37084,32735
42318,37084,32812
41481,37070,32845
40596,37068,32857
39744,37073,32817
38474,37084,32837
37108,37092,32897
35937,37119,32941
35182,37127,32961
34588,37132,32980
33988,37126,33003
33452,37110,32994
32932,37111,33015
32348,37095,33031
31752,37095,33068
31196,37103,33005
30768,37127,33013
30408,37143,33092
30196,37140,33087
30140,37135,33092
30128,37144,33104
30116,37127,33117
30181,37120,33122
30120,37105,33058
30053,37109,33028
30000,37117,33108
29929,37100,33107
29864,37140,33098
29900,37148,33025
30052,37119,33071
30140,37141,33072
30218,37124,33081
30300,37113,33071
30316,37102,33023
30256,37095,32999
30176,37111,33051
30156,37119,33036
30116,37127,33053
30168,37149,32988
30236,37135,32985
30308,37140,32997
30384,37127,33021
30464,37108,32980
30456,37093,33025
30420,37108,33007
30412,37103,33008
30496,37116,33023
30457,37092,32938
30484,37127,32972
30536,37141,32982
30572,37092,32920
30644,37111,32988
30732,37097,32973
30796,37095,32948
30792,37089,32978
30840,37094,32967
30840,37104,32929
30765,37101,32919
30832,37127,32984
30917,37127,32974
30988,37119,32984
31076,37109,32944
31148,37084,32968
31124,37092,32985
31116,37084,32977
31172,37093,32980
31116,37111,32956
31089,37086,32988
31124,37127,33002
31264,37127,32950
31304,37119,33030
31444,37117,33024
31520,37098,32962
31532,37079,33020
31516,37078,33045
31492,37064,33031
31456,37088,33028
31444,37116,32960
31504,37108,33008
31656,37111,33015
31822,37110,32932
31980,37096,32983
32086,37084,32992
32132,37072,32922
32144,37072,32937
32200,37085,32895
32208,37057,32927
32204,37103,32903
32249,37119,32813
32404,37085,32854
32472,37103,32837
32549,37103,32807
32701,37079,32797
32736,37074,32712
32688,37071,32721
32716,37072,32708
32776,37087,32621
32776,37105,32638
32832,37085,32625
32932,37101,32593
32976,37101,32576
33080,37093,32485
33188,37087,32500
33172,37077,32478
33112,37047,32393
33096,37071,32423
33037,37079,32382
32988,37072,32300
33088,37101,32314
33196,37119,32280
33264,37106,32252
33352,37055,32172
33384,37077,32156
33328,37069,32158
33204,37079,32127
33120,37036,32051
33028,37076,32016
32848,37090,32030
32788,37109,31981
32796,37072,31924
32805,37105,31889
32813,37093,31905
32870,37068,31864
32772,37039,31821
32628,37055,31777
32526,37071,31790
32444,37089,31764
32332,37071,31692
32266,37109,31716
32249,37101,31681
32268,37100,31664
32308,37056,31606
32365,37060,31607
32328,37053,31589
32268,37052,31561
32216,37066,31549
32208,37073,31497
32089,37084,31501
32088,37093,31491
32188,37095,31441
32246,37095,31428
32284,37076,31436
32324,37039,31405
32317,37046,31391
32256,37039,31356
32221,37059,31333
32228,37072,31340
32216,37065,31328
32304,37077,31310
32388,37084,31293
32461,37076,31263
32529,37059,31246
32612,37028,31260
32604,37024,31228
32560,37030,31229
32544,37028,31190
32524,37028,31176
32432,37044,31194
32444,37054,31183
32505,37063,31165
32532,37054,31151
32628,37038,31139
32752,37028,31111
32721,37021,31126
32644,37011,31107
32636,37023,31085
32628,37039,31092
32612,37047,31089
32636,37054,31074
32704,37028,31067
32732,37030,31079
32800,37031,31065
32808,37004,31064
32752,37011,31037
32690,36985,31061
32629,36996,31044
32696,37013,31025
32670,37024,31044
32680,37039,31046
32724,37039,31043
32813,36992,31054
32848,37008,31039
32904,36997,31039
32884,36990,31055
32836,36995,31069
32800,36990,31044
32761,36994,31090
32672,37004,31097
32652,37016,31111
32712,37025,31100
32724,36999,31140
32756,36980,31156
32798,36982,31156
32796,36983,31196
32816,36981,31206
32832,36977,31209
32804,36984,31239
32790,36988,31270
32814,37011,31294
32888,37009,31296
32904,37007,31313
32980,36999,31362
33028,36951,31375
32952,36962,31367
32856,36967,31429
32788,36963,31425
32744,36988,31457
32704,37010,31445
32772,36998,31492
32812,37007,31509
32880,36994,31517
32980,36996,31524
33024,36965,31575
32976,36972,31577
32913,36961,31590
32880,36934,31591
32848,36977,31610
32840,36981,31637
32876,36999,31604
32952,36988,31670
32936,36990,31661
32964,36975,31645
33041,36941,31671
33060,36944,31708
33038,36949,31712
33048,36956,31733
33020,36957,31702
33008,36972,31708
33104,36976,31772
33156,36988,31769
33129,36982,31791
33144,36975,31740
33160,36965,31812
33135,36919,31813
33060,36944,31808
33040,36941,31828
33020,36964,31823
32984,36965,31838
33000,36973,31863
33048,36951,31872
33016,36973,31862
33100,36959,31885
33132,36948,31845
33104,36919,31905
33020,36935,31919
33072,36932,31893
33052,36940,31924
32968,36960,31919
33028,36975,31902
33120,36940,31965
33100,36959,31963
33110,36953,31948
33196,36935,31985
33132,36927,32005
33124,36919,32023
33092,36920,31986
33037,36943,32033
32957,36943,32055
32924,36956,32069
33000,36937,32009
33092,36951,32090
33172,36940,32079
33256,36929,32060
33228,36923,32086
33116,36900,32119
33016,36919,32124
32924,36943,32088
32868,36946,32124
32906,36957,32146
33000,36923,32133
33056,36944,32131
33104,36935,32185
33184,36924,32190
33184,36926,32200
33124,36906,32164
33048,36909,32217
32972,36901,32228
32877,36935,32206
32880,36949,32256
32936,36951,32263
33004,36935,32237
33044,36925,32271
33054,36877,32292
33028,36903,32300
32956,36900,32273
32936,36897,32284
32916,36908,32334
32900,36917,32348
32902,36934,32320
32952,36940,32349
33012,36929,32316
33063,36922,32383
33120,36909,32375
33085,36879,32356
33060,36895,32377
33024,36894,32412
32972,36896,32396
32928,36918,32416
32972,36935,32416
33004,36910,32365
33044,36920,32420
33096,36897,32421
33104,36893,32397
33116,36881,32372
33060,36871,32373
33025,36881,32432
32940,36885,32423
32852,36913,32427
32854,36910,32389
32876,36916,32431
32916,36909,32417
32948,36916,32376
32980,36889,32388
32957,36863,32422
32980,36878,32417
32996,36871,32356
32936,36893,32364
32836,36916,32406
32832,36909,32391
32852,36900,32345
32864,36909,32381
32928,36891,32369
33000,36892,32341
32968,36861,32330
32873,36870,32340
32824,36871,32278
32784,36871,32335
32768,36903,32345
32770,36917,32273
32800,36908,32324
32820,36911,32303
32928,36884,32263
33000,36862,32263
32984,36861,32273
32924,36871,32205
32964,36871,32265
33012,36848,32248
33024,36903,32192
33076,36900,32245
33132,36913,32226
33114,36904,32189
33176,36904,32199
33228,36881,32190
33224,36871,32192
33220,36871,32143
33248,36868,32168
33204,36871,32173
33124,36886,32119
33076,36894,32149
33076,36901,32134
33076,36887,32085
33100,36871,32133
33148,36871,32112
33136,36859,32058
33032,36860,32110
33012,36846,32077
32964,36864,32056
32900,36887,32036
32957,36887,32084
33013,36861,32053
33065,36887,31992
33117,36869,32045
33140,36861,31992
33060,36847,31981
32976,36828,31990
32916,36839,32000
32896,36861,31932
32868,36871,31961
32884,36871,31952
32960,36887,31940
33044,36884,31937
33054,36868,31916
33104,36853,31861
33060,36828,31836
32996,36832,31879
32937,36835,31847
32872,36842,31846
32832,36865,31789
32876,36870,31799
32972,36871,31790
33044,36853,31724
33056,36855,31745
33069,36840,31724
33044,36837,31684
33008,36825,31636
32984,36806,31645
32902,36838,31647
32799,36855,31609
32816,36863,31596
32892,36848,31537
32929,36865,31519
32948,36839,31520
32960,36838,31487
32836,36821,31437
32653,36829,31380
32480,36834,31388
32156,36859,31377
31736,36849,31341
31448,36868,31276
31200,36871,31239
31144,36884,31252
31508,36860,31204
32132,36844,31137
33016,36838,31141
34128,36837,31104
35252,36818,31057
36532,36816,31015
37988,36820,30973
39588,36820,30960
41476,36813,30916
43456,36802,30876
44908,36764,30825
45728,36753,30789
45616,36742,30764
44684,36751,30706
43448,36756,30672
42132,36783,30630
41080,36797,30564
40274,36815,30533
39524,36817,30500
38640,36813,30449
37496,36813,30405
36384,36805,30348
35528,36788,30324
34884,36798,30264
34280,36804,30212
33664,36797,30150
33104,36829,30116
32596,36847,30060
32192,36847,30009
31752,36813,29945
31324,36836,29839
31040,36822,29831
30728,36828,29776
30436,36816,29736
30285,36821,29654
30208,36831,29594
30160,36852,29516
30240,36817,29480
30308,36855,29386
30340,36849,29309
30408,36844,29271
30476,36836,29181
30416,36799,29097
30352,36820,29036
30321,36817,28973
30294,36836,28868
30324,36836,28780
30376,36849,28750
30448,36861,28639
30517,36849,28559
30532,36837,28524
30580,36817,28403
30605,36812,28327
30596,36801,28268
30584,36818,28163
30550,36823,28096
30496,36852,27984
30508,36848,27972
30616,36843,27863
30692,36853,27757
30784,36833,27639
30884,36812,27567
30910,36813,27488
30860,36815,27402
30812,36821,27300
30764,36812,27215
30705,36830,27098
30768,36846,27077
30909,36836,26956
30993,36831,26809
31090,36820,26820
31172,36807,26690
31168,36818,26545
31150,36798,26582
31132,36805,26382
31124,36827,26311
31096,36836,26269
31148,36853,26201
31220,36833,26055
31312,36836,25979
31440,36805,25956
31568,36807,25816
31572,36798,25780
31528,36788,25654
31525,36805,25668
31540,36813,25552
31440,36820,25420
31456,36828,25504
31568,36837,25284
31656,36829,25232
31728,36808,25127
31837,36804,25132
31872,36801,25036
31864,36803,24892
31868,36801,24981
31896,36809,24809
31920,36825,24736
32064,36837,24580
32224,36833,24641
32228,36800,24455
32324,36819,24377
32416,36800,24327
32480,36798,24327
32493,36784,24111
32533,36789,24042
32548,36797,24036
32564,36807,23884
32676,36816,23818
32788,36815,23861
32892,36816,23621
32992,36806,23581
33065,36789,23556
33073,36761,23396
33050,36775,23322
33028,36783,23158
33028,36801,23218
32958,36802,23034
32996,36812,22978
33096,36816,22852
33160,36821,22952
33188,36789,22770
33266,36788,22593
33272,36775,22732
33212,36788,22564
33157,36761,22409
33080,36802,22311
33036,36801,22304
33061,36808,22274
33136,36815,22162
33141,36809,22007
33160,36804,22181
33164,36788,21926
33057,36768,21863
32928,36777,21748
32805,36791,21916
32662,36794,21668
32520,36812,21570
32448,36788,21681
32408,36820,21515
32368,36810,21468
32348,36801,21350
32380,36797,21493
32288,36772,21318
32188,36788,21204
32124,36782,21406
32056,36799,21201
31960,36807,21156
31964,36815,21229
32040,36817,21093
32068,36815,21044
32120,36806,20986
32144,36786,20903
32092,36775,20956
31972,36773,21054
31940,36773,20980
31929,36796,20852
31884,36804,20901
31897,36815,20761
31972,36803,20809
32056,36807,20853
32176,36789,20820
32268,36775,20691
32264,36743,20909
32260,36756,20743
32245,36761,20724
32152,36769,20636
32074,36782,20876
32148,36791,20711
32340,36791,20716
32432,36780,20661
32452,36773,20800
32536,36759,20816
32589,36741,20732
32548,36748,20615
32482,36756,20676
32408,36767,20585
32292,36777,20549
32344,36781,20790
32428,36781,20589
32488,36758,20628
32544,36751,20529
32564,36743,20644
32566,36728,20571
32568,36735,20705
32536,36740,20633
32521,36743,20590
32520,36756,20601
32588,36768,20622
32628,36774,20556
32640,36767,20582
32590,36751,20517
32620,36733,20634
32612,36725,20554
32556,36724,20641
32520,36727,20680
32516,36743,20674
32470,36749,20686
32512,36761,20642
32560,36759,20738
32536,36751,20690
32552,36736,20645
32600,36728,20803
32609,36719,20744
32644,36685,20839
32680,36716,20885
32604,36720,20821
32568,36738,20813
32684,36759,21069
32812,36753,20938
32829,36716,20952
32781,36730,20988
32733,36719,21026
32716,36678,20983
32680,36692,21269
32672,36708,21149
32628,36727,21177
32576,36738,21148
32680,36729,21392
32772,36740,21274
32833,36741,21240
32958,36716,21328
33028,36711,21318
32988,36701,21601
32956,36700,21441
32906,36701,21450
32864,36700,21470
32824,36725,21676
32869,36743,21593
32924,36735,21554
33008,36726,21833
33088,36716,21703
33081,36707,21806
33024,36700,21737
32980,36697,21733
32944,36680,21863
32897,36700,21894
32792,36719,21853
32786,36717,22008
32809,36720,21948
32848,36721,21966
32952,36711,22039
33061,36687,22062
33080,36687,22071
33013,36680,22258
32952,36695,22264
32860,36689,22182
32788,36709,22267
32792,36713,22192
32864,36711,22330
32924,36712,22310
33000,36705,22313
33064,36693,22499
33109,36679,22407
33028,36672,22472
32964,36682,22399
32888,36684,22591
32768,36708,22540
32816,36717,22472
32924,36725,22725
32961,36711,22578
33004,36703,22631
33088,36684,22593
33236,36676,22700
33244,36674,22724
33100,36665,22654
32904,36679,22836
32832,36703,22733
32936,36687,22748
32976,36703,22970
32984,36708,22812
33040,36690,22831
33117,36675,23026
33116,36664,22925
33036,36663,23045
33056,36672,22969
33052,36675,23021
32932,36684,23110
32888,36703,23077
32928,36707,23108
32980,36667,23093
33040,36691,23147
33092,36679,23196
33104,36669,23212
33020,36663,23175
32942,36669,23284
32876,36679,23314
32753,36683,23244
32869,36692,23422
32992,36695,23373
32936,36691,23370
32924,36655,23430
33028,36660,23474
33020,36649,23521
32984,36660,23524
32932,36655,23612
32852,36664,23529
32773,36681,23570
32752,36670,23565
32740,36697,23616
32769,36657,23621
32828,36666,23783
32842,36663,23755
32848,36651,23717
32788,36647,23789
32680,36652,23828
32652,36665,23995
32560,36687,23908
32664,36677,23856
32816,36690,23924
32952,36684,23969
33020,36668,24002
33072,36655,24022
32918,36653,24008
32708,36652,24205
32632,36661,24063
32596,36668,24087
32464,36693,24188
32446,36687,24167
32564,36684,24152
32640,36687,24278
32736,36668,24188
32880,36660,24208
32916,36652,24367
32904,36652,24236
32836,36629,24269
32764,36656,24420
32774,36661,24285
32820,36679,24328
33021,36665,24457
33144,36684,24319
33256,36671,24313
33284,36655,24518
33164,36636,24386
32964,36647,24370
32812,36639,24527
32652,36661,24476
32588,36673,24436
32676,36677,24520
32784,36687,24624
32892,36671,24502
32960,36660,24551
33104,36642,24575
33125,36637,24598
33076,36629,24727
33096,36615,24627
33096,36647,24692
33036,36656,24653
32956,36651,24727
32904,36665,24731
32844,36656,24898
32888,36653,24780
32919,36632,24845
32869,36621,24804
32832,36625,24902
32848,36629,24881
32708,36639,24988
32612,36652,24948
32672,36660,24995
32901,36652,24953
32980,36657,25146
32904,36645,25079
32959,36615,25046
32976,36615,25067
32932,36615,25153
32920,36615,25090
32912,36626,25125
32844,36644,25289
32916,36637,25166
32896,36647,25222
32816,36644,25228
32800,36639,25212
32876,36615,25300
32952,36613,25378
32940,36608,25312
32845,36615,25335
32828,36623,25351
32792,36633,25428
32740,36645,25348
32636,36653,25375
32444,36648,25390
32180,36653,25363
31908,36615,25523
31528,36629,25410
31270,36610,25474
31276,36628,25443
31676,36636,25542
32380,36639,25564
33472,36644,25544
34764,36647,25535
36108,36631,25586
37684,36615,25556
39448,36580,25567
40948,36565,25718
41732,36567,25607
41716,36581,25669
41064,36588,25641
40044,36599,25692
38968,36625,25824
37712,36644,25736
36565,36641,25705
35992,36636,25776
35804,36621,25746
35668,36607,25873
35536,36604,25805
35660,36607,25796
35736,36615,25858
35552,36625,25849
35296,36631,25852
34997,36628,25876
34576,36628,25890
34142,36609,26018
33840,36607,26060
33548,36601,25952
33036,36596,26014
32464,36604,25980
32007,36613,26030
31496,36597,26036
31112,36639,26036
30880,36647,26141
30720,36647,26176
30721,36640,26073
30848,36615,26080
30960,36607,26181
30872,36604,26236
30808,36604,26126
30808,36615,26162
30912,36620,26172
30988,36644,26154
30804,36639,26256
30900,36641,26247
31044,36625,26200
31108,36612,26244
30956,36596,26230
30832,36599,26311
30794,36600,26282
30824,36604,26296
30812,36628,26276
30806,36629,26418
30862,36637,26380
30876,36615,26377
30836,36615,26393
30792,36611,26364
30864,36604,26439
30852,36593,26456
30848,36605,26537
30796,36615,26484
30736,36628,26533
30856,36631,26519
31052,36631,26626
31220,36633,26636
31342,36615,26651
31392,36596,26701
31364,36593,26708
31340,36590,26746
31384,36591,26743
31408,36609,26881
31328,36615,26831
31348,36621,26824
31419,36628,26901
31452,36615,26959
31428,36615,26916
31553,36600,26973
31552,36572,26950
31464,36585,27084
31420,36588,27017
31301,36596,27020
31272,36612,27127
31312,36615,27045
31517,36624,27060
31696,36600,27188
31788,36599,27111
31826,36603,27124
31820,36583,27180
31818,36556,27175
31769,36583,27130
31761,36604,27111
31760,36604,27194
31777,36622,27125
31769,36595,27138
31932,36609,27113
32112,36604,27130
32229,36588,27133
32320,36591,27124
32376,36581,27082
32384,36575,27183
32400,36597,27092
32342,36615,27092
32400,36609,27036
32405,36615,27117
32372,36615,27015
32456,36598,27018
32608,36591,26967
32713,36581,27058
32740,36573,26955
32744,36583,26903
32669,36597,26925
32618,36591,26965
32780,36612,26817
32921,36608,26826
33108,36607,26747
33324,36599,26805
33484,36589,26704
33476,36580,26644
33440,36575,26711
33366,36580,26652
33384,36591,26590
33388,36599,26502
33301,36629,26577
33296,36614,26423
33365,36590,26389
33412,36597,26471
33468,36583,26327
33252,36585,26266
32928,36580,26340
32932,36581,26212
32948,36588,26268
32816,36597,26153
32869,36605,26100
32874,36615,26017
32692,36615,26118
32624,36596,25941
32572,36582,25956
32308,36577,25872
32137,36553,25818
32116,36577,25915
32037,36590,25758
31928,36605,25743
31924,36593,25660
32088,36609,25759
32300,36612,25620
32417,36597,25564
32405,36550,25548
32328,36579,25580
32148,36566,25494
32004,36580,25412
32072,36581,25528
32104,36587,25430
32108,36590,25380
32132,36603,25287
32133,36597,25420
32104,36591,25240
32181,36570,25210
32284,36561,25344
32208,36533,25196
32248,36556,25151
32302,36565,25282
32172,36580,25094
32132,36566,25121
32248,36583,25051
32316,36585,25148
32373,36551,25022
32464,36563,25034
32400,36540,25100
32248,36529,25009
32244,36541,24990
32192,36562,24914
32004,36572,25055
32047,36574,24911
32204,36573,24890
32316,36572,24996
32460,36565,24933
32608,36535,24853
32709,36525,24903
32600,36495,24831
32468,36527,24971
32356,36532,24937
32296,36549,24825
32208,36543,24877
32240,36553,24810
32300,36551,24980
32346,36540,24829
32388,36525,24825
32348,36519,24984
32324,36519,24829
32320,36519,24885
32360,36524,24964
32410,36518,24904
32588,36559,24909
32704,36545,24871
32741,36543,25067
32772,36529,25052
32764,36517,24961
32588,36514,24976
32364,36513,25038
32244,36478,25010
32188,36527,25111
32204,36532,25231
32260,36540,25113
32380,36508,25183
32508,36532,25166
32556,36541,25196
32624,36512,25239
32544,36500,25423
32488,36493,25324
32476,36504,25406
32368,36527,25396
32356,36503,25543
32456,36517,25498
32624,36532,25585
32685,36532,25580
32816,36513,25745
32876,36500,25816
32868,36474,25768
32928,36481,25830
32932,36495,25925
32800,36505,25986
32644,36485,26004
32576,36519,26035
32592,36524,26215
32641,36523,26201
32676,36501,26227
32782,36487,26410
32788,36473,26385
32764,36487,26468
32748,36471,26503
32688,36484,26578
32576,36511,26773
32508,36511,26781
32588,36519,26817
32604,36511,26908
32632,36506,26997
32700,36488,27041
32696,36477,27216
32692,36453,27244
32744,36472,27286
32820,36487,27393
32730,36512,27471
32684,36510,27553
32736,36523,27666
32796,36500,27719
32892,36503,27772
32928,36478,27950
32908,36455,27962
32780,36468,28038
32777,36468,28183
32792,36486,28208
32769,36485,28301
32772,36498,28404
32812,36503,28476
32841,36503,28572
32864,36487,28696
32936,36476,28745
32960,36463,28841
32944,36467,28876
32884,36465,29056
32780,36471,29116
32661,36495,29205
32684,36495,29329
32780,36487,29409
32836,36500,29492
32896,36487,29596
32964,36463,29703
32940,36463,29799
32854,36453,29898
32820,36468,29986
32821,36468,30096
32764,36487,30201
32865,36495,30308
32913,36498,30409
32869,36486,30497
32850,36473,30617
32996,36468,30740
32976,36460,30834
32776,36455,30919
32688,36453,31048
32620,36471,31169
32548,36487,31282
32560,36487,31341
32676,36487,31488
32821,36487,31588
33000,36480,31668
33102,36460,31807
33197,36460,31900
33192,36462,32016
33189,36437,32068
33101,36447,32165
33018,36479,32317
33028,36484,32415
33136,36487,32519
33306,36465,32544
33392,36476,32668
33405,36461,32788
33357,36466,32893
33256,36423,32897
33204,36455,32988
33105,36460,33104
32970,36475,33219
32948,36478,33317
33012,36487,33388
33080,36453,33436
33200,36471,33484
33364,36463,33617
33384,36436,33716
33389,36447,33797
33364,36452,33773
33248,36461,33927
33152,36468,34001
33136,36478,34071
33149,36475,34119
33192,36479,34209
33140,36466,34167
33169,36452,34271
33176,36437,34394
33184,36441,34458
33080,36436,34500
33032,36452,34574
33005,36453,34675
33060,36468,34622
33070,36468,34676
33112,36455,34715
33137,36455,34866
33204,36452,34960
33188,36447,34988
33148,36436,35038
33128,36423,35140
33108,36445,35061
33049,36459,35200
33080,36457,35279
33168,36466,35333
33196,36475,35324
33236,36445,35372
33249,36436,35531
33217,36425,35532
33148,36430,35636
33140,36424,35548
33053,36440,35666
32916,36453,35790
32784,36468,35788
32761,36455,35865
32692,36461,35932
32452,36445,35844
32144,36444,35988
31648,36452,36029
31096,36445,36092
30956,36452,36052
31216,36461,36096
31952,36470,36212
33056,36468,36260
34500,36475,36321
35988,36449,36257
37742,36446,36272
39880,36425,36405
41740,36401,36500
43336,36393,36488
44077,36396,36577
43672,36412,36521
42480,36444,36647
41033,36457,36645
39588,36473,36615
38236,36479,36743
37272,36478,36791
36996,36437,36853
36996,36440,36820
37000,36432,37012
36916,36433,36999
36732,36441,36990
36408,36452,37052
36080,36447,37244
35816,36460,37269
35498,36460,37375
34984,36455,37321
34556,36439,37495
34112,36441,37511
33548,36434,37592
32952,36447,37703
32276,36444,37609
31652,36477,37840
31288,36482,37837
31076,36453,37958
30836,36477,37895
30764,36469,38140
30768,36465,38151
30800,36452,38268
30761,36412,38325
30696,36444,38244
30653,36462,38303
30620,36469,38479
30660,36486,38572
30704,36487,38622
30728,36474,38695
30744,36479,38715
30816,36457,38744
30782,36439,38844
30644,36448,38908
30536,36448,38781
30564,36461,38866
30612,36473,39068
30688,36487,39018
30852,36465,39160
30896,36477,39107
30964,36476,39189
30981,36419,39285
30996,36437,39168
30924,36444,39261
30897,36455,39463
30896,36457,39389
30832,36469,39533
30812,36479,39397
30860,36452,39474
30948,36476,39652
30988,36470,39672
31108,36452,39614
31148,36459,39720
31124,36414,39597
31064,36444,39775
31056,36468,39723
31104,36455,39789
31136,36493,39663
31220,36487,39831
31298,36479,39804
31352,36469,39829
31504,36453,39641
31572,36440,39757
31508,36444,39765
31486,36455,39636
31456,36460,39820
31388,36475,39709
31388,36467,39611
31404,36480,39803
31452,36484,39705
31520,36472,39730
31620,36457,39536
31716,36463,39545
31676,36452,39661
31589,36452,39623
31564,36462,39615
31534,36481,39382
31622,36457,39513
31722,36487,39412
31793,36487,39463
31917,36471,39260
32045,36462,39407
32084,36452,39253
32058,36452,39305
32036,36463,39108
32128,36468,39199
32153,36486,39165
32212,36487,38976
32296,36495,39020
32292,36487,38887
32352,36478,39007
32388,36463,38853
32417,36450,38876
32428,36463,38681
32440,36428,38724
32444,36463,38689
32412,36487,38528
32512,36494,38612
32636,36503,38533
32728,36495,38556
32916,36485,38359
33012,36474,38416
33125,36466,38404
33064,36431,38249
33056,36460,38270
33036,36474,38072
33004,36506,38016
33047,36492,38135
33112,36477,38041
33120,36501,37871
33150,36493,37861
33188,36455,37856
33168,36469,37798
33112,36463,37608
33008,36479,37616
32924,36478,37639
32805,36483,37481
32772,36508,37484
32824,36500,37338
32812,36504,37294
32800,36487,37123
32816,36483,37185
32784,36473,37085
32720,36460,37052
32609,36465,36829
32544,36480,36844
32477,36496,36824
32412,36502,36674
32428,36494,36647
32485,36503,36447
32520,36495,36473
32536,36472,36359
32508,36449,36318
32464,36455,36267
32444,36463,36046
32408,36469,36044
32364,36487,36016
32420,36480,35913
32485,36461,35839
32488,36487,35654
32572,36482,35543
32660,36466,35607
32677,36448,35480
32644,36440,35455
32580,36453,35284
32540,36466,35184
32524,36485,35196
32552,36477,35099
32640,36484,35061
32708,36475,34872
32764,36477,34764
32860,36447,34708
32892,36439,34687
32856,36436,34678
32768,36445,34572
32736,36454,34524
32704,36469,34405
32728,36462,34300
32832,36476,34206
32910,36437,34167
32936,36451,34196
32996,36443,34092
33028,36426,34036
33006,36420,33935
32928,36425,33820
32904,36436,33868
32849,36428,33778
32865,36460,33764
32930,36460,33612
32932,36460,33553
32948,36452,33575
33016,36439,33492
33064,36421,33463
33008,36423,33357
32928,36435,33247
32880,36441,33285
32824,36437,33236
32869,36452,33106
32928,36464,33167
32973,36444,33092
33008,36447,33068
33084,36431,32959
33061,36415,32932
33032,36407,32964
32996,36419,32909
32984,36434,32886
32900,36447,32812
32936,36449,32761
33096,36430,32805
33277,36452,32784
33428,36452,32714
33584,36429,32720
33609,36423,32719
33588,36391,32663
33536,36421,32647
33508,36422,32701
33428,36441,32668
33396,36445,32689
33468,36449,32586
33532,36453,32660
33588,36439,32646
33672,36425,32585
33644,36419,32593
33565,36415,32640
33544,36416,32632
33528,36420,32641
33496,36419,32614
33488,36445,32570
33525,36452,32582
33500,36417,32644
33521,36428,32638
33600,36418,32584
33600,36421,32592
33536,36415,32620
33489,36415,32664
33416,36427,32647
33369,36441,32658
33400,36436,32597
33476,36436,32684
33576,36429,32669
33640,36431,32700
33732,36409,32628
33704,36405,32733
33636,36413,32714
33532,36381,32686
33396,36413,32743
33276,36424,32772
33268,36459,32772
33292,36439,32809
33324,36446,32775
33324,36425,32767
33448,36413,32849
33471,36401,32874
33392,36404,32875
33312,36407,32901
33188,36416,32877
33092,36436,32875
33046,36429,32983
33048,36445,32988
33084,36436,32937
33152,36439,33029
33316,36417,33031
33336,36408,32991
33324,36400,33100
33316,36409,33112
33301,36407,33127
33208,36431,33121
33144,36442,33103
33154,36428,33204
33184,36436,33205
33204,36424,33240
33232,36413,33206
33208,36406,33203
33124,36398,33301
33069,36383,33305
32980,36410,33359
32848,36431,33278
32852,36433,33393
32924,36438,33405
33005,36439,33450
33100,36423,33380
33208,36419,33503
33260,36413,33512
33293,36412,33565
33253,36405,33599
33260,36421,33616
33204,36433,33653
33184,36450,33695
33268,36434,33732
33318,36439,33664
33356,36428,33717
33452,36411,33833
33452,36413,33752
33360,36402,33790
33296,36407,33869
33224,36422,33913
33084,36428,33974
33000,36428,34022
32980,36432,34046
33004,36441,34122
33036,36429,34020
33112,36388,34183
33072,36396,34183
33009,36404,34242
32992,36405,34300
33000,36417,34215
32948,36420,34362
32940,36436,34370
32964,36439,34439
32984,36439,34404
32992,36423,34423
33084,36405,34520
33080,36380,34552
32996,36384,34624
32961,36372,34652
32912,36404,34677
32812,36423,34727
32868,36421,34687
32952,36429,34708
33005,36430,34845
33000,36423,34848
33062,36405,34917
33081,36380,34839
33016,36388,34864
32921,36402,34897
32900,36399,35060
32840,36412,35055
32812,36431,35080
32832,36429,35126
32876,36429,35199
32876,36420,35151
32948,36398,35172
32912,36382,35177
32856,36389,35213
32844,36391,35381
32824,36405,35388
32696,36429,35425
32648,36429,35493
32632,36430,35399
32544,36423,35591
32444,36421,35578
32285,36409,35669
31920,36413,35591
31404,36406,35767
30800,36416,35774
30333,36439,35769
30317,36457,35906
30772,36460,35953
31532,36461,35904
32756,36414,36028
34260,36420,36084
35908,36412,36068
37768,36399,36237
39737,36373,36302
41748,36370,36262
43920,36364,36412
45360,36368,36447
45804,36384,36436
45368,36396,36561
44144,36405,36621
42668,36402,36647
41236,36396,36759
39996,36399,36836
39164,36393,36966
38680,36396,36967
38416,36405,37048
37884,36423,37025
37200,36421,37244
36536,36423,37266
35981,36423,37273
35384,36417,37383
34744,36392,37341
34080,36396,37540
33424,36399,37613
32768,36407,37518
32088,36412,37695
31376,36440,37796
30816,36447,37705
30512,36447,37839
30272,36449,37808
30080,36442,37917
29920,36428,38045
29853,36422,37993
29768,36420,38100
29704,36425,38133
29685,36431,38038
29625,36436,38068
29612,36444,38247
29676,36463,38172
29744,36453,38271
29820,36439,38145
29932,36434,38220
29908,36395,38138
29796,36410,38269
29748,36426,38285
29720,36431,38165
29704,36420,38279
29760,36445,38343
29848,36463,38324
29916,36459,38273
29952,36444,38220
30005,36421,38343
30020,36423,38390
30036,36421,38249
30044,36426,38438
30016,36399,38351
29964,36441,38453
29993,36455,38407
30136,36460,38407
30216,36413,38315
30268,36447,38492
30325,36431,38479
30344,36412,38365
30268,36404,38457
30192,36421,38364
30184,36437,38508
30118,36436,38381
30160,36471,38558
30264,36454,38567
30332,36419,38407
30438,36447,38472
30512,36426,38416
30525,36423,38543
30468,36421,38589
30436,36429,38524
30404,36437,38607
30370,36435,38433
30400,36455,38527
30432,36462,38555
30520,36421,38532
30577,36454,38596
30666,36439,38414
30676,36428,38571
30688,36425,38487
30709,36426,38544
30656,36434,38384
30644,36447,38528
30656,36457,38437
30797,36474,38308
30880,36458,38279
30969,36452,38279
31124,36445,38349
31154,36441,38372
31132,36431,38329
31136,36431,38232
31117,36437,38151
31080,36463,38175
31149,36471,38151
31256,36468,37951
31328,36470,37916
31416,36461,37988
31547,36444,37924
31600,36434,37884
31580,36404,37871
31580,36447,37682
31596,36457,37767
31588,36465,37725
31608,36469,37664
31724,36452,37605
31796,36481,37456
31916,36471,37397
32036,36452,37437
32088,36455,37377
32065,36437,37392
32068,36439,37365
32009,36460,37316
31960,36465,37135
32028,36472,37080
32140,36478,37044
32252,36473,37127
32324,36469,37028
32364,36460,37023
32425,36445,37013
32376,36445,36863
32320,36446,36809
32288,36452,36911
32220,36476,36796
32216,36487,36815
32300,36450,36685
32345,36480,36661
32356,36466,36732
32448,36460,36624
32472,36455,36644
32396,36445,36610
32316,36427,36586
32264,36452,36432
32186,36468,36390
32193,36473,36430
32248,36484,36463
32288,36452,36382
32352,36468,36372
32385,36455,36356
32384,36440,36240
32300,36440,36173
32260,36439,36256
32276,36442,36276
32221,36460,36183
32204,36460,36201
32264,36464,36199
32348,36460,36057
32420,36454,35991
32544,36431,35993
32564,36429,36021
32544,36425,36037
32516,36421,36044
32492,36431,35980
32464,36441,35982
32500,36455,35892
32584,36454,35892
32624,36441,35903
32684,36439,35937
32784,36399,35797
32796,36407,35864
32762,36408,35836
32704,36410,35869
32668,36397,35774
32612,36422,35727
32656,36445,35733
32728,36407,35828
32776,36436,35808
32841,36423,35756
32948,36401,35771
32968,36385,35791
32892,36401,35697
32856,36396,35668
32782,36410,35775
32720,36397,35732
32685,36423,35762
32760,36434,35644
32796,36413,35623
32821,36415,35663
32892,36397,35700
32880,36389,35748
32836,36384,35733
32766,36359,35678
32680,36396,35685
32617,36409,35716
32644,36418,35584
32692,36401,35552
32792,36421,35588
32856,36411,35654
32892,36391,35621
32908,36359,35624
32824,36375,35639
32764,36397,35530
32720,36391,35467
32702,36399,35543
32701,36399,35589
32708,36423,35524
32772,36415,35553
32820,36396,35549
32880,36359,35436
32900,36388,35396
32848,36372,35436
32820,36375,35504
32816,36388,35444
32776,36404,35436
32784,36404,35460
32844,36376,35334
32868,36409,35277
32888,36399,35375
32936,36380,35389
32976,36372,35324
32952,36366,35320
32873,36343,35333
32820,36380,35300
32762,36407,35285
32744,36411,35269
32836,36400,35249
32892,36406,35223
32980,36391,35097
33044,36376,35060
33052,36359,35053
33028,36364,35021
32960,36366,34951
32896,36375,34983
32804,36384,34988
32808,36393,34951
32856,36394,34979
32870,36397,34951
32897,36391,34917
32960,36374,34884
32956,36359,34843
32876,36359,34805
32816,36364,34773
32784,36378,34755
32712,36393,34740
32716,36399,34696
32784,36389,34661
32820,36391,34633
32865,36388,34612
32936,36367,34599
32956,36359,34455
32856,36357,34427
32788,36359,34415
32736,36377,34420
32624,36388,34353
32588,36391,34380
32656,36399,34409
32712,36383,34358
32805,36384,34333
32876,36377,34300
32876,36359,34269
32828,36357,34252
32776,36359,34225
32756,36381,34216
32724,36382,34209
32704,36384,34206
32721,36397,34186
32764,36388,34117
32796,36388,34081
32732,36352,34151
32700,36359,34132
32668,36356,34117
32608,36359,34095
32560,36359,34089
32540,36381,34071
32624,36391,34073
32816,36389,34055
33021,36388,33965
33188,36381,33973
33301,36375,34029
33260,36344,34007
33212,36359,33988
33181,36359,34009
33168,36375,34023
33060,36383,34028
33053,36397,33924
33132,36393,33943
33162,36383,34031
33172,36372,34013
33204,36359,34031
33152,36359,33949
33050,36346,33918
32944,36342,33927
32888,36359,33972
32852,36380,34061
32840,36389,34033
32908,36380,34052
32933,36388,34055
32940,36376,34087
32957,36351,34104
32932,36348,34022
32898,36356,34005
32840,36351,34055
32788,36359,34140
32689,36372,34119
32697,36375,34139
32748,36381,34151
32829,36377,34177
32964,36359,34105
33052,36351,34072
33032,36348,34199
32948,36341,34212
32876,36340,34189
32864,36349,34196
32799,36352,34200
32816,36372,34212
32825,36380,34220
32800,36368,34228
32804,36332,34238
32848,36331,34252
32832,36343,34255
32764,36335,34275
32708,36333,34284
32648,36348,34308
32576,36358,34317
32644,36353,34332
32700,36372,34372
32756,36368,34300
32749,36356,34287
32776,36340,34292
32696,36324,34374
32568,36337,34404
32468,36341,34412
32389,36348,34429
32180,36365,34505
31914,36372,34567
31437,36389,34580
30876,36383,34600
30330,36359,34637
30021,36382,34661
30304,36372,34677
30756,36373,34684
31453,36372,34717
32654,36373,34788
34240,36369,34752
36208,36389,34739
38420,36380,34775
41028,36359,34806
43820,36335,34852
46528,36309,34967
48744,36283,35048
49656,36295,35046
49440,36295,35096
48144,36304,35071
46600,36324,35068
45104,36343,35237
43672,36359,35248
42504,36359,35328
41536,36356,35268
40740,36340,35280
39268,36337,35448
37624,36337,35481
35964,36348,35508
34656,36375,35597
33794,36381,35559
33433,36385,35598
32948,36389,35644
31841,36406,35639
30496,36393,35780
29236,36391,35844
28188,36391,35874
27564,36388,35869
27065,36404,35873
27092,36408,35947
26184,36421,35874
25513,36439,35841
25820,36436,35956
25944,36434,36026
25596,36439,35990
25984,36413,36040
25404,36404,36063
25760,36396,36096
28910,36384,35988
30408,36383,36020
30100,36400,36215
27440,36426,36246
25740,36398,36389
26920,36425,36439
27264,36426,36623
27824,36405,36881
28628,36388,36960
29649,36383,37312
28552,36387,37590
27914,36405,37948
28412,36411,38288
30638,36412,38463
31304,36410,38809
30120,36425,39310
29188,36394,39566
26120,36421,39908
23997,36421,39984
25932,36414,40310
27873,36396,40753
28328,36419,40884
28140,36430,40967
26720,36413,41382
27688,36429,41536
31176,36420,41838
34532,36405,42052
32644,36388,42005
28520,36412,42256
28133,36400,42464
30205,36399,42748
28677,36402,43068
25060,36401,43248
26524,36440,43364
29596,36436,43508
29041,36443,43700
28870,36424,43917
30654,36412,44089
31650,36404,44097
31424,36399,44148
30348,36401,44250
27828,36437,44364
27234,36453,44500
28800,36444,44783
31300,36429,44775
32381,36437,44925
29544,36454,44748
25849,36468,44861
21737,36482,44988
24412,36391,45063
32336,36384,45086
38232,36373,45028
29248,36460,45052
20316,36524,44876
19896,36460,45036
23536,36487,44917
25728,36471,44960
26749,36456,44704
27744,36446,44740
25349,36468,44688
21657,36440,44581
22096,36484,44247
25416,36468,44271
27668,36480,44172
30548,36463,44038
32134,36419,43668
31488,36452,43520
30180,36448,43444
30272,36432,43268
31172,36443,43057
33649,36401,42628
34072,36455,42631
30380,36488,42340
24748,36529,42049
22872,36461,41868
27764,36468,41778
30922,36464,41425
32992,36452,41205
32112,36444,41013
33224,36443,40623
36696,36413,40372
34717,36452,40076
26856,36468,39828
25444,36487,39348
28372,36501,39120
32048,36487,38902
30564,36484,38476
29556,36471,38130
33800,36432,37757
38364,36404,37517
39400,36398,37272
41020,36412,36902
41616,36420,36564
34512,36482,36245
30245,36511,35988
28852,36513,35727
26440,36516,35368
28004,36495,35060
31108,36460,34870
34337,36428,34703
36320,36445,34473
33625,36473,34216
30296,36500,34015
30125,36519,33717
30848,36496,33524
33406,36452,33412
35644,36466,33200
35196,36460,32976
33508,36452,32789
32770,36446,32531
34296,36461,32321
35204,36436,32157
33149,36479,31919
32740,36486,31689
32373,36496,31461
28704,36517,31192
28960,36508,30981
29820,36487,30775
27560,36487,30548
30420,36428,30315
34106,36447,30103
30932,36487,29868
30676,36492,29648
31416,36501,29416
35672,36468,29249
39768,36432,29045
40440,36430,28796
35868,36455,28585
30920,36487,28373
29444,36478,28185
31528,36464,27972
34884,36455,27796
35040,36465,27584
35566,36476,27372
38072,36460,27173
36672,36473,26945
36064,36456,26756
35477,36448,26657
34012,36463,26353
34589,36449,26176
35552,36448,25935
33620,36469,25860
32064,36476,25628
34758,36486,25331
36104,36481,25161
33052,36503,24938
31624,36508,24914
33552,36474,24589
34212,36462,24416
37280,36435,24415
37232,36447,24081
32441,36498,23960
31052,36507,23727
35332,36487,23552
38640,36475,23564
36008,36484,23333
35940,36462,23083
37996,36452,22961
38457,36432,22724
33472,36464,22780
31789,36479,22551
32397,36476,22405
30824,36516,22224
29296,36533,22093
33700,36500,22172
38588,36460,22036
42341,36424,21865
38768,36463,21835
30889,36500,21728
26469,36505,21652
28636,36496,21615
32500,36495,21477
31957,36516,21415
32800,36511,21360
37536,36489,21536
38348,36501,21342
35940,36509,21262
34392,36505,21164
33420,36503,21138
32052,36492,21092
33588,36479,21032
33152,36503,20903
33832,36516,20805
36196,36511,20748
37268,36508,20708
37092,36513,20840
38716,36486,20796
36392,36500,20700
35160,36502,20591
36172,36487,20468
36860,36480,20350
38744,36474,20267
36320,36516,20207
34120,36505,20203
32677,36551,20016
34156,36527,20020
37368,36509,20183
35412,36516,19988
32340,36497,19940
33132,36508,19824
35112,36500,19818
36576,36516,19921
36716,36527,19847
36580,36549,19726
35432,36524,19700
36472,36524,19710
38364,36518,19665
37060,36519,19564
35780,36528,19524
35888,36511,19719
34612,36530,19695
33948,36540,19565
34516,36545,19572
35368,36548,19477
35218,36558,19746
34646,36577,19613
34626,36568,19703
35152,36516,19652
35468,36532,19744
35760,36525,19995
36256,36532,19987
36492,36547,20036
34412,36581,20124
33952,36583,20217
34232,36591,20311
34404,36581,20414
35016,36560,20549
35196,36540,20613
35292,36557,21024
34964,36545,21031
34845,36553,21146
34948,36565,21293
34822,36565,21567
35040,36584,21797
34960,36593,21871
34788,36598,22113
34452,36591,22211
34776,36549,22638
34984,36552,22700
34580,36564,22893
34404,36589,23071
34304,36583,23246
34156,36599,23615
34340,36583,23716
34482,36604,23954
34380,36607,24098
34532,36585,24312
34708,36584,24524
34616,36582,24884
34496,36576,25091
34264,36580,25189
34076,36589,25461
34120,36583,25656
34388,36599,25880
34424,36615,26064
33949,36623,26280
33622,36613,26508
33700,36607,26732
33724,36588,27007
33584,36594,27281
33380,36589,27424
33228,36615,27669
33128,36628,27887
33125,36629,28106
33216,36645,28390
33316,36631,28594
33500,36605,28809
33786,36615,29029
33884,36591,29290
33669,36601,29485
33253,36615,29696
32868,36607,29904
32648,36623,30114
32628,36633,30317
32740,36655,30524
32828,36637,30719
32996,36637,30905
33120,36635,31079
33152,36615,31209
32992,36615,31415
32708,36614,31558
32289,36633,31698
31832,36637,31837
31516,36677,31935
31404,36671,32094
31544,36673,32159
31808,36658,32250
32492,36639,32332
33393,36632,32404
34388,36615,32501
35336,36615,32623
36224,36631,32672
37336,36647,32720
38496,36639,32740
39541,36637,32736
40102,36631,32780
40392,36615,32851
40396,36599,32903
39921,36596,32951
39264,36607,32993
38344,36614,33028
37136,36644,33045
35968,36668,33092
35396,36679,33130
35004,36688,33174
34608,36692,33216
34460,36679,33248
34192,36669,33278
33820,36665,33313
33496,36660,33360
33312,36661,33408
32969,36676,33460
32448,36695,33503
32156,36704,33467
31924,36713,33517
31725,36711,33617
31622,36703,33624
31552,36694,33620
31384,36668,33764
31124,36683,33767
30824,36691,33820
30532,36708,33750
30301,36727,33876
30249,36735,33903
30489,36730,33860
30630,36734,33844
30688,36710,33901
30804,36711,33927
30870,36703,33974
30800,36697,33999
30724,36701,33945
30564,36717,33900
30422,36735,33993
30416,36743,33988
30596,36742,33984
30836,36742,33886
31088,36725,33932
31284,36709,33956
31336,36704,33916
31292,36708,33917
31176,36716,33813
31024,36724,33773
30900,36737,33791
30784,36743,33797
30788,36724,33788
30856,36724,33746
30938,36740,33740
31053,36731,33653
31152,36716,33589
31084,36709,33669
31017,36720,33615
30956,36732,33513
30809,36743,33569
30928,36752,33513
31064,36759,33511
31104,36765,33367
31304,36756,33369
31352,36735,33400
31336,36735,33342
31232,36735,33233
31021,36735,33269
30940,36743,33264
30928,36752,33136
31036,36763,33140
31230,36771,33150
31357,36767,33093
31460,36759,33068
31560,36736,33068
31648,36737,32968
31629,36733,32948
31614,36702,32991
31608,36759,32970
31614,36749,32903
31680,36772,32857
31808,36743,32917
31856,36772,32917
31920,36772,32877
31968,36749,32863
31846,36748,32925
31745,36734,32921
31804,36709,32951
32000,36716,32903
31988,36767,32901
32032,36781,32964
32292,36775,33044
32448,36772,33067
32548,36772,33092
32684,36756,33137
32828,36742,33193
32700,36743,33265
32570,36757,33236
32612,36764,33302
32692,36781,33441
32884,36772,33480
33052,36764,33556
33020,36775,33653
32924,36775,33630
33007,36761,33777
33034,36760,33856
32949,36752,33975
33032,36741,33940
33084,36756,34085
32980,36783,34174
32964,36796,34265
33072,36777,34359
33186,36773,34439
33300,36756,34392
33456,36756,34512
33664,36750,34661
33681,36769,34696
33700,36783,34724
33693,36785,34776
33536,36798,34972
33452,36815,35036
33396,36820,35151
33316,36829,35280
33240,36819,35244
33204,36799,35496
33092,36793,35577
32816,36788,35751
32604,36794,35743
32452,36806,36028
32296,36819,36174
32204,36832,36231
32404,36836,36365
32552,36832,36692
32646,36829,36830
32624,36823,36916
32576,36813,37237
32519,36808,37408
32420,36814,37484
32256,36828,37670
32064,36838,37940
32064,36845,38188
32192,36849,38371
32340,36855,38438
32412,36840,38791
32480,36818,38957
32384,36819,39000
32364,36816,39248
32396,36814,39496
32397,36828,39760
32352,36844,39917
32388,36857,40006
32456,36862,40255
32540,36855,40468
32608,36844,40454
32660,36825,40680
32656,36816,40991
32608,36839,41071
32532,36837,41296
32508,36846,41236
32468,36836,41601
32492,36869,41772
32628,36871,41909
32758,36868,42084
32848,36856,42067
32988,36846,42428
32960,36839,42461
32904,36831,42662
32868,36836,42831
32816,36849,42759
32756,36871,43124
32729,36864,43231
32865,36871,43380
33020,36885,43281
33124,36871,43599
33220,36855,43700
33212,36855,43879
33157,36812,43783
33141,36841,44112
33092,36857,44163
33004,36865,44346
33020,36885,44236
33112,36887,44540
33188,36885,44679
33216,36871,44775
33224,36868,44925
33192,36852,44807
33129,36851,45033
33134,36856,45217
33088,36869,45252
32980,36877,45445
32992,36888,45319
33080,36871,45616
33188,36897,45732
33273,36891,45759
33360,36880,45885
33313,36871,45768
33198,36868,46084
33133,36837,46117
33144,36856,46249
33092,36891,46165
33104,36896,46399
33167,36901,46397
33228,36927,46308
33284,36901,46524
33412,36887,46633
33436,36869,46712
33378,36871,46801
33312,36871,46720
33268,36860,46904
33192,36907,46997
33232,36913,46916
33240,36913,47107
33184,36913,47111
33084,36901,46973
33040,36895,47225
33124,36899,47261
33057,36868,47396
33056,36885,47344
33256,36919,47488
33377,36916,47548
33452,36919,47471
33652,36923,47660
33652,36927,47687
33596,36909,47734
33564,36871,47824
33412,36865,47719
33300,36876,47941
33177,36895,47952
33116,36903,47781
33148,36916,48069
33398,36925,48100
33604,36929,48127
33736,36934,48217
33773,36917,48144
33716,36903,48293
33600,36903,48320
33448,36900,48391
33396,36903,48429
33388,36912,48420
33232,36921,48526
33136,36933,48568
33046,36940,48600
33129,36936,48551
33237,36927,48700
33372,36909,48647
33392,36912,48764
33316,36901,48673
33316,36900,48775
33192,36921,48855
33108,36934,48712
33112,36936,48923
33176,36957,48928
33204,36951,48957
33204,36942,48967
33260,36921,48840
33198,36916,48996
33088,36916,49008
33024,36925,48775
33028,36908,48932
32928,36938,49040
32954,36957,48952
33034,36955,49020
33068,36959,48809
33104,36945,49021
33181,36936,49008
33140,36933,49038
33048,36917,48972
32916,36927,49028
32877,36929,48966
32824,36953,48748
32868,36956,49012
32872,36965,48940
32848,36964,48980
32780,36967,48825
32836,36949,48956
32856,36943,48876
32804,36936,48921
32736,36933,48782
32728,36951,48868
32704,36969,48831
32832,36975,48800
32928,36985,48552
33060,36972,48796
33188,36964,48734
33324,36958,48582
33228,36951,48700
33136,36940,48637
33125,36934,48637
33132,36957,48647
33128,36980,48484
33124,36981,48601
33172,36992,48492
33284,36991,48567
33416,36981,48324
33544,36948,48519
33584,36953,48448
33504,36959,48484
33337,36960,48343
33292,36946,48381
33173,36977,48448
33079,36980,48364
33104,37004,48417
33188,36999,48440
33256,36984,48309
33344,36973,48413
33376,36932,48345
33300,36964,48412
33116,36960,48279
32996,36981,48384
32885,36981,48328
32896,36986,48364
32984,37005,48332
32997,36998,48309
33092,36989,48273
33216,36982,48277
33248,36967,48133
33232,36983,48229
33202,36973,48316
33116,36978,48233
32940,36986,48292
32864,36999,48132
32884,37001,48253
32904,36999,48248
32916,36999,48135
32888,36981,48208
32940,36966,48061
33004,36964,48135
33096,36966,48086
33042,36981,48148
32820,36983,48071
32724,37021,48024
32853,37012,47824
32932,37009,48015
33008,36991,48020
33100,36983,47828
33088,36986,47892
32937,36953,47930
32780,36975,47916
32612,36999,47863
32328,36997,47696
32176,37020,47812
32048,37029,47741
31792,37033,47767
31356,37031,47606
31012,37007,47623
31024,37006,47686
31376,37012,47615
31944,37012,47593
32864,37020,47623
34072,37012,47429
35158,37029,47572
36469,37024,47453
38176,37008,47545
40108,36981,47271
42196,36967,47433
44152,36945,47420
45416,36949,47461
45984,36935,47453
45560,36943,47269
44420,36973,47385
43064,36982,47436
41944,36998,47367
41044,37004,47436
40156,36999,47389
39440,36992,47421
38532,36996,47272
37288,36988,47405
36128,36996,47429
35272,37013,47444
34540,37033,47455
33912,37041,47340
33384,37050,47477
32905,37023,47468
32456,37044,47504
32069,37024,47332
31556,37009,47454
30992,37028,47509
30586,37031,47288
30236,37044,47513
29872,37062,47492
29732,37061,47255
29712,37072,47405
29784,37076,47487
29848,37030,47444
29888,37050,47252
29856,37041,47429
29792,37034,47413
29752,37041,47197
29724,37059,47376
29624,37076,47353
29620,37062,47212
29700,37085,47276
29768,37080,47303
29792,37083,47041
29924,37048,47207
30024,37050,47188
30080,37025,47109
30073,37057,47198
30008,37070,47228
29896,37076,47175
29908,37084,46980
30004,37107,47127
30090,37094,47175
30188,37095,47140
30396,37076,47096
30464,37048,47148
30360,37057,47116
30206,37071,47060
30084,37078,47152
29920,37103,46976
30004,37113,47111
30225,37105,47076
30440,37103,47151
30568,37093,47064
30608,37076,47098
30590,37074,47157
30528,37071,47188
30512,37077,47076
30568,37089,47190
30668,37105,47236
30748,37104,47055
30836,37108,47152
30868,37113,47284
30980,37105,47197
31040,37095,47297
30876,37090,47328
30732,37071,47111
30806,37092,47247
30880,37090,47316
30973,37117,47356
30948,37117,47319
30912,37100,47399
30876,37127,47236
30992,37117,47395
31148,37104,47328
31205,37097,47389
31200,37102,47222
31268,37058,47380
31336,37108,47284
31292,37126,47372
31160,37143,47189
31225,37143,47348
31372,37132,47276
31524,37125,47316
31740,37116,47111
31789,37109,47292
31760,37101,47233
31752,37103,47264
31769,37117,47101
31685,37134,47221
31680,37119,47154
31908,37149,47213
32033,37141,47021
32204,37137,47176
32460,37127,47084
32468,37122,47156
32384,37108,47052
32300,37117,47127
32264,37127,47111
32236,37150,46972
32261,37140,47089
32412,37157,47031
32492,37157,46823
32584,37151,47039
32712,37141,46956
32768,37119,47023
32813,37127,46884
32804,37127,46972
32746,37149,46980
32477,37167,46764
32296,37148,46956
32248,37162,46903
32324,37173,46911
32348,37169,46900
32560,37159,46673
32721,37140,46823
32788,37135,46863
32728,37149,46788
32668,37159,46836
32448,37180,46705
32336,37189,46740
32244,37197,46764
32185,37195,46532
32084,37164,46750
32200,37160,46672
32436,37159,46701
32320,37156,46660
32156,37166,46592
31912,37172,46439
31764,37183,46591
31868,37197,46636
32145,37205,46629
32290,37167,46470
32232,37181,46560
32192,37165,46535
32068,37169,46591
32020,37159,46463
31916,37172,46525
31756,37183,46568
31704,37188,46471
31764,37205,46500
31854,37200,46564
31932,37201,46436
31996,37177,46519
32140,37176,46560
32175,37158,46408
32121,37169,46565
32089,37165,46495
32085,37180,46529
31926,37184,46561
31928,37189,46436
32028,37204,46495
32064,37200,46572
32108,37191,46337
32281,37140,46505
32230,37161,46560
32128,37164,46513
32008,37165,46572
31936,37181,46413
31800,37192,46544
31776,37204,46509
31900,37175,46572
32076,37204,46420
32260,37195,46544
32492,37175,46526
32504,37175,46319
32340,37148,46535
32104,37173,46463
31992,37181,46311
31900,37194,46460
32018,37210,46532
32332,37199,46445
32668,37199,46525
32800,37183,46290
32814,37173,46415
32664,37172,46471
32532,37151,46513
32412,37133,46317
32309,37176,46413
32252,37166,46488
32264,37202,46516
32372,37215,46388
32280,37215,46471
32224,37205,46295
32365,37153,46500
32332,37171,46432
32252,37172,46519
32204,37175,46335
32280,37189,46527
32304,37213,46470
32276,37207,46516
32172,37228,46453
32176,37221,46471
32301,37197,46311
32533,37191,46468
32570,37173,46527
32416,37183,46380
32256,37187,46517
32212,37197,46524
32036,37209,46540
32080,37229,46520
32220,37228,46456
32316,37220,46501
32500,37207,46272
32640,37201,46500
32740,37183,46437
32724,37189,46271
32684,37189,46484
32613,37205,46468
32428,37213,46269
32328,37223,46455
32348,37236,46455
32472,37223,46269
32524,37221,46236
32592,37201,46373
32584,37193,46341
32500,37198,46425
32344,37200,46204
32229,37220,46343
32072,37223,46343
32080,37236,46364
32192,37245,46186
32292,37231,46340
32392,37227,46240
32493,37220,46308
32542,37221,46180
32556,37212,46278
32586,37207,46223
32637,37215,46045
32536,37231,46104
32462,37247,46121
32532,37251,46167
32624,37246,46215
32636,37237,46116
32729,37213,46167
32733,37212,46182
32612,37208,45959
32452,37212,46071
32324,37223,46109
32200,37238,46063
32157,37242,46100
32216,37256,45943
32376,37255,46064
32548,37252,45977
32661,37239,46038
32568,37231,45845
32424,37223,45993
32256,37205,45926
32092,37247,45959
31948,37246,45767
32060,37276,45924
32344,37273,45840
32500,37276,45870
32520,37263,45658
32400,37245,45676
32284,37237,45780
32200,37232,45729
31975,37243,45725
31880,37255,45661
31964,37239,45602
32160,37264,45663
32425,37284,45455
32669,37278,45597
32812,37263,45493
32885,37271,45541
32845,37255,45311
32744,37245,45303
32652,37266,45453
32628,37277,45363
32600,37289,45413
32740,37292,45217
32942,37286,45356
33125,37287,45244
33088,37284,45284
33010,37270,45256
32872,37255,45150
32672,37261,45217
32670,37260,45164
32704,37279,45156
32709,37296,44913
32780,37305,45076
32952,37304,45084
32988,37301,44975
33008,37295,45021
32964,37279,44807
32805,37279,44932
32672,37279,44925
32552,37276,44679
32492,37293,44772
32401,37302,44591
32340,37323,44744
32400,37324,44711
32544,37303,44719
32704,37308,44472
32900,37310,44614
32864,37284,44516
32828,37276,44564
32788,37284,44341
32677,37297,44405
32560,37318,44456
32521,37329,44381
32488,37340,44405
32526,37339,44239
32536,37327,44284
32592,37295,44295
32640,37280,44276
32576,37297,44048
32628,37300,44183
32653,37313,44153
32496,37329,44079
32416,37343,44060
32604,37312,43868
32748,37341,43812
32796,37329,43984
32832,37319,43869
32796,37296,43893
32692,37300,43831
32660,37310,43742
32536,37327,43769
32224,37341,43527
32046,37359,43697
31877,37365,43636
31612,37368,43409
31192,37377,43536
31144,37356,43428
31352,37350,43439
31796,37348,43425
32488,37324,43143
33592,37340,43168
34588,37357,43300
35740,37365,43192
37152,37365,43137
38568,37353,43148
39956,37341,42876
41517,37324,42925
42492,37316,42996
42896,37301,42959
42584,37303,42719
41620,37313,42872
40312,37345,42852
39150,37365,42668
38368,37376,42811
37912,37380,42631
37408,37365,42711
36824,37351,42636
36110,37357,42572
35284,37365,42612
34544,37367,42366
34064,37375,42516
33568,37367,42533
33164,37405,42382
32916,37423,42433
32564,37413,42425
32166,37412,42163
31792,37415,42166
31380,37397,42239
30964,37405,42335
30600,37415,42173
30384,37433,42244
30168,37460,41969
30169,37468,42004
30244,37476,42183
30404,37434,42132
30501,37461,41969
30625,37458,42021
30484,37445,41772
30410,37437,41885
30372,37447,41953
30282,37463,41855
30152,37467,41674
30112,37493,41820
30280,37498,41767
30556,37502,41771
30724,37495,41565
30828,37485,41754
30952,37451,41677
30960,37460,41687
30980,37477,41672
30868,37493,41552
30768,37511,41677
30749,37533,41573
30900,37532,41617
31024,37535,41388
31085,37539,41428
31188,37519,41565
31208,37511,41588
31140,37517,41453
31100,37524,41546
31048,37543,41388
30912,37560,41559
30800,37557,41443
30900,37572,41479
30964,37575,41503
31073,37565,41316
31220,37558,41416
31284,37561,41420
31194,37565,41469
31180,37567,41274
31212,37583,41388
31140,37599,41479
31254,37607,41461
31461,37577,41396
31552,37596,41420
31552,37613,41440
31568,37596,41253
31644,37597,41473
31582,37592,41430
31444,37607,41348
31460,37615,41368
31448,37639,41263
31544,37648,41223
31685,37657,41421
31700,37665,41273
31853,37659,41361
32140,37660,41156
32201,37639,41311
32064,37639,41239
32009,37649,41301
32066,37668,41127
32036,37689,41299
32048,37702,41201
32196,37721,41167
32308,37711,41159
32368,37711,41141
32508,37693,41135
32637,37683,41125
32776,37687,41120
32820,37685,40897
32886,37685,40863
32796,37729,40838
32762,37744,40867
32888,37756,40959
32937,37733,41003
32940,37759,40987
33128,37727,40864
33224,37735,40904
33125,37741,40721
33116,37751,40748
33172,37767,40785
33156,37787,40868
33192,37791,40669
33249,37812,40839
33236,37816,40724
33220,37821,40583
33300,37804,40580
33368,37796,40708
33377,37804,40710
33248,37819,40581
33196,37830,40572
33205,37841,40545
33240,37866,40559
33301,37877,40559
33336,37877,40327
33368,37877,40349
33368,37863,40455
33276,37857,40325
32965,37861,40361
32672,37879,40148
32472,37885,40142
32312,37893,40100
32364,37895,40071
32440,37929,40133
32602,37946,40168
32768,37940,40108
32904,37935,40026
32900,37921,40024
32784,37931,39812
32656,37943,39879
32456,37952,39919
32045,37985,39844
31888,37991,39823
31920,38004,39796
31964,38012,39772
32041,38009,39556
32156,37990,39535
32194,37989,39516
32142,37988,39532
31996,37999,39553
31880,38023,39585
31688,38036,39505
31584,38057,39420
31724,38068,39452
31942,38069,39279
32109,38048,39293
32280,38051,39364
32324,38032,39369
32212,38044,39240
32148,38047,39279
31992,38064,39108
31836,38092,39184
31696,38116,39114
31804,38079,39105
31964,38086,39108
32180,38108,39083
32376,38100,38900
32493,38103,38929
32592,38090,38965
32528,38111,38919
32360,38116,38849
32230,38133,38764
32156,38148,38796
32228,38156,38816
32345,38151,38767
32408,38151,38724
32516,38140,38708
32564,38144,38674
32388,38132,38516
32256,38144,38508
32292,38151,38589
32308,38180,38500
32296,38187,38525
32380,38200,38349
32541,38212,38465
32700,38197,38406
32944,38184,38407
33036,38149,38269
32948,38172,38300
32708,38180,38310
32516,38196,38279
32368,38215,38100
32344,38233,38060
32512,38247,38056
32636,38237,37991
32696,38215,37964
32845,38212,37928
32744,38212,37887
32577,38212,37860
32412,38212,37933
32348,38207,37910
32296,38197,37861
32366,38238,37767
32574,38259,37749
32760,38247,37632
32868,38244,37550
32972,38233,37504
33008,38223,37529
33106,38212,37516
33104,38220,37468
33088,38239,37456
32942,38239,37303
32982,38255,37236
33040,38256,37270
33076,38257,37284
33088,38226,37181
33220,38228,37158
33244,38213,37139
33184,38207,37092
33144,38212,36949
33060,38220,36862
32936,38207,36904
32784,38244,36879
32793,38244,36844
32860,38237,36660
32904,38231,36748
33036,38212,36676
33144,38199,36612
33164,38199,36561
33137,38189,36519
33108,38197,36457
33080,38204,36436
33100,38202,36397
33200,38209,36216
33216,38211,36232
33280,38191,36222
33328,38171,36172
33172,38146,36140
33057,38150,35956
32976,38147,36040
32812,38143,35945
32748,38150,35910
32840,38119,35874
32928,38151,35681
32976,38142,35711
33133,38134,35662
33320,38108,35607
33392,38099,35487
33360,38082,35405
33280,38079,35335
33132,38073,35284
32925,38083,35220
32828,38070,35212
32852,38054,35136
32896,38060,35055
33017,38045,34980
33108,38020,34925
33079,38005,34847
33128,37985,34780
33196,37985,34705
33240,37991,34609
33212,37973,34548
33340,37975,34473
33516,37967,34393
33590,37951,34332
33676,37943,34264
33696,37917,34106
33532,37895,34097
33468,37873,34012
33408,37871,33928
33320,37863,33841
33188,37871,33748
33193,37871,33661
33244,37853,33600
33248,37828,33444
33256,37829,33342
33396,37797,33284
33408,37776,33204
33268,37765,33096
33222,37767,32989
33288,37759,32906
33308,37759,32836
33284,37756,32733
33312,37755,32624
33384,37736,32514
33392,37724,32402
33440,37703,32304
33344,37694,32151
33208,37681,32044
33183,37677,31940
33064,37679,31856
33004,37679,31750
33068,37660,31641
33106,37652,31519
33056,37669,31407
33060,37652,31300
33173,37639,31181
33204,37618,31052
33196,37617,30953
33192,37615,30845
33188,37615,30726
33176,37632,30606
33128,37631,30493
33152,37628,30375
33192,37639,30265
33220,37618,30137
33216,37564,30052
33108,37589,29913
32996,37559,29807
32948,37572,29680
32896,37591,29593
32724,37607,29475
32624,37613,29341
32720,37620,29217
32828,37615,29157
32836,37597,28996
32858,37591,28906
32880,37580,28781
32800,37577,28663
32708,37559,28548
32520,37595,28457
32292,37615,28409
32005,37593,28228
31869,37607,28104
31936,37584,28028
32268,37595,27904
32964,37598,27783
33934,37557,27662
34864,37573,27563
35836,37577,27452
37048,37572,27344
38244,37583,27241
39332,37596,27143
40268,37576,27036
40444,37588,27066
40280,37588,26972
39800,37572,26832
38940,37573,26673
37818,37589,26556
36564,37590,26472
35612,37601,26423
35068,37615,26285
34788,37636,26198
34532,37647,26253
34444,37636,26136
34234,37629,25964
34012,37620,25902
33772,37622,25828
33594,37584,25791
33240,37620,25687
32788,37637,25660
32492,37638,25590
32352,37631,25498
32192,37669,25450
31996,37665,25357
31804,37663,25272
31664,37668,25328
31464,37652,25287
31268,37639,25116
31176,37661,25108
31196,37661,24999
31108,37669,24911
31020,37678,25004
31129,37697,24910
31196,37685,24761
31248,37679,24748
31350,37664,24708
31324,37659,24605
31285,37658,24533
31244,37661,24524
31170,37669,24625
31100,37693,24588
31117,37708,24452
31168,37673,24321
31252,37709,24346
31364,37703,24256
31452,37689,24221
31452,37686,24359
31328,37684,24237
31284,37689,24136
31274,37702,24113
31228,37711,24095
31272,37724,24031
31397,37727,24012
31488,37709,24028
31565,37697,23935
31676,37679,23971
31693,37679,23966
31664,37716,23866
31673,37725,23840
31652,37732,23844
31540,37741,23805
31504,37757,23740
31508,37764,23717
31532,37766,23700
31652,37764,23679
31776,37745,23805
31844,37751,23822
31882,37743,23744
31920,37751,23844
31988,37767,23651
31921,37783,23662
31920,37778,23586
31984,37809,23742
32044,37807,23785
32132,37806,23720
32250,37799,23676
32294,37799,23618
32229,37799,23575
32226,37796,23561
32261,37818,23563
32284,37829,23582
32308,37840,23522
32428,37863,23484
32576,37865,23708
32672,37853,23524
32776,37839,23535
32900,37834,23535
32952,37852,23439
32996,37820,23488
33020,37868,23577
32977,37884,23613
33014,37902,23564
33180,37926,23439
33268,37924,23378
33348,37927,23458
33484,37912,23588
33552,37908,23420
33500,37895,23421
33464,37924,23310
33492,37927,23502
33488,37927,23400
33509,37942,23316
33588,37960,23348
33728,37984,23246
33884,37981,23204
34008,37973,23289
34076,37973,23418
34072,37976,23255
34072,37989,23214
34024,37993,23168
33956,38015,23184
33948,38035,23083
34020,38045,23302
34092,38044,23105
34200,38052,23072
34272,38049,23135
34236,38053,23148
34101,38044,23047
34021,38060,22967
33940,38073,23143
33804,38105,22965
33748,38118,22978
33720,38117,22868
33712,38124,23096
33704,38117,22932
33710,38127,22855
33612,38119,22877
33453,38135,22748
33356,38127,22777
33320,38143,22835
33168,38167,22738
33033,38180,22728
32984,38192,22702
32980,38196,22703
32948,38197,22578
33000,38180,22684
32968,38183,22768
32812,38185,22716
32728,38193,22629
32620,38213,22548
32504,38221,22532
32536,38236,22481
32532,38262,22468
32600,38246,22436
32708,38252,22452
32820,38237,22388
32900,38237,22293
32820,38244,22463
32656,38258,22440
32562,38253,22311
32489,38285,22264
32396,38297,22242
32448,38303,22245
32553,38308,22155
32654,38294,22357
32712,38292,22302
32692,38295,22177
32640,38309,22181
32620,38309,22158
32600,38323,22101
32561,38329,22018
32528,38336,21982
32628,38343,21964
32724,38349,21942
32824,38335,22167
32948,38337,22052
32958,38321,21946
32926,38333,21918
32864,38336,21893
32840,38341,21908
32744,38367,21863
32688,38366,21796
32697,38389,21733
32744,38389,21701
32796,38375,21946
32852,38373,21727
32884,38365,21779
32852,38365,21625
32849,38383,21838
32821,38397,21766
32681,38397,21670
32676,38385,21625
32812,38428,21752
32864,38433,21648
32828,38421,21680
32884,38404,21605
32866,38405,21717
32808,38391,21639
32808,38402,21617
32813,38407,21556
32720,38449,21570
32702,38444,21791
32768,38471,21626
32791,38449,21663
32789,38444,21679
32828,38437,21545
32872,38436,21665
32821,38428,21723
32812,38441,21638
32789,38456,21676
32737,38471,21558
32829,38477,21656
32908,38476,21778
32972,38476,21705
33016,38471,21624
33048,38461,21634
32996,38407,21655
32873,38435,21712
32828,38448,21588
32888,38471,21553
32900,38477,21558
32960,38485,21711
33072,38495,21556
33104,38495,21558
33132,38449,21718
33153,38445,21540
33060,38460,21552
32892,38458,21445
32797,38449,21398
32732,38471,21584
32638,38485,21605
32652,38503,21472
32764,38477,21447
32868,38485,21405
32928,38453,21413
33020,38436,21428
33052,38461,21415
32982,38459,21284
32972,38433,21260
32900,38431,21484
32838,38495,21390
32804,38471,21268
32828,38457,21289
32940,38492,21291
33056,38487,21218
33110,38470,21140
33068,38456,21143
32992,38466,21188
32941,38463,21302
32812,38469,21193
32744,38480,21111
32832,38487,21009
32925,38503,21048
32960,38485,21173
33100,38453,21028
33181,38461,21002
33056,38457,20980
32952,38449,20962
32904,38452,20962
32897,38463,20828
32910,38466,20824
32948,38482,21047
32960,38473,20942
33044,38474,20828
33132,38465,20844
33164,38452,20765
33145,38439,20676
33053,38445,20650
33025,38437,20697
33092,38459,20770
33100,38453,20693
33156,38471,20705
33288,38469,20617
33396,38454,20556
33456,38407,20540
33504,38392,20505
33560,38422,20515
33596,38407,20618
33526,38407,20724
33429,38406,20582
33290,38428,20528
33308,38425,20510
33424,38399,20508
33444,38431,20484
33516,38407,20525
33664,38397,20516
33668,38375,20492
33488,38373,20389
33374,38365,20356
33228,38372,20342
33068,38383,20340
33053,38383,20358
33046,38383,20597
33116,38383,20498
33188,38377,20441
33248,38345,20505
33244,38341,20398
33252,38328,20405
33249,38327,20423
33252,38330,20323
33188,38345,20311
33204,38350,20541
33176,38345,20560
33248,38341,20537
33300,38318,20414
33300,38308,20359
33310,38292,20364
33294,38247,20360
33332,38276,20428
33324,38249,20280
33260,38260,20373
33260,38305,20497
33272,38294,20538
33376,38279,20468
33452,38278,20407
33473,38246,20404
33496,38228,20438
33469,38220,20355
33328,38221,20311
33232,38229,20589
33112,38234,20596
33024,38225,20601
33016,38218,20540
32960,38223,20514
33022,38202,20465
33080,38189,20468
32990,38177,20465
32704,38146,20396
32332,38165,20626
32004,38174,20556
31564,38183,20506
31401,38193,20576
31588,38199,20449
32056,38176,20648
32829,38158,20593
33916,38140,20645
34992,38119,20535
36064,38100,20626
37440,38088,20774
38932,38082,20743
40356,38065,20654
41737,38064,20967
42404,38074,20876
42636,38052,20863
42208,38039,20919
41504,38014,20964
40404,38009,21038
39048,38008,21100
38144,38012,21094
37616,38013,21132
37184,38013,21215
36768,38023,21300
36456,38020,21271
36024,38007,21388
35552,37993,21639
35160,37980,21562
34800,37956,21606
34364,37949,21634
33904,37943,21655
33532,37951,21982
33076,37956,21939
32640,37959,21956
32312,37947,22098
31924,37941,22141
31632,37895,22149
31416,37927,22224
31192,37915,22309
31032,37895,22391
30952,37895,22492
30904,37889,22608
30872,37895,22653
30880,37895,22719
30968,37895,22928
31076,37887,23106
31173,37876,23162
31302,37845,23100
31320,37820,23157
31248,37829,23231
31190,37780,23316
31072,37823,23444
31016,37836,23508
31061,37844,23531
31140,37836,23728
31166,37824,23869
31216,37813,23918
31324,37781,23988
31380,37767,24031
31380,37759,24108
31297,37758,24144
31257,37753,24274
31180,37743,24352
31205,37789,24352
31320,37775,24565
31397,37767,24628
31485,37733,24634
31636,37710,24758
31696,37694,24844
31618,37679,24911
31568,37703,24925
31516,37709,25149
31460,37714,25245
31472,37709,25315
31560,37721,25292
31656,37709,25353
31724,37676,25447
31780,37676,25517
31852,37653,25648
31800,37661,25732
31772,37655,25798
31724,37661,25920
31620,37663,25957
31640,37669,26149
31737,37668,26283
31840,37660,26267
31936,37639,26343
32037,37631,26476
32068,37607,26591
32072,37607,26642
32110,37595,26811
32097,37607,26945
32044,37620,26937
32124,37615,27060
32216,37609,27128
32336,37607,27259
32440,37599,27324
32564,37580,27421
32497,37572,27517
32429,37558,27686
32332,37557,27812
32334,37556,27909
32364,37569,27984
32480,37572,28072
32663,37578,28164
32805,37581,28220
32928,37557,28268
33048,37511,28340
33156,37540,28443
33116,37525,28534
33056,37526,28645
33056,37541,28705
33032,37543,28794
33097,37550,28868
33236,37556,28903
33292,37543,28939
33358,37545,29008
33412,37522,29076
33425,37519,29110
33393,37521,29239
33380,37510,29239
33380,37524,29293
33368,37543,29345
33373,37543,29408
33444,37551,29433
33540,37540,29471
33617,37552,29544
33624,37527,29594
33592,37519,29609
33528,37517,29628
33484,37516,29658
33404,37524,29703
33248,37538,29733
33173,37565,29756
33216,37557,29765
33212,37559,29807
33149,37543,29821
33160,37532,29832
33100,37527,29855
32968,37514,29861
32868,37508,29895
32741,37529,29916
32592,37543,29924
32472,37556,29918
32434,37565,29932
32420,37562,29931
32501,37554,29929
32604,37541,29956
32652,37540,29973
32616,37537,29965
32604,37543,29951
32604,37540,29953
32520,37567,29943
32500,37572,29933
32552,37581,29927
32580,37578,29924
32620,37575,29925
32708,37561,29947
32737,37548,29940
32680,37556,29909
32636,37528,29892
32620,37575,29878
32500,37589,29887
32496,37605,29868
32572,37600,29858
32654,37605,29848
32702,37597,29836
32800,37595,29831
32780,37567,29826
32741,37576,29807
32716,37585,29788
32692,37592,29823
32609,37608,29796
32653,37618,29765
32720,37628,29764
32752,37636,29736
32816,37591,29766
32932,37607,29733
32877,37606,29724
32808,37604,29713
32752,37609,29724
32696,37633,29703
32661,37638,29668
32693,37612,29676
32784,37659,29670
32788,37661,29669
32824,37655,29644
32902,37649,29645
32924,37632,29613
32900,37635,29655
32868,37638,29638
32820,37650,29644
32748,37669,29614
32745,37679,29635
32736,37693,29616
32780,37680,29621
32852,37671,29609
32996,37663,29664
33056,37663,29673
33009,37657,29659
32920,37653,29677
32872,37681,29664
32832,37692,29735
32885,37711,29718
33032,37711,29741
33116,37716,29744
33164,37700,29808
33209,37680,29789
33208,37681,29822
33108,37693,29836
33048,37690,29884
33008,37670,29921
32944,37711,29924
32960,37724,29947
33084,37732,29972
33137,37728,29997
33210,37729,30015
33308,37719,30048
33304,37712,30092
33212,37708,30108
33136,37706,30133
33088,37716,30151
33021,37732,30199
33056,37751,30205
33116,37753,30223
33116,37756,30249
33116,37737,30272
33160,37735,30292
33164,37725,30313
33124,37728,30335
33072,37735,30380
33012,37739,30388
32962,37748,30406
32980,37756,30416
33049,37765,30439
33112,37767,30458
33194,37761,30486
33248,37757,30518
33176,37741,30534
33053,37745,30553
33056,37718,30573
33066,37756,30570
33004,37773,30616
33048,37767,30636
33148,37784,30659
33196,37792,30670
33212,37787,30688
33241,37772,30727
33225,37764,30738
33128,37764,30764
32997,37767,30787
32900,37775,30799
32816,37791,30815
32864,37797,30855
32968,37810,30873
32992,37813,30892
33036,37803,30916
33148,37793,30934
33116,37791,30933
33024,37777,30983
32925,37788,31004
32816,37803,31028
32704,37815,31040
32722,37816,31061
32788,37831,31079
32872,37828,31088
32925,37815,31102
32996,37801,31140
33041,37797,31159
33084,37797,31181
33128,37793,31203
33136,37797,31220
33066,37827,31234
33120,37837,31232
33228,37847,31253
33304,37845,31260
33336,37819,31294
33425,37797,31335
33432,37817,31326
33373,37796,31353
33288,37805,31361
33196,37828,31364
33056,37835,31396
32972,37841,31417
32960,37863,31421
33012,37849,31429
33030,37844,31431
33132,37808,31447
33156,37814,31463
33116,37813,31471
33036,37823,31483
32952,37831,31468
32857,37838,31469
32868,37859,31472
32900,37855,31506
32964,37849,31498
33032,37852,31495
33128,37831,31480
33136,37818,31511
33057,37826,31493
33004,37823,31489
32992,37836,31460
32936,37846,31475
32924,37852,31463
32912,37856,31449
32900,37863,31420
32917,37845,31431
32996,37836,31421
33072,37812,31392
33024,37820,31381
32996,37823,31357
32957,37836,31338
32936,37836,31303
32916,37857,31273
32980,37862,31268
33020,37857,31247
33044,37845,31207
33132,37823,31182
33096,37817,31141
33000,37819,31116
32940,37821,31081
32868,37829,31048
32777,37844,31013
32764,37863,30972
32780,37861,30947
32726,37835,30920
32644,37845,30886
32484,37831,30837
32196,37841,30807
31745,37845,30769
31284,37848,30732
30864,37885,30688
30877,37885,30649
31312,37892,30636
31956,37889,30602
32992,37886,30564
34288,37868,30528
35740,37845,30500
37312,37836,30460
38949,37820,30416
40916,37823,30412
43173,37811,30380
45080,37812,30369
46220,37812,30335
46572,37817,30304
45908,37812,30286
44696,37819,30238
43516,37820,30201
42364,37814,30183
41380,37813,30154
40448,37809,30129
39672,37824,30097
38540,37839,30073
37344,37869,30060
36384,37871,30042
35716,37871,30004
35092,37853,29980
34472,37847,29959
33828,37837,29954
33188,37841,29950
32520,37851,29932
31832,37861,29900
31164,37884,29849
30725,37895,29828
30444,37893,29788
30204,37847,29768
30026,37876,29736
29968,37865,29692
29932,37862,29653
29848,37856,29663
29828,37862,29610
29808,37869,29557
29768,37881,29529
29792,37890,29485
29849,37895,29429
29860,37866,29433
29896,37879,29380
29992,37871,29352
30032,37867,29305
30016,37863,29335
29960,37856,29327
29905,37871,29275
29844,37889,29240
29860,37894,29222
29896,37893,29191
29936,37870,29157
30076,37841,29132
30192,37839,29191
30216,37823,29169
30188,37817,29148
30165,37808,29138
30128,37821,29127
30068,37861,29088
30136,37880,29063
30260,37895,29008
30321,37884,29023
30369,37872,29017
30412,37863,28995
30380,37863,28996
30326,37860,28965
30336,37831,28956
30308,37860,28924
30264,37876,28951
30280,37895,28961
30372,37881,28957
30452,37884,28903
30493,37847,28870
30618,37828,28855
30700,37845,28831
30652,37863,28837
30596,37863,28860
30548,37876,28793
30536,37895,28772
30573,37895,28740
30700,37895,28759
30816,37893,28716
30936,37887,28690
31100,37876,28640
31160,37871,28668
31116,37868,28656
31106,37847,28620
31084,37881,28583
31040,37895,28565
31092,37895,28530
31184,37904,28445
31260,37908,28438
31344,37868,28368
31444,37840,28380
31504,37868,28383
31528,37876,28296
31552,37884,28236
31560,37894,28228
31552,37910,28198
31584,37917,28164
31716,37926,28206
31808,37921,28080
31886,37910,28084
32052,37895,28009
32116,37887,28044
32112,37895,27965
32096,37895,27951
32077,37906,27910
32104,37911,27957
32202,37929,27887
32332,37930,27823
32372,37926,27791
32432,37929,27821
32528,37916,27841
32564,37912,27728
32525,37916,27702
32484,37913,27733
32520,37902,27684
32460,37924,27645
32460,37942,27585
32500,37949,27681
32548,37951,27561
32642,37933,27508
32764,37924,27598
32776,37895,27454
32688,37916,27453
32672,37916,27541
32608,37930,27403
32492,37959,27390
32444,37933,27332
32484,37927,27383
32484,37959,27417
32500,37948,27369
32544,37940,27254
32481,37930,27252
32364,37924,27217
32232,37937,27268
32150,37945,27263
32060,37958,27143
32048,37962,27162
32084,37974,27101
32116,37967,27063
32144,37949,27170
32186,37948,27052
32225,37933,27044
32241,37927,27006
32200,37921,27016
32164,37942,27105
32056,37953,27036
32016,37957,26948
32004,37964,26936
32056,37959,26943
32076,37957,26865
32188,37937,26989
32252,37928,26892
32240,37926,26841
32276,37924,26846
32308,37925,26790
32240,37919,26926
32257,37942,26799
32324,37948,26804
32380,37948,26733
32420,37940,26759
32544,37920,26724
32572,37895,26833
32536,37907,26724
32493,37908,26684
32468,37919,26695
32432,37895,26783
32432,37936,26652
32528,37940,26661
32528,37949,26729
32572,37927,26755
32642,37912,26617
32656,37913,26657
32560,37895,26596
32546,37905,26665
32460,37913,26594
32426,37913,26583
32438,37931,26680
32480,37928,26717
32526,37927,26578
32594,37919,26612
32673,37895,26540
32648,37892,26534
32576,37887,26629
32536,37886,26649
32508,37895,26631
32436,37892,26555
32452,37924,26575
32524,37925,26508
32569,37919,26604
32564,37895,26626
32664,37895,26532
32716,37890,26551
32614,37884,26597
32588,37885,26640
32564,37876,26565
32464,37893,26549
32432,37921,26700
32517,37919,26589
32548,37914,26631
32572,37895,26630
32696,37877,26653
32805,37863,26637
32796,37868,26663
32796,37861,26638
32780,37880,26653
32712,37876,26664
32748,37885,26757
32802,37895,26783
32820,37892,26817
32860,37890,26775
32956,37876,26727
32976,37857,26789
32900,37857,26759
32849,37860,26815
32812,37871,26914
32752,37876,26913
32716,37889,26864
32800,37887,26812
32884,37877,26853
32917,37873,26838
32994,37857,26827
32968,37847,26812
32904,37839,26968
32848,37839,26957
32792,37845,26864
32736,37861,26887
32744,37870,26919
32828,37865,26877
32920,37862,26928
32968,37844,26988
33032,37837,26933
33006,37820,26901
32950,37820,26978
32873,37826,26946
32864,37836,26924
32796,37845,26980
32797,37849,27055
32845,37857,26959
32840,37844,26941
32840,37831,26981
32932,37820,26964
32952,37800,26944
32860,37806,27041
32812,37805,27091
32761,37823,27000
32665,37804,26996
32662,37841,26968
32700,37837,26975
32760,37830,26978
32800,37815,27031
32860,37800,27037
32790,37780,27008
32733,37782,27012
32684,37777,27003
32692,37791,27085
32628,37804,27132
32684,37817,27060
32832,37811,27063
32978,37812,27051
33084,37796,27099
33212,37784,27176
33205,37788,27083
33158,37767,27105
33133,37767,27127
33129,37775,27097
33100,37767,27164
33145,37766,27240
33196,37780,27133
33276,37766,27143
33296,37765,27177
33288,37743,27151
33256,37748,27295
33148,37720,27309
33088,37751,27317
32996,37748,27322
32941,37761,27321
32936,37775,27356
32980,37780,27319
33032,37765,27268
33088,37767,27305
33160,37743,27313
33140,37743,27293
33060,37733,27303
32996,37725,27308
32928,37724,27326
32836,37753,27364
32858,37757,27439
32904,37765,27484
32940,37765,27411
32992,37751,27398
33080,37732,27438
33112,37695,27517
33081,37684,27513
33030,37719,27444
32985,37727,27461
32900,37708,27470
32909,37741,27496
32990,37735,27493
33008,37745,27495
33049,37743,27624
33128,37727,27568
33089,37716,27559
33000,37712,27594
32925,37715,27556
32868,37729,27692
32814,37737,27596
32832,37734,27620
32884,37742,27704
32984,37748,27649
33072,37735,27679
33104,37724,27655
33080,37719,27783
32972,37712,27703
32825,37704,27726
32724,37718,27713
32508,37749,27762
32320,37758,27844
32114,37772,27852
31797,37777,27817
31440,37775,27788
31092,37767,27836
31069,37750,27820
31401,37752,27919
31984,37756,27940
32904,37767,27900
34004,37766,27894
35308,37768,27933
36836,37773,27936
38472,37755,27930
40348,37719,28039
42604,37713,28076
44592,37676,28076
45864,37686,28033
46380,37682,28076
45860,37692,28053
44700,37704,28198
43484,37728,28138
42412,37740,28176
41552,37744,28167
40636,37740,28246
39972,37741,28271
38944,37732,28265
37620,37735,28284
36430,37737,28351
35544,37753,28404
34804,37777,28380
34092,37799,28390
33493,37797,28466
32960,37785,28466
32432,37781,28496
31944,37756,28481
31420,37780,28596
30924,37764,28549
30564,37767,28580
30224,37771,28615
29964,37815,28628
29872,37815,28670
29876,37828,28666
29976,37788,28701
30032,37798,28677
30068,37807,28777
30028,37799,28738
29984,37791,28748
29952,37805,28792
29940,37812,28821
29870,37823,28812
29896,37809,28821
29952,37838,28884
30052,37831,28900
30168,37828,28917
30264,37815,28929
30276,37811,28964
30188,37780,29028
30132,37812,29038
30048,37814,29041
29992,37832,29137
30044,37844,29116
30160,37863,29146
30256,37850,29185
30336,37806,29212
30440,37837,29240
30472,37813,29304
30416,37824,29289
30408,37829,29324
30416,37844,29297
30333,37835,29416
30429,37861,29396
30553,37871,29444
30606,37877,29469
30652,37865,29510
30705,37869,29543
30736,37849,29567
30732,37828,29572
30784,37856,29652
30756,37854,29666
30685,37884,29684
30704,37894,29703
30845,37893,29765
30918,37893,29772
30997,37886,29807
31101,37879,29798
31088,37876,29885
31053,37872,29882
31028,37839,29916
31015,37895,29963
30948,37911,29975
30980,37918,30008
31085,37934,30012
31197,37927,30086
31294,37927,30081
31436,37917,30093
31520,37895,30102
31580,37895,30118
31600,37911,30172
31584,37927,30157
31556,37927,30181
31592,37948,30198
31688,37959,30228
31757,37932,30224
31792,37948,30228
31908,37945,30277
31956,37934,30261
31989,37935,30256
31969,37938,30292
31952,37966,30301
31972,37973,30300
32044,37983,30317
32164,37996,30309
32248,38002,30332
32328,37989,30378
32420,37973,30382
32452,37991,30360
32440,37947,30360
32448,37983,30412
32432,37993,30412
32404,38005,30427
32448,38023,30429
32544,38031,30439
32592,38036,30481
32648,38029,30484
32762,37989,30495
32720,38023,30500
32653,38011,30548
32608,38023,30543
32560,38036,30549
32492,38036,30605
32496,38066,30597
32588,38068,30615
32650,38087,30652
32676,38073,30657
32712,38069,30676
32637,38061,30714
32508,38060,30741
32420,38068,30751
32317,38076,30766
32212,38110,30788
32225,38116,30836
32262,38108,30844
32308,38101,30855
32300,38118,30885
32352,38105,30900
32320,38113,30943
32176,38105,30959
32096,38109,30973
32073,38125,31023
32020,38140,31028
31984,38125,31045
32024,38171,31092
32064,38162,31111
32088,38135,31121
32156,38151,31159
32158,38156,31172
32088,38151,31193
32064,38151,31231
32050,38171,31239
31996,38180,31276
32044,38198,31298
32108,38180,31309
32192,38208,31332
32248,38205,31343
32302,38201,31385
32284,38189,31416
32192,38199,31432
32108,38181,31445
32118,38215,31463
32100,38224,31502
32169,38244,31532
32260,38252,31559
32320,38253,31580
32388,38247,31588
32456,38244,31633
32472,38253,31662
32424,38244,31669
32352,38218,31704
32268,38245,31743
32216,38269,31769
32212,38284,31802
32270,38279,31829
32344,38295,31843
32380,38254,31878
32464,38279,31920
32452,38271,31959
32396,38279,31980
32357,38284,32007
32324,38300,32052
32224,38313,32072
32228,38326,32078
32288,38341,32125
32336,38348,32154
32374,38332,32165
32453,38319,32220
32396,38331,32237
32336,38327,32250
32276,38332,32308
32238,38346,32328
32168,38375,32347
32204,38338,32405
32284,38393,32428
32340,38399,32435
32413,38388,32488
32534,38399,32504
32560,38382,32569
32524,38391,32596
32480,38388,32613
32460,38420,32652
32408,38420,32725
32372,38439,32764
32425,38447,32797
32480,38455,32840
32540,38429,32851
32612,38431,32882
32625,38429,32945
32564,38430,32991
32524,38451,32978
32476,38460,33065
32420,38472,33085
32428,38483,33102
32504,38500,33147
32596,38503,33191
32700,38487,33236
32792,38486,33220
32769,38478,33309
32688,38468,33341
32652,38493,33326
32620,38511,33391
32548,38497,33420
32544,38535,33412
32616,38549,33492
32684,38556,33513
32720,38556,33556
32780,38543,33543
32804,38543,33548
32760,38515,33629
32704,38543,33660
32644,38556,33711
32564,38565,33671
32544,38593,33760
32604,38592,33788
32653,38598,33753
32704,38599,33849
32836,38584,33865
32864,38587,33836
32788,38582,33935
32752,38596,33925
32694,38621,33940
32572,38605,33949
32546,38644,34029
32588,38647,34052
32668,38653,34027
32720,38645,34092
32732,38644,34139
32760,38644,34149
32724,38598,34101
32620,38601,34140
32532,38663,34205
32453,38679,34247
32464,38690,34189
32516,38683,34285
32544,38703,34297
32564,38708,34334
32625,38703,34272
32632,38696,34340
32604,38684,34405
32568,38694,34408
32548,38721,34438
32524,38735,34476
32600,38754,34412
32756,38733,34481
32860,38750,34552
32900,38759,34556
33008,38749,34596
33084,38745,34567
33064,38744,34588
33068,38754,34661
33068,38725,34684
33024,38779,34734
33023,38798,34702
33060,38801,34700
33088,38799,34792
33072,38798,34847
33048,38784,34870
32972,38791,34885
32849,38797,34930
32812,38791,34872
32828,38821,34892
32808,38839,35015
32812,38850,35053
32868,38852,34985
32920,38850,35004
32996,38853,35124
33081,38852,35140
33052,38810,35162
33001,38853,35140
32912,38854,35148
32824,38860,35249
32769,38885,35298
32765,38901,35278
32824,38901,35335
32889,38903,35257
32936,38903,35365
32996,38907,35371
33012,38861,35417
32984,38884,35351
32964,38893,35447
32944,38919,35452
32844,38935,35488
32800,38950,35504
32854,38952,35542
32904,38959,35549
32898,38959,35580
32940,38955,35543
32945,38956,35548
32918,38950,35556
32892,38959,35584
32936,38938,35668
32864,38989,35652
32864,38999,35679
32972,39004,35708
33052,39015,35645
33104,39013,35631
33109,39003,35664
33028,38983,35760
32844,38999,35756
32668,39005,35764
32420,39023,35791
32048,39047,35814
31641,39076,35766
31300,39047,35733
31056,39088,35774
31068,39047,35854
31553,39071,35847
32148,39065,35861
33048,39063,35900
34212,39081,35816
35532,39076,35876
37004,39084,35928
38656,39088,35940
40644,39084,35888
42976,39071,35893
45168,39060,35996
46616,39041,35980
47221,39029,35957
46680,39036,35967
45480,39055,36028
44150,39072,36056
42916,39100,36097
41896,39128,36060
41012,39138,36092
40244,39142,36128
39128,39121,36053
37836,39132,36103
36656,39132,36183
35736,39137,36192
34992,39148,36223
34260,39160,36229
33568,39189,36257
32952,39197,36180
32384,39213,36266
31860,39175,36279
31352,39189,36297
30964,39209,36329
30662,39204,36261
30346,39193,36247
30080,39224,36377
29956,39236,36365
29888,39258,36276
29857,39250,36380
29908,39271,36366
29928,39279,36396
29988,39276,36324
30084,39266,36367
30124,39225,36359
30064,39262,36319
30036,39254,36307
30012,39279,36407
29973,39293,36393
30014,39315,36270
30100,39317,36354
30180,39321,36429
30192,39303,36416
30276,39311,36359
30272,39300,36423
30268,39303,36439
30256,39318,36450
30220,39316,36372
30152,39334,36487
30196,39357,36487
30345,39366,36436
30453,39366,36476
30572,39318,36456
30672,39352,36415
30684,39359,36468
30649,39348,36453
30654,39325,36408
30678,39358,36451
30628,39385,36452
30642,39396,36369
30745,39404,36479
30820,39405,36436
30932,39411,36461
31076,39404,36321
31132,39397,36417
31136,39399,36377
31096,39383,36383
31080,39412,36279
31036,39426,36319
31024,39455,36290
31109,39454,36196
31168,39427,36187
31228,39444,36192
31324,39447,36166
31360,39431,36015
31340,39431,36092
31288,39442,36053
31284,39469,35972
31296,39470,35949
31388,39460,35820
31440,39490,35845
31540,39495,35774
31632,39486,35639
31761,39431,35636
31748,39461,35572
31752,39464,35527
31741,39477,35479
31788,39480,35303
31804,39506,35280
31904,39516,35236
32032,39525,35140
32144,39523,35036
32192,39516,35023
32300,39509,34961
32320,39501,34876
32264,39498,34819
32264,39505,34687
32272,39512,34681
32288,39542,34596
32384,39559,34501
32608,39559,34463
32756,39559,34385
32792,39513,34273
32872,39532,34233
32908,39533,34174
32852,39537,34092
32857,39527,34050
32873,39532,33988
32868,39552,33927
32892,39583,33842
32956,39591,33772
32966,39581,33742
33078,39570,33689
33183,39579,33590
33224,39566,33573
33116,39557,33516
33068,39559,33428
32980,39580,33404
32848,39597,33347
32816,39591,33276
32823,39604,33248
32840,39613,33195
32856,39607,33132
32896,39588,33093
32832,39593,33045
32676,39591,33021
32564,39589,32977
32460,39604,32927
32342,39628,32904
32292,39632,32861
32320,39652,32832
32380,39640,32800
32408,39628,32770
32432,39620,32742
32349,39593,32716
32204,39616,32697
32128,39621,32660
32076,39631,32642
32016,39645,32628
32126,39652,32600
32300,39623,32580
32436,39655,32566
32488,39644,32554
32568,39641,32529
32529,39631,32523
32404,39628,32502
32332,39623,32500
32310,39642,32484
32257,39607,32480
32300,39636,32466
32356,39662,32481
32428,39679,32455
32476,39652,32444
32520,39645,32445
32502,39639,32440
32440,39628,32439
32416,39630,32432
32360,39645,32434
32336,39665,32425
32397,39632,32449
32448,39669,32431
32512,39671,32429
32556,39671,32430
32652,39618,32447
32656,39639,32445
32604,39632,32450
32532,39630,32455
32460,39647,32461
32400,39652,32459
32452,39667,32459
32501,39674,32481
32580,39647,32493
32592,39639,32500
32666,39652,32500
32677,39652,32496
32640,39647,32528
32676,39652,32541
32656,39625,32541
32576,39661,32545
32532,39687,32556
32584,39698,32576
32628,39687,32588
32652,39679,32604
32724,39671,32629
32694,39655,32668
32632,39664,32693
32597,39626,32703
32584,39671,32743
32485,39701,32775
32492,39687,32817
32608,39687,32841
32708,39700,32893
32756,39715,32928
32860,39687,32945
32869,39680,33006
32792,39687,33050
32744,39679,33103
32704,39687,33151
32594,39702,33180
32596,39716,33231
32624,39724,33292
32682,39726,33342
32736,39709,33388
32828,39701,33409
32860,39677,33484
32804,39698,33532
32780,39701,33585
32728,39723,33591
32640,39731,33671
32696,39705,33713
32774,39739,33734
32860,39732,33794
32912,39736,33838
32956,39687,33858
32984,39713,33937
32912,39722,33967
32864,39724,33989
32796,39732,34055
32692,39750,34088
32644,39757,34142
32744,39757,34144
32800,39756,34221
32837,39751,34262
32900,39750,34259
32984,39740,34344
32960,39732,34380
32940,39700,34373
32932,39748,34462
32856,39756,34487
32824,39789,34469
32864,39750,34564
32933,39783,34581
32964,39775,34549
33040,39772,34656
33016,39761,34663
32933,39764,34678
32870,39733,34665
32796,39780,34720
32712,39793,34733
32728,39805,34738
32820,39813,34780
32828,39815,34793
32840,39811,34815
32952,39796,34786
32937,39791,34848
32901,39799,34863
32836,39792,34876
32796,39805,34868
32704,39820,34822
32712,39831,34896
32770,39837,34862
32868,39845,34909
32980,39825,34885
33160,39823,34935
33280,39815,34932
33300,39815,34911
33244,39831,34941
33184,39831,34957
33137,39813,34949
33160,39852,34932
33192,39865,34991
33236,39864,35017
33276,39870,34984
33364,39849,35016
33364,39836,34976
33297,39841,35054
33200,39847,35052
33112,39849,34996
33008,39863,35066
32952,39879,35022
33016,39887,35109
33116,39879,35116
33180,39887,35108
33269,39856,35127
33340,39862,35112
33284,39858,35175
33184,39872,35173
33112,39844,35129
33016,39871,35227
32972,39887,35220
32976,39895,35197
33060,39903,35207
33081,39898,35255
33145,39877,35270
33128,39876,35204
33021,39879,35293
33004,39887,35293
33016,39893,35236
32944,39892,35327
32872,39925,35328
32980,39925,35268
33028,39887,35316
33096,39903,35349
33160,39917,35364
33182,39911,35318
33153,39900,35356
33128,39903,35409
33048,39911,35431
32968,39933,35360
32972,39943,35449
33044,39913,35454
33108,39943,35431
33136,39959,35471
33216,39943,35485
33238,39941,35452
33137,39932,35463
33077,39919,35524
32964,39943,35541
32800,39957,35481
32695,39968,35561
32640,39943,35557
32497,39973,35564
32228,39991,35575
31936,39940,35526
31504,39980,35596
31081,39990,35584
31021,39989,35612
31396,39993,35548
31906,40023,35574
32900,40015,35633
34188,40005,35639
35626,40012,35588
37212,40012,35621
38936,39980,35640
40944,39935,35671
43192,39940,35596
45284,39935,35680
46568,39940,35689
47072,39943,35613
46516,39967,35697
45404,39975,35711
44276,39983,35662
43148,39972,35715
42260,39980,35727
41328,39976,35678
40400,39983,35740
39052,39965,35741
37577,39996,35687
36332,40023,35750
35428,40035,35764
34700,40041,35722
34072,40030,35756
33446,40039,35703
32868,39991,35765
32304,40031,35769
31648,40036,35697
31069,40045,35768
30632,39996,35761
30232,40057,35693
29972,40079,35764
29912,40087,35758
29873,40082,35662
29876,40085,35732
29952,40076,35705
29997,40045,35637
30009,40071,35611
30053,40071,35663
30004,40084,35620
29937,40095,35574
29984,40100,35540
30045,40063,35563
30080,40108,35557
30111,40119,35532
30206,40103,35517
30248,40093,35460
30212,40096,35468
30180,40048,35431
30132,40105,35440
30103,40117,35362
30085,40135,35421
30149,40132,35413
30268,40103,35312
30369,40132,35364
30488,40118,35335
30544,40127,35273
30512,40108,35295
30464,40092,35279
30448,40132,35216
30380,40145,35228
30460,40129,35164
30548,40160,35207
30612,40167,35181
30684,40145,35113
30776,40143,35125
30840,40136,35053
30804,40143,35092
30769,40149,35053
30748,40157,35039
30688,40151,35009
30693,40173,34975
30780,40199,34956
30836,40199,34932
30937,40189,34918
31048,40181,34852
31104,40182,34847
31116,40172,34799
31116,40177,34797
31072,40196,34772
30984,40164,34757
31084,40198,34693
31220,40216,34693
31320,40221,34668
31380,40223,34587
31468,40176,34592
31525,40199,34573
31500,40199,34499
31492,40217,34495
31482,40221,34449
31452,40228,34404
31476,40241,34357
31633,40253,34332
31804,40263,34257
31908,40263,34252
32020,40251,34181
32061,40242,34157
32072,40247,34109
32080,40252,34037
32064,40256,34012
32016,40278,33972
32072,40279,33898
32180,40297,33856
32281,40286,33821
32412,40295,33772
32560,40285,33708
32629,40280,33684
32628,40285,33633
32588,40260,33564
32564,40298,33532
32544,40319,33484
32665,40327,33426
32868,40334,33401
32908,40308,33348
32988,40325,33287
33120,40327,33260
33120,40319,33212
33064,40280,33159
33016,40327,33125
32972,40334,33081
32876,40351,33028
32890,40368,32997
32944,40380,32951
32940,40335,32900
32932,40373,32884
32920,40367,32832
32920,40360,32782
32812,40368,32765
32712,40377,32717
32612,40349,32668
32416,40394,32647
32344,40403,32597
32348,40380,32555
32386,40417,32519
32352,40404,32485
32406,40405,32441
32368,40398,32390
32256,40391,32372
32148,40408,32327
32098,40412,32285
32024,40423,32261
31984,40445,32202
