ECG,EDA,RR
32924,110,31718
32965,112,31841
32919,113,31803
32864,104,31847
32776,104,31860
32712,106,31870
32669,106,32012
32668,109,32084
32728,125,32052
32801,107,32237
32844,108,32231
32960,106,32097
32999,105,32391
32992,107,32431
32996,109,32557
32888,108,32423
32789,108,32789
32652,106,32709
32549,106,32853
32647,108,32838
33009,105,33079
33306,108,32948
33496,105,33135
33586,107,33101
33469,106,33249
33333,106,33263
33089,103,33141
32504,105,33372
31706,113,33565
31129,111,33510
30505,112,33681
29704,113,33599
28778,112,33828
27520,112,33872
26106,114,33815
24719,129,33927
23452,133,34019
22380,118,33979
21100,134,34215
20012,131,34041
19732,116,34233
20592,116,34110
22232,113,34311
23980,109,34333
25822,108,34479
28319,115,34367
31313,111,34469
33928,109,34494
35357,115,34254
36012,118,34508
36296,110,34559
36264,109,34665
35921,111,34465
35468,110,34801
34908,113,34599
34415,111,34745
34124,112,34815
33957,111,34627
33861,111,34839
33932,127,34927
34188,106,34879
34404,107,34894
34383,104,34967
34428,105,34807
34452,103,35031
34512,112,35038
34596,111,34898
34548,111,35022
34508,109,34749
34349,110,35043
34272,108,35181
34356,113,34949
34444,109,35101
34422,105,35147
34352,103,35070
34188,103,35163
34000,102,35285
33868,115,35091
33889,111,35157
33940,110,35239
34132,122,35255
34183,128,35015
34004,111,35307
33762,110,35179
33650,110,35302
33636,112,35101
33609,111,35299
33508,110,35403
33550,128,35445
33732,109,35309
33772,107,35385
33724,109,35091
33748,108,35309
33792,108,35455
33704,107,35259
33532,107,35428
33365,108,35383
33359,108,35420
33408,107,35389
33466,107,35119
33480,106,35476
33576,106,35281
33553,106,35407
33463,103,35439
33348,112,35140
33232,111,35351
33132,111,35495
33052,119,35335
33004,119,35390
32900,116,35119
32745,109,35263
32912,107,35350
33220,106,35412
33180,106,35399
33084,105,35227
32910,103,35367
32910,105,35263
32976,103,35425
33143,111,35311
33184,111,35172
33124,129,35247
33209,109,35327
33369,107,35257
33500,123,35247
33462,106,35229
33368,105,35303
33212,105,35103
33076,104,35266
33004,112,35373
33136,114,35247
33220,113,34989
33253,110,35207
33336,109,35213
33388,124,35379
33448,109,35199
33500,105,35290
33422,108,35153
33441,109,35420
33576,109,35188
33692,129,35331
33764,117,35252
33780,106,35445
33776,108,35284
33708,106,35361
33591,113,35335
33469,127,35347
33428,115,35377
33399,105,35108
33344,107,35303
33272,104,35511
33252,105,35364
33274,83,35431
33384,112,35244
33376,112,35463
33317,110,35525
33172,110,35279
32897,113,35439
32656,115,35153
32673,123,35420
32784,114,35553
32788,111,35397
32788,111,35165
32860,110,35569
33092,110,35381
33256,129,35492
33172,107,35217
33222,106,35575
33556,106,35365
33557,104,35477
33484,104,35195
33444,101,35503
33480,78,35519
33492,112,35453
33432,114,35517
33392,110,35435
33248,114,35629
33174,110,35455
33082,121,35495
33036,109,35551
33028,105,35364
33052,105,35559
33076,97,35535
33124,103,35523
33140,110,35567
33154,127,35579
33020,108,35271
32913,107,35484
32868,100,35479
32792,112,35599
32768,111,35525
32862,111,35492
33012,108,35479
33060,105,35523
32960,112,35557
32664,111,35559
32424,127,35551
32304,106,35287
32312,99,35415
32484,112,35527
32586,109,35649
32895,127,35663
33121,105,35641
33012,98,35522
32877,112,35415
32900,125,35513
32752,105,35535
32568,112,35455
32544,106,35653
32584,76,35619
32636,113,35575
32872,107,35620
32948,99,35613
32856,111,35645
32724,127,35502
32633,106,35401
32540,103,35401
32484,113,35455
32484,109,35385
32520,114,35389
32556,120,35479
32572,108,35521
32623,105,35524
32886,104,35201
32848,83,35428
32685,110,35359
32479,123,35476
32365,108,35585
32321,103,35511
32360,115,35455
32462,109,35310
32612,111,35431
32681,110,35181
32748,109,35439
32757,110,35483
32785,120,35323
32808,130,35455
32704,121,35351
32596,126,35461
32596,108,35428
32600,107,35397
32448,107,35104
32452,109,35471
32720,105,35223
32721,104,35353
32520,104,35399
32382,99,35375
32516,112,35060
32536,110,35114
32505,124,35291
32573,106,35453
32892,104,35439
32992,112,35413
32916,111,35279
32752,127,35255
32664,105,35217
32580,92,35273
32521,111,35308
32480,111,35301
32432,127,35289
32457,106,35287
32588,104,35039
32680,113,35123
32717,124,35161
32775,109,35286
32704,104,35229
32660,85,35156
32650,111,34935
32524,105,34919
32486,100,35079
32519,111,35103
32553,112,35218
32768,111,35263
32932,110,35125
33013,109,35110
32994,105,34985
32884,101,35055
32972,110,35101
32924,122,35103
32849,107,35095
32826,104,34866
32808,105,35053
32828,111,35167
32820,113,35079
32854,106,35047
32910,102,34967
32914,112,34951
32813,114,35005
33004,125,34887
33151,109,35010
33112,106,35117
33133,105,34886
33104,113,34893
33004,118,34908
32873,108,34941
32837,103,34867
32941,112,34983
32968,110,35012
32937,111,34695
32876,114,35012
32804,107,35069
32788,105,35079
32804,86,34967
32780,113,34908
32632,111,34985
32396,111,34660
32245,109,34879
32096,114,35047
32041,115,34887
32324,120,34927
32753,123,34823
33004,107,34950
33092,108,34886
33085,107,34889
33096,113,34799
33057,125,34951
32940,113,34861
32794,109,34605
32643,111,34823
32596,108,34927
32584,107,34777
32761,106,34741
32838,103,34815
32852,103,34537
32841,106,34811
32864,113,34807
32805,112,34645
32753,112,34756
32913,108,34653
33162,117,34710
33388,107,34815
33433,107,34599
33221,105,34679
32848,107,34517
32328,107,34749
31741,107,34708
31108,105,34615
30356,105,34671
29596,106,34566
28906,109,34691
27941,119,34639
26756,114,34380
25589,112,34501
24440,110,34491
23425,110,34543
22220,104,34629
21186,119,34477
20720,118,34471
21597,116,34525
22992,113,34554
24535,110,34420
26264,110,34597
28462,107,34355
31711,100,34503
34644,110,34253
35953,112,34543
36031,112,34397
35864,119,34299
35592,107,34415
35276,105,34423
34920,105,34301
34736,103,34479
34644,103,34247
34414,94,34331
34260,112,34355
34188,111,34047
34160,110,34311
34105,109,34281
34036,109,34229
33960,117,33968
33964,107,34109
33976,106,34140
34092,102,34111
34186,110,34098
34309,106,34132
34252,106,34087
34117,105,33925
34016,89,33885
33933,110,33873
33896,112,33963
33852,107,33997
33780,106,33693
33856,105,33812
33948,112,33841
33974,111,33903
33993,109,33964
34017,129,33975
33956,107,33810
33854,106,33839
33760,106,33580
33696,107,33747
33655,106,33799
33657,104,33767
33644,112,33796
33646,109,33557
33684,111,33825
33764,110,33606
33676,112,33767
33612,110,33645
33533,112,33793
33485,109,33581
33508,104,33655
33584,101,33725
33629,113,33463
33556,98,33616
33404,98,33764
33253,105,33653
33168,79,33663
32929,113,33543
33100,88,33734
33373,113,33601
33520,110,33469
33473,110,33535
33408,109,33552
33319,105,33531
33185,105,33569
33105,102,33564
32964,104,33335
32812,105,33575
32788,105,33555
32992,103,33399
33236,105,33519
33364,112,33235
33386,109,33468
33192,111,33586
33096,108,33415
33009,112,33225
32924,111,33420
32852,108,33558
32834,110,33485
32872,110,33451
32992,110,33429
33104,110,33487
33153,113,33475
33236,112,33361
33305,111,33487
33240,110,33602
33177,112,33375
33160,109,33511
33160,111,33299
33181,111,33519
33213,113,33653
33297,110,33413
33380,111,33583
33356,110,33311
33268,111,33495
33216,108,33591
33236,111,33541
33248,110,33588
33249,111,33622
33296,110,33493
33393,110,33693
33513,109,33463
33648,109,33635
33632,108,33535
33393,118,33633
33173,113,33573
33064,112,33637
32862,110,33527
32588,119,33607
32362,109,33655
32618,116,33516
33364,111,33627
33750,109,33511
33812,109,33703
33856,110,33533
33840,109,33610
33700,106,33495
33612,104,33647
33452,102,33559
33305,113,33405
33185,112,33572
33140,112,33273
33160,113,33524
33268,109,33532
33176,117,33381
33236,107,33449
33267,105,33479
33236,97,33455
33280,110,33199
33332,110,33381
33304,111,33503
33229,112,33346
33241,107,33381
33260,105,33379
33201,104,33093
33160,115,33239
33090,110,33396
33080,111,33164
33043,108,33285
32990,109,33159
33024,123,33245
33108,109,33287
33144,104,33087
33153,102,33164
33108,104,33228
33037,101,32961
32926,112,33204
32836,110,33159
32718,76,33155
32744,84,33045
32775,83,33246
32792,110,33051
32858,109,32899
32869,110,33214
32780,109,33039
32717,111,32867
32653,112,33151
32720,111,33127
32759,109,33023
32857,110,33123
32956,110,33011
32968,109,33196
32857,111,33071
32708,91,32935
32532,105,33183
32348,103,33031
32244,104,32863
32373,103,33127
32733,104,32916
32785,105,33041
32780,104,33071
33017,102,33031
33125,104,32965
33064,111,32977
32992,109,33023
32870,111,32903
32780,112,33017
32681,110,32956
32688,110,32988
32848,108,32886
33155,109,33060
33232,112,32935
33128,112,32867
33056,111,32995
32996,111,32962
32932,111,32775
32877,111,32975
32760,109,32933
32640,112,32931
32568,111,32691
32525,111,32936
32629,113,32844
32753,102,32673
32977,106,33036
33073,127,32935
33060,110,32829
32924,110,33025
32784,111,32787
32756,125,32927
32728,105,32663
32670,127,32967
32676,107,32815
32668,107,32924
32648,107,32799
32660,108,32967
32620,110,32773
32604,109,32923
32620,109,32679
32666,110,32860
32661,112,32993
32616,123,32789
32573,106,32875
32584,114,32645
32695,114,32895
32748,109,32871
32750,112,32887
32647,111,32801
32560,83,32785
32620,104,32691
32610,106,32730
32600,104,32911
32600,105,32895
32557,105,32871
32638,106,32659
32920,105,32809
33220,99,32852
33168,110,32967
33024,109,32883
33060,110,32911
33042,114,32855
33040,113,32901
33084,98,32892
33108,102,32647
33033,113,32866
32992,112,32993
32948,113,32815
32928,96,32903
32910,113,32669
32909,113,32855
32933,98,32900
32996,103,32919
33102,105,32749
33184,107,33001
33140,120,32799
33132,129,32961
33065,109,32932
32968,114,32915
32885,111,32950
32842,104,32999
32832,103,32863
32856,105,32954
32938,103,33003
32986,105,32908
33018,105,33102
33049,104,32886
33040,103,33041
32972,102,32932
32956,111,33093
32932,111,32903
32884,109,33060
32906,109,32916
32901,110,33055
32912,118,33173
32944,106,33191
32900,108,33060
32877,106,33129
32952,106,33031
33060,105,33229
33116,104,33062
33032,106,33141
32957,104,33087
32920,104,33274
32905,103,33148
32892,106,32989
32828,106,33197
32708,107,33101
32657,103,33222
32860,103,32971
32984,103,33207
33236,91,33327
33541,114,33237
33696,115,33013
33665,113,33239
33396,112,33287
33049,110,33287
32661,111,33039
32344,111,33383
31993,114,33225
31420,108,33349
30708,130,33099
30050,109,33287
29373,107,33447
28293,107,33257
27062,81,33346
25773,118,33133
24553,117,33395
23352,118,33423
22100,115,33374
21306,116,33447
21388,115,33327
22496,111,33506
23960,111,33377
25524,109,33495
27156,107,33404
29401,106,33476
32236,104,33519
34486,105,33437
35488,102,33615
35780,103,33445
35912,92,33587
35846,102,33484
35445,93,33540
35008,99,33609
34660,92,33501
34416,93,33687
34217,76,33595
34016,113,33399
33960,111,33559
34036,110,33741
34113,113,33503
34197,109,33637
34265,104,33660
34264,92,33439
34296,110,33551
34229,112,33701
34125,111,33631
34085,110,33541
34020,108,33708
34025,112,33600
34101,112,33669
34161,129,33572
34240,105,33757
34256,104,33533
34216,106,33393
34021,105,33735
33836,106,33639
33677,107,33431
33654,107,33733
33718,105,33543
33783,84,33671
33790,112,33697
33812,111,33605
33823,110,33783
33817,110,33599
33876,109,33703
33866,106,33497
33756,106,33676
33662,105,33749
33664,91,33647
33806,112,33755
33832,110,33516
33775,111,33813
33784,125,33693
33717,114,33769
33613,129,33871
33600,107,33661
33524,104,33799
33356,114,33535
33201,111,33763
33204,116,33885
33432,111,33761
33564,106,33773
33573,103,33799
33481,113,33831
33389,110,33839
33331,108,33588
33261,104,33727
33215,84,33792
33308,110,33870
33340,110,33782
33292,127,33732
33270,105,33799
33164,107,33570
33136,104,33817
33156,103,33829
33196,103,33820
33177,93,33859
33149,110,33580
33169,107,33749
33316,104,33895
33373,110,33859
33372,106,33771
33452,104,33771
33484,113,33895
33401,111,33883
33297,111,33855
33172,107,33991
33156,104,33911
33153,102,33885
33221,109,33770
33252,109,33799
33240,106,33799
33306,106,33932
33400,103,33757
33412,105,33855
33396,102,34025
33378,95,33787
33440,109,33851
33524,107,33889
33544,104,33808
33566,113,33807
33578,111,33956
33598,107,33916
33614,103,33799
33632,112,33849
33528,113,33927
33364,105,33919
33240,112,33903
33208,110,33965
33184,114,33724
33240,106,33799
33334,104,33877
33432,112,34065
33392,109,33839
33392,128,33967
33408,107,33693
33366,104,33865
33227,97,34030
33077,111,33815
33044,111,33799
33120,130,33967
33173,105,33683
33188,104,33853
33156,104,33969
33144,96,33895
33133,111,33956
33072,111,33767
33032,119,33848
33053,105,34015
33012,105,33949
33008,105,33889
33061,104,33683
33181,103,33951
33176,105,33909
33125,102,33949
33211,103,33862
33328,93,33989
33260,103,33830
33233,104,33965
33188,73,33872
33145,102,34025
33072,111,33836
33084,111,34009
33135,112,33773
33110,110,34015
33052,115,34037
33080,107,33893
33133,106,34009
33096,105,34055
33008,112,33791
32980,111,33972
33080,109,34147
33184,129,34101
33118,109,34065
32888,106,33860
32846,104,34039
32838,113,34105
32750,113,34043
32728,109,34139
32712,111,34197
32728,109,34188
32772,107,34117
32784,103,34187
32804,98,34265
32805,113,34333
32789,125,34333
32720,109,34115
32824,106,34240
32980,105,34296
33025,103,34071
33012,74,34215
32970,111,34295
32996,110,34403
32980,129,34299
32889,110,34175
32793,106,34333
32788,106,34075
32870,105,34289
32896,108,34421
32788,108,34203
32737,107,34295
32716,107,34373
32676,106,34103
32704,103,34277
32877,98,34455
32913,113,34271
32851,113,34373
32788,77,34116
32796,114,34304
32768,109,34372
32856,118,34487
32933,127,34452
32896,108,34305
32880,107,34427
32828,104,34151
32726,103,34331
32680,112,34476
32692,110,34483
32788,123,34519
32820,106,34377
32864,105,34437
32917,104,34205
32896,78,34205
32780,111,34349
32624,116,34355
32501,104,34343
32380,103,34401
32289,101,34461
32336,112,34551
32556,113,34362
32641,109,34309
32681,125,34399
32862,106,34448
32840,103,34207
32748,102,34349
32548,82,34415
32328,113,34534
32314,112,34345
32260,110,34398
32508,110,34439
32807,117,34451
33064,109,34323
33180,111,34439
33148,109,34287
33072,110,34415
33098,109,34431
33012,111,34343
32844,107,34503
32780,112,34371
32756,111,34269
32732,113,34354
32742,102,34245
32865,105,34407
33045,105,34181
33196,120,34465
33260,109,34246
33154,109,34382
32992,110,34105
32968,111,34293
32990,116,34431
33073,105,34457
33132,106,34311
33125,127,34085
33108,125,34253
33196,109,34423
33229,108,34191
33124,109,34349
33060,104,34327
32976,104,34239
32996,104,34357
33100,105,34274
33200,103,34325
33273,104,34055
33340,100,34095
33328,112,34231
33224,112,34319
33125,110,34401
33088,109,34292
33192,122,34183
33264,109,34295
33284,106,34303
33204,106,34155
33151,103,34299
33057,104,34399
32937,113,34281
32849,112,34247
32871,111,34285
32964,111,34311
33008,112,34215
33096,112,34357
33372,111,34212
33409,110,34302
33308,111,34191
33078,104,34311
32968,103,34247
32909,101,34279
33017,112,34183
33198,111,34279
33234,110,34250
33168,112,34213
33188,110,34245
33292,112,33975
33294,123,34151
33252,121,34335
33273,106,34081
33240,104,34228
33192,106,34013
33189,106,34293
33168,107,34144
33135,115,33935
32977,110,34268
32736,111,34125
32380,112,34211
31911,110,34103
31289,109,34259
30444,123,34135
29692,124,34175
29049,111,34068
28064,126,34245
26928,110,34007
25768,112,34172
24700,111,33932
23604,112,34193
22480,112,34191
21729,112,34100
21724,111,34147
22828,111,33899
24300,108,34031
25834,114,34075
27528,112,34205
29980,113,33988
32744,109,34041
34781,110,34103
35716,108,33932
36116,109,34105
36148,109,34004
35697,115,34019
35140,123,34060
34736,107,33863
34357,105,34092
34040,104,33991
33804,119,33831
33625,113,34105
33580,108,33924
33700,112,33717
33844,113,34051
33990,113,33958
34208,110,33877
34268,111,33767
34196,104,33757
34180,101,33983
34213,98,33841
34173,113,33842
34148,94,33863
34133,112,33727
34132,109,33807
34065,113,33513
34000,110,33759
33966,107,33783
33968,106,33695
34005,105,33471
33996,104,33604
33995,102,33765
33924,103,33626
33815,88,33653
33720,111,33537
33670,109,33703
33689,111,33543
33692,109,33341
33775,109,33591
33809,110,33449
33759,118,33567
33616,113,33445
33680,121,33629
33624,109,33511
33425,110,33405
33345,109,33607
33361,111,33500
33412,112,33405
33369,100,33389
33248,89,33446
33172,113,33469
33024,112,33495
32807,112,33325
32676,110,33415
32741,76,33334
32988,112,33395
33116,111,33383
33205,109,33133
33282,128,33287
33372,103,33272
33352,112,33447
33327,111,33293
33232,110,33085
33152,111,33348
33028,110,33167
33152,109,33283
33381,111,33253
33232,127,33188
33164,109,33241
33137,106,33127
33097,111,33068
33098,110,32967
33044,109,33167
32952,111,33031
32888,108,33143
32948,114,33019
32948,109,33205
32884,111,32987
32916,109,33135
32960,111,33145
33054,110,32955
33109,113,33108
33124,111,32975
33111,113,33175
33120,111,32927
33161,110,33047
33164,109,32805
33152,109,32956
33166,112,33153
33280,119,33094
33332,106,32900
33334,106,32997
33344,77,33036
33344,111,32791
33286,111,32919
33180,110,33123
33153,107,32962
33188,109,32963
33346,109,32903
33404,113,33007
33428,116,32869
33424,112,32997
33396,110,32876
33310,111,33065
33063,114,32950
33076,117,32812
33312,106,32924
33328,108,32708
33218,107,32695
33184,115,32771
33317,111,32916
33456,112,32884
33356,110,32866
33252,113,32669
33328,110,32871
33369,112,32813
33301,108,32897
33192,110,32788
33100,109,32899
33168,109,32887
33314,109,32844
33306,111,32759
33248,111,32953
33157,95,32847
33076,113,32604
32992,111,32807
32952,111,32767
32988,112,32847
33009,110,32721
33055,108,32923
33118,110,32775
33132,111,32598
33112,110,32903
33033,112,32793
32889,110,32813
32794,111,32749
32816,110,32935
32808,126,32698
32788,121,32864
32870,115,32773
33025,111,32933
33104,109,32723
33068,109,32881
33070,112,32649
33068,108,32859
33056,110,32949
33023,110,32823
33100,111,32655
33172,111,32869
33112,113,32815
33064,111,32919
33029,110,32967
32964,112,32703
32884,123,32869
32733,127,32949
32609,121,32973
32568,110,33000
32661,110,32805
32708,110,33073
32774,110,32964
32856,109,33039
32868,111,33031
32866,110,32988
32788,114,32964
32689,104,33141
32596,105,32975
32480,111,33076
32439,112,32931
32477,112,33127
32668,101,33041
32828,104,32870
32850,104,33149
32873,105,33053
32896,108,32968
32860,127,33097
32710,118,33101
32577,109,33031
32564,111,33011
32673,104,32871
32764,106,33169
32873,108,33086
32956,125,32887
32911,124,33047
32805,107,33219
32662,109,33143
32524,110,33045
32456,111,33189
32502,105,33153
32552,106,33173
32728,114,33133
32820,111,33065
32876,82,33081
32952,106,32941
32949,103,33102
32888,102,33215
32857,103,33175
32885,106,33199
32876,103,33213
32977,106,33111
33052,114,33127
33056,109,33236
33020,113,33183
32749,103,33140
32524,106,33255
32527,126,33173
32420,110,33115
32393,103,33013
32517,106,33327
32712,110,33193
32974,108,33293
33110,113,33300
33032,104,33167
32877,105,33287
32770,107,33215
32708,109,33303
32725,130,33279
32708,122,33303
32734,111,33283
32772,111,33381
32801,108,33281
32784,111,33307
32708,110,33358
32588,111,33207
32500,109,33391
32436,111,33388
32304,111,33321
32244,110,33361
32280,110,33111
32548,112,33254
32797,112,33438
32908,113,33350
32900,112,33246
32800,115,33389
32665,103,33279
32592,105,33415
32448,104,33393
32375,107,33261
32525,87,33373
32613,104,33157
32708,112,33287
32868,112,33435
32964,110,33437
33006,111,33267
33040,112,33360
32989,116,33378
32932,128,33279
32800,110,33471
32712,111,33265
32676,113,33383
32668,107,33333
32625,105,33319
32748,104,33363
32879,103,33137
32826,105,33444
32820,105,33251
32844,104,33389
32812,103,33395
32716,102,33153
32834,99,33373
33092,104,33287
33202,104,33407
33117,104,33307
33102,105,33471
33156,105,33263
33180,104,33381
33146,103,33389
33096,103,33323
33116,103,33491
33228,105,33327
33252,103,33429
33230,105,33319
33180,104,33327
33135,105,33452
33088,103,33375
33052,107,33257
33021,112,33394
33052,108,33420
33085,111,33356
33060,114,33382
33124,104,33415
33160,106,33302
33146,124,33497
33096,109,33393
32944,112,33319
32870,105,33468
32984,103,33255
32970,104,33412
32880,105,33303
32810,104,33453
32801,103,33287
32872,104,33407
32937,103,33307
33032,105,33489
33076,104,33356
33071,101,33412
33124,103,33307
33252,105,33433
33287,105,33249
33257,109,33408
33108,129,33311
32834,107,33389
32442,121,33273
32062,115,33404
31584,111,33287
30948,113,33500
30246,106,33335
29653,106,33155
28856,130,33396
27865,114,33263
26884,113,33415
25868,116,33309
24966,102,33509
23864,111,33316
22912,112,33432
22586,112,33311
23418,113,33507
24924,113,33287
26558,131,33431
28125,119,33311
29955,125,33356
32629,108,33369
34768,108,33431
35728,105,33485
36096,103,33503
36240,104,33252
36060,103,33414
35584,100,33268
34960,112,33157
34552,99,33391
34272,112,33485
34160,111,33340
34056,112,33362
34046,111,33396
34001,110,33159
33922,109,33277
33878,110,33428
33848,107,33389
33877,121,33287
33980,109,33339
34084,129,33235
34148,111,33355
34164,111,33183
34106,127,33311
34037,124,33287
33932,127,33175
33820,128,33309
33733,127,33274
33706,119,33241
33744,130,33279
33796,112,33159
33774,108,33347
33740,119,33217
33645,105,33253
33568,105,33254
33343,113,33223
33236,111,33237
33383,111,32980
33412,111,33132
33380,117,33241
33441,118,33318
33575,128,33095
33788,106,33189
33788,104,33221
33709,114,33237
33652,113,33095
33436,110,32978
33194,117,32999
32957,108,33094
32932,103,32999
33082,103,33146
33136,103,33216
33287,74,33316
33388,109,33327
33397,129,33119
33308,108,33231
33238,105,33260
33157,107,33249
33092,104,33137
33057,83,33189
33053,71,33334
33053,112,33327
32956,110,33332
32836,110,33143
32748,111,33222
32804,99,33047
32725,114,33108
32668,110,33105
32700,109,33114
32845,113,33269
32816,129,33221
32897,107,33069
32916,104,33093
32821,104,33133
32748,104,33020
32620,102,32988
32564,103,33023
32544,112,33167
32656,113,33151
32916,102,33101
33154,104,32903
33196,114,33012
33132,111,32998
33092,110,33068
33042,126,33175
32972,103,33095
32864,102,32967
32752,101,33021
32716,112,33040
32712,111,33019
32864,107,33053
33281,110,33054
33469,113,32871
33420,116,32963
33280,117,33127
33208,129,33087
33276,107,32871
33249,106,32972
33256,106,32999
33304,106,32821
33358,106,32977
33308,107,32987
33293,129,32939
33292,106,32700
33212,105,32693
33158,104,32839
33165,95,32951
33173,112,32812
33129,111,32893
33048,111,32727
33036,113,32889
33064,103,32717
33065,103,32839
32964,103,32711
32868,105,32845
32768,105,32645
32760,91,32691
32748,112,32669
32672,112,32733
32564,112,32604
32533,111,32775
32504,114,32563
32512,113,32677
32696,101,32479
32989,111,32509
33148,111,32502
33221,112,32608
33188,111,32669
33200,111,32469
33212,110,32423
33192,115,32519
33148,129,32535
33040,105,32390
32927,104,32263
32856,95,32287
32852,113,32407
32871,112,32487
32948,113,32530
32961,110,32464
32980,110,32321
33012,112,32367
33048,110,32410
33064,110,32397
32976,115,32143
32848,111,32187
32764,106,32255
32701,106,32263
32617,105,32252
32736,104,32357
32792,104,32423
32869,73,32445
32982,114,32462
33037,111,32333
33016,112,32263
32848,109,32263
32594,110,32345
32608,118,32383
32664,114,32143
32669,106,32213
32718,108,32285
32761,108,32277
32848,105,32233
32868,104,32276
32812,103,32383
32812,99,32239
32825,113,32321
32793,109,32315
32736,110,32327
32721,113,32353
32700,105,32347
32740,105,32338
32830,103,32343
32960,101,32087
32964,109,32103
32885,110,32207
32814,106,32196
32748,104,32210
32788,103,32193
32856,112,32194
32916,111,32191
32921,113,32179
32924,107,32205
32960,106,32239
32988,103,32263
32932,103,32364
32768,102,32124
32612,104,32277
32519,103,32149
32500,105,32237
32582,104,32347
32605,104,32183
32768,102,32217
33120,104,32263
33220,104,32023
33018,104,32157
32829,103,32263
32974,104,32301
33104,104,32214
33080,103,32259
33112,103,32084
33183,106,32237
33168,106,32305
33141,108,32227
33117,108,32022
32973,107,32154
32780,104,32355
32597,106,32159
32772,105,32281
32888,107,32138
32998,126,32356
33000,109,32143
33071,109,32283
33089,110,32061
33000,110,32189
33044,108,32263
33006,125,32372
32889,108,32373
32752,105,32199
32684,106,32263
32741,102,32327
32816,101,32204
32908,111,32355
32964,111,32373
32884,110,32289
32684,110,32334
32568,125,32237
32516,127,32404
32417,108,32352
32380,106,32313
32484,105,32357
32724,104,32261
32857,106,32291
32908,106,32372
32884,106,32125
32792,104,32284
32720,104,32460
32639,111,32389
32584,109,32245
32639,108,32404
32688,112,32183
32732,115,32311
32730,121,32445
32734,120,32391
32626,110,32263
32497,122,32471
32576,128,32452
32677,108,32285
32789,103,32439
32844,102,32198
32873,102,32508
32913,99,32404
32901,104,32349
32801,105,32444
32741,106,32451
32727,106,32215
32801,107,32459
32814,107,32543
32910,105,32441
33073,128,32375
33091,111,32472
32920,107,32486
32720,115,32247
32820,125,32511
32828,111,32457
32772,112,32255
32892,110,32399
33108,111,32597
33105,111,32453
33128,113,32519
33276,86,32533
33348,111,32620
33285,112,32512
33182,110,32413
33188,111,32317
33352,110,32433
33424,111,32577
33301,111,32595
33224,111,32529
33188,108,32553
33152,111,32586
33132,117,32335
33108,114,32541
33096,113,32539
33094,108,32596
33076,109,32391
33028,110,32679
33060,110,32569
33069,112,32477
32996,102,32645
32976,103,32484
32977,103,32646
33012,105,32567
32977,106,32572
33024,106,32670
33037,106,32580
32997,107,32687
32936,106,32644
32895,104,32685
32912,106,32551
32948,105,32636
33020,107,32673
33053,105,32671
33104,103,32699
33157,103,32615
33377,103,32791
33316,104,32575
33089,112,32687
32848,110,32723
32364,110,32565
31860,114,32789
31479,114,32573
30944,114,32705
30288,109,32735
29698,108,32492
28780,106,32621
27756,106,32724
26845,97,32768
25966,114,32811
25170,114,32725
24198,111,32597
23344,107,32620
23001,117,32613
23584,116,32741
24800,116,32679
26250,115,32775
27784,115,32708
29624,112,32500
32226,113,32658
34664,112,32693
35908,92,32735
36197,94,32495
36216,97,32661
36004,101,32775
35492,104,32707
34862,102,32500
34484,103,32733
34252,102,32812
34204,101,32619
34046,114,32712
33984,110,32725
34084,109,32740
34140,118,32727
34148,110,32571
34105,121,32621
34054,108,32733
33935,109,32561
33855,111,32687
33976,125,32439
34112,121,32667
34077,112,32533
34072,106,32621
34061,107,32659
34044,106,32387
34013,109,32590
33957,128,32661
33840,105,32621
33736,104,32456
33644,113,32550
33758,111,32573
33806,110,32333
33820,111,32487
33812,112,32547
33799,111,32457
33721,113,32561
33624,114,32377
33644,112,32540
33652,99,32477
33609,105,32539
33436,105,32414
33345,104,32605
33532,106,32479
33568,105,32292
33456,105,32405
33380,104,32473
33373,103,32517
33380,106,32421
33376,109,32425
33381,110,32527
33294,111,32455
33296,102,32469
33460,104,32415
33545,108,32384
33444,107,32253
33304,111,32583
33301,112,32470
33360,114,32383
33192,105,32357
33069,105,32225
33060,108,32519
33113,126,32423
33180,110,32349
33234,113,32348
33292,112,32444
33184,106,32383
33121,104,32341
33156,107,32423
33212,109,32387
33160,121,32277
33164,111,32213
33153,112,32391
33182,104,32311
33189,107,32167
33192,110,32461
33183,110,32386
33154,112,32279
33084,74,32231
33028,105,32142
33020,105,32437
33038,107,32359
33088,109,32285
33108,111,32454
33084,114,32399
33065,85,32277
33024,112,32485
33044,104,32372
33044,103,32205
33317,105,32412
33547,105,32413
33404,104,32317
33268,105,32479
33329,103,32479
33552,81,32288
33744,114,32437
33814,100,32239
33812,112,32390
33749,111,32519
33638,113,32309
33569,109,32393
33518,110,32253
33428,120,32350
33285,107,32423
33148,108,32495
33308,103,32310
33304,98,32428
33172,76,32429
33156,104,32381
33264,103,32402
33280,104,32437
33156,104,32286
33121,105,32381
33112,106,32445
33088,104,32401
33053,105,32460
33068,104,32205
33036,104,32361
33002,103,32476
32968,103,32439
32948,105,32372
32948,103,32542
32985,104,32357
33053,106,32220
33068,107,32557
33032,108,32461
33032,108,32263
33035,106,32555
32948,108,32470
32866,111,32319
32821,108,32539
32812,116,32458
32853,121,32445
32863,121,32541
32844,117,32457
32829,110,32519
32856,110,32477
32838,113,32318
32805,111,32565
32900,109,32413
32885,109,32573
32864,110,32465
32876,111,32468
32964,110,32567
33020,111,32601
33057,110,32492
32956,108,32621
32812,112,32631
32624,111,32535
32480,109,32718
32684,110,32516
32833,111,32676
32936,114,32506
32964,105,32591
32976,105,32761
33032,103,32671
32950,105,32709
32816,113,32635
32635,111,32761
32503,112,32591
32608,110,32741
32568,109,32519
32602,126,32725
32893,108,32709
33080,104,32709
33028,104,32639
32940,103,32771
32868,104,32730
32724,105,32648
32612,74,32783
32559,111,32702
32556,111,32567
32540,112,32789
32580,112,32647
32648,110,32735
32756,111,32663
32831,109,32595
32804,113,32492
32781,111,32755
32768,113,32631
32784,113,32519
32756,112,32775
32809,112,32587
32889,98,32733
32924,75,32637
32909,101,32775
32892,103,32700
32812,105,32475
32737,104,32809
32700,104,32579
32644,73,32743
32576,102,32693
32573,102,32719
32620,84,32703
32748,111,32739
32796,111,32629
32840,111,32824
32908,109,32705
32812,111,32528
32728,111,32825
32680,108,32727
32756,111,32645
32776,110,32839
32792,110,32724
32880,110,32547
32868,111,32720
32804,128,32847
32712,106,32721
32644,103,32717
32624,102,32535
32585,73,32732
32605,103,32637
32724,103,32789
32832,86,32797
32848,112,32614
32870,113,32775
32836,109,32897
32724,110,32663
32593,111,32813
32536,110,32755
32529,112,32862
32604,116,32799
32652,110,32600
32713,108,32917
32724,110,32821
32700,108,32717
32664,109,32857
32594,110,32683
32528,118,32935
32487,122,32728
32422,111,32635
32429,107,32852
32453,110,32761
32645,110,32883
32754,112,32791
32673,113,32997
32593,112,32847
32664,112,32925
32709,113,32747
32729,113,32903
32784,94,32965
32824,93,32805
32880,113,32941
32944,113,32954
32965,110,32719
32946,112,32799
32932,111,32919
32941,111,33068
32886,110,32903
32836,123,32871
32788,129,32985
32708,107,32997
32705,108,32895
32736,106,33031
32728,105,33091
32792,104,32871
32924,105,33004
32956,104,33029
32956,95,32775
32974,94,33013
32970,101,32919
32992,106,33027
32956,104,32860
32976,104,32961
32964,105,33015
32920,105,33129
32892,103,33017
32896,102,32911
32956,102,33055
33031,104,32813
33134,107,32917
33264,112,32975
33260,108,33039
33218,107,33135
33100,105,33191
32916,101,33111
32860,113,33133
32904,111,33055
33036,111,33157
33244,110,33051
33197,110,33189
33160,127,33211
33200,107,33125
33188,107,33204
33202,103,33042
33212,104,33191
33184,103,33287
33142,112,33345
33084,109,33269
33060,109,33223
33022,109,33308
32981,122,33069
32988,109,33357
33024,110,33244
33028,108,33346
33045,111,33133
33018,108,33343
32980,110,33372
32908,115,33314
32920,110,33460
32960,122,33467
33060,129,33391
33144,126,33589
33197,106,33437
33196,107,33479
33028,105,33575
32672,104,33356
32107,75,33533
31520,111,33711
31097,111,33604
30600,112,33401
29824,112,33730
29080,112,33654
28500,113,33719
27647,114,33474
26648,117,33710
25848,107,33643
25272,109,33560
24461,113,33874
23648,112,33679
23189,113,33844
23709,111,33604
25004,113,33971
26544,111,33871
28112,111,33753
29964,107,33853
32428,106,33993
34601,84,33821
35561,92,33897
35762,110,33909
35856,112,33825
35848,102,33997
35564,102,33900
35140,102,33925
34724,83,33828
34356,112,33975
34008,103,33799
33761,103,33910
33600,113,33903
33516,109,33767
33505,109,33812
33659,120,33913
33744,107,33867
33768,107,33809
33780,108,33821
33744,108,33763
33724,104,33895
33660,105,33636
33580,104,33757
33576,103,33751
33618,106,33629
33649,107,33811
33757,105,33670
33853,106,33519
33884,104,33643
33701,106,33383
33444,106,33511
33436,106,33655
33318,106,33539
33216,106,33493
33155,104,33447
33296,105,33511
33652,106,33279
33800,105,33437
33780,105,33565
33653,107,33327
33493,105,33351
33412,103,33412
33284,114,33399
33068,109,33373
32944,108,33333
32964,103,33255
33213,78,33261
33517,112,33307
33520,110,33335
33332,108,33313
33165,105,33036
33000,105,33257
32924,97,33335
32929,111,33303
32896,110,33324
32794,123,33205
32736,108,33135
32781,102,33259
33008,110,33244
33102,108,33114
33100,127,33103
33120,108,33023
33037,105,32947
32868,105,32999
32785,104,32999
32812,106,32733
32893,105,32823
33036,105,32902
33074,104,32939
33062,93,32996
33016,113,32755
32933,111,32791
32830,109,32775
32777,111,32821
32800,111,32539
32860,117,32675
32928,120,32759
32892,106,32809
32900,104,32784
33092,112,32762
33029,112,32692
32977,111,32661
32958,110,32441
32864,109,32553
32844,114,32684
32912,111,32501
33004,125,32569
33157,107,32592
33268,107,32484
33197,105,32471
33148,100,32615
33142,114,32466
33319,112,32487
33516,114,32492
33594,113,32263
33589,109,32368
33617,128,32351
33609,108,32384
33628,108,32519
33596,105,32511
33484,104,32348
33359,112,32249
33182,109,32244
33044,118,32284
32888,107,32333
32856,106,32333
32920,107,32269
33076,126,32376
33084,108,32241
33263,108,32221
33433,107,32263
33317,107,32231
33103,105,32036
32980,105,32133
32929,104,32277
32889,101,32033
32904,112,32066
32897,110,32101
32916,112,32159
32921,125,31897
32903,107,32020
32857,105,32169
32756,106,31956
32657,103,32068
32662,104,32082
32732,111,32076
32791,112,31865
32872,121,31941
32974,106,32078
33024,106,31975
32936,102,32006
32848,112,31815
32716,115,31913
32653,111,32071
32580,111,31969
32608,107,31853
32733,106,31975
32836,104,31731
32807,100,31943
32724,84,31961
32679,83,31927
32744,111,31962
32840,112,31966
32916,126,31726
32760,108,31855
32621,103,31879
32564,107,31935
32615,104,31815
32725,99,31946
32776,112,31737
32804,109,31751
32742,130,31847
32640,106,31887
32597,102,31954
32566,105,31989
32594,101,31827
32638,111,31879
32679,108,31903
32724,102,31900
32677,113,31945
32613,110,31713
32420,110,31823
32450,113,32001
32382,107,31783
32292,105,31927
32381,102,31681
32568,111,31792
32750,109,31926
32832,111,31863
32892,110,31798
32800,126,31805
32645,110,31870
32500,107,31887
32409,107,31637
32392,104,31855
32516,101,31636
32668,114,31731
32812,112,31749
32848,111,31749
32821,111,31903
32756,116,31788
32689,107,31741
32615,105,31811
32552,103,31843
32582,74,31597
32641,110,31686
32657,112,31738
32693,112,31843
32796,107,31924
32900,109,31702
32845,106,31829
32768,106,31716
32692,105,31899
32630,103,31663
32656,100,31819
32704,110,31822
32856,110,31711
33060,111,31729
33100,127,31836
33089,105,31845
32996,105,31847
32880,106,31770
32758,106,31814
32802,104,31807
32921,106,31567
33016,105,31626
33180,110,31711
33272,111,31719
33367,109,31887
33344,112,31877
33264,108,31811
33144,105,31783
33013,104,31733
32926,111,31788
32919,108,31829
32925,121,31847
32954,108,31861
32999,104,31863
33037,99,31872
32993,110,31878
32972,111,31677
33020,109,31631
33029,104,31640
32980,115,31643
32904,111,31655
32852,111,31787
32903,104,31661
33046,110,31725
33132,111,31797
33185,108,31799
33124,105,31967
32996,103,31911
32901,99,31895
32806,75,31690
32808,112,31854
32832,112,32015
32840,109,31895
32784,110,31917
32644,110,31879
32675,110,31939
32904,109,31911
32941,111,31717
32800,110,31999
32933,110,31875
33276,114,31751
33252,92,31887
33192,105,31814
33164,106,31773
33148,105,32045
33144,108,31927
33156,128,31751
33117,129,31933
33102,118,31846
33073,111,31981
33068,116,31869
33073,115,32039
33092,111,31967
33141,124,31751
33192,122,32052
33209,127,31885
33185,124,31983
33144,109,31879
33125,107,32071
33116,107,31853
33069,102,31885
33060,103,31988
33056,114,31993
33172,111,31983
33260,108,31979
33228,104,31975
33160,113,31999
33108,109,31767
33016,110,31875
32921,107,31951
32910,105,31969
32917,113,31889
32953,110,31773
33044,105,32003
33104,112,32007
33080,113,31988
33060,106,31943
32978,105,31978
32856,94,31997
32780,110,31986
32768,110,31751
32760,128,31871
32772,107,31879
32899,113,31797
32956,110,31767
33016,123,31766
32981,105,31983
32902,113,31983
32853,109,31973
32861,107,31975
33017,106,31972
33124,102,31951
33245,112,31965
33413,111,31955
33500,117,31953
33400,106,31941
33216,105,31909
32924,110,31874
32562,108,31796
32064,105,31772
31543,113,31823
31134,111,31847
30560,125,31863
30064,107,31863
29580,114,31860
28812,112,31879
27800,109,31837
26860,106,31821
25984,114,31727
25097,126,31739
24156,110,31779
23528,112,31815
23540,108,31844
24556,108,31839
25970,108,31607
27470,110,31709
29148,115,31727
31344,111,31704
33685,109,31828
35093,125,31860
35696,105,31860
36040,104,31800
36020,105,31681
35537,104,31621
34948,98,31677
34452,111,31698
34112,111,31673
33794,107,31711
33573,103,31680
33413,111,31599
33396,107,31713
33360,104,31751
33349,112,31729
33390,117,31645
33517,105,31579
33548,111,31447
33536,109,31423
33532,121,31387
33468,105,31377
33336,83,31365
33300,111,31367
33342,126,31471
33314,105,31575
33344,113,31542
33288,110,31543
33270,115,31536
33324,106,31517
33337,104,31509
33306,106,31268
33268,91,31383
33248,110,31407
33236,123,31507
33228,106,31525
33249,105,31349
33229,112,31348
33148,111,31372
33066,110,31393
32966,125,31396
32921,108,31149
32870,104,31375
32892,112,31359
32932,110,31111
32904,123,31217
32900,107,31327
32852,101,31379
32801,110,31373
32720,106,31359
32684,91,31383
32645,112,31365
32608,111,31233
32712,107,31162
32732,105,31223
32777,113,31231
32856,113,31252
32900,110,31255
32892,108,31239
32824,103,31212
32728,111,31073
32658,117,31087
32593,119,31215
32580,106,31239
32600,105,31035
32677,101,31129
32698,78,31144
32730,110,30909
32740,110,30983
32725,109,31046
32660,106,31175
32579,105,30969
32516,112,31054
32521,109,31074
32512,113,31062
32576,123,30844
32616,108,30916
32644,107,31013
32733,107,31071
32825,104,30887
32953,105,31017
33011,104,30887
33097,106,31071
33124,102,30938
33133,113,30989
33165,117,30991
33210,106,30777
33296,106,30885
33334,104,31031
33342,105,31005
33336,105,30939
33286,104,30974
33296,114,30971
33316,112,30755
33325,110,30863
33344,109,31049
33445,118,30873
33477,106,30828
33511,104,30855
33386,102,30932
33242,112,30956
33132,110,30945
33124,105,30949
33166,104,30951
33176,111,30948
33132,111,30941
33184,116,30831
33216,104,30723
33188,113,30921
33124,108,30911
33008,106,30687
32900,104,30767
32832,104,30781
32848,112,30836
32887,111,30917
32928,116,30949
32966,106,30855
32880,103,30839
32772,110,30877
32684,110,30845
32621,105,30877
32621,104,30719
32612,113,30723
32648,110,30723
32784,109,30813
33047,90,30713
33176,121,30877
33128,103,30909
33061,111,30864
33025,109,30937
32912,107,30943
32828,101,30906
32744,111,30925
32688,111,30925
32674,106,30892
32708,104,30855
32792,110,30757
32812,113,30766
32819,110,30797
32853,105,30883
32789,105,30855
32688,110,30791
32612,116,30810
32508,125,30828
32461,107,30847
32472,106,30916
32574,102,31045
32612,109,30999
32604,119,31036
32600,105,31013
32538,104,31091
32407,112,31139
32292,111,31163
32249,107,31181
32388,113,31173
32513,122,31149
32704,103,31149
32848,111,31096
32831,107,31005
32736,84,31181
32725,112,30975
32656,111,31039
32567,108,31003
32564,105,31109
32492,104,31147
32496,111,31239
32548,110,31342
32562,123,31211
32506,104,31231
32544,104,31317
32604,110,31305
32608,107,31330
32653,105,31366
32652,112,31388
32711,108,31188
32840,124,31259
32948,105,31327
32957,97,31332
32949,111,31487
32908,109,31529
32830,130,31462
32761,106,31367
32704,104,31483
32725,111,31534
32764,110,31535
32800,106,31316
32880,101,31349
32926,110,31335
32884,113,31419
32750,108,31495
32648,106,31637
32668,105,31668
32816,110,31671
32933,112,31719
33048,106,31679
33044,103,31727
33068,113,31639
33104,109,31660
33112,108,31687
33124,106,31469
32959,105,31628
32784,103,31751
32707,100,31812
32722,113,31661
32700,110,31703
32800,109,31759
33080,119,31655
33364,105,31707
33284,103,31847
33137,112,31839
32946,110,31677
32746,109,31843
32604,123,31687
32572,108,31769
32649,107,31917
32733,105,31843
32830,104,31697
32985,101,31791
33025,104,32020
32869,103,31899
32616,104,31961
32420,114,31749
32400,113,31959
32756,111,31861
32993,110,32025
33046,113,31842
33046,107,31903
33014,104,32031
32981,103,32141
33010,103,32003
32948,112,32130
32864,112,32135
32702,108,32007
32620,129,32125
32576,108,32225
32584,106,32135
32710,107,32236
32900,112,32258
32960,111,32263
32928,109,32183
32929,116,32355
32893,108,32292
32836,105,32191
32808,97,32285
32852,112,32386
32869,111,32295
32956,109,32399
33028,125,32425
33060,109,32391
33140,102,32454
33144,114,32501
33121,109,32243
33154,110,32485
33297,107,32583
33348,104,32565
33358,113,32431
33372,109,32548
33306,127,32599
33258,128,32515
33252,105,32607
33204,105,32625
33101,112,32503
32932,113,32653
32823,106,32693
32750,81,32689
32741,110,32452
32796,107,32489
32965,104,32670
33148,102,32807
33316,112,32763
33376,117,32859
33353,108,32671
33228,105,32774
33108,103,32839
33100,111,32661
33068,114,32757
33132,107,32767
33072,104,32879
33000,111,32841
32985,113,32829
33025,105,32869
32985,104,33031
33033,113,32927
32988,110,32823
32988,117,32923
33133,103,32951
33373,105,32997
33350,113,32775
33333,111,32914
33319,107,32913
33345,103,32943
33317,110,32979
33344,106,32972
33268,105,33085
32992,111,33111
32873,110,33061
32852,112,32943
32693,106,33031
32335,104,33084
32000,111,33087
31698,106,33095
31104,111,33095
30506,115,33108
29898,108,32853
29102,105,32981
28221,102,33106
27419,115,33135
26688,114,32967
25922,114,33087
24993,114,33122
24325,113,32993
24312,116,33095
25280,112,33183
26741,107,33068
28305,107,33143
30036,103,33039
32260,113,33221
34564,109,33003
35816,114,33105
36292,104,33130
36532,102,33152
36474,109,33159
35996,107,33021
35388,108,33052
34840,107,33127
34400,104,33229
34136,110,33248
33916,110,33244
33776,107,33134
33736,105,33053
33820,110,33153
33796,110,33201
33724,106,33013
33648,105,33101
33641,99,33255
33704,110,33143
33736,111,33135
33576,116,33213
33529,107,33221
33548,106,32967
33580,112,33117
33645,112,33311
33728,110,33073
33880,126,33126
34008,104,33205
34092,104,33213
34036,113,32958
33862,109,33072
33653,125,33140
33537,109,33229
33580,104,33333
33632,99,33164
33688,110,33101
33813,109,33249
33846,117,33111
33861,112,33150
33811,107,33231
33764,105,33347
33717,103,33279
33627,102,33219
33512,113,33301
33409,113,33071
33319,112,33301
33308,114,33396
33340,114,33191
33388,106,33251
33412,105,33255
33398,103,33345
33376,104,33073
33337,93,33243
33284,112,33251
33148,111,33300
33033,117,33388
33010,103,33348
33089,112,33275
33125,128,33124
33184,104,33147
33248,111,33083
33268,111,33077
33304,106,33233
33292,104,33244
33188,111,33213
33056,108,33247
32964,104,33325
32896,95,33318
32940,109,33317
33092,115,33365
33172,107,33225
33212,108,33175
33146,72,33111
33101,111,33165
33046,127,33076
33016,103,33092
33000,114,33189
33092,113,33208
33244,106,33217
33354,114,33205
33381,109,33189
33332,108,33173
33297,104,33149
33164,112,33188
33061,116,33195
33078,104,33194
33180,114,33183
33352,112,33181
33440,106,33159
33520,92,33156
33797,113,33149
33989,109,33143
33876,117,32927
33736,103,33140
33660,110,33129
33576,129,33101
33496,105,33091
33407,113,33055
33372,119,32982
33432,107,32985
33405,106,33093
33268,107,33077
33213,106,32968
33182,111,32970
32997,129,32999
32840,104,33108
32740,112,32897
32736,109,33027
32883,116,33023
33036,106,33015
33140,113,32804
32996,111,32853
32760,111,32900
32692,108,32912
32766,104,32933
32872,75,32981
32801,112,33047
32796,119,33036
32697,105,32955
32737,91,32871
32692,111,32978
32620,107,32829
32684,107,32887
32758,104,32925
32677,103,32693
32637,111,32793
32741,113,32893
32728,107,32943
32644,103,33007
32576,113,33004
32558,116,33013
32576,106,32995
32588,110,32965
32607,116,32890
32676,104,32929
32700,113,33005
32700,117,33031
32760,107,33023
32860,99,33031
32852,109,33044
32764,105,33063
32673,114,33007
32569,111,32903
32433,105,32835
32364,104,32901
32367,111,32788
32368,125,32909
32336,105,32951
32350,95,32836
32344,110,32853
32324,130,33125
32308,104,33135
32220,114,33172
32132,111,33199
32212,107,33205
32344,105,33231
32435,112,33247
32528,116,33287
32557,104,33279
32600,111,33287
32546,112,33228
32560,108,33333
32560,103,33304
32533,108,33260
32396,107,33281
32217,103,33389
32216,111,33367
32174,112,33349
32184,107,33499
32237,104,33539
32302,111,33287
32269,111,33465
32268,114,33645
32472,105,33701
32633,114,33709
32632,129,33627
32480,105,33577
32404,112,33612
32372,114,33638
32550,105,33645
32580,109,33535
32559,130,33535
32576,105,33823
32646,110,33839
32617,108,33857
32557,106,33754
32560,105,33811
32620,108,33701
32728,129,33959
32764,104,33919
32772,110,33957
32720,105,34073
32673,115,34111
32568,109,34029
32472,105,33967
32504,109,33830
32454,104,34095
32473,111,34093
32520,105,34071
32620,113,33994
32606,131,34151
32617,104,34239
32464,120,34071
32304,103,34212
32229,111,34055
32237,106,34069
32277,113,34263
32460,107,34341
32609,104,34362
32640,113,34235
32584,105,34181
32548,114,34183
32571,106,34028
32508,88,34311
32508,110,34325
32400,106,34329
32326,110,34327
32313,106,34335
32401,114,34191
32464,111,34311
32485,105,34301
32489,72,34395
32520,112,34439
32484,106,34397
32462,113,34325
32460,117,34311
32512,104,34290
32572,105,34487
32752,113,34455
32833,101,34375
32733,107,34231
32620,79,34398
32549,127,34413
32505,104,34391
32657,110,34348
32788,107,34277
32974,91,34275
33005,109,34462
32868,105,34469
32876,102,34433
33062,110,34519
33222,106,34533
33294,112,34485
33329,108,34417
33248,104,34420
33044,112,34509
33004,124,34453
33042,105,34396
33069,110,34356
33188,130,34347
33377,104,34234
33444,109,34181
33382,106,34439
33281,107,34417
33188,105,34395
33129,112,34361
33141,105,34436
33121,108,34479
33088,103,34400
33169,129,34279
33252,113,34404
33348,104,34407
33284,111,34311
33164,101,34391
33040,127,34444
32960,104,34447
32952,118,34335
32980,111,34127
33120,124,34055
33230,105,34145
33206,112,34099
33108,107,34013
33068,85,34011
32982,111,34119
32928,101,34228
33012,121,34092
33020,103,34143
33049,109,34207
33040,103,34256
32967,112,34272
32952,110,34234
33020,114,34155
33092,113,34101
33260,102,34183
33445,107,34055
33574,108,33943
33501,111,33935
33308,109,33868
33076,104,33851
32735,111,33840
32265,105,33863
31818,113,33819
31225,113,33767
30572,114,33854
30037,108,33813
29321,90,33743
28434,109,33868
27537,114,33839
26754,110,33819
26174,113,33647
25489,111,33591
24764,105,33552
24416,117,33415
24961,108,33319
26248,114,33293
27716,108,33315
29284,114,33375
31216,107,33437
33550,112,33399
35120,107,33383
35772,102,33345
36029,109,33050
35924,116,33173
35525,106,33231
34981,110,33223
34426,108,33063
34004,110,32903
33652,117,32857
33436,110,33031
33324,115,32999
33344,105,32769
33364,113,32823
33354,122,32791
33278,95,32759
33212,113,32727
33160,108,32749
33172,89,32806
33246,119,32773
33276,106,32639
33296,110,32559
33348,115,32445
33420,105,32478
33369,109,32417
33231,105,32389
33124,112,32335
33054,108,32303
33074,106,32263
33140,110,32235
33271,108,32292
33326,73,32253
33256,111,32206
33180,106,32177
33156,111,32053
33140,120,31973
33106,106,31997
33032,104,32037
33020,104,32025
33028,111,31895
33040,111,31829
33074,121,31861
33088,105,31821
33063,113,31793
32909,107,31767
32857,80,31719
32856,109,31724
32925,121,31691
33002,106,31439
32872,98,31505
32852,109,31516
32917,110,31677
32836,106,31609
32808,103,31431
32714,110,31479
32760,106,31457
32680,111,31481
32636,118,31461
32617,105,31407
32615,110,31390
32704,104,31378
32768,110,31349
32772,120,31109
32665,106,31145
32620,75,31119
32626,114,31049
32556,103,31065
32513,113,31079
32548,109,31165
32629,107,31149
32660,111,31035
32757,109,31023
32884,105,31040
32940,103,31023
32896,112,30777
32765,107,30811
32708,103,30925
32716,114,30997
32768,111,30977
32820,106,30829
32997,104,30820
33084,110,30845
33092,108,30823
33188,110,30687
33194,106,30780
33140,105,30838
33132,112,30775
33104,109,30685
33185,104,30741
33356,111,30787
33405,123,30747
33468,102,30702
33504,111,30734
33549,113,30739
33452,103,30711
33360,104,30520
33306,109,30515
33276,107,30518
33273,111,30503
33292,110,30565
33328,107,30555
33366,89,30565
33288,109,30559
33188,129,30564
33137,106,30576
32988,102,30348
32885,114,30419
32842,124,30413
32824,103,30501
32822,112,30575
32816,108,30592
32848,105,30445
32892,104,30439
32868,109,30359
32828,129,30373
32784,106,30470
32679,104,30470
32606,113,30270
32620,118,30290
32708,112,30266
32828,110,30327
32924,108,30359
32988,103,30463
32948,113,30391
32936,109,30415
32832,107,30432
32780,103,30212
32776,109,30307
32850,126,30415
32932,106,30489
32990,90,30377
33040,109,30283
33030,108,30367
32889,106,30413
32812,102,30413
32745,112,30223
32737,107,30204
32772,104,30207
32848,109,30317
32893,116,30429
33004,108,30429
33062,105,30343
33096,104,30466
33157,112,30456
33120,109,30465
32997,107,30471
32837,102,30487
32804,110,30505
32801,105,30498
32800,111,30489
32864,121,30487
32906,104,30479
32879,112,30494
32844,105,30500
32752,113,30591
32752,110,30629
32688,104,30623
32652,72,30644
32672,109,30658
32718,106,30631
32816,104,30557
32904,110,30535
32952,104,30511
32892,111,30479
32775,111,30561
32717,111,30599
32720,106,30599
32704,113,30603
32676,114,30591
32758,104,30395
32901,111,30399
32980,129,30383
32967,104,30405
32924,110,30404
32824,110,30539
32712,109,30689
32676,104,30503
32744,113,30572
32804,117,30609
32884,105,30621
33056,93,30610
33117,111,30395
33036,128,30441
33044,103,30482
33132,111,30477
33096,106,30561
33112,104,30620
33074,113,30567
33040,106,30652
33006,74,30611
33076,108,30657
33140,108,30573
33221,104,30571
33231,108,30469
33120,114,30590
33005,105,30463
32892,102,30581
32844,111,30661
32836,106,30605
32864,110,30465
32932,105,30471
32996,103,30531
33057,113,30665
33152,128,30495
33117,107,30586
33070,102,30607
32985,111,30414
32948,109,30503
32932,106,30659
32912,106,30533
33031,113,30613
33076,111,30631
33044,105,30657
33004,98,30669
32876,111,30679
32781,103,30685
32716,112,30487
32709,108,30500
32588,104,30723
32688,109,30740
32890,105,30757
32984,112,30769
33054,112,30559
33046,103,30591
32944,110,30821
32836,103,30847
32797,109,30862
32833,104,30893
32940,85,30673
33080,120,30918
33116,72,30941
33191,107,30853
33201,111,30855
33108,108,30981
33000,105,30991
32866,113,31035
32858,128,31052
32941,105,31083
32940,113,31073
33056,109,31036
33224,104,31012
33276,111,31199
33249,103,31219
33260,111,31277
33256,105,31303
33172,114,31325
33100,124,31335
33061,105,31250
33102,112,31161
33112,110,31312
33084,121,31284
33076,106,31207
33117,110,31252
33044,107,31391
32962,102,31427
32905,110,31469
33064,105,31425
33194,113,31309
33276,117,31423
33269,103,31447
33325,112,31479
33248,107,31474
33189,114,31450
33201,122,31390
33248,103,31417
33076,95,31545
32989,109,31341
33064,127,31465
32978,102,31570
32996,112,31575
33140,109,31604
33167,108,31634
33322,104,31644
33227,109,31439
33152,107,31649
33192,103,31727
33184,110,31650
33136,121,31735
32984,106,31527
33156,104,31700
33260,105,31847
33308,111,31879
33440,116,31775
33549,107,31713
33625,87,31847
33431,112,31863
33185,108,31643
33032,76,31751
32756,112,31801
32284,109,31909
31932,101,32020
31424,109,31958
30964,106,31860
30594,102,31919
30002,111,31948
29180,109,31983
28364,116,31995
27671,108,31789
26983,116,31833
26126,128,31867
25524,109,31884
25416,114,31963
26338,110,32102
27776,108,32007
29230,119,32119
30758,105,32051
32565,111,32039
34381,100,32100
35396,109,32066
35933,103,32015
36112,107,32031
36032,105,32007
35660,111,31895
35216,109,32049
34684,103,32059
34276,110,32062
33824,107,32067
33532,113,32059
33476,108,32041
33413,101,32007
33428,111,32074
33481,128,32077
33540,107,31855
33505,112,32077
33500,120,32077
33492,103,32084
33413,112,32082
33412,114,32083
33472,107,31847
33454,105,31945
33521,72,31964
33573,110,32007
33588,110,32115
33508,108,32090
33472,103,31975
33390,112,31975
33283,116,32053
33212,104,31977
33244,113,31895
33272,111,31844
33284,108,31879
33297,101,31771
33250,112,31819
33222,115,31791
33172,106,31699
33141,111,31591
33144,109,31558
33234,105,31538
33258,111,31644
33256,129,31631
33248,99,31490
33215,108,31595
33196,107,31562
33168,105,31558
33088,110,31605
32984,119,31546
32913,106,31495
32912,80,31525
32972,111,31527
33006,106,31611
32977,103,31599
32960,113,31579
32904,109,31563
32828,106,31517
32815,113,31413
32832,122,31302
32772,104,31265
32809,114,31300
32868,110,31295
32924,106,31175
32925,78,31029
32987,111,31231
32968,104,31152
32917,110,31038
32884,110,30997
32784,95,31141
32669,110,31109
32656,106,31031
32660,103,30919
32710,109,30853
32796,109,30807
32913,104,30720
32926,113,30686
32844,129,30694
32748,104,30615
32728,111,30521
32636,108,30519
32624,104,30436
32684,117,30357
32878,103,30327
33040,110,30504
33237,105,30247
33352,113,30229
33344,110,30198
33356,105,30215
33367,74,30171
33311,109,30282
33240,117,30244
33248,106,30172
33284,72,30051
33288,111,30111
33328,127,30101
33338,105,30070
33308,109,30020
33167,119,29789
33142,103,29764
33008,111,29786
32952,111,29804
32900,103,29725
32908,113,29728
32904,109,29659
32910,116,29613
32894,104,29575
32780,110,29575
32668,111,29676
32512,125,29496
32373,105,29547
32516,102,29556
32573,111,29333
32661,112,29351
32720,109,29425
32828,106,29431
32853,102,29447
32748,112,29365
32548,118,29245
32560,107,29199
32628,111,29257
32624,122,29221
32645,106,29228
32724,103,29026
32800,111,28989
32808,107,29015
32768,102,29029
32752,113,29126
32781,114,29161
32628,105,29140
32628,104,29049
32668,110,29041
32750,107,28977
32746,104,28990
32783,104,28991
32804,110,29005
32877,107,28993
32860,83,28980
32848,111,28882
32725,107,28783
32704,113,28757
32729,126,28770
32735,106,28789
32780,94,28798
32939,109,28802
32988,108,28865
32897,103,28847
32845,116,28803
32785,105,28783
32621,112,28797
32574,107,28787
32552,88,28791
32542,109,28759
32564,103,28759
32818,111,28738
32903,128,28738
32927,104,28796
32965,75,28791
32884,111,28785
32792,131,28919
32728,105,28995
32737,112,28985
32724,116,28919
32775,74,28863
32864,110,28836
32957,106,28817
32973,104,28907
32937,112,28999
32910,106,28975
32797,112,28975
32741,109,28836
32860,104,28909
32956,112,28884
33068,130,28818
33121,102,28823
33101,109,28937
33044,105,28945
33013,85,28773
32988,110,28812
32932,107,28859
32916,103,29001
32920,112,28913
32952,121,28927
33024,102,28959
33084,112,28967
33120,108,28824
33052,130,28916
32964,106,29021
32873,103,28847
32852,114,28954
32940,110,28972
32988,109,28780
33056,123,28872
33159,105,28940
33137,109,28895
33089,113,28999
33101,103,29047
33020,105,28972
32944,111,28855
32897,117,28975
32916,103,28985
32973,93,28783
33113,111,28874
33104,107,28995
33112,100,29035
33064,110,28933
33004,105,28863
32996,102,28951
32992,110,28948
32909,119,28967
32813,105,28974
32764,104,28772
32812,111,28839
32900,112,28948
33039,127,28943
33108,108,28967
33159,105,28973
33173,113,28759
33192,124,28775
33184,105,28823
33041,83,28809
32924,113,28823
32944,105,28845
33008,113,28957
33093,110,28963
33210,129,28827
33214,103,28919
33153,99,28957
33156,109,28947
33137,105,28947
33132,114,28949
33175,109,28935
33188,123,28738
33188,103,28737
33212,110,28781
33276,106,28804
33284,102,28825
33276,110,28965
33309,120,28959
33228,102,28989
33204,108,28967
33128,103,28885
33117,103,28799
33152,111,28905
33236,107,28909
33252,106,28922
33249,110,28707
33241,111,28775
33164,106,28773
33061,103,28871
32980,111,28945
32992,108,28973
33092,98,28973
33167,110,28964
33280,107,28909
33148,102,28793
33112,110,28788
33046,105,28813
32910,113,28764
32905,110,28767
32896,104,28767
32900,111,28857
32896,124,28843
32929,106,28893
33048,111,28896
33136,129,28901
33220,114,28900
33113,107,28887
33068,102,28901
32948,102,28711
32908,110,28766
32929,106,28770
33056,103,28807
33253,109,28777
33428,106,28775
33560,103,28763
33660,111,28763
33592,111,28764
33492,115,28871
33338,106,28893
33064,103,28957
32818,109,28953
32424,116,28917
32008,107,28947
31743,101,28946
31324,112,28845
30884,107,28766
30400,105,28788
29756,112,28779
28892,108,28748
28080,112,28743
27336,109,28747
26489,82,28735
25736,111,28753
25453,111,28847
25838,108,28804
27112,115,28934
28605,114,28873
29988,109,28749
31513,106,28872
33220,101,28874
34665,109,28703
35253,105,28652
35481,100,28660
35466,109,28652
35292,119,28715
34964,103,28709
34612,109,28749
34196,125,28813
33796,105,28859
33516,110,28795
33340,104,28740
33328,113,28829
33349,109,28783
33359,105,28907
33492,103,28836
33436,110,28780
33177,124,28867
33060,105,28901
33054,111,28909
33066,129,28905
33068,103,28924
33133,111,28945
33214,110,28943
33288,108,28943
33296,103,28763
33272,74,28812
33180,114,28775
33124,103,28809
33013,114,28837
32950,109,28975
32909,121,28818
32937,107,28949
33015,102,28951
32996,111,28747
33054,113,28819
33004,105,29011
32924,101,28933
32849,110,28959
32801,107,28969
32724,93,28799
32776,110,28861
32657,107,28992
32636,103,28983
32751,111,29013
32893,116,28889
32945,103,28908
33061,111,29022
33062,106,29046
32956,104,28893
32894,110,28895
32760,105,28863
32606,106,28943
32596,111,29037
32645,108,29140
32669,114,29153
32676,125,29183
32829,104,29165
32916,110,29108
32884,107,29021
32824,103,29111
32837,110,29116
32821,108,29157
32856,103,28996
32936,100,29063
32926,110,29191
32788,107,29211
32692,112,29159
32580,106,29060
32529,111,28981
32576,113,28982
32580,104,28907
32676,112,28927
32760,124,28905
32925,104,28964
32901,111,28895
32828,121,28927
32844,106,29007
32809,88,28989
32708,118,28999
32680,104,29029
32749,112,29013
32932,119,28991
33208,105,28943
33244,78,28947
33153,110,28997
33100,105,28940
33044,113,29015
32940,110,29113
32904,106,29111
32950,112,29157
33007,109,29140
33128,108,29031
33373,88,28995
33480,109,28976
33487,109,29083
33356,105,29101
33192,112,28908
33089,110,28987
33040,105,29037
32969,105,29175
32948,111,29113
32894,108,29075
32904,104,29042
32901,110,29025
32908,106,29137
32745,107,28935
32676,99,28975
32616,110,29014
32588,106,28969
32564,112,28997
32544,106,29151
32568,113,29158
32516,108,29167
32652,113,29041
32696,107,29091
32673,101,29047
32637,110,29055
32576,108,29175
32521,107,28999
32601,104,29084
32517,104,29266
32653,111,29191
32740,111,29209
32720,111,29243
32692,118,29119
32756,110,29332
32774,104,29221
32764,102,29279
32716,102,29302
32601,113,29215
32684,112,29324
32712,115,29148
32726,107,29233
32748,104,29422
32756,113,29335
32752,109,29400
32660,105,29223
32532,105,29479
32444,111,29374
32644,108,29421
32700,105,29503
32745,104,29331
32916,104,29429
32988,111,29427
32877,108,29441
32828,105,29668
32709,110,29497
32615,110,29636
32600,106,29471
32600,96,29519
32592,109,29575
32601,107,29739
32629,104,29631
32708,112,29719
32728,107,29762
32772,103,29565
32866,113,29668
32774,111,29831
32720,105,29895
32712,84,29732
32641,110,29806
32585,108,29861
32646,113,29691
32600,110,29799
32896,107,29933
33032,102,29989
33038,109,29864
32949,106,29929
32756,93,29973
32737,110,29983
32832,107,29873
32761,105,29885
32780,111,29985
32788,125,30127
32788,105,30039
32796,102,29970
32768,112,30073
32716,108,30129
32652,105,29949
32594,114,30068
32698,107,30083
32672,104,30308
32701,104,30226
32820,113,30276
32842,110,30133
32880,122,30215
32790,104,30421
32721,111,30343
32644,110,30371
32616,121,30247
32615,107,30311
32603,103,30401
32700,113,30551
32758,113,30496
32856,129,30481
32772,108,30545
32802,103,30351
32781,91,30442
32681,110,30663
32420,115,30501
32401,108,30607
32328,103,30654
32448,96,30437
32436,111,30468
32552,106,30583
32665,105,30605
32788,113,30783
32897,109,30769
32972,117,30645
32992,107,30755
33052,105,30741
32992,105,30649
32924,111,30787
32968,112,30821
33129,128,30887
33010,105,30895
32892,91,30854
32796,112,30743
32724,111,30802
32780,107,30839
32796,102,30861
32848,111,30879
32965,112,30875
33018,107,30657
33100,104,30780
33108,103,30843
33132,111,30877
33144,111,30895
33084,108,30949
32976,106,31000
32908,105,30827
32932,103,30943
32949,100,30734
33069,110,30853
33145,110,30920
33188,117,31079
33068,104,31077
32862,113,31062
32823,111,30877
32908,110,31004
32776,129,31033
32818,105,31039
32856,101,30805
32945,111,30933
32946,109,31015
33036,109,31124
33027,128,31079
33012,105,31047
33012,103,30935
32892,84,30945
32857,109,30960
32908,130,30937
32852,109,31047
32817,104,31056
32808,104,31092
32908,104,30909
32900,111,30860
33004,111,30958
33068,111,31105
33022,110,31167
32924,121,31068
32942,106,31047
33026,103,31087
33076,74,31077
33060,111,30860
33096,126,30958
33146,105,31132
33248,105,30940
33294,114,31009
33388,111,31063
33383,111,30893
33356,110,31005
33229,121,31110
33236,107,31003
33125,103,30983
32820,105,31030
32448,113,30787
32044,113,30927
31577,109,31047
31186,113,30864
30740,107,30989
30150,109,30787
29501,107,31020
28847,108,30810
28224,106,30943
27385,89,30770
26548,114,30919
26124,115,30809
26444,113,30900
27570,111,30672
29053,110,30945
30409,108,30855
31905,103,30681
33508,111,30727
34792,109,30707
35296,108,30829
35504,115,30707
35404,107,30893
35092,106,30710
34693,105,30796
34332,103,30561
34073,74,30661
33832,111,30796
33688,109,30830
33503,118,30727
33352,108,30697
33246,106,30725
33217,104,30487
33231,111,30595
33280,111,30645
33353,107,30686
33428,83,30744
33484,112,30607
33456,119,30540
33453,107,30619
33544,102,30655
33484,113,30505
33440,109,30509
33372,128,30622
33216,108,30500
33045,104,30539
33065,104,30317
33100,112,30375
33260,111,30503
33239,112,30318
33140,127,30259
33205,106,30300
33056,113,30487
33089,109,30247
33137,104,30332
33108,104,30340
33157,112,30211
33249,110,30375
33288,129,30398
32993,106,30264
32804,105,30310
32857,102,30176
32966,99,30359
32970,112,30157
32908,111,30295
32936,108,30153
32888,111,30335
32928,113,30235
32926,103,30279
32900,102,30277
32956,111,30068
32884,111,30148
32992,108,30324
33105,105,30324
33109,102,30138
33108,111,30277
33020,108,30039
32988,112,30122
32973,106,30309
33080,103,30161
33156,113,30223
33064,109,30223
32844,110,30103
32758,110,30289
32696,111,30095
32629,127,30205
32639,105,30193
32852,105,30060
32975,103,30266
33060,78,30042
33045,113,30183
33060,111,30167
32824,110,29948
32820,108,30031
32799,103,30127
32788,102,30181
32864,112,30203
33016,111,30023
33228,119,30101
33316,105,30105
33236,104,29877
33172,110,29865
33125,109,29871
33132,107,30014
33192,104,30117
33258,99,29977
33325,112,29940
33425,106,29939
33606,100,29925
33621,110,29830
33716,110,29892
33596,106,29906
33532,106,29919
33428,111,29888
33341,121,29874
33398,105,29852
33448,104,29661
33420,110,29588
33376,107,29575
33316,105,29551
33177,111,29575
33056,111,29602
32969,104,29650
32894,103,29750
32830,102,29529
32788,111,29623
32800,111,29461
32856,119,29439
32964,103,29445
32985,104,29621
32964,110,29476
32884,110,29485
32733,107,29496
32580,111,29483
32485,108,29467
32529,104,29287
32676,113,29317
32758,111,29393
32767,106,29411
32791,103,29253
32823,110,29245
32728,107,29331
32655,113,29337
32592,112,29189
32556,109,29353
32557,105,29155
32561,102,29251
32629,108,29252
32712,116,29042
32757,106,29013
32705,104,29135
32613,115,29266
32556,111,29146
32512,110,29164
32512,128,28965
32480,108,29023
32480,107,29212
32540,103,29087
32696,113,29060
32712,109,29122
32733,106,29133
32718,104,29122
32663,101,28909
32676,110,29003
32609,105,29079
32588,104,29149
32552,113,29132
32609,109,29095
32653,104,28988
32640,113,28923
32628,110,29015
32672,115,29035
32661,106,29015
32728,103,28815
32729,96,28857
32620,109,28989
32669,111,29028
32741,106,28899
32770,102,28807
32797,113,28900
32738,111,28904
32663,105,28871
32652,113,28687
32663,110,28749
32758,109,28866
32860,116,28675
32848,106,28779
32917,106,28771
32900,102,28543
32897,110,28598
32912,122,28607
32801,106,28761
32693,105,28578
32668,103,28665
32748,113,28657
32837,107,28639
32844,103,28447
32948,111,28465
33143,121,28495
33164,105,28453
32950,103,28497
32892,110,28653
32823,111,28621
32860,109,28491
32872,104,28565
32884,110,28596
32944,127,28588
32933,103,28578
32942,99,28413
32877,112,28441
32856,127,28535
32815,105,28637
32786,112,28645
32759,117,28613
32732,104,28609
32844,111,28595
32848,120,28477
32788,105,28599
32753,98,28617
32797,112,28627
32821,109,28449
32871,107,28540
32825,104,28701
32721,85,28714
32714,110,28639
32606,109,28564
32741,128,28655
32749,106,28688
32820,102,28557
32957,112,28583
33120,110,28735
33156,111,28699
32952,108,28775
32820,109,28641
32724,108,28853
32718,107,28879
32752,104,28743
32729,103,28820
32832,111,28852
32961,110,28884
32957,109,28747
33005,103,28788
32895,106,29015
32952,107,28881
32916,103,28948
32928,98,28999
32992,111,29029
33133,112,28855
33180,106,28869
33169,103,28879
33164,113,28974
33146,108,29007
33124,114,29148
33040,122,29181
32884,106,29063
32844,104,29189
32868,87,29225
32936,111,29027
33078,108,29128
33104,121,29229
33023,108,29251
32980,106,29261
32952,103,29341
32890,103,29164
32852,80,29245
32881,111,29422
32968,110,29287
33148,110,29413
33121,129,29461
33002,108,29263
32921,104,29357
32860,100,29380
32822,109,29481
32789,109,29610
32756,122,29557
32708,108,29482
32625,105,29513
32680,104,29628
32802,104,29651
32920,91,29455
33037,73,29589
33177,111,29727
33168,110,29765
33316,108,29611
33512,127,29746
33422,107,29599
33378,107,29655
33372,107,29839
33147,107,29798
32688,107,29703
32324,92,29804
31990,110,29861
31560,111,29747
31120,111,29957
30744,111,29823
30318,128,29871
29754,108,29931
28960,120,29735
28260,131,29899
27417,110,30024
26612,110,30035
26429,103,29974
27009,115,29900
28248,111,30019
29545,110,30051
30884,107,29861
32244,101,29933
33740,113,30023
34944,114,30115
35420,104,30094
35600,113,30116
35565,107,30190
35209,106,30199
34780,104,30259
34324,109,30231
33880,111,30085
33722,128,30228
33464,105,30044
33388,112,30107
33400,110,30270
33391,110,30279
33454,109,30308
33444,117,30215
33509,115,30383
33542,129,30353
33551,116,30202
33372,105,30433
33356,107,30372
33149,106,30237
33164,107,30461
33236,107,30306
33221,105,30439
33312,103,30319
33420,104,30501
33380,112,30281
33400,111,30418
33388,108,30244
33326,107,30461
33313,107,30361
33407,104,30187
33468,104,30299
33356,103,30335
33270,96,30373
33140,113,30237
33000,94,30281
33080,95,30352
33254,106,30406
33408,106,30324
33334,107,30119
33336,129,30407
33284,109,30239
33288,106,30151
33188,105,30228
33037,100,30389
32997,109,30268
32941,107,30327
32996,105,30356
33076,104,30241
33223,91,30402
33189,111,30437
33281,109,30431
33200,103,30269
33044,104,30396
32908,114,30407
32856,111,30258
32814,108,30367
32940,103,30417
33136,111,30433
33108,108,30494
33180,110,30290
33036,110,30407
32984,120,30295
32964,122,30454
32968,108,30402
32924,108,30389
32961,107,30397
32880,104,30173
32872,105,30259
32988,101,30375
33248,89,30236
33045,112,30343
32952,111,30361
32937,110,30233
32934,110,30377
32933,111,30199
33004,108,30315
33114,111,30087
33288,107,30169
33485,114,30345
33626,113,30224
33620,111,30056
33567,109,30260
33380,110,30121
33260,119,30207
33272,124,30061
33425,129,30244
33548,108,30063
33704,108,30153
33726,106,30027
33754,105,30139
33714,105,30067
33657,106,30093
33493,102,29863
33412,102,30028
33300,112,30055
33298,110,30029
33328,111,29813
33409,120,30028
33384,106,29975
33348,103,29967
33292,113,29783
33124,109,29879
33005,109,30008
32948,105,29822
32929,104,29909
32860,104,29783
32799,103,29843
32845,106,29688
32892,103,29879
32927,103,29731
32822,113,29807
32872,112,29792
32932,109,29571
32820,112,29756
32848,104,29813
32767,103,29684
32809,113,29537
32848,114,29669
32788,111,29559
32758,108,29651
32710,110,29665
32757,109,29588
32804,111,29500
32768,109,29442
32744,119,29573
32856,126,29511
32895,116,29319
32820,122,29567
32800,107,29370
32811,103,29301
32800,104,29365
32844,104,29295
32804,112,29405
32780,109,29169
32712,113,29328
32694,108,29385
32873,107,29317
32757,103,29310
32974,79,29151
32917,110,29317
32804,112,29141
32680,114,29221
32670,108,29151
32604,106,29070
32586,105,29253
32580,91,29119
32654,111,29043
32604,113,29127
32625,111,28979
32624,110,29142
32561,130,29031
32548,107,29015
32550,106,29039
32644,113,28815
32693,113,28859
32740,110,29039
32772,110,28847
32748,116,28935
32745,107,28879
32780,106,28751
32636,104,28894
32656,114,28821
32537,110,28743
32482,105,28804
32460,104,28805
32500,112,28631
32600,110,28700
32660,126,28788
32588,107,28649
32589,102,28709
32600,109,28716
32572,105,28693
32510,112,28531
32482,110,28639
32420,112,28645
32448,107,28542
32608,102,28618
32636,111,28617
32776,107,28587
32836,118,28420
32716,107,28437
32716,104,28581
32704,105,28421
32708,104,28530
32644,105,28375
32544,103,28516
32568,103,28399
32694,105,28452
32836,110,28466
32840,111,28305
32762,109,28453
32784,129,28351
32784,105,28319
32690,104,28391
32720,112,28387
32774,109,28221
32860,109,28311
32912,110,28315
32792,116,28301
32804,106,28317
32732,103,28307
32724,74,28095
32740,112,28135
32668,110,28313
32716,110,28193
32920,106,28255
33120,103,28051
33061,103,28231
33032,101,28189
33156,112,28151
33092,109,28201
33072,108,28050
33028,115,28045
33040,128,28229
32928,106,28055
32964,103,28148
33046,105,28165
33088,111,27995
33152,112,27999
33343,123,27991
33448,108,28130
33468,104,28097
33288,104,28021
33132,112,28109
32925,108,28103
32997,113,27953
32992,119,28061
33104,106,28034
33197,104,28083
33248,113,27951
33085,112,27916
33084,109,28105
32936,106,27989
32945,106,28007
33053,102,28046
33188,110,28047
33236,108,27874
33221,105,27920
33228,105,28041
33220,112,27895
33172,110,28007
33112,109,27807
33087,114,27933
33008,114,27861
32958,123,27977
33016,106,27781
33125,102,27815
33172,103,27997
33188,74,27817
33181,112,27908
33113,131,27935
33108,107,27759
33148,108,27796
33188,103,27943
33261,111,27917
33421,111,27759
33713,106,27870
33792,105,27879
33752,101,27671
33646,83,27821
33360,111,27756
33038,110,27826
32630,108,27825
32320,113,27655
31905,119,27847
31560,125,27783
31406,108,27647
31173,105,27603
30732,100,27623
30096,104,27799
29293,115,27645
28524,111,27745
27576,124,27749
26824,111,27564
26702,111,27687
27502,109,27759
28810,106,27591
30181,114,27687
31566,111,27703
32880,112,27533
34184,130,27624
35044,106,27701
35228,104,27702
35316,110,27654
35170,112,27685
34980,106,27655
34668,93,27673
34312,110,27578
33960,105,27527
33660,112,27527
33516,110,27503
33289,128,27573
33220,103,27557
33120,103,27572
33100,112,27391
33220,110,27456
33286,110,27575
33344,125,27590
33400,107,27591
33360,93,27600
33265,108,27601
33220,111,27565
33145,105,27542
33046,115,27531
33036,109,27471
32976,105,27445
32976,103,27410
33148,112,27470
33228,111,27333
33148,113,27407
33157,105,27415
33128,103,27423
32902,111,27405
32855,109,27231
32888,129,27201
33112,105,27237
33058,104,27396
33005,112,27340
33164,112,27223
33132,125,27338
33109,105,27157
32924,105,27309
32774,102,27261
32665,114,27247
32645,112,27193
32560,111,27351
32661,111,27309
32862,110,27143
32834,121,27196
32848,106,27305
32808,105,27327
32668,105,27196
32545,106,27341
32540,111,27309
32448,113,27251
32388,125,27363
32452,118,27212
32637,112,27423
32813,129,27319
32740,106,27379
32732,112,27225
32616,109,27398
32549,110,27373
32516,110,27197
32518,106,27365
32524,105,27282
32548,113,27345
32656,112,27207
32650,112,27399
32719,108,27252
32616,124,27357
32657,106,27211
32560,104,27404
32438,104,27343
32365,102,27171
32365,77,27343
32393,109,27236
32630,111,27364
32881,105,27174
32908,106,27337
32924,106,27276
32776,105,27185
32734,104,27341
32728,105,27293
32781,81,27202
32744,112,27319
32848,109,27265
32932,130,27407
32805,105,27252
32896,104,27435
33031,101,27399
33044,113,27245
32932,111,27479
32960,112,27404
32919,109,27425
32993,108,27295
33124,106,27333
33164,88,27495
33213,110,27358
33114,108,27469
33044,126,27319
33005,107,27431
32932,105,27399
32705,105,27495
32608,111,27358
32636,109,27471
32650,107,27495
32652,105,27343
32662,114,27461
32669,109,27413
32644,111,27549
32517,127,27396
32361,105,27558
32320,106,27478
32268,95,27581
32368,112,27399
32473,110,27474
32525,110,27615
32586,112,27490
32657,108,27604
32652,108,27463
32546,107,27535
32392,106,27663
32417,106,27660
32428,103,27687
32405,112,27523
32501,107,27551
32646,116,27751
32687,105,27701
32656,106,27741
32679,103,27561
32629,104,27738
32440,113,27684
32424,111,27676
32488,121,27791
32464,107,27621
32452,106,27673
32568,103,27869
32685,94,27858
32801,110,27783
32849,111,27765
32716,128,27953
32558,129,27827
32428,109,27963
32384,107,27773
32410,105,27917
32484,102,27871
32568,92,28022
32588,113,27893
32684,109,28113
32568,110,27943
32389,105,28087
32336,102,27924
32337,112,27971
32328,111,28199
32400,109,28051
32412,110,28167
32448,109,28041
32600,111,28083
32628,108,28080
32772,110,28205
32840,108,28121
32608,116,28271
32588,116,28140
32432,108,28229
32456,106,28301
32476,104,28197
32547,113,28329
32534,113,28351
32588,111,28195
32636,110,28405
32744,111,28295
32773,112,28421
32780,113,28327
32708,111,28497
32673,111,28343
32625,124,28493
32701,116,28365
32925,128,28551
33175,129,28453
33173,106,28527
33048,105,28450
32796,103,28583
32625,103,28530
32617,104,28561
32632,92,28429
32623,76,28623
32736,111,28455
32932,110,28595
33068,118,28466
32912,106,28660
32861,107,28591
32702,114,28477
32524,108,28646
32528,104,28605
32372,107,28615
32484,106,28453
32652,107,28703
32766,106,28599
32812,105,28543
32933,104,28565
32943,104,28591
32916,104,28733
32913,75,28612
32892,109,28752
32801,116,28757
32925,107,28805
32944,104,28656
32662,104,28845
32688,103,28733
32672,104,28713
32631,104,28831
32830,113,28959
32968,112,28799
33038,112,28927
33050,111,28805
33152,110,28974
33120,108,28855
33101,110,29001
33186,109,28881
33211,120,29069
33214,105,28925
33214,103,29063
33032,83,28933
33044,110,29093
33165,110,29033
33333,109,29106
33373,109,28959
33252,109,29167
33232,110,29101
33216,117,28957
33152,108,29112
32992,106,29044
33060,126,29166
33189,113,29039
33332,111,29235
33364,113,29063
33329,129,29179
33439,114,29046
33312,116,29209
33165,109,29183
33129,109,28991
32976,110,29173
32896,113,29110
32894,109,29215
32884,122,29080
33020,106,29292
33224,108,29114
33109,108,29060
32984,109,29269
33009,108,29112
33033,113,29254
33172,117,29111
33312,119,29258
33529,106,29151
33685,105,29191
33798,102,29258
33836,103,29127
33806,87,29309
33598,92,29215
33319,89,29036
33048,83,29258
32731,110,29211
32372,119,29228
31973,128,29239
31756,107,29111
31381,104,29209
30958,112,29279
30468,111,29175
29912,110,29207
29404,126,29222
28576,109,29196
27808,106,29025
27404,116,29055
27604,113,29243
28736,111,29049
30152,111,29170
31382,109,28957
32689,127,29002
33894,105,29044
34853,102,29106
35216,100,29047
35364,109,29097
35312,113,28935
35116,126,29036
34876,106,29091
34548,105,28969
34252,103,29009
33925,98,28791
33806,113,28844
33552,112,28999
33212,109,28815
32996,123,28935
32936,113,28775
33074,128,28807
33135,107,28901
33356,104,28731
33327,104,28851
33296,111,28836
33192,113,28828
33210,109,28617
33044,114,28637
33009,108,28791
33140,105,28652
33116,103,28679
33086,114,28691
32972,110,28455
33049,106,28488
33056,105,28653
33180,103,28463
33149,112,28533
33128,111,28356
33054,112,28541
33004,107,28316
32908,109,28429
33060,125,28199
33116,109,28297
32965,106,28389
33069,105,28245
33080,105,28300
32909,104,28103
32836,113,28103
32820,111,28196
32744,110,28276
32782,110,28199
32816,128,28199
32734,107,28167
32807,104,28029
32744,104,28205
32760,104,28125
32794,103,27983
32848,105,27991
32813,104,28114
32656,113,27932
32685,111,28063
32721,111,28061
32780,111,28000
32789,126,28029
32860,106,27865
33020,105,27999
32828,103,27958
32676,99,27959
32434,113,27783
32376,100,27861
32468,102,27807
32515,102,27701
32688,105,27927
32852,103,27819
32876,106,27671
33095,104,27730
33013,114,27764
32869,110,27655
32704,111,27749
32581,109,27572
32566,104,27557
32585,104,27725
32685,105,27559
32804,114,27629
32965,113,27461
33157,114,27653
33180,109,27469
33288,110,27553
33169,119,27391
33089,106,27399
33124,103,27523
33191,111,27437
33152,111,27461
33173,107,27457
33204,104,27458
33234,102,27427
33143,112,27271
33145,111,27428
33092,109,27429
33092,104,27413
33169,106,27410
33252,93,27263
33204,112,27337
33360,108,27150
33244,115,27165
33252,106,27247
33232,106,27254
33104,105,27291
32994,105,27132
32972,106,27300
32892,103,27174
32831,106,27253
32878,97,27172
32969,113,27079
33072,111,27244
33028,110,27207
32772,110,27181
32752,110,27026
32734,111,27071
32704,105,27207
32780,103,27209
32974,74,27089
33117,110,27026
33205,109,27129
33122,107,27136
33080,102,26983
32978,111,26948
32943,110,26937
32896,112,26947
32752,105,26966
32877,105,27094
32932,103,27015
32948,113,27078
33040,109,27095
33135,109,26920
33096,111,27041
33092,107,27069
33020,107,27067
32931,104,26939
32783,103,27063
32801,102,26924
32792,108,26922
32740,104,27105
32885,104,26961
33092,103,27045
33156,113,27049
33192,108,27065
33085,110,26930
32924,127,26957
32828,104,27025
32744,104,27128
32736,112,26986
32872,111,27103
32984,109,27132
33004,105,27143
32969,106,26983
32918,76,26988
32753,76,27051
32758,113,27070
32772,96,27188
32790,112,27020
32820,111,27215
33004,111,27100
33005,116,27218
32961,107,27045
32916,106,27063
32796,113,27206
32689,109,27285
32629,108,27143
32644,107,27259
32744,103,27088
32662,105,27289
32760,113,27151
32956,112,27271
33076,110,27122
33052,107,27287
33020,113,27263
32889,122,27300
32737,109,27159
32673,105,27265
32714,105,27351
32765,114,27331
32844,112,27183
32857,111,27347
32853,121,27287
32816,109,27367
32744,107,27202
32741,106,27349
32605,103,27364
32584,88,27359
32722,113,27404
32772,76,27243
32909,113,27463
33012,111,27335
33053,114,27412
33200,114,27333
33028,110,27435
32912,113,27379
33000,129,27461
32980,107,27311
32881,107,27533
32873,104,27438
32910,105,27332
32961,103,27492
32972,115,27437
33072,112,27345
33120,111,27447
33057,109,27423
32981,126,27373
32956,107,27589
32949,105,27456
32917,104,27583
33004,101,27446
33125,102,27499
33092,104,27621
33093,105,27527
33176,100,27684
33252,111,27535
33005,107,27575
33015,106,27559
33014,105,27590
32893,102,27751
32956,112,27601
33031,110,27732
33216,111,27607
33380,107,27617
33428,104,27823
33300,104,27682
33132,104,27642
32955,112,27673
32972,88,27722
32876,112,27871
32944,110,27737
33044,119,27943
33188,109,27804
33263,105,27933
33340,107,27764
33183,107,27954
32964,111,27951
32578,119,27839
32704,108,27847
32837,107,27901
32852,117,28007
32912,108,28085
32888,109,28007
33085,108,27865
33198,111,27967
33137,113,27911
33069,112,28119
33076,112,28010
33010,112,28107
32908,112,27948
32904,109,28143
33048,114,28025
33020,107,28165
32953,106,28047
32892,105,28228
32972,105,28098
33049,106,28197
33216,105,28167
33428,105,28222
33489,105,28243
33489,103,28261
33452,107,28167
33236,103,28244
32936,102,28349
32538,91,28213
32229,110,28341
31900,115,28365
31631,127,28249
31424,128,28321
31332,127,28423
30901,119,28422
30404,129,28341
29944,109,28479
29407,108,28359
28517,108,28564
27669,109,28509
27584,108,28359
28229,108,28455
29333,107,28484
30552,109,28594
31848,106,28477
33017,109,28678
33976,106,28531
34900,119,28659
35244,111,28527
35174,118,28727
35096,128,28591
34872,106,28676
34632,104,28722
34206,105,28537
33680,104,28613
33342,103,28719
33204,103,28703
33000,104,28785
32968,99,28601
32872,111,28777
32812,111,28726
32844,112,28844
32856,112,28729
33049,112,28911
33200,108,28837
33232,109,28887
33348,112,28739
33236,106,28765
33036,104,28775
32937,75,28980
32996,102,28892
33132,103,28738
33132,74,28827
32840,110,28943
32753,110,28807
32948,123,28799
32743,106,28780
32653,105,28899
32672,100,28740
32714,112,28841
32628,111,28665
32631,113,28773
32534,112,28911
32473,111,28749
32530,111,28817
32617,117,28843
32638,113,28660
32564,112,28843
32697,109,28739
32588,94,28765
32564,112,28907
32701,112,28855
32760,109,28898
32640,111,28767
32572,110,28969
32702,110,28899
32628,109,28751
32505,128,28839
32476,125,28930
32366,107,28882
32244,108,28975
32268,107,28817
32230,107,29013
32300,104,28850
32496,103,28959
32532,113,28980
32679,109,28843
32744,112,28924
32932,112,28972
32840,110,28972
32708,117,28815
32552,105,28803
32408,102,29006
32174,113,28801
32271,113,28871
32292,107,28911
32375,106,28771
32428,103,28812
32544,113,28847
32669,110,28855
32484,109,28679
32486,113,28702
32689,105,28901
32640,106,28710
32620,101,28817
32816,105,28677
32864,92,28759
32934,113,28770
32844,110,28775
32701,122,28557
32668,108,28717
32575,103,28799
32524,111,28615
32472,115,28697
32716,107,28711
32965,105,28513
33016,111,28551
33004,111,28679
33121,110,28641
33005,106,28636
32980,105,28655
32867,103,28452
32884,104,28701
32892,104,28604
32860,105,28423
33096,103,28613
33076,98,28496
33072,111,28605
32944,110,28447
32847,107,28639
32780,101,28634
32677,113,28441
32696,112,28551
32616,111,28404
32776,109,28583
32792,117,28414
32889,107,28427
32885,104,28505
32980,104,28299
32895,114,28301
32797,108,28325
32593,125,28378
32584,107,28323
32685,107,28386
32529,104,28383
32504,112,28191
32647,109,28187
32669,107,28157
32654,104,28127
32668,111,28173
32736,125,28251
32708,108,28137
32783,102,28049
32744,101,28149
32740,112,27917
32844,110,27927
33009,109,28047
33209,112,27910
33000,127,27983
32820,106,27815
32660,104,27877
32768,111,27887
32752,109,27899
32688,117,27828
32837,103,27814
32860,99,27817
32828,112,27650
32716,109,27615
32698,111,27713
32671,127,27655
32653,107,27565
32765,104,27649
32724,103,27655
32772,111,27624
32756,113,27423
32941,111,27453
32973,124,27550
32902,120,27443
32927,106,27405
32949,105,27495
32903,104,27289
32808,112,27282
32760,128,27240
32832,103,27309
32992,113,27333
33144,128,27377
33200,104,27195
33216,105,27252
33263,113,27243
33057,109,27063
32908,123,27125
32738,107,27036
32732,107,27132
32864,106,26959
33126,103,27101
33156,110,27107
33172,111,27005
33000,111,26843
32929,111,26988
32879,121,26900
32754,105,26928
32748,100,26713
32868,112,26919
32804,111,26811
32714,110,26670
32830,108,26787
32876,111,26673
32932,110,26581
32925,109,26749
33004,119,26671
32694,117,26525
32656,121,26680
32648,125,26631
32826,105,26613
32920,105,26433
33116,103,26585
33117,113,26499
33184,113,26541
33268,113,26356
33230,108,26529
33072,117,26366
32897,107,26451
32660,103,26448
32709,104,26268
32716,113,26414
32772,112,26250
33037,123,26338
32932,104,26344
32965,103,26175
33048,111,26163
33070,109,26247
33109,108,26212
32900,104,26247
32964,105,26055
33088,112,26093
33064,111,26198
33174,109,26135
33180,109,26149
33071,105,26119
32937,111,25935
33044,111,25951
32921,112,26077
32877,106,25996
32824,105,26019
32954,102,25825
32970,110,25829
33012,107,25967
33112,103,25889
33068,113,25793
33056,111,25863
33072,103,25850
33095,114,25847
33098,109,25821
33026,118,25633
32996,105,25804
33063,102,25643
33153,82,25732
33176,111,25557
33140,107,25524
33111,103,25503
33124,111,25627
33388,110,25615
33272,120,25479
33086,105,25469
33049,112,25457
32908,115,25418
32916,105,25409
33152,92,25479
33272,109,25479
33208,123,25297
33050,106,25281
32906,102,25301
33012,111,25397
32912,111,25351
32792,107,25349
32749,104,25199
32805,103,25197
32866,104,25271
32836,111,25188
32849,111,25148
32901,107,25211
32888,105,25244
32957,95,25092
33136,110,25039
33192,110,25191
33201,127,25197
33088,108,25079
32965,106,25165
32829,98,25150
32564,111,24979
32212,108,24959
31861,104,24957
31488,115,24929
31332,109,25109
31284,108,25089
30869,107,24961
30393,106,25073
29878,113,24925
29148,122,24908
28449,107,24895
27752,102,24879
27747,115,25070
28421,112,24927
29720,121,25049
30884,107,24926
32044,97,24863
33242,111,24861
34127,117,24857
34823,104,25019
35112,104,24978
35144,79,24991
35012,111,25023
34733,109,25023
34340,106,25026
33896,103,24893
33592,111,24868
33384,129,24831
33263,103,24837
33172,112,24893
32996,111,24983
32924,107,24997
32969,113,25057
32932,109,25069
32860,104,25069
32760,75,25063
32780,110,25075
32920,124,25055
32953,107,24879
32856,103,24901
32836,111,25069
32929,110,24917
32904,122,25001
32796,105,25019
32900,112,25023
33004,110,25007
33101,107,25007
33228,105,25004
33276,104,24859
33148,112,24831
32949,106,24863
32792,102,24801
32652,111,24839
32796,105,24884
32872,103,24999
32752,109,25001
32775,105,25023
32768,103,24935
32870,112,24987
32828,111,25029
32793,106,24899
32676,112,24889
32548,109,24863
32488,107,24996
32708,107,24981
32687,105,25028
32665,87,24949
32721,113,24966
32912,112,25125
32756,130,25031
32648,106,25077
32612,113,25149
32592,116,25141
32556,105,25211
32557,100,25235
32682,111,25095
32728,111,25127
32716,107,25272
32592,104,25179
32556,89,25301
32662,111,25149
32492,111,25181
32588,103,25343
32616,111,25369
32685,110,25319
32734,111,25371
32708,110,25205
32570,123,25410
32689,105,25307
32772,100,25407
32677,112,25447
32474,108,25295
32400,117,25427
32316,109,25365
32480,106,25507
32644,105,25356
32764,104,25495
32744,92,25491
32770,109,25551
32712,111,25591
32705,113,25431
32749,108,25623
32788,107,25619
32743,106,25659
32729,104,25521
32800,104,25575
32929,78,25751
33164,95,25633
33000,113,25708
33106,111,25789
33042,110,25652
33032,109,25769
32941,108,25863
32812,130,25775
33008,108,25868
33049,107,25913
32988,103,25787
33048,105,25802
32980,102,25973
33054,105,25951
32902,101,25893
32901,74,25863
32846,113,26073
32628,113,25957
32576,111,26036
32792,110,26109
32796,120,26119
32736,107,25975
32700,105,25987
32700,105,26041
32662,114,26212
32589,109,26115
32469,112,26139
32425,109,26164
32577,106,26269
32713,79,26287
32794,111,26143
32876,111,26148
32812,111,26335
32848,113,26347
32756,130,26284
32748,105,26375
32643,105,26420
32616,103,26301
32612,113,26281
32608,111,26481
32684,111,26455
32716,129,26409
33004,128,26543
33048,112,26408
33045,103,26421
32850,115,26455
32740,110,26460
32528,122,26583
32480,130,26673
32480,107,26556
32657,106,26685
32704,105,26727
32784,84,26733
32652,115,26579
32648,111,26771
32644,111,26816
32574,107,26692
32609,108,26836
32665,123,26689
32780,105,26711
32788,97,26804
32848,112,26839
32924,110,26889
32892,110,26813
32910,109,26757
32768,113,26889
32657,107,26838
32580,105,26938
32516,101,26931
32488,112,26759
32787,115,26767
32904,107,26844
33018,114,26785
32980,110,26890
32801,111,26863
32769,105,26799
32800,107,26873
32660,105,26683
32564,104,26804
32564,104,26697
32653,103,26804
32736,103,26623
32788,114,26791
32780,113,26705
32701,113,26715
32596,109,26505
32570,112,26621
32496,109,26607
32616,119,26599
32700,120,26407
32717,106,26508
32842,105,26479
32988,100,26367
32982,110,26339
32716,116,26373
32624,105,26359
32673,103,26315
32820,102,26117
32848,113,26095
32820,115,26229
32834,111,26039
32864,108,26127
32837,107,26082
32800,105,25943
32644,101,25837
32410,112,25796
32429,123,25853
32556,105,25897
32594,103,25787
32726,112,25701
32749,112,25767
32788,108,25717
32837,106,25511
32761,106,25460
32637,103,25436
32593,111,25459
32679,130,25506
32784,104,25501
32768,104,25383
32826,86,25405
32913,109,25207
32872,106,25171
32929,104,25161
32942,112,25249
32887,110,25109
32832,113,25171
32808,107,25171
32806,103,24974
32892,105,25065
33003,102,24957
32957,96,25038
33018,87,24855
32904,95,24900
32879,112,24839
33012,111,24933
32896,112,24798
32885,113,24836
33092,113,24839
33119,111,24727
33146,110,24627
33157,110,24783
33112,114,24643
33071,107,24613
33120,105,24698
32965,103,24692
32879,103,24494
32960,105,24665
33005,105,24519
33185,106,24617
33340,103,24488
33327,103,24422
33372,105,24527
33384,114,24453
33216,115,24540
33237,111,24393
33220,110,24356
32985,128,24359
33008,108,24468
32870,108,24436
32916,103,24452
33088,103,24295
33186,104,24442
33197,112,24303
33098,111,24407
32961,78,24231
32940,113,24396
32884,111,24322
33015,114,24379
33084,110,24223
33196,108,24191
33439,126,24190
33292,123,24230
33095,107,24312
33401,104,24303
33513,113,24165
33248,110,24104
33264,109,24148
33262,105,24269
33157,103,24172
32974,98,24185
32877,110,24221
32736,115,24135
32433,124,24031
32084,108,24002
31920,105,23977
31580,102,23971
31228,112,24061
31076,112,24023
30725,111,24103
30333,111,23939
30072,111,23993
29830,131,23991
29140,111,23937
28656,107,23829
28648,109,23987
29233,123,23820
30485,117,23944
31621,109,23858
32664,103,23801
33670,105,23892
34469,104,23710
35240,103,23867
35700,91,23771
35665,112,23665
35532,111,23684
35288,110,23630
34927,109,23634
34668,108,23501
34400,109,23551
34057,111,23531
33820,110,23528
33580,111,23541
33276,112,23564
33316,113,23428
33252,121,23542
33192,107,23507
33224,105,23403
33232,109,23415
33169,108,23356
33120,108,23364
33132,107,23322
33149,108,23343
33124,129,23401
32984,107,23255
32902,106,23315
32965,105,23236
33120,104,23318
33004,113,23205
33125,108,23117
33220,110,23077
33200,122,23089
33100,106,23243
33108,108,23159
33021,104,23217
33080,113,23212
32976,102,23053
32760,87,23212
32464,104,23167
32388,105,23059
32661,103,23209
32876,104,23186
32975,103,23083
33017,103,22996
32969,113,23205
32860,113,23203
32824,88,23025
32812,102,23162
32738,102,23213
32617,108,23115
32697,109,23047
32705,111,23223
32724,121,23151
32840,107,23257
32808,106,23102
32668,108,23271
32653,106,23207
32649,101,23271
32805,110,23194
32848,130,23164
32829,107,23116
32693,107,23287
32742,104,23251
32608,104,23292
32692,109,23102
32621,108,23215
32789,115,23279
32950,110,23140
32858,119,23293
32785,107,23190
32668,103,23196
32648,105,23111
32657,104,23256
32830,112,23260
32760,111,23303
32652,111,23174
32748,109,23132
32750,125,23277
32696,105,23365
32845,103,23257
32828,105,23375
32813,103,23279
32905,97,23233
32916,111,23276
32940,105,23375
32825,84,23327
32862,113,23455
32669,110,23481
32688,109,23342
32776,108,23351
32884,114,23516
32977,115,23447
33196,126,23569
33117,108,23472
33124,104,23423
33000,104,23455
33044,111,23455
32964,112,23527
33024,109,23697
32928,111,23588
32928,107,23653
33028,103,23694
33200,101,23653
33173,109,23750
33113,106,23803
32977,102,23713
32869,112,23769
32854,119,23737
32872,104,23669
32940,89,23845
32988,112,23811
32884,108,23801
32989,104,23805
33008,106,23927
32840,100,23951
32751,111,23845
32615,108,23783
32485,109,23947
32508,108,24004
32649,112,23927
32725,105,23866
32752,112,23863
32668,110,23910
32768,113,24099
32797,107,23975
32718,108,24108
32754,105,23979
32790,101,23973
32729,113,24141
32750,111,24161
32828,108,24171
32870,111,24237
32977,127,24103
32989,105,24092
33084,105,24237
32800,103,24356
32673,98,24321
32558,93,24298
32520,111,24398
32496,130,24407
32518,107,24469
32548,112,24474
32773,108,24543
32744,129,24598
32645,104,24518
32613,92,24503
32593,110,24516
32577,110,24711
32620,127,24650
32662,105,24786
32757,107,24693
32780,106,24687
32716,105,24919
32741,106,24868
32743,104,24975
32637,111,24937
32584,111,24887
32489,108,24917
32476,104,24973
32508,109,25027
32631,112,25147
32724,106,25254
32711,95,25295
32663,111,25276
32631,128,25239
32556,106,25379
32540,104,25425
32480,112,25300
32388,109,25335
32372,107,25369
32486,105,25397
32694,114,25431
32801,111,25541
32892,111,25621
32760,110,25703
32672,110,25567
32625,127,25583
32480,106,25769
32476,107,25805
32507,104,25765
32733,105,25884
32700,105,25917
32804,114,25813
32820,109,25806
32754,111,25831
32629,106,25909
32775,102,25957
32712,110,26020
32672,110,26133
32756,107,26151
32689,107,26103
32812,103,26067
32695,103,26204
32508,111,26213
32568,109,26078
32509,123,26088
32398,106,26127
32501,105,26149
32473,109,26171
32440,109,26193
32612,108,26218
32780,104,26247
32697,110,26273
32598,110,26466
32730,119,26372
32704,109,26479
32536,105,26505
32460,111,26507
32372,128,26458
32372,105,26481
32388,114,26500
32932,109,26583
32700,106,26599
32653,104,26631
32608,111,26652
32584,112,26701
32448,108,26712
32276,107,26581
32288,94,26586
32522,111,26599
32822,111,26684
32822,107,26734
32998,104,26799
32912,112,26816
32700,113,26828
32692,107,26817
32753,107,26899
32712,103,26739
32614,95,26773
32550,112,26849
32679,111,26988
32887,114,27017
33140,107,27031
32908,105,26989
32903,113,26997
32836,111,26983
32602,112,27082
32581,120,27128
32673,104,27143
32908,109,27164
32981,108,27183
32980,113,27201
32960,112,27143
32924,107,27113
32708,104,27142
32965,111,27233
32976,122,27332
33086,102,27347
33028,99,27359
33109,112,27337
33172,124,27349
33021,106,27284
32916,113,27399
32912,130,27410
32744,104,27340
32644,114,27327
32692,111,27429
32629,112,27277
32584,105,27298
32797,104,27415
32865,103,27353
33021,113,27258
33050,110,27282
33158,113,27279
33072,105,27390
32988,105,27431
32829,111,27365
32624,129,27483
32668,105,27476
32745,105,27375
32956,91,27392
33173,94,27459
33324,113,27287
33469,111,27271
33310,111,27335
32989,112,27487
32540,110,27359
32188,112,27353
32358,126,27418
32412,106,27429
32064,104,27417
31817,114,27405
31732,116,27405
31470,103,27337
31201,112,27270
30849,109,27281
30372,127,27309
29996,107,27309
29556,105,27315
29148,113,27278
29049,84,27383
29128,113,27381
30007,111,27223
31292,122,27215
32577,106,27215
33260,105,27223
34045,103,27375
34876,103,27257
35349,111,27239
35607,110,27217
35584,109,27207
35268,108,27231
35008,107,27185
34885,104,27175
34612,83,27167
34272,112,27249
33873,110,27263
33337,112,27260
33100,109,27103
32884,108,27089
32904,119,27101
32964,129,27206
32933,113,27261
32917,107,27100
32957,105,27079
32960,104,27073
32888,75,27069
32866,111,27155
32741,110,27164
32793,109,27071
32776,104,27135
32943,105,27103
33012,110,27096
32924,111,27097
32864,112,27099
32832,116,27085
32862,129,26899
32753,107,26908
32936,108,26927
33013,109,27070
33417,107,26975
33532,103,27001
33367,90,26911
32948,112,26876
32924,111,26953
32725,109,26963
32593,112,26991
32478,111,26810
32464,129,26802
32644,107,26814
32844,85,26809
32917,110,26803
32964,113,27012
33180,112,26865
33236,105,26869
33074,89,26963
32652,110,26975
32532,108,26841
32548,109,26831
32577,104,26825
32503,105,26813
32501,113,26983
32458,111,26819
32506,109,26825
32440,107,26821
32500,105,26803
32602,104,26985
32623,112,26957
32600,111,26894
32466,127,26899
32500,106,26917
32400,107,26743
32416,103,26733
32568,95,26708
32456,113,26873
32444,111,26887
32232,111,26714
32285,108,26815
32300,104,26814
32180,96,26799
32182,112,26629
32220,111,26735
32352,115,26755
32308,131,26719
32344,108,26729
32452,107,26549
32452,104,26559
32620,112,26580
32829,110,26702
32761,110,26551
32635,109,26668
32804,109,26533
33160,109,26524
33356,111,26639
33084,111,26469
32928,128,26462
32804,107,26617
32716,107,26471
32936,108,26563
32958,105,26585
32756,105,26438
32818,100,26396
32743,103,26559
32740,92,26434
32592,114,26519
32652,113,26527
32570,114,26348
32608,111,26387
32592,111,26471
32518,115,26477
32597,108,26477
32793,105,26404
32855,108,26417
32900,109,26423
32864,105,26249
32804,107,26222
32658,107,26212
32788,104,26396
32856,103,26335
32821,111,26230
32820,110,26281
32776,111,26324
33022,109,26171
33044,106,26134
32836,108,26103
32613,103,26198
32716,104,26247
32564,113,26119
32540,110,26143
32740,108,26213
32854,105,26242
32781,104,26086
32909,112,26046
33018,110,26045
33200,110,26241
33044,111,26085
33006,121,26073
33046,105,26079
33057,102,26084
32825,111,26087
32873,109,26167
33024,108,26183
33002,105,26200
32927,104,26196
32876,111,26205
32624,111,26037
32562,110,26038
32741,106,26031
32646,106,26220
32980,104,26116
33424,104,26147
33500,104,26209
33417,112,26234
33280,109,26231
32932,118,26247
32753,109,26245
32334,109,26087
32213,109,26271
32164,109,26135
32448,108,26279
32660,107,26114
32696,105,26100
32676,98,26171
32680,111,26239
32620,109,26333
32500,127,26255
32574,108,26239
32564,103,26303
32714,103,26150
32652,89,26271
32676,111,26220
32720,110,26336
32908,112,26169
32876,112,26359
32883,104,26359
32645,77,26369
32698,111,26288
32704,124,26246
32702,107,26348
32696,105,26383
32844,106,26382
32896,110,26388
32876,111,26259
32832,119,26234
32740,107,26239
32724,103,26249
32885,111,26253
32724,114,26279
32853,105,26294
33057,104,26448
33112,111,26305
33031,108,26420
33024,106,26439
32972,105,26455
33016,104,26292
32902,110,26326
33020,112,26450
32961,106,26503
33029,104,26398
32948,103,26487
33020,112,26370
33124,109,26343
33036,129,26335
33036,128,26497
32929,106,26497
32844,107,26540
32671,105,26381
32545,105,26452
32644,105,26573
32859,104,26493
32900,103,26475
32932,104,26433
32952,113,26475
32950,111,26647
32820,110,26519
32776,108,26630
32736,105,26667
32696,105,26515
32758,103,26501
32720,110,26570
32740,111,26676
32764,111,26631
32758,110,26727
32789,108,26569
32694,128,26702
32572,108,26681
32508,104,26759
32464,105,26803
32517,106,26624
32668,106,26801
32886,105,26809
32996,105,26673
32937,104,26671
32821,111,26743
32708,110,26885
32696,117,26780
32660,111,26847
32684,106,26927
32734,105,26816
32868,106,26785
33177,107,26997
33420,107,26887
33521,128,26998
33469,107,27007
33236,107,26863
32974,106,26903
32913,107,27101
32996,105,27073
33192,105,26959
33412,103,27079
33560,105,27153
33556,104,27070
33668,102,27183
33728,86,27047
33708,78,27103
33632,95,27201
33580,72,27151
33496,110,27244
33404,110,27071
33420,110,27085
33497,113,27172
33561,124,27287
33548,130,27175
33524,105,27181
33440,107,27253
33384,116,27092
33300,110,27267
33245,111,27169
33228,110,27285
33196,111,27131
33228,110,27245
33348,108,27357
33389,110,27199
33304,111,27335
33285,109,27189
33214,111,27221
33132,111,27365
33069,109,27377
33144,110,27237
33268,109,27445
33360,110,27333
33356,107,27454
33236,105,27314
33114,105,27372
33064,105,27378
33044,105,27539
33133,108,27375
33316,106,27412
33372,103,27570
33359,95,27655
33308,113,27558
33252,110,27591
33020,109,27681
32752,111,27548
32516,111,27759
32266,126,27655
31990,125,27796
31748,116,27645
31516,112,27908
31297,111,27881
31257,110,27772
31172,113,28004
30821,111,27995
30333,113,28075
29784,112,27962
29240,115,28193
28665,123,28083
28505,128,28265
29196,111,28135
30703,108,28206
32204,104,28405
33340,106,28535
34286,104,28532
35052,92,28428
35732,101,28695
36100,102,28707
36084,103,28639
35926,103,28932
35768,103,28876
35584,101,29074
35285,103,29016
34853,102,29291
34428,104,29316
34096,103,29247
33888,107,29572
33832,102,29528
33809,106,29758
33832,105,29735
33736,105,29975
33685,106,30098
33637,107,30063
33568,105,30387
33622,104,30349
33652,104,30599
33495,106,30612
33372,107,30818
33385,108,30880
33548,111,31172
33697,110,31239
33796,110,31416
33840,108,31403
33796,112,31733
33580,108,31920
33425,106,32071
33282,105,32180
33263,106,32281
33276,108,32465
33280,126,32807
33261,117,32847
33304,108,33076
33404,105,33267
33416,106,33188
33493,103,33517
33604,105,33831
33745,104,34029
33838,102,34023
33761,101,34355
33560,109,34567
33452,83,34705
33312,112,35026
33208,79,35001
33234,104,35045
33244,105,35559
33301,103,35681
33391,105,35811
33420,104,36189
33300,103,36167
33152,84,36531
33104,100,36620
33148,113,37009
33300,103,37095
33493,104,37222
33552,105,37519
33329,106,37653
33034,105,37523
32861,102,38055
32904,100,38235
32919,103,38407
33055,101,38244
33220,112,38756
33192,112,39023
33140,108,39057
33024,119,39279
32888,115,39495
32722,114,39535
32624,130,39765
32615,116,39853
32663,125,40177
32736,111,40195
32897,110,39967
32954,123,40503
33110,109,40788
33152,107,40654
33089,107,40524
33059,119,41199
33014,111,41195
32970,112,41253
33052,104,41319
33156,106,41183
33225,106,41781
33344,113,41745
33442,119,41607
33476,110,42270
33580,111,42227
33532,110,42399
33508,110,42149
33420,112,42628
33447,115,42834
33440,127,42725
33532,106,43009
33564,108,43116
33520,104,43072
33512,103,43395
33423,110,43309
33288,111,43588
33288,127,43325
33180,121,43796
33189,107,43751
33262,107,44055
33390,105,43916
33181,102,44141
33200,104,44235
33210,102,44482
33221,114,44326
33228,112,44631
33112,113,44615
32981,110,44807
32888,112,44965
32972,112,44847
33036,111,45045
33036,110,45189
33084,113,45255
33080,109,45439
33073,106,45245
32924,106,45498
32884,121,45575
32736,107,45717
32796,105,45871
32881,105,45646
32825,104,45959
32996,105,46007
33292,103,46153
33240,103,45879
33032,102,46255
33088,103,46357
33120,101,46372
33064,103,46543
33033,104,46343
32981,101,46620
33040,104,46598
33132,103,46788
33192,104,46562
33100,101,46773
33044,113,46955
33045,111,46927
32958,109,47111
32897,110,46799
32840,115,47085
32868,109,47239
32944,105,47281
33033,103,47302
32980,103,47440
32837,99,47479
32816,110,47125
32892,110,47434
32749,119,47574
32664,108,47668
32611,105,47655
32692,104,47695
32676,113,47815
32676,108,47828
32705,113,47836
32748,107,47469
32735,108,47743
32724,107,47875
32668,104,48001
32524,103,48046
32556,105,47975
32544,99,48037
32511,94,48133
32561,114,47860
32567,113,48068
32556,73,48182
32476,103,48213
32432,103,48197
32317,103,48033
32292,104,48255
32320,113,48255
32377,108,48215
32388,111,48263
32504,109,48313
32536,110,48089
32477,110,48170
32492,110,48287
32562,122,48359
32528,106,48366
32416,105,48367
32332,104,48359
32441,102,48261
32500,102,48364
32577,113,48384
32633,111,47989
32711,113,48271
32701,113,48321
32724,112,48361
32597,111,48303
32560,112,48237
32716,127,48327
32857,113,48329
32933,110,48111
32997,122,48237
32929,107,48226
32748,111,48311
32653,110,48215
32508,109,48284
32452,112,48225
32441,124,48293
32417,108,48057
32502,110,48226
32597,125,48226
32712,112,48246
32780,110,48044
32800,119,48177
32716,108,48197
32720,107,48173
32553,108,48159
32408,105,48090
32317,103,48169
32528,100,48132
32596,101,48085
32660,113,47925
32688,112,48109
32717,112,47989
32644,111,48119
32696,111,47916
32580,112,48083
32640,112,47973
32709,96,48055
32820,89,47921
32820,113,48019
32802,111,48007
32780,110,47879
32821,115,48002
32850,126,47687
32844,109,47935
32860,110,47831
32869,111,47901
32838,110,47911
32860,115,47502
32825,128,47743
32740,107,47841
32780,106,47807
32816,107,47769
32848,113,47815
32792,108,47812
32721,112,47334
32662,108,47623
32640,117,47724
32707,130,47661
32824,107,47692
33140,103,47711
33313,104,47623
33351,105,47607
33285,103,47605
33164,102,47623
32998,113,47221
32805,112,47559
32654,111,47468
32607,109,47579
32744,108,47239
32842,105,47487
32868,102,47430
32945,102,47511
32860,111,47053
32796,112,47389
32702,110,47367
32685,110,47452
32736,108,46999
32864,112,47287
32948,110,47271
32924,111,47399
32869,109,47180
32820,110,47340
32986,109,47271
32892,111,47303
32686,110,47233
32672,110,47195
32681,110,47279
32692,112,47045
32796,110,47239
32901,110,47179
33012,110,46799
32958,110,47179
32964,109,47111
33012,111,46769
33140,110,47111
33192,110,47063
33212,109,47137
33143,114,46796
33020,107,46955
32806,122,47066
32349,117,47031
32017,119,46649
31500,113,47023
30892,114,46917
30402,126,47023
29912,118,46708
29144,129,46975
28332,126,46847
27700,107,46973
27124,110,46608
26268,107,46797
25696,84,46853
25586,115,46879
26504,112,46855
27884,126,46759
29116,129,46855
30429,108,46471
31796,108,46767
33589,106,46676
34997,105,46791
35629,102,46599
35820,102,46555
35624,111,46668
35329,111,46679
34798,109,46589
34360,110,46659
33953,109,46253
33648,110,46597
33520,111,46549
33528,110,46589
33437,111,46541
33458,111,46455
33568,113,46573
33448,111,46308
33487,108,46507
33479,110,46444
33492,109,46100
33462,112,46439
33501,112,46439
33671,109,46087
33785,109,46263
33804,110,46343
33818,129,46236
33705,106,46321
33506,106,45887
33410,105,46189
33304,105,46115
33274,103,46191
33260,84,46013
33216,112,46117
33184,111,46025
33180,109,46109
33202,114,45926
33044,106,46013
33090,102,45895
33127,113,45903
33121,109,45997
33133,110,45777
33160,111,45895
33176,111,45815
33143,108,45639
33177,109,45845
33248,110,45743
33128,109,45863
32980,109,45773
32815,113,45719
32712,114,45831
32652,120,45748
32724,119,45703
32909,112,45794
32999,110,45698
33129,117,45711
33052,108,45617
32920,104,45660
32765,104,45684
32725,103,45479
32751,104,45638
32801,100,45599
32814,73,45612
32812,112,45391
32764,114,45556
32669,109,45421
32668,111,45549
32474,112,45293
32492,102,45455
32485,104,45415
32604,104,45462
32792,105,45231
32797,107,45343
32800,104,45363
32830,105,45236
32840,104,45351
32772,103,45315
32644,102,45159
32504,103,45274
32544,103,45228
32620,105,44911
32672,103,45223
32676,112,45147
32706,111,44855
32876,112,45191
32909,112,45207
32852,103,44993
32784,103,45079
32716,105,45159
32771,101,45110
32692,103,44973
32740,74,45093
32736,111,44951
32778,109,45098
32910,119,44733
33078,128,44989
33153,119,44869
33188,106,45023
33125,103,44845
33012,105,44957
33052,112,44865
33028,112,44917
32889,119,44935
32998,105,44575
33012,105,44737
33007,106,44817
33047,103,44757
33072,101,44461
32924,112,44621
32824,112,44717
32764,112,44637
32880,108,44546
32984,105,44633
33137,106,44311
32980,107,44539
32836,107,44488
32822,105,44551
33049,104,44141
33052,103,44368
33122,105,44335
33042,105,44452
33125,105,44251
33052,103,44313
32980,114,44327
32921,111,44295
32888,117,44276
32930,106,44223
32932,104,44207
32724,104,44055
32576,102,44175
32524,79,44201
32520,81,44135
32728,111,43991
33008,108,44005
33102,115,44103
33028,109,43957
33020,105,43903
32928,76,43919
32735,108,43873
32744,106,43863
32948,104,43887
32692,103,43860
32817,103,43823
32846,104,44003
33016,105,43645
32998,91,43892
33044,114,43911
32876,114,43764
32704,114,43911
32564,111,43951
32437,109,43609
32448,111,43753
32500,108,43733
32656,106,43772
32673,107,43847
32692,106,43713
32788,104,43780
32833,103,43858
32776,111,43871
32657,112,43611
32592,111,43687
32572,110,43783
32684,120,43655
32844,107,43729
32872,107,43773
32700,104,43743
32624,105,43526
32654,104,43597
32656,105,43679
32660,105,43487
32652,101,43517
32661,112,43629
32706,111,43601
32864,110,43271
32980,111,43469
33161,129,43527
33004,105,43459
32764,105,43287
32460,103,43452
32252,104,43111
32250,105,43399
32416,103,43399
32482,112,43252
32540,111,43195
32700,113,43319
32756,107,43303
32717,104,43259
32713,105,42999
32788,112,43015
32676,109,43195
32495,118,43205
32388,106,43005
32376,107,42989
32456,107,43117
32620,108,42869
32681,108,43109
32832,128,43011
32770,124,42597
32732,107,42631
32664,105,42861
32672,103,43013
32742,75,42759
32844,113,42919
32836,112,42479
32892,113,42922
32932,111,42744
32780,109,42778
32585,110,42404
32485,110,42703
32484,116,42823
32552,107,42615
32669,107,42704
32833,106,42265
32916,106,42679
32916,105,42703
32935,107,42567
32976,126,42597
33037,109,42625
32960,110,42503
32868,100,42499
32805,105,42607
32844,107,42335
32864,128,42477
32860,109,42535
32868,110,42311
32873,109,42375
32839,109,42355
32708,110,42487
32608,110,42207
32549,111,42298
32497,112,42426
32452,102,42117
32508,103,42260
32673,99,42093
32901,97,42327
32992,101,42053
32956,105,41735
32936,101,42045
32876,111,42197
32852,104,42087
32935,106,42041
33108,106,41979
33264,107,41980
33344,104,41603
33308,107,41961
33220,107,41884
33108,108,41775
32972,106,41921
32855,106,41769
32840,129,41515
32964,117,41841
33076,110,41701
33040,111,41567
33028,111,41765
33148,112,41543
33288,112,41545
33313,94,41621
33225,105,41348
32996,103,41479
32894,103,41377
32892,103,41559
32921,105,41314
32855,104,41351
32996,104,41169
32968,105,41373
32980,77,41413
32925,112,41095
32848,112,41217
32792,112,41039
32804,110,41167
32788,111,41215
32854,111,41095
32968,112,40837
33092,109,41171
33140,111,40887
33128,112,41014
33021,111,40924
32857,111,41012
32667,112,40916
32636,110,40895
32648,111,40817
32660,130,40967
32767,105,40757
32902,107,40839
32972,104,40815
32968,103,40747
32956,100,40812
32951,110,40607
32968,111,40733
32864,109,40697
32880,114,40639
32741,128,40787
32797,107,40487
32880,107,40638
32713,104,40199
32620,108,40579
32449,106,40684
32108,107,40399
31688,105,40543
31471,104,40199
31133,106,40607
30784,108,40449
30458,127,40406
30102,120,40573
29548,123,40375
28900,127,40431
28199,120,40325
27439,112,40497
26680,113,40343
25936,113,40119
25821,115,40377
26548,115,40431
27980,105,40043
29378,78,40389
30673,113,40284
31936,112,40173
33415,111,40263
34685,109,40169
35416,107,40327
35672,108,40044
35684,110,39789
35482,110,40175
35156,111,40132
34862,111,40165
34404,110,39735
33986,110,40116
33773,113,40149
33570,108,39941
33380,105,40100
33333,106,40071
33376,96,40001
33380,113,40173
33408,110,39943
33444,112,40028
33389,110,39964
33365,105,40023
33364,106,39933
33247,105,39954
33198,103,39569
33236,104,39927
33257,105,39781
33268,104,39905
33355,105,39655
33569,99,39924
33513,112,39677
33464,113,39829
33256,76,39431
33224,112,39847
32956,111,39641
32868,113,39766
32989,113,39758
32992,110,39767
33151,112,39727
33133,114,39559
33188,113,39725
33092,109,39723
33072,109,39749
33020,110,39541
32884,109,39715
32897,110,39788
32781,111,39549
32896,110,39741
32808,111,39758
32772,96,39607
32880,76,39740
32932,91,39655
32849,113,39829
32840,111,39700
32796,111,39749
32800,109,39359
32844,110,39684
32908,111,39794
32776,111,39839
32808,109,39652
32924,110,39737
32840,111,39381
32758,112,39652
32687,117,39833
32671,124,39568
32609,110,39703
32712,128,39635
32744,107,39805
32644,105,39620
32576,105,39629
32448,103,39683
32486,113,39431
32522,111,39735
32544,111,39558
32529,109,39668
32404,111,39679
32360,108,39676
32443,103,39687
32324,104,39583
32310,113,39605
32316,89,39799
32472,103,39665
32456,103,39303
32484,109,39347
32456,109,39717
32473,111,39652
32548,111,39814
32664,111,39833
32777,108,39599
32777,104,39623
32796,104,39779
32856,114,39779
32838,112,39727
32809,109,39727
32796,110,39877
32812,109,39751
32821,111,39780
32872,113,39399
32916,108,39583
33085,104,39831
33188,104,39916
33268,104,39644
33196,105,39789
33024,103,39732
32945,105,39895
32989,101,39634
32902,103,39757
32816,80,39753
32764,105,39747
32632,103,39747
32672,102,39573
32756,86,39687
32828,113,39711
32788,102,39655
32605,106,39798
32644,104,39622
32604,105,39663
32624,104,39575
32608,105,39679
32669,104,39665
32804,113,39453
32797,109,39613
32673,112,39324
32652,113,39586
32449,112,39653
32484,110,39547
32562,126,39441
32705,109,39459
32812,107,39516
32912,107,39443
32944,129,39623
32972,106,39591
32764,104,39332
32612,106,39477
32562,104,39507
32578,103,39101
32604,95,39431
32613,113,39543
32665,110,39469
32868,121,39373
32832,108,39471
32840,105,39303
32797,128,39446
32817,109,39429
32588,105,39487
32624,105,39353
32544,104,39493
32581,94,39583
32632,113,39412
32692,110,39431
32765,110,39503
32778,109,39431
32865,127,39597
32812,120,39417
32750,105,39513
32676,105,39423
32636,105,39569
32660,105,39460
32797,105,39135
32868,103,39621
32913,82,39476
32908,114,39439
32857,113,39509
32732,111,39143
32636,110,39543
32487,111,39360
32468,111,39514
32504,118,39111
32537,109,39507
32596,103,39615
32525,104,39517
32459,76,39421
32456,112,39504
32674,110,39485
32708,110,39425
32652,128,39548
32606,107,39598
32556,104,39407
32676,114,39420
32828,110,39497
32961,107,39078
33013,104,39419
32920,105,39565
32791,103,39303
32676,104,39476
32638,111,39469
32732,111,39477
32830,108,39060
32884,104,39379
32844,113,39460
32880,110,39447
32929,111,39341
32888,118,39373
32738,106,39233
32625,106,39359
32642,104,39354
32681,112,39221
32791,119,39121
32848,104,39246
32972,105,39276
33068,113,38900
33181,115,39157
33156,109,39236
33072,104,39285
32992,103,39045
32972,110,39076
32952,105,39060
32960,105,39105
33021,103,39108
33044,111,39093
32935,111,38709
32885,107,38676
33044,103,38919
33120,101,39087
33048,111,39005
33032,118,38916
32933,106,38957
32864,104,38967
32894,102,38821
33012,96,39015
33056,111,38767
33068,113,38895
32902,105,38868
32803,104,38773
32733,111,38720
32752,119,38695
32873,104,38713
32952,111,38823
33012,109,38727
33084,107,38567
33069,102,38663
33024,110,38693
32932,110,38287
32813,116,38599
32713,128,38535
32660,107,38580
32702,106,38475
32780,107,38630
32904,105,38335
33020,103,38487
33218,105,38372
33256,106,38503
33180,107,38356
33004,119,38276
32892,118,38436
32836,108,38133
32856,108,37964
33044,109,38277
33088,108,38061
33092,107,38183
33224,107,38045
33222,107,38227
33252,104,38077
33201,103,38029
33128,111,38055
33053,112,37947
33113,113,38088
33124,109,37807
33208,109,37927
33207,114,37712
33145,107,37993
33183,110,37829
33076,111,37767
32865,109,37895
32876,109,37671
32946,111,37722
33078,110,37759
33116,112,37428
33191,117,37627
33237,127,37803
33248,107,37547
33181,104,37639
33156,105,37381
33064,113,37631
33077,113,37447
33125,109,37519
33148,129,37529
33241,107,37325
33344,105,37589
33437,107,37319
33390,102,37459
33360,104,37343
33255,112,37495
33072,113,37330
33022,111,37103
32976,109,37303
32993,109,37420
32927,130,37127
33060,106,37273
33021,106,37212
33049,105,37213
33028,102,37205
32994,104,37101
32900,110,37244
32902,111,37093
32996,119,37124
33031,125,37020
33133,108,37127
33183,105,37087
33213,104,36869
33116,84,37007
33074,113,36787
33132,111,36989
33180,120,37061
32935,111,36903
32648,103,36853
32584,106,36915
32212,107,36804
31993,104,36949
31744,105,36834
31457,106,36525
31158,102,36771
30700,105,36801
30210,105,36767
29510,105,36661
28748,106,36769
28206,106,36711
27632,116,36613
27025,116,36757
26968,114,36526
27316,112,36667
28312,112,36495
29564,112,36711
30660,112,36479
31676,113,36597
33072,111,36487
34422,110,36615
35508,109,36514
36052,120,36524
36129,127,36542
36200,106,36471
36030,103,36599
35522,101,36345
34918,103,36429
34396,112,36448
33917,112,36135
33588,110,36390
33472,117,36524
33589,130,36269
33512,108,36402
33572,107,36283
33620,87,36383
33401,109,36359
33353,108,36275
33304,117,36241
33304,105,36279
33356,104,36087
33460,111,36295
33588,114,36301
33517,107,36289
33428,113,36141
33344,110,36026
33292,106,36079
33308,106,36133
33228,105,35789
33286,104,36047
33204,99,36156
33280,112,35897
33319,110,35941
33319,106,35965
33328,103,35991
33360,93,35687
33372,112,35847
33316,111,35927
33165,112,36017
33124,110,35780
33148,110,35919
33198,109,35811
33245,112,35912
33206,110,35967
33184,125,35767
33132,108,35783
33092,107,35839
33064,110,35827
32977,106,35734
32925,105,35780
32968,103,35804
32968,112,35511
32976,110,35685
33037,109,35831
32964,110,35575
32968,119,35729
32876,121,35506
32856,113,35759
32809,105,35762
32772,103,35489
32809,113,35471
32972,110,35509
32996,124,35597
32886,107,35487
32805,106,35647
32712,105,35479
32642,113,35457
32527,111,35495
32494,108,35501
32420,110,35407
32592,106,35543
32652,106,35327
32664,106,35437
32720,106,35325
32706,105,35478
32696,103,35320
32576,111,35385
32561,111,35077
32406,111,35271
32477,116,35431
32576,109,35239
32844,106,35356
32988,106,35174
32967,105,35413
32993,111,35334
32928,111,35211
32840,109,35322
32832,115,35206
32872,125,35391
32884,107,35141
32817,106,35303
32888,105,35006
32928,108,35241
32972,108,35274
33210,106,35234
33113,107,35276
33068,104,34999
32944,103,35284
32904,114,35250
32924,111,35133
33028,111,35247
33084,109,35031
33133,108,35136
33140,104,35175
33022,102,35269
32989,99,35069
32892,103,35205
32813,105,35130
32746,105,35151
32750,102,35099
32769,102,34877
32812,114,35143
32932,113,35071
33004,112,35113
33004,111,34843
32932,109,34945
32917,110,35191
32800,110,34975
32698,124,35067
32676,106,35101
32680,105,34989
32764,104,35155
32796,104,34951
32774,101,35059
32872,105,35013
32916,102,35009
32820,95,35057
32829,109,35053
32780,115,34951
32838,105,35053
32858,104,35061
32820,104,35047
32831,104,34961
32920,88,35095
32984,113,34941
32985,110,35091
32985,112,34871
32857,113,35093
32797,109,35173
32864,107,35077
33008,106,35075
32847,102,35133
32774,112,34857
32745,112,35170
32746,109,35253
32796,111,35023
32640,111,35201
32544,109,34975
32565,107,35215
32580,107,35335
32740,109,35149
32772,127,34967
32849,121,35373
32856,110,35273
32840,111,35047
32848,109,35276
32736,110,35295
32540,111,35325
32701,112,35253
32556,110,35359
32536,111,35373
32600,110,35252
32728,111,35373
32806,110,35276
32772,111,35463
32637,129,35297
32528,107,35387
32438,108,35286
32460,106,35484
32508,106,35335
32557,108,35300
32652,121,35417
32800,124,35381
32844,108,35189
32897,108,35453
32935,108,35237
32871,106,35411
32759,109,35325
32703,105,35455
32702,105,35405
32644,103,35335
32622,105,35412
32516,102,35316
32544,113,35397
32564,111,35447
32600,127,35333
32634,107,35358
32576,104,35391
32580,104,35188
32677,103,35333
32677,105,35351
32800,105,35391
32845,107,35279
32928,126,35332
32884,111,35100
32908,110,35373
32869,110,35457
32825,112,35301
32736,128,35364
32688,128,35261
32876,125,35391
32832,120,35305
32752,110,35329
32768,113,35367
32761,110,35377
32652,113,35175
32685,118,35261
32810,130,35323
32840,110,35229
32893,110,35417
32956,108,35164
33032,109,35320
33017,115,35023
33001,106,35117
32924,108,35237
32848,106,35310
32847,105,35255
32846,105,35279
32806,107,35039
32864,106,35207
33097,106,35423
33089,105,35255
33089,105,35303
33004,106,35375
32997,107,35247
33161,106,35023
33116,107,35347
33009,103,35428
32948,114,35301
32821,110,35255
32813,111,35323
32652,115,35253
32752,108,35429
32860,105,35303
32776,103,35287
32725,114,35351
32581,110,35255
32408,107,35371
32476,105,35268
32317,84,35359
32401,113,35263
32301,112,35443
32325,108,35223
32476,105,35345
32512,111,35365
32629,111,35079
32700,108,35270
32644,104,35401
32580,112,35458
32561,109,35259
32537,128,35395
32572,107,35115
32716,95,35371
32940,111,35392
32852,111,35284
32865,107,35431
32736,103,35207
32789,98,35418
32737,112,35548
32684,110,35453
32773,106,35375
32884,103,35487
33108,110,35489
33168,111,35423
33109,127,35573
33012,103,35409
32896,103,35273
32836,111,35481
32748,112,35508
32677,109,35585
32721,110,35366
32908,109,35677
33000,107,35692
33054,105,35485
33048,105,35653
32816,104,35557
32709,102,35762
32617,111,35604
32608,114,35717
32660,106,35525
32744,104,35769
32636,104,35745
32652,111,35735
32612,108,35824
32584,122,35523
32596,106,35873
32828,105,35862
32814,105,35821
32689,103,35931
32664,104,35943
32614,106,35925
32640,114,35835
32850,111,35956
32924,112,36025
32816,111,35949
32772,106,35972
32780,105,36147
32680,104,35940
32684,104,36127
32745,103,36103
32832,104,36117
32761,102,36111
32940,87,36161
33021,111,35997
32860,126,36111
32821,106,36269
32885,107,36303
32887,105,36173
32889,105,35941
32912,105,36284
33000,108,36162
32897,105,36239
32780,104,36270
32670,104,36293
32464,112,36211
32036,111,36236
31564,111,36409
31244,111,36204
30973,120,36253
30852,106,36271
30532,108,36323
29996,104,36247
29447,102,36324
28847,111,36335
28176,108,36335
27613,107,36389
27287,114,36359
27264,113,36221
28132,108,36319
29319,104,36341
30426,104,36380
31516,104,36356
32846,103,36253
34336,103,36391
35472,99,36085
35984,112,36359
36060,110,36487
35896,109,36326
35490,107,36397
35012,107,36246
34620,104,36433
34190,100,36350
33926,112,36327
33692,112,36359
33576,109,36245
33412,112,36393
33393,107,36415
33324,105,36401
33313,98,36173
33275,110,36205
33312,109,36299
33364,113,35975
33500,127,36191
33573,107,36261
33501,101,36245
33324,111,36277
33249,109,36299
33200,111,36028
33136,111,36165
33092,108,36155
33288,105,35825
33264,104,35815
33286,111,35780
33536,109,35927
33613,106,35965
33698,100,35948
33572,110,35937
33414,106,35921
33224,104,36005
32984,102,36078
32784,111,36067
32806,115,35957
32976,106,35799
33028,103,35901
33064,112,35898
33144,113,35911
33153,106,35935
33194,100,35661
33240,112,35847
33140,109,35875
33085,107,35892
33111,104,35961
32945,110,35932
32801,109,35951
32676,108,35939
32597,103,35867
32631,78,35773
32568,112,35815
32581,109,35783
32600,109,35461
32656,105,35661
32652,104,35719
32652,110,35668
32752,105,35591
32772,112,35665
32788,104,35615
32866,74,35565
32775,112,35542
32629,109,35559
32692,103,35559
32695,112,35559
32644,111,35526
32695,118,35513
32590,109,35485
32493,105,35181
32417,105,35373
32421,111,35342
32421,126,35436
32425,107,35499
32316,104,35476
32256,105,35461
32420,109,35436
32645,126,35433
32832,105,35258
33008,112,35179
33111,113,35165
33028,103,35124
32912,109,35195
32788,106,35335
32776,103,35319
32852,110,35308
32969,106,35282
33037,105,35270
33065,101,35167
33060,111,35200
32996,107,35221
33113,107,35011
33129,104,35071
33164,104,35073
33216,88,34765
33189,112,35049
33240,109,35103
33397,114,34973
33388,108,34945
33416,106,34973
33381,113,34963
33476,109,34949
33509,107,34919
33368,114,34909
33253,113,34895
33104,105,34879
33096,84,34865
33173,108,34823
33198,108,34813
33232,104,34535
33280,113,34539
33117,111,34674
33125,106,34689
32993,106,34815
32869,105,34703
32876,75,34554
32672,110,34683
32760,111,34692
32821,111,34425
32797,108,34451
32804,106,34619
32536,103,34663
32448,111,34658
32652,111,34679
32820,117,34703
33129,107,34687
33345,108,34439
33336,105,34587
33228,106,34292
33183,108,34461
33316,108,34629
33260,108,34469
33172,106,34519
32957,106,34241
32796,104,34417
32820,105,34596
32985,80,34417
33016,113,34500
32952,110,34215
32824,111,34397
32764,131,34482
32580,104,34567
32557,104,34588
32616,96,34588
32568,111,34533
32612,110,34436
32540,111,34501
32508,111,34233
32556,117,34412
32725,109,34502
32700,106,34563
32820,103,34593
32813,112,34496
32732,112,34455
32620,110,34527
32449,108,34516
32352,107,34428
32497,106,34495
32600,106,34516
32724,103,34489
32824,110,34532
32800,109,34343
