ECG,EDA,RR
32428,16157,32621
32388,16133,32620
32302,16109,32704
32210,16073,32742
32182,16049,32628
32168,16077,32673
32204,16002,32605
32216,16022,32672
32244,16069,32573
32272,16106,32505
32256,16140,32588
32220,16143,32596
32109,16144,32463
32032,16119,32551
32004,16018,32488
32016,15999,32561
32036,16017,32313
32024,16036,32477
32140,16096,32429
32132,16140,32481
32160,16122,32356
32116,16127,32440
32060,16115,32504
31993,16102,32241
31976,16010,32385
31996,15992,32303
32056,16013,32472
32132,16054,32263
32176,16056,32311
32194,16121,32274
32280,16143,32316
32337,16166,32276
32348,16093,32228
32320,16132,32154
32300,16014,32252
32273,15988,32160
32272,15993,32333
32284,16022,32204
32312,16081,32031
32364,16123,32079
32397,16159,32214
32385,16151,32066
32308,16135,32156
32292,16096,32108
32276,16049,32015
32224,15990,32151
32264,15981,32032
32332,16012,31866
32416,16053,32060
32428,16111,32097
32420,16143,31941
32388,16156,31847
32376,16161,32004
32332,16085,31908
32392,16052,32036
32440,15983,31975
32442,16008,31985
32454,16018,31908
32516,16061,32034
32521,16116,31884
32548,16152,31980
32588,16111,31888
32548,16105,31932
32484,16064,31949
32501,16040,31920
32500,15981,32037
32468,15981,31832
32480,16023,31896
32528,16093,32016
32540,16084,31749
32528,16107,31897
32532,16130,31816
32525,16087,31957
32520,16070,31800
32484,16050,31648
32476,15980,31820
32520,15976,31780
32544,16020,31708
32560,16061,31820
32632,16115,31727
32652,16149,31866
32600,16149,31717
32536,16079,31560
32480,16083,31580
32508,16033,31582
32540,16006,31717
32516,15973,31632
32544,16041,31748
32584,16092,31714
32552,16084,31516
32564,16107,31725
32592,16101,31604
32558,16074,31802
32497,16060,31504
32472,16014,31685
32444,15999,31684
32412,16006,31725
32448,16068,31572
32517,16036,31678
32568,16083,31708
32604,16113,31560
32588,16141,31666
32600,16150,31556
32557,16035,31660
32528,15992,31537
32456,15993,31653
32445,15982,31613
32469,16014,31632
32500,16065,31425
32520,16111,31604
32514,16098,31738
32577,16098,31513
32572,16077,31634
32544,16046,31596
32548,16050,31513
32529,15962,31610
32493,15970,31596
32508,16004,31644
32558,16053,31676
32604,16082,31495
32616,16117,31596
32604,16132,31548
32560,16111,31684
32536,16092,31513
32520,15986,31584
32520,15968,31503
32536,15988,31678
32580,16015,31468
32625,16081,31564
32648,16068,31644
32641,16094,31471
32616,16103,31456
32556,16083,31527
32504,16069,31604
32452,15989,31417
32416,15956,31509
32480,15965,31468
32568,16009,31580
32640,16046,31367
32665,16107,31469
32700,16087,31437
32676,16090,31430
32652,16073,31461
32620,16045,31384
32608,16031,31468
32556,15957,31228
32548,15973,31329
32580,16009,31432
32585,16093,31413
32648,16061,31350
32648,16082,31456
32704,16084,31348
32680,16059,31254
32612,16020,31373
32541,15977,31325
32497,15977,31444
32542,15969,31167
32596,16021,31309
32616,16017,31357
32664,16060,31137
32708,16084,31306
32708,16083,31189
32676,16063,31261
32584,16019,31176
32601,15977,31269
32580,15966,31229
32624,15965,31232
32644,16000,31231
32645,16039,31043
32728,16093,31111
32744,16164,31193
32724,16082,31025
32700,16050,31156
32668,16009,31281
32648,15977,31112
32688,15967,30967
32728,15970,31120
32700,16010,31132
32688,16059,31165
32712,16053,30938
32748,16078,31114
32780,16080,31087
32760,16057,31157
32756,16035,30956
32744,15996,31068
32668,15986,31085
32624,16039,30932
32660,15975,31029
32732,16026,31085
32812,16089,30912
32828,16079,31016
32824,16078,30937
32816,16063,31071
32708,16031,30910
32704,16012,30959
32696,15947,30932
32702,15948,30854
32728,15973,30896
32732,16009,31012
32752,16057,30828
32820,16089,30711
32844,16082,30881
32812,16057,30930
32768,16033,30788
32732,15988,30741
32705,15969,30873
32696,15983,30757
32724,15973,30915
32788,16007,30740
32856,16055,30833
32820,16094,30729
32777,16086,30788
32717,16076,30605
32712,16047,30796
32754,15972,30812
32716,15936,30791
32704,15940,30605
32764,15983,30765
32836,16024,30828
32896,16068,30792
32892,16113,30757
32888,16067,30676
32805,16038,30745
32762,16015,30549
32760,15973,30741
32745,15972,30828
32788,15940,30727
32824,15964,30621
32820,16014,30616
32888,16082,30727
32893,16071,30800
32896,16070,30612
32865,16052,30718
32800,16007,30702
32704,15983,30604
32684,15984,30716
32772,15934,30785
32864,15978,30564
32856,16024,30639
32856,16072,30752
32880,16103,30588
32877,16116,30693
32888,16033,30679
32823,16004,30574
32784,15980,30672
32788,15947,30754
32772,15953,30579
32813,15980,30674
32864,16049,30607
32896,16039,30672
32932,16066,30645
32964,16061,30554
32948,16036,30680
32896,15993,30583
32828,15956,30693
32748,15949,30565
32772,15944,30678
32772,15991,30572
32828,15995,30636
32892,16053,30676
32932,16090,30774
32940,16114,30529
32892,16032,30669
32860,16006,30751
32860,15987,30500
32824,15975,30655
32820,15991,30782
32828,16004,30625
32841,16042,30564
32864,16074,30566
32900,16100,30700
32896,16108,30674
32797,16033,30748
32788,15990,30648
32740,15950,30510
32756,15936,30689
32780,15953,30703
32864,15970,30734
32924,16015,30616
32957,16068,30522
32960,16093,30727
32932,16098,30681
32889,16027,30815
32840,15994,30608
32845,15967,30727
32824,15936,30726
32836,15941,30790
32836,15985,30703
32900,16007,30521
32904,16030,30713
32928,16063,30712
32928,16070,30592
32888,16071,30724
32873,16079,30674
32852,15948,30611
32908,15949,30688
32908,15946,30734
32928,15999,30549
32968,15988,30694
33016,16031,30581
33036,16072,30585
33000,16052,30668
32976,16023,30667
32864,16009,30468
32704,15975,30598
32644,15924,30625
32664,15947,30630
32720,15976,30679
32772,15986,30418
32792,16036,30533
32808,16071,30644
32801,16102,30404
32736,16026,30596
32729,15993,30467
32668,15959,30591
32608,15962,30524
32636,15914,30556
32608,15966,30581
32670,16025,30494
32768,16025,30556
32812,16101,30492
32860,16050,30372
32849,16027,30532
32820,15999,30588
32712,16001,30583
32652,15918,30672
32692,15933,30380
32768,15986,30533
32796,15981,30524
32820,16040,30590
32849,16073,30644
32812,16040,30590
32748,16032,30701
32724,16021,30408
32688,15936,30520
32700,15936,30604
32696,15969,30625
32712,15952,30705
32760,16004,30492
32804,16109,30542
32816,16047,30532
32812,16060,30644
32816,16035,30668
32740,15998,30680
32708,15969,30535
32688,15949,30701
32696,15914,30787
32744,15952,30532
32765,16013,30636
32768,16012,30670
32764,16057,30724
32812,16060,30622
32832,16034,30736
32880,16004,30564
32937,15983,30700
33041,15909,30746
33092,15911,30541
33162,15946,30676
33296,16013,30720
33460,16063,30591
33668,16040,30686
33976,16064,30717
34236,16036,30750
34480,16021,30780
34912,15932,30636
35516,15905,30727
36112,15915,30778
36788,15952,30740
37448,15998,30652
37984,16066,30721
38348,16040,30756
38396,16061,30792
38296,16057,30540
37945,15973,30684
37280,15931,30828
36416,15913,30548
35392,15932,30656
34092,15981,30632
32508,15980,30668
30880,16033,30604
29924,16086,30727
29632,16044,30594
29644,16029,30652
29772,15961,30763
30044,15925,30573
30408,15921,30724
30784,15945,30701
31140,15926,30605
31424,15972,30749
31748,16023,30860
32080,16052,30751
32320,16084,30800
32452,16000,30877
32456,15985,30689
32416,15965,30752
32360,15900,30737
32352,15916,30590
32416,15958,30772
32444,15965,30869
32473,16001,30693
32498,16029,30820
32493,16036,30812
32456,16019,30690
32425,15964,30807
32428,15934,30822
32416,15936,30628
32436,15903,30720
32532,15924,30770
32600,16004,30781
32584,16000,30741
32568,16041,30788
32617,16073,30693
32652,16004,30798
32652,15981,30784
32644,15954,30784
32596,15974,30916
32573,15895,30684
32624,15945,30753
32660,15989,30812
32700,16017,30644
32748,16067,30749
32776,16027,30765
32796,15997,30864
32768,15972,30956
32728,15947,30848
32713,15895,30817
32708,15894,30727
32696,15933,30840
32724,15975,30829
32795,16019,30631
32832,16046,30804
32872,16061,30873
32884,16036,30757
32844,16009,30590
32800,15921,30677
32756,15892,30816
32740,15908,30765
32808,15937,30849
32896,16047,30740
32920,15994,30684
33016,16036,30599
32992,16037,30674
32948,16031,30780
32892,15975,30501
32852,15922,30574
32832,15898,30559
32856,15919,30620
32912,15930,30551
33012,15988,30629
33060,16045,30359
33109,16017,30460
33101,16042,30449
33068,16025,30512
33072,15997,30530
33044,15915,30350
33037,15904,30405
33036,15908,30316
33048,15974,30406
33116,15956,30428
33133,16012,30190
33168,16044,30276
33184,16039,30277
33140,16015,30353
33088,15962,30127
33008,15935,30241
32968,15931,30244
33032,15938,30052
33144,15916,30145
33216,15958,30248
33288,16000,30044
33280,16034,30196
33272,16036,30286
33252,16036,29972
33256,15996,30128
33261,15912,30222
33252,15886,30016
33264,15888,30101
33292,15929,30089
33356,15977,30064
33396,16014,30052
33440,16028,29897
33453,16036,30060
33400,16006,30087
33352,15981,29880
33260,15944,29977
33208,15957,30080
33244,15888,29856
33304,15916,29952
33344,15952,29918
33324,15991,29865
33332,16021,29980
33296,16020,29776
33236,15991,29729
33160,15953,29788
33144,15924,29912
33044,15898,29757
32984,15907,29627
32980,15928,29785
32992,15966,29760
33044,16028,29836
33088,16059,29642
33009,16100,29533
32924,15991,29688
32808,15945,29718
32720,15916,29636
32680,15914,29446
32648,15887,29436
32605,15925,29614
32580,15965,29510
32576,16011,29636
32576,16031,29580
32536,16039,29375
32516,16023,29528
32437,15981,29412
32329,15910,29508
32256,15886,29344
32264,15887,29465
32256,15931,29368
32280,15972,29506
32268,16007,29308
32224,16055,29386
32180,16060,29369
32101,15983,29351
32037,15947,29191
31924,15916,29375
31892,15908,29327
31921,15907,29284
31996,15923,29405
32088,15969,29220
32124,16015,29150
32108,16057,29332
32152,16010,29224
32138,15988,29292
32072,15946,29159
32016,15903,29308
31940,15897,29210
31968,15908,29266
32020,15981,29315
32104,15964,29292
32140,16000,29312
32172,16050,29396
32204,16029,29156
32164,15987,29311
32136,15944,29364
32088,15919,29188
32056,15916,29310
32096,15931,29396
32136,15908,29150
32169,15968,29228
32233,16007,29247
32280,16050,29140
32292,16045,29340
32280,16029,29234
32224,15945,29395
32152,15905,29212
32158,15879,29345
32172,15908,29270
32180,15925,29328
32181,15986,29200
32258,16025,29324
32284,16067,29436
32342,16008,29335
32357,15982,29247
32381,15945,29372
32336,15912,29453
32316,15892,29254
32304,15908,29380
32332,15932,29348
32412,15983,29421
32421,16022,29283
32396,16053,29225
32368,16044,29397
32405,16013,29302
32313,15973,29462
32308,15932,29272
32305,15914,29416
32328,15921,29338
32396,15944,29444
32441,15977,29285
32444,16015,29428
32440,16060,29408
32389,16012,29308
32328,15982,29446
32340,15949,29490
32349,15908,29352
32386,15884,29430
32412,15885,29399
32470,15908,29487
32538,15950,29319
32572,16004,29447
32564,16032,29456
32572,16047,29332
32532,16039,29448
32492,16007,29396
32449,15906,29384
32448,15879,29249
32460,15883,29429
32461,15909,29380
32492,15954,29414
32542,15985,29289
32540,16012,29440
32544,16031,29380
32527,15996,29420
32468,15967,29309
32413,15936,29460
32416,15931,29433
32412,15939,29346
32420,15909,29463
32488,15952,29348
32542,15993,29517
32560,16028,29324
32592,16029,29468
32576,16008,29410
32552,15986,29553
32504,15942,29396
32500,15911,29335
32488,15916,29476
32480,15946,29421
32548,15986,29439
32600,16034,29313
32620,16091,29400
32572,16094,29589
32548,15984,29380
32452,15943,29318
32417,15931,29405
32428,15896,29476
32484,15929,29514
32525,15905,29485
32524,15965,29400
32584,16010,29492
32592,16057,29566
32592,16007,29531
32517,16007,29609
32480,15969,29359
32440,15954,29492
32442,15881,29519
32420,15881,29384
32488,15922,29540
32560,15964,29649
32624,16014,29451
32672,16040,29572
32652,16055,29510
32572,16025,29652
32568,15944,29469
32488,15904,29584
32556,15888,29575
32604,15922,29623
32636,15902,29716
32656,15973,29448
32632,16016,29626
32644,16013,29646
32640,16007,29484
32664,15981,29681
32623,15945,29680
32588,15912,29800
32576,15895,29516
32556,15896,29720
32608,15937,29722
32660,15986,29785
32700,16021,29625
32704,16053,29560
32692,16031,29765
32632,16033,29735
32608,15991,29719
32572,15902,29717
32600,15878,29620
32616,15901,29824
32644,15920,29732
32676,15988,29924
32708,15983,29732
32724,16002,29853
32744,16028,29799
32724,16005,29747
32712,15983,29864
32688,15975,29876
32653,15879,29980
32641,15895,29784
32657,15931,29908
32685,15945,29890
32734,15996,29925
32780,16035,30013
32776,16052,29845
32800,15980,29957
32805,15946,29919
32744,15926,30020
32681,15900,29888
32677,15896,29850
32713,15938,30001
32800,15981,29958
32840,16020,30013
32876,16070,29936
32888,16006,29879
32860,15998,29959
32789,15959,30030
32793,15925,29880
32760,15913,30080
32745,15898,30061
32748,15933,30148
32797,15983,29996
32884,16037,29919
32848,16011,30085
32865,16006,30156
32829,15981,30102
32740,15944,29983
32664,15910,29910
32676,15902,30024
32780,15879,30086
32852,15900,29927
32833,15959,30075
32928,16003,30151
32936,16005,30062
32936,16012,30008
32905,15996,30084
32832,15959,30020
32788,15926,29986
32780,15925,29900
32793,15874,30055
32832,15908,30097
32872,15962,29953
32912,16020,30068
32904,16062,29961
32944,16006,30111
32913,15992,29885
32868,15965,30060
32840,15931,30061
32784,15908,30012
32768,15877,30152
32804,15901,30096
32840,15944,30026
32917,15993,29934
32932,16036,30052
32916,16050,30024
32824,16036,30138
32744,15993,30001
32720,15898,30055
32716,15877,30028
32752,15884,29997
32826,15932,30132
32840,15961,29968
32864,16021,30086
32908,16007,29996
32896,16007,29985
32900,15989,30112
32837,15981,30134
32756,15964,30137
32704,15876,29959
32712,15878,30119
32789,15911,30200
32904,15974,29983
32935,15976,30073
32952,16018,30066
32952,16054,30191
32929,15975,30258
32904,15948,30111
32892,15911,30236
32840,15908,30296
32796,15872,30071
32860,15918,30240
32888,15958,30378
32860,16007,30281
32868,16072,30132
32844,16002,30297
32812,15973,30418
32780,15946,30277
32744,15923,30177
32744,15871,30293
32792,15872,30465
32796,15900,30294
32798,15948,30423
32856,15993,30388
32920,16028,30470
32916,15999,30265
32864,15990,30437
32852,15955,30453
32884,15928,30368
32876,15923,30506
32884,15876,30521
32888,15913,30374
32932,15967,30501
32992,15977,30613
32992,16004,30373
32956,16021,30525
32948,15985,30448
32908,15953,30558
32872,15931,30438
32896,15914,30553
32904,15865,30556
32940,15898,30604
32940,15939,30580
32968,15980,30460
33020,16015,30598
33060,16050,30543
33001,15970,30471
32965,15933,30592
32956,15900,30543
32918,15882,30685
32900,15903,30498
32892,15970,30567
32908,15937,30628
32984,15983,30413
33014,16031,30605
33048,16001,30710
33000,15982,30496
32976,15944,30629
32928,15905,30538
32860,15895,30725
32840,15906,30543
32880,15946,30647
32904,15934,30564
32980,15975,30761
33004,16008,30562
32993,16055,30652
32964,15971,30584
32888,15929,30724
32872,15900,30567
32848,15877,30692
32824,15902,30652
32896,15929,30711
32920,15980,30565
32928,15972,30692
32953,15993,30625
32957,16014,30645
32953,15982,30495
32920,15967,30684
32893,15892,30813
32860,15868,30572
32896,15881,30685
32920,15938,30757
32916,15932,30549
32968,15983,30647
33000,16009,30701
32992,15994,30753
32976,15981,30840
32944,15942,30639
32918,15929,30780
32848,15863,30760
32826,15894,30759
32869,15888,30709
32956,15945,30833
32997,15996,30966
32936,16045,30679
32952,15990,30868
32952,15987,30932
32888,15948,30780
32824,15931,30918
32804,15867,30984
32792,15878,30947
32801,15895,31045
32860,15936,30761
32929,15989,30941
32976,16037,31070
32832,15994,30855
32764,15974,30973
32671,15944,31031
32644,15930,31008
32672,15864,30983
32693,15868,31136
32732,15906,30845
32840,15987,30952
32888,15970,31127
32920,15993,30949
32904,16009,31068
32892,15984,30960
32888,15952,31177
32844,15967,30976
32772,15863,31090
32720,15882,31052
32744,15888,31012
32816,15940,30903
32844,15985,31004
32873,16031,31172
32804,16080,30948
32726,15981,31063
32720,15956,31188
32648,15886,30972
32632,15862,31101
32640,15877,31088
32664,15932,30999
32714,15926,31105
32774,15990,31024
32812,16015,31089
32852,16050,31087
32828,15967,31049
32776,15943,31084
32732,15943,31084
32692,15862,31061
32724,15888,31016
32788,15916,30863
32836,15936,31012
32888,15995,31076
32928,16052,31057
32940,15991,30958
32968,15996,31149
32948,15964,30928
32956,15884,31034
33052,15885,31077
33088,15862,30916
33188,15907,30980
33372,15932,30996
33568,15991,30802
33816,16023,30949
34064,15994,31072
34256,15965,30920
34608,15942,30804
35188,15933,30971
35768,15868,30856
36366,15900,31023
37004,15920,30828
37588,15985,30942
38092,15971,30992
38356,16009,30836
38268,16045,30932
38020,16044,30823
37524,15931,30966
36792,15901,30960
35912,15868,30820
34768,15876,30740
33344,15921,30846
31782,15934,30906
30456,15998,30970
29796,16023,30915
29604,15997,30972
29644,15974,30777
29801,15941,30990
30152,15900,30978
30548,15904,31100
30880,15870,30854
31204,15920,31019
31528,15930,31072
31864,15980,30845
32128,16029,31040
32364,16044,30951
32412,15965,31065
32412,15936,30934
32400,15903,31076
32384,15905,31180
32400,15867,31034
32412,15901,31084
32472,15967,31185
32540,15973,30999
32600,16010,31093
32628,16023,31154
32552,16021,31069
32520,15931,30895
32484,15912,31092
32488,15899,30997
32504,15868,31172
32560,15898,30976
32688,15952,30905
32736,16004,31069
32740,16029,31032
32724,16052,30952
32764,15969,31164
32724,15936,31037
32696,15902,30956
32652,15901,31061
32708,15913,30988
32796,15895,31108
32816,15959,30852
32812,15998,31029
32820,15996,31164
32759,16001,31024
32768,15973,30855
32740,15952,30964
32708,15912,31031
32704,15938,30841
32688,15863,31025
32716,15903,31127
32750,15989,31016
32828,15988,31010
32869,16020,30924
32840,16047,31009
32834,15972,30900
32860,15936,31068
32881,15908,30865
32900,15895,30975
32904,15916,30919
32892,15894,30974
32952,15941,30906
33040,15986,30884
33080,16031,30815
33116,15998,30928
33060,15968,30913
33012,15958,30932
32992,15931,30784
33006,15865,30885
33012,15868,30778
33017,15909,30929
33090,15956,30759
33156,16025,30848
33164,15996,30924
33148,16011,30705
33136,15996,30820
33080,15968,30800
33028,15928,30757
33004,15924,30868
33037,15865,30664
33108,15896,30767
33172,15956,30650
33204,15988,30836
33256,16021,30750
33268,16035,30557
33244,16031,30709
33208,15936,30589
33160,15888,30656
33188,15867,30577
33236,15879,30665
33236,15914,30556
33300,15934,30605
33380,15972,30461
33404,16004,30636
33401,16017,30601
33404,15992,30708
33399,15972,30536
33348,15941,30405
33277,15860,30592
33308,15881,30680
33308,15911,30465
33316,15983,30570
33388,15972,30653
33444,16021,30448
33488,16014,30374
33440,16030,30497
33376,15924,30620
33365,15905,30344
33342,15892,30503
33376,15860,30584
33408,15919,30295
33452,15964,30452
33489,16020,30495
33484,15994,30400
33436,15999,30314
33352,15992,30406
33272,15970,30533
33216,15892,30316
33216,15877,30424
33104,15882,30306
33076,15893,30284
33052,15934,30376
33080,16007,30444
33096,15998,30173
33120,16009,30284
33036,16018,30245
32913,15932,30340
32808,15904,30410
32712,15918,30327
32712,15876,30411
32708,15934,30165
32688,15936,30306
32712,15991,30361
32676,16034,30172
32608,15998,30298
32516,15993,30229
32430,15951,30256
32316,15935,30269
32221,15917,30247
32200,15871,30272
32188,15920,30276
32203,15936,30374
32204,15987,30080
32216,16047,30260
32160,15997,30148
32108,15986,30249
32052,15977,30295
31988,15899,30272
31953,15913,30189
31928,15878,30214
31924,15893,30133
31964,15946,30180
32036,16041,30213
32056,16025,30284
32068,16036,30320
32036,15970,30116
31973,15948,30212
31916,15901,30228
31856,15887,30319
31816,15913,30372
31836,15892,30116
31988,15944,30308
32068,15993,30384
32084,16042,30136
32076,16003,30213
32064,15996,30141
32040,15935,30316
32061,15907,30140
32028,15870,30438
32044,15886,30328
32060,15980,30428
32116,15935,30215
32148,15991,30336
32196,16025,30223
32228,16039,30277
32188,16054,30325
32148,15931,30427
32112,15937,30343
32024,15868,30437
32080,15888,30350
32172,15900,30353
32252,15945,30351
32288,16014,30432
32269,16000,30351
32240,16012,30449
32232,16018,30208
32216,15933,30343
32208,15908,30289
32182,15892,30383
32176,15874,30286
32228,15921,30370
32310,15982,30372
32366,15977,30420
32360,16007,30340
32344,16013,30493
32332,16065,30416
32308,15936,30348
32296,15924,30485
32288,15910,30268
32341,15876,30457
32388,15921,30585
32456,15972,30314
32480,15980,30450
32500,16031,30503
32479,16028,30364
32441,15974,30580
32432,15960,30428
32388,15941,30528
32352,15871,30591
32404,15890,30564
32474,15900,30664
32472,15951,30454
32496,15985,30669
32512,16023,30381
32520,16033,30485
32468,16031,30644
32468,15941,30450
32512,15913,30588
32492,15903,30676
32484,15957,30500
32488,15903,30622
32552,15945,30428
32628,15981,30614
32604,16012,30727
32552,16033,30532
32478,16044,30657
32420,15934,30562
32416,15899,30727
32452,15881,30671
32436,15894,30557
32408,15916,30682
32452,15970,30592
32553,16042,30665
32568,16007,30485
32556,16005,30671
32512,16006,30770
32464,15973,30496
32424,15902,30660
32356,15875,30649
32356,15901,30684
32388,15940,30587
32484,15943,30716
32612,15997,30504
32608,16010,30688
32584,16025,30637
32544,15978,30752
32507,15941,30532
32444,15924,30683
32452,15911,30782
32468,15878,30482
32476,15920,30632
32512,15941,30728
32556,15983,30541
32549,16033,30648
32560,16007,30512
32540,15999,30600
32496,15941,30617
32432,15911,30622
32380,15888,30504
32404,15910,30552
32448,15901,30599
32516,15942,30484
32512,15992,30560
32524,16007,30575
32620,16020,30540
32608,16019,30444
32568,15983,30551
32513,15895,30476
32478,15876,30632
32448,15890,30389
32492,15900,30473
32605,15941,30453
32708,15998,30389
32764,16016,30501
32744,16040,30456
32700,16037,30497
32628,15936,30356
32596,15922,30472
32544,15915,30356
32556,15876,30341
32600,15913,30460
32644,15938,30508
32688,15985,30244
32721,16040,30425
32688,16001,30536
32628,15994,30316
32612,15995,30425
32604,15896,30312
32580,15883,30349
32526,15908,30392
32612,15899,30340
32668,15940,30468
32762,16003,30268
32804,16015,30178
32772,16031,30373
32760,16013,30325
32672,15934,30373
32620,15916,30151
32688,15883,30345
32676,15897,30228
32713,15919,30343
32754,15972,30124
32748,16017,30286
32770,16004,30388
32752,16001,30188
32712,15968,30295
32684,15930,30301
32644,15913,30118
32596,15895,30188
32576,15934,30244
32628,15892,30140
32732,15953,30196
32792,15997,30273
32776,16045,30097
32768,15994,30208
32784,15973,30202
32804,15951,30111
32740,15904,30262
32696,15908,30006
32652,15866,30142
32700,15920,30143
32798,15933,30182
32788,15993,30261
32828,16038,30080
32860,15991,30181
32789,15983,30239
32689,15983,30025
32669,15897,30148
32740,15908,30113
32728,15869,30173
32748,15906,30268
32808,15961,30064
32828,15996,29989
32848,16016,30191
32884,16010,30180
32872,15985,30112
32824,15952,30214
32776,15944,30093
32737,15868,30045
32737,15861,30207
32728,15904,30236
32788,15949,30284
32804,16003,30277
32848,16037,30113
32856,15991,30237
32840,15986,30329
32832,15957,30063
32788,15940,30263
32748,15861,30160
32745,15889,30272
32760,15902,30159
32780,15961,30086
32808,15969,30204
32846,15988,30370
32880,16003,30111
32856,16042,30260
32812,15922,30404
32769,15885,30244
32760,15872,30114
32760,15888,30316
32772,15917,30417
32816,15928,30228
32812,15981,30309
32836,16011,30413
32840,15993,30149
32852,15968,30327
32856,15949,30375
32796,15945,30172
32752,15860,30381
32769,15864,30356
32820,15888,30335
32856,15924,30382
32876,15967,30429
32869,16005,30277
32856,16018,30207
32824,15999,30416
32760,15957,30434
32733,15889,30334
32784,15869,30422
32772,15868,30343
32776,15905,30460
32836,15955,30476
32928,16005,30460
32968,15996,30390
32988,15986,30534
32960,15992,30471
32916,15940,30409
32865,15921,30332
32828,15949,30549
32777,15861,30460
32808,15903,30636
32848,15942,30477
32858,16007,30471
32896,16036,30396
32960,16012,30609
32968,15967,30609
32924,15926,30521
32880,15908,30710
32876,15881,30611
32836,15907,30445
32844,15883,30609
32908,15943,30669
32961,15988,30540
33000,16026,30689
33020,15988,30752
33004,15973,30539
32940,15949,30680
32896,15939,30689
32858,15859,30736
32856,15884,30692
32908,15913,30844
32984,15929,30562
32992,15983,30796
33012,16023,30645
33056,16040,30579
33078,15960,30727
33008,15922,30799
32968,15893,30778
32932,15884,30693
32892,15879,30631
32952,15900,30799
32960,15964,30825
32980,15965,30821
32968,15992,30633
32913,16013,30734
32841,16052,30791
32748,15919,30645
32712,15882,30860
32664,15871,30776
32676,15869,30934
32760,15897,30844
32820,15938,30780
32844,16017,30895
32840,15985,30849
32844,15990,30989
32836,15986,30849
32776,15954,30708
32724,15931,30919
32744,15858,31008
32772,15876,30820
32780,15898,30936
32877,15939,30932
32944,15999,30904
32940,15980,31046
32924,15992,30840
32864,15983,30967
32774,15920,30988
32754,15897,30996
32813,15876,30810
32848,15900,30949
32832,15885,31050
32844,15950,30865
32892,15988,31009
32876,15991,31109
32868,15997,30875
32836,15996,31020
32796,15920,31089
32788,15895,30983
32788,15895,30933
32764,15852,31077
32864,15900,30977
32888,15956,31148
32916,16047,31001
32876,15988,30996
32844,15997,30929
32872,15998,31127
32840,15920,31170
32812,15876,31205
32704,15864,30953
32652,15895,31164
32741,15937,31154
32924,15924,31116
33064,15962,31276
33132,15985,31093
33176,16013,31204
33188,15972,31198
33288,15937,31133
33380,15907,31307
33484,15898,31124
33672,15905,31116
33997,15884,31220
34352,15919,31201
34784,15964,31148
35352,16005,31303
35936,16006,31144
36492,16007,31028
37036,15924,31236
37492,15887,31205
37832,15871,31353
37980,15899,31129
37912,15887,31252
37656,15936,31204
37240,15982,31303
36588,16040,31133
35712,15986,31160
34496,15975,31341
32981,15944,31076
31392,15933,31228
30112,15855,31389
29512,15864,31209
29416,15897,31304
29600,15953,31236
29868,16012,31424
30324,15988,31221
30680,16001,31136
30961,15990,31357
31218,15962,31351
31432,15924,31340
31713,15889,31356
32024,15896,31345
32289,15917,31358
32488,15962,31380
32528,15963,31367
32496,15976,31308
32468,15985,31473
32448,15973,31424
32385,15935,31296
32356,15957,31405
32356,15852,31373
32452,15877,31461
32550,15899,31468
32600,15941,31367
32640,15988,31293
32676,16023,31429
32676,15983,31332
32616,15959,31500
32600,15930,31389
32548,15889,31215
32536,15864,31259
32572,15868,31202
32628,15885,31202
32685,15929,31205
32748,15980,31421
32772,15991,31420
32782,16007,31307
32797,15996,31532
32780,15977,31429
32720,15876,31334
32704,15868,31454
32708,15873,31457
32724,15908,31420
32792,15965,31367
32852,15957,31558
32888,15990,31401
32880,16004,31367
32840,15973,31492
32804,15941,31460
32756,15929,31361
32716,15847,31505
32729,15862,31495
32840,15895,31348
32892,15939,31247
32940,15973,31238
32988,15995,31437
33016,16007,31447
32972,15987,31375
32937,15953,31449
32860,15937,31463
32856,15850,31341
32865,15856,31246
32932,15879,31440
32976,15934,31389
33016,15979,31456
33084,16025,31488
33117,16039,31348
33072,15954,31204
33036,15936,31305
33017,15918,31429
33008,15850,31239
32992,15847,31406
33049,15888,31302
33152,15961,31480
33228,15953,31285
33276,15997,31366
33256,16013,31312
33184,15958,31391
33176,15936,31184
33192,15892,31342
33196,15876,31250
33181,15899,31377
33225,15946,31188
33220,15908,31299
33261,15972,31215
33240,15982,31270
33260,15997,31184
33248,15969,31297
33216,15963,31165
33208,15878,31034
33204,15844,31176
33200,15850,31130
33232,15888,31215
33277,15927,31032
33344,16001,31104
33396,15973,31045
33392,16004,31071
33384,15972,30852
33345,15946,31032
33296,15944,30975
33236,15845,30983
33277,15871,30792
33320,15892,30948
33381,15953,30852
33385,15949,31005
33408,15975,30809
33384,15983,30676
33353,15967,30832
33293,15940,30816
33236,15907,30765
33212,15851,30685
33233,15843,30786
33244,15872,30744
33276,15914,30687
33308,15959,30684
33264,15980,30623
33188,15976,30727
33104,15957,30773
33032,15920,30748
33044,15877,30596
33000,15854,30524
32985,15863,30415
32964,15901,30593
32924,15941,30484
32924,15985,30500
32884,16010,30519
32824,15996,30611
32720,15971,30584
32669,15924,30544
32568,15876,30470
32452,15855,30447
32428,15857,30522
32432,15917,30396
32420,15927,30388
32404,15980,30388
32400,15997,30302
32364,16004,30326
32341,15987,30400
32216,15966,30188
32148,15896,30152
32128,15852,30277
32113,15848,30276
32116,15877,30244
32148,15992,30199
32132,15997,30134
32116,16009,30141
32152,16021,30204
32088,15997,30298
32100,15969,30199
32061,15881,30077
32108,15937,30045
32124,15909,29974
32196,15878,30161
32136,15916,30145
32161,15962,30137
32224,15994,30174
32232,16007,30018
32184,15962,30116
32160,15917,30104
32152,15887,30092
32150,15865,30061
32156,15871,29988
32204,15913,30081
32273,15955,30044
32314,16007,30164
32356,15984,29933
32352,16006,30041
32372,15983,30017
32324,15963,30057
32244,15953,30044
32212,15855,29924
32220,15856,29828
32253,15903,30018
32348,15946,29965
32388,15972,29901
32428,15997,30000
32452,16020,29994
32404,16000,29855
32364,15921,29959
32288,15879,29927
32289,15858,29949
32308,15861,29989
32384,15914,29740
32440,15922,29912
32472,15982,30008
32492,16004,29783
32480,16023,29884
32448,15964,29807
32430,15924,29925
32424,15878,29752
32444,15853,29753
32452,15878,29860
32504,15908,29929
32532,15974,29804
32552,15960,29736
32580,15990,29861
32608,16000,29834
32565,15993,29943
32460,15971,29794
32464,15884,29703
32470,15861,29856
32496,15876,29936
32504,15924,29689
32568,15916,29829
32636,15968,29880
32628,16015,29700
32600,16063,29884
32614,15959,29868
32592,15927,29888
32586,15886,29803
32596,15879,29729
32584,15870,29884
32624,15919,29993
32628,15977,29901
32726,16004,29917
32724,16022,29823
32668,15984,29776
32672,15961,29959
32660,15912,29956
32616,15879,29959
32548,15849,29937
32562,15876,29893
32617,15885,30052
32672,15942,29973
32754,15986,29877
32820,16019,29988
32788,15998,30008
32736,15955,29908
32664,15920,29990
32612,15884,30040
32576,15865,29940
32576,15861,30037
32581,15890,29900
32648,15952,29833
32712,15988,29827
32752,16025,29989
32776,15983,29887
32740,15958,30036
32692,15922,30038
32596,15889,29784
32596,15869,29966
32620,15882,30064
32632,15876,29818
32640,15912,29959
32693,15979,29900
32744,16006,29860
32744,16044,29775
32704,15953,29879
32600,15941,29943
32568,15894,29901
32529,15914,29701
32516,15850,29831
32544,15896,29925
32616,15937,29731
32620,15992,29650
32652,16029,29836
32656,15981,29790
32596,15959,29736
32580,15911,29724
32544,15874,29645
32584,15846,29787
32620,15855,29699
32640,15885,29856
32672,15940,29633
32688,15997,29556
32708,15975,29740
32728,15975,29693
32708,15949,29695
32624,15909,29630
32592,15867,29626
32556,15846,29663
32540,15854,29736
32600,15884,29684
32666,15908,29630
32756,15946,29575
32752,15974,29717
32744,16001,29716
32764,15968,29573
32692,15941,29496
32652,15917,29431
32636,15846,29408
32612,15845,29604
32608,15886,29549
32634,15918,29536
32672,15977,29504
32736,15971,29617
32694,15972,29417
32656,15962,29533
32628,15921,29508
32592,15900,29497
32600,15885,29520
32600,15893,29356
32600,15867,29281
32624,15926,29404
32600,15979,29518
32672,16025,29473
32640,15969,29286
32620,15957,29264
32616,15921,29392
32596,15901,29274
32608,15893,29440
32588,15842,29309
32668,15859,29189
32748,15905,29130
32808,15938,29308
32832,15983,29240
32784,15993,29366
32736,15962,29353
32656,15941,29218
32568,15922,29109
32536,15838,29086
32533,15837,29015
32600,15861,29191
32600,15908,29078
32584,15956,29132
32640,16017,29159
32758,15967,29062
32808,15948,28942
32788,15925,29092
32740,15878,29044
32720,15860,29028
32741,15862,29104
32808,15916,28926
32892,15900,28829
32908,15958,28986
32872,15972,28868
32816,15983,28871
32772,15954,28834
32716,15935,28990
32676,15926,28901
32672,15831,28758
32673,15834,28739
32676,15852,28678
32724,15897,28670
32792,15945,28807
32804,15985,28720
32756,16002,28864
32704,15937,28628
32696,15904,28576
32665,15879,28747
32636,15855,28724
32669,15856,28649
32660,15884,28752
32676,15944,28657
32704,15937,28553
32769,15959,28551
32828,15973,28662
32820,15958,28655
32756,15912,28651
32704,15877,28620
32712,15876,28716
32768,15822,28488
32824,15857,28628
32846,15898,28615
32856,15953,28674
32828,15985,28569
32844,16048,28447
32848,15935,28600
32740,15928,28590
32736,15889,28511
32724,15886,28517
32621,15828,28656
32701,15870,28528
32776,15909,28615
32884,15960,28540
32889,15980,28452
32892,15985,28389
32879,15973,28381
32840,15988,28558
32780,15858,28452
32760,15841,28564
32752,15860,28423
32736,15852,28528
32760,15905,28624
32868,15984,28396
32912,15953,28527
32932,15964,28532
32888,15952,28505
32848,15947,28424
32828,15854,28349
32788,15855,28421
32760,15854,28589
32789,15844,28336
32832,15913,28409
32876,15948,28481
32896,15995,28336
32876,16050,28476
32896,15936,28413
32824,15894,28548
32764,15861,28316
32720,15830,28308
32728,15847,28254
32757,15863,28436
32808,15909,28329
32860,15980,28342
32890,15954,28265
32912,15954,28222
32880,15937,28366
32864,15906,28372
32848,15868,28327
32872,15845,28259
32852,15840,28332
32828,15860,28393
32876,15903,28284
32928,15949,28305
32988,15978,28177
32968,15983,28172
32916,15949,28132
32800,15908,28191
32780,15872,28132
32752,15853,28102
32728,15868,28057
32737,15892,28040
32784,15941,28004
32825,16004,28069
32824,15952,28092
32832,15959,27990
32893,15943,27892
32917,15906,27821
32864,15892,27960
32836,15829,27911
32876,15827,27885
32916,15873,27910
33024,15899,27762
33037,15955,27711
33024,15981,27687
33001,15997,27638
32956,15934,27783
32918,15897,27742
32909,15868,27648
32886,15849,27800
32880,15871,27652
32896,15847,27528
32932,15900,27678
32934,15946,27740
32984,16037,27552
32972,15962,27510
32956,15958,27564
32880,15959,27624
32780,15870,27508
32724,15861,27556
32700,15826,27503
32696,15880,27553
32712,15888,27498
32704,15941,27608
32724,16024,27610
32724,15975,27456
32712,15972,27588
32653,15896,27522
32604,15881,27556
32620,15873,27380
32669,15828,27452
32712,15876,27540
32732,15883,27532
32788,15941,27548
32822,16000,27347
32868,15953,27484
32860,15952,27381
32852,15894,27332
32824,15872,27454
32796,15860,27348
32840,15906,27356
32900,15863,27294
32921,15932,27456
32929,15927,27231
32964,15988,27300
32920,15959,27436
32824,15951,27208
32768,15922,27349
32724,15848,27244
32716,15827,27390
32720,15848,27185
32768,15883,27316
32784,15885,27221
32792,15943,27329
32796,15997,27176
32784,15949,27295
32789,15941,27199
32736,15938,27223
32708,15848,27300
32704,15841,27337
32728,15909,27137
32708,15853,27232
32724,15904,27272
32765,15924,27307
32816,15972,27321
32848,16040,27156
32840,15933,27311
32884,15906,27236
32988,15909,27181
33068,15844,27341
33132,15871,27406
33252,15844,27181
33428,15896,27300
33624,15950,27399
33904,15979,27187
34200,15996,27349
34388,15936,27295
34752,15892,27420
35256,15874,27196
35808,15885,27281
36384,15829,27372
36928,15867,27177
37365,15946,27249
37676,15959,27197
37756,15999,27351
37632,15961,27380
37216,15953,27327
36540,15983,27372
35700,15868,27177
34780,15854,27297
33572,15878,27204
32180,15868,27332
30828,15940,27365
29976,15952,27201
29728,15961,27237
29740,15959,27152
29876,15949,27293
30085,15925,27193
30416,15855,27133
30757,15841,27277
31100,15864,27301
31356,15851,27100
31704,15897,27236
32068,15958,27177
32280,16045,27288
32389,15964,27058
32448,15948,27092
32468,15940,27167
32472,15857,27190
32476,15847,27036
32440,15864,27177
32401,15849,27128
32500,15896,27243
32540,15941,27009
32572,15998,27174
32636,15956,27166
32660,15953,27005
32644,15948,27161
32632,15856,27112
32622,15849,27071
32616,15908,27164
32624,15852,27065
32661,15908,27077
32688,15973,27138
32700,15965,27172
32716,15974,26988
32648,15968,27143
32608,15902,27106
32582,15867,27204
32620,15856,26993
32640,15828,27119
32721,15877,27080
32788,15928,26978
32792,15930,26954
32812,15973,27124
32782,15993,27084
32776,15936,27018
32713,15909,26926
32704,15868,27045
32684,15860,27121
32670,15826,26872
32692,15862,26914
32697,15946,26855
32768,15930,26972
32852,15974,27012
32908,16045,26796
32957,15938,26820
32908,15914,26748
32848,15863,26845
32840,15831,26911
32840,15851,26670
32889,15870,26796
32912,15948,26752
32953,15928,26668
32940,15964,26583
32929,15991,26665
32868,16007,26660
32817,15893,26663
32888,15868,26569
32952,15856,26652
32948,15898,26466
32944,15849,26485
32980,15898,26483
33052,15973,26537
33096,15952,26583
33104,15984,26345
33036,15977,26414
32976,15900,26301
32940,15882,26369
32956,15869,26324
33000,15823,26378
33024,15863,26406
33052,15938,26317
33116,15929,26341
33160,15978,26127
33168,15955,26156
33109,15954,26089
33076,15913,26201
33036,15850,26124
33116,15844,26025
33116,15816,26164
33136,15876,26139
33184,15890,26085
33248,15943,26088
33348,15950,26037
33388,15974,26041
33320,15980,26076
33256,15920,26022
33216,15890,26021
33228,15821,25863
33233,15836,25892
33248,15909,25844
33294,15897,25925
33380,15927,25908
33397,15969,25782
33376,16003,25905
33292,15928,25925
33224,15933,25735
33196,15855,25797
33180,15860,25760
33196,15825,25856
33200,15879,25889
33228,15883,25829
33272,15956,25812
33292,15950,25812
33288,15972,25843
33300,15926,25636
33204,15894,25692
33136,15901,25616
33077,15830,25664
33096,15853,25592
33077,15839,25719
33092,15894,25564
33136,15920,25693
33100,15961,25548
33036,15951,25595
32965,15937,25524
32880,15936,25634
32792,15844,25492
32696,15839,25637
32644,15813,25476
32629,15862,25543
32676,15878,25468
32728,15945,25607
32692,15960,25560
32604,15977,25532
32533,15924,25476
32438,15882,25484
32324,15868,25434
32256,15835,25574
32240,15864,25476
32272,15841,25488
32285,15888,25415
32272,15960,25473
32240,15939,25393
32224,15946,25532
32148,15946,25479
32088,15904,25590
32021,15840,25409
31992,15830,25420
31960,15830,25436
32016,15839,25524
32116,15878,25424
32184,15942,25354
32184,15943,25511
32140,15968,25416
32096,15924,25524
32052,15895,25420
31957,15881,25513
31932,15813,25366
31976,15822,25503
32080,15888,25528
32208,15879,25404
32208,15936,25517
32208,15942,25383
32232,15951,25524
32228,15933,25580
32188,15909,25388
32152,15847,25445
32128,15812,25462
32126,15833,25438
32184,15856,25466
32236,15925,25476
32325,15916,25497
32397,15945,25486
32384,15973,25444
32386,15936,25508
32381,15900,25532
32333,15873,25676
32325,15854,25468
32308,15871,25511
32308,15841,25651
32320,15877,25582
32352,15936,25694
32380,15978,25552
32428,15994,25694
32440,15929,25736
32416,15906,25581
32392,15888,25656
32348,15817,25599
32407,15831,25664
32488,15851,25730
32528,15924,25816
32496,15920,25709
32548,15972,25756
32552,15987,25690
32481,15928,25774
32456,15891,25903
32382,15860,25731
32296,15862,25869
32280,15817,25759
32340,15863,25906
32418,15885,25940
32528,15934,25928
32580,15998,25957
32588,15956,25936
32552,15943,25980
32508,15954,25949
32468,15845,25932
32484,15830,25805
32436,15882,25865
32420,15850,25804
32524,15903,25955
32620,15969,25970
32592,15948,25981
32592,15948,25972
32533,15949,25968
32508,15910,25894
32513,15883,25972
32473,15908,26039
32496,15844,25846
32512,15887,25917
32512,15930,25951
32524,15988,25853
32580,15953,25906
32636,15982,25911
32648,15971,26015
32642,15889,25955
32584,15860,25868
32534,15862,26009
32492,15824,26068
32520,15854,25852
32568,15915,25901
32680,15933,25853
32728,15957,25985
32660,15972,25904
32584,15986,25980
32488,15897,26028
32444,15865,25816
32456,15841,25965
32456,15862,26014
32484,15848,25792
32536,15916,25839
32617,15967,25849
32668,15954,25812
32652,15972,25854
32652,16016,25746
32632,15896,25790
32556,15868,25704
32524,15828,25847
32492,15837,25780
32496,15864,25840
32556,15927,25808
32668,15926,25717
32736,15969,25747
32736,15996,25672
32685,15930,25777
32644,15919,25664
32640,15936,25773
32552,15852,25742
32548,15848,25752
32560,15873,25720
32621,15928,25725
32647,15972,25607
32664,15958,25679
32688,15954,25657
32716,15933,25592
32676,15920,25628
32586,15888,25568
32556,15827,25613
32592,15835,25575
32636,15869,25590
32720,15899,25636
32772,15954,25622
32804,16005,25696
32761,15957,25728
32684,15948,25552
32664,15914,25624
32680,15882,25520
32664,15832,25636
32674,15818,25680
32676,15849,25524
32704,15909,25554
32764,15942,25629
32784,15965,25501
32804,15989,25588
32752,16000,25589
32736,15889,25591
32696,15866,25525
32692,15839,25400
32668,15868,25551
32664,15841,25548
32672,15905,25533
32776,15929,25566
32848,15960,25508
32852,16001,25513
32844,15925,25319
32788,15909,25472
32724,15863,25478
32718,15860,25300
32733,15861,25440
32741,15849,25416
32768,15889,25257
32868,15933,25388
32908,15988,25426
32920,16012,25200
32893,15928,25352
32864,15895,25287
32788,15859,25183
32732,15863,25272
32736,15817,25293
32780,15844,25125
32830,15896,25257
32869,15964,25284
32888,15955,25097
32932,15951,25230
32884,15929,25109
32820,15895,25013
32718,15895,25182
32660,15815,25210
32700,15816,25055
32764,15847,24981
32788,15884,24988
32836,15918,25094
32876,15948,25085
32932,15946,25008
32924,15921,24970
32884,15893,25084
32816,15862,24900
32760,15845,24869
32744,15826,24868
32748,15866,25010
32841,15894,24902
32908,15950,24836
32976,15973,24861
32980,15985,24909
32896,15973,24969
32848,15928,24980
32756,15899,24848
32696,15817,24812
32676,15817,24929
32784,15868,24981
32864,15921,24813
32876,15924,24911
32920,15960,24893
32904,15985,24941
32848,15967,24785
32782,15925,24778
32742,15904,24779
32768,15822,24941
32808,15814,24943
32844,15844,24944
32905,15879,24928
32948,15923,24858
32936,15943,24996
32890,15948,25007
32856,16008,25004
32817,15882,24995
32744,15842,24844
32698,15816,24887
32744,15815,25004
32824,15840,24956
32890,15884,25009
32950,15943,24873
32952,15970,24889
32926,15967,25024
32924,15950,25036
32912,15916,25095
32873,15890,24900
32868,15814,25077
32872,15823,25005
32903,15860,25106
32976,15913,24964
32997,15921,25073
33024,15945,25060
32996,15944,25132
33012,15937,24982
32992,15908,24999
32920,15860,25160
32856,15855,25136
32856,15814,25149
32900,15844,25012
32976,15892,25081
32988,15962,25157
32980,15941,25068
32968,15956,25224
32890,15932,25136
32812,15920,25161
32764,15838,25105
32712,15813,25257
32694,15828,25264
32712,15848,25297
32796,15894,25207
32816,15938,25152
32804,15981,25332
32762,15942,25237
32720,15918,25405
32693,15905,25210
32652,15871,25383
32596,15863,25428
32568,15813,25266
32632,15855,25424
32756,15887,25361
32820,15944,25496
32868,15990,25292
32856,15944,25480
32856,15919,25468
32864,15879,25442
32880,15847,25373
32840,15827,25554
32816,15828,25534
32808,15857,25561
32832,15924,25455
32840,15916,25633
32864,15944,25661
32864,15942,25529
32840,15924,25690
32788,15892,25733
32716,15860,25671
32708,15827,25621
32696,15833,25815
32736,15855,25734
32820,15891,25888
32877,15929,25740
32873,15954,25817
32888,15950,25968
32896,15940,25975
32840,15907,26084
32808,15847,25932
32800,15833,25979
32796,15839,26119
32800,15867,26177
32829,15903,26201
32865,15956,26102
32906,15939,26256
32962,15951,26276
33052,15934,26372
33156,15919,26352
33234,15840,26393
33292,15810,26352
33383,15813,26523
33528,15837,26478
33661,15879,26594
33924,15934,26581
34202,15950,26535
34408,15959,26580
34768,15942,26768
35213,15930,26708
35648,15907,26829
36128,15808,26897
36568,15840,26964
36912,15857,26840
37196,15964,27034
37268,15916,27135
37056,15964,26976
36620,15943,27193
35952,15922,27086
35120,15904,27300
34120,15856,27420
32960,15845,27276
31724,15848,27484
30544,15902,27513
29848,15870,27550
29772,15911,27540
29877,15954,27722
30025,15956,27677
30252,15980,27824
30524,15873,27886
30876,15852,28080
31249,15845,28061
31532,15811,28246
31849,15850,28329
32200,15861,28403
32428,15929,28489
32565,15994,28609
32620,15940,28744
32600,15931,28804
32576,15926,28941
32534,15831,28836
32536,15822,29022
32552,15852,29148
32568,15826,29348
32572,15892,29503
32608,15928,29385
32624,15927,29741
32672,15943,29797
32672,15996,29965
32632,15884,30052
32584,15853,30220
32576,15802,30306
32596,15823,30481
32652,15874,30343
32644,15861,30577
32608,15906,30776
32612,15951,30952
32668,15972,31178
32688,15910,31031
32712,15893,31356
32712,15913,31413
32724,15826,31621
32776,15839,31722
32800,15822,31852
32900,15878,31987
32908,15964,32212
32872,15926,32433
32828,15945,32335
32868,15943,32580
32852,15872,32737
32808,15848,32942
32744,15836,33108
32788,15803,33229
32840,15834,33414
32904,15901,33493
32976,15920,33621
33000,15949,33724
33012,15972,33897
33012,15947,33988
32968,15919,34072
32916,15852,34252
32910,15805,34301
32884,15803,34535
32864,15839,34661
32910,15880,34896
32880,15945,34756
32904,15982,34980
32928,15940,35204
32928,15912,35012
32960,15871,35268
32944,15853,35421
32936,15826,35620
32948,15828,35652
32952,15847,35880
32976,15924,35988
33040,15908,36133
33044,15958,36127
33008,15956,36320
32984,15946,36462
32904,15942,36447
32889,15829,36593
32890,15830,36815
32908,15841,36852
33005,15825,37021
33134,15869,37061
33198,15934,37217
33208,15933,37209
33196,15955,37276
33164,15935,37332
33128,15889,37333
33056,15860,37540
33040,15849,37649
33036,15817,37847
33064,15861,37672
33064,15864,37865
33118,15915,37996
33140,15969,38159
33152,15930,38208
33100,15911,38263
33048,15898,38377
33024,15829,38424
33036,15809,38532
33092,15890,38604
33148,15836,38677
33152,15893,38823
33201,15905,38900
33233,15943,39060
33204,15970,39038
33132,15907,39168
33032,15872,38968
32924,15847,39236
32904,15798,39362
32956,15805,39440
33040,15839,39620
33140,15908,39599
33096,15902,39801
33060,15935,39735
33060,15962,39708
33084,15903,39844
33040,15864,39891
32956,15848,40089
32896,15828,40116
32794,15872,40252
32729,15821,40280
32688,15863,40237
32736,15911,40374
32760,15955,40495
32704,15975,40711
32601,15901,40592
32556,15852,40751
32488,15822,40741
32468,15791,40967
32444,15791,40983
32449,15812,40708
32420,15849,41112
32442,15908,41348
32412,15950,41085
32368,15953,41364
32320,15939,41388
32234,15849,41361
32140,15816,41572
32136,15811,41764
32112,15807,41316
32124,15844,41749
32157,15901,41951
32200,15893,41959
32188,15943,42092
32168,15960,41728
32128,15897,42119
32068,15861,42185
32060,15843,42332
32016,15811,42484
32004,15866,42084
31996,15811,42393
31988,15865,42568
32016,15924,42668
32012,15970,42702
32016,15914,42796
32028,15893,42788
32000,15871,42748
31980,15839,42980
32012,15813,42908
31984,15822,43076
32016,15863,42993
32064,15924,43180
32136,15893,43110
32164,15916,43269
32184,15923,43260
32153,15927,43175
32017,15850,43351
31916,15810,43438
31948,15785,43247
32012,15812,43476
32076,15824,43352
32148,15863,43508
32198,15920,43222
32260,15913,43451
32316,15920,43639
32252,15897,43524
32208,15862,43648
32256,15835,43565
32269,15797,43545
32252,15816,43716
32284,15857,43485
32324,15849,43701
32356,15886,43732
32374,15919,43557
32392,15942,43748
32364,15932,43655
32365,15844,43748
32364,15830,43405
32337,15810,43677
32325,15834,43734
32380,15805,43592
32440,15860,43740
32476,15941,43612
32500,15910,43592
32515,15936,43478
32456,15933,43669
32376,15843,43569
32381,15818,43670
32380,15800,43576
32368,15813,43608
32420,15803,43268
32477,15860,43442
32512,15904,43484
32504,15959,43509
32448,15907,43513
32424,15909,43493
32424,15889,43390
32412,15813,43376
32429,15815,43295
32430,15774,43375
32496,15816,43340
32560,15884,43332
32640,15882,43259
32692,15909,43153
32668,15933,43212
32644,15906,43201
32580,15882,42821
32548,15858,43117
32556,15817,43068
32576,15781,43055
32592,15823,42939
32580,15854,42896
32548,15911,42932
32516,15986,42688
32556,15909,42846
32584,15890,42870
32504,15892,42366
32460,15807,42709
32432,15772,42596
32448,15799,42548
32500,15843,42621
32524,15835,42655
32544,15908,42177
32600,15956,42352
32656,15908,42497
32612,15888,42375
32580,15885,42312
32528,15797,42352
32504,15796,42261
32488,15817,42192
32556,15794,42188
32568,15836,42220
32592,15892,42238
32662,15948,41922
32652,15906,42000
32645,15892,42197
32632,15857,41989
32592,15835,42044
32557,15814,41962
32596,15845,42119
32644,15797,41604
32677,15848,41945
32708,15912,41513
32708,15900,41844
32733,15903,42008
32692,15900,41844
32616,15865,41929
32616,15844,41780
32596,15772,41938
32592,15780,41772
32612,15824,41805
32684,15883,41656
32793,15877,41851
32744,15918,41668
32712,15948,41798
32724,15878,41648
32736,15850,41748
32720,15811,41414
32680,15795,41577
32656,15817,41732
32688,15792,41556
32712,15846,41693
32789,15919,41519
32821,15900,41644
32800,15913,41063
32777,15892,41340
32752,15870,41356
32740,15859,41396
32704,15776,41373
32704,15770,41252
32752,15824,41181
32804,15872,41212
32876,15928,41237
32920,15901,41360
32924,15924,40764
32892,15913,41022
32840,15832,41160
32776,15791,40676
32752,15791,40924
32744,15791,40930
32761,15798,40844
32764,15853,40518
32812,15876,40972
32820,15909,40852
32824,15947,40830
32836,15875,40582
32840,15857,40845
32846,15879,40351
32840,15785,40828
32880,15785,40425
32944,15838,40531
32968,15847,40254
32984,15898,40708
32996,15960,40348
33028,15900,40448
33009,15884,40436
33000,15876,40476
33000,15791,40585
32960,15774,40225
32920,15796,40268
32924,15797,40340
32952,15833,40334
32992,15897,40436
32996,15934,40260
32965,15903,40132
32916,15884,39943
32844,15857,40112
32836,15871,40120
32812,15774,40124
32768,15781,40272
32780,15824,39943
32817,15902,40041
32800,15871,40156
32796,15908,40063
32752,15940,40136
32672,15870,39868
32604,15844,39876
32620,15829,39860
32652,15769,39816
32736,15793,39854
32812,15816,39909
32892,15865,39765
32960,15908,39928
32973,15932,39751
32988,15935,39853
32952,15915,39719
32897,15837,39892
32832,15804,39604
32800,15789,39733
32776,15819,39741
32760,15796,39763
32752,15860,39859
32752,15914,39755
32760,15898,39834
32772,15908,39745
32728,15916,39804
32661,15839,39645
32620,15793,39692
32556,15796,39844
32600,15818,39712
32676,15794,39623
32752,15857,39692
32836,15908,39695
32832,15904,39788
32820,15913,39500
32812,15884,39687
32752,15863,39552
32692,15834,39605
32702,15824,39661
32737,15772,39572
32832,15806,39788
32900,15849,39332
32878,15912,39607
32901,15900,39664
32908,15926,39598
32880,15873,39734
32948,15845,39271
33048,15794,39677
33168,15780,39241
33280,15815,39514
33405,15794,39640
33580,15834,39342
33780,15897,39600
33968,15936,39722
34200,15903,39220
34416,15887,39496
34717,15884,39520
35144,15796,39489
35680,15791,39503
36220,15807,39559
36704,15855,39710
37068,15836,39572
37349,15897,39460
37368,15917,39580
37152,15936,39260
36804,15937,39530
36240,15840,39588
35512,15820,39543
34617,15844,39650
33407,15773,39583
32156,15837,39552
30976,15841,39500
30249,15895,39520
30160,15953,39572
30216,15905,39716
30164,15884,39577
30212,15837,39636
30376,15794,39504
30644,15795,39481
31060,15800,39536
31440,15873,39588
31772,15838,39693
32100,15897,39601
32336,15964,39700
32472,15914,39604
32560,15910,39708
32586,15843,39588
32552,15801,39492
32556,15793,39604
32580,15772,39597
32588,15810,39652
32608,15879,39601
32580,15876,39684
32596,15925,39604
32604,15919,39500
32604,15916,39664
32624,15832,39588
32692,15809,39703
32700,15782,39576
32709,15798,39508
32740,15832,39495
32813,15927,39516
32816,15897,39476
32848,15936,39513
32876,15906,39594
32852,15918,39556
32848,15840,39686
32844,15822,39476
32796,15786,39512
32736,15799,39504
32736,15848,39481
32844,15837,39505
32948,15876,39400
32993,15905,39520
32956,15906,39549
32896,15893,39149
32860,15882,39340
32854,15801,39548
32864,15777,39077
32876,15789,39281
32916,15874,39324
32956,15836,39360
32928,15893,39482
32944,15916,39268
32952,15941,39312
32953,15880,39308
32916,15832,39209
32864,15826,39257
32852,15792,39196
32880,15817,39161
32933,15804,39189
32972,15841,39273
33026,15895,39158
33076,15908,39257
33080,15917,38884
33052,15912,39060
33032,15841,39021
33040,15806,39028
33036,15791,39160
33005,15824,38904
33036,15805,38972
33104,15865,39023
33148,15904,38919
33148,15959,38968
33144,15906,39087
33128,15883,38882
33020,15859,38908
32956,15838,39004
32960,15843,38716
33024,15780,38917
33124,15821,38535
33216,15885,38735
33200,15890,38781
33208,15908,38819
33180,15936,38864
33148,15917,38804
33132,15893,38900
33128,15807,38772
33148,15790,38808
33149,15795,38693
33188,15844,38700
33212,15908,38860
33284,15890,38388
33296,15943,38701
33274,15914,38379
33212,15894,38636
33217,15859,38740
33184,15843,38325
33240,15828,38617
33228,15785,38760
33228,15812,38298
33244,15874,38586
33288,15930,38711
33284,15984,38501
33312,15915,38529
33248,15909,38383
33193,15853,38492
33193,15860,38465
33168,15791,38625
33208,15789,38448
33212,15836,38485
33276,15889,38573
33325,15958,38134
33324,15921,38389
33284,15948,38484
33216,15916,38406
33153,15909,38510
33100,15817,38060
33092,15810,38236
33048,15791,38263
33038,15821,38289
32988,15891,38366
32948,15935,38264
32912,15969,38353
32896,15925,38213
32849,15907,38119
32772,15878,38080
32648,15858,38125
32597,15798,38224
32624,15818,38084
32604,15847,38063
32557,15913,37879
32568,15909,37936
32580,15933,37991
32512,15940,37947
32464,15949,38028
32408,15869,37660
32394,15838,37753
32369,15829,37925
32344,15847,37492
32332,15835,37740
32356,15872,37743
32356,15929,37652
32336,15951,37696
32284,15955,37576
32208,15950,37727
32153,15870,37645
32108,15858,37633
32144,15846,37504
32136,15814,37532
32160,15855,37588
32229,15907,37511
32272,15921,37612
32288,15964,37460
32277,15970,37423
32284,15992,37412
32220,15895,37429
32154,15884,37340
32092,15816,37309
32076,15831,37368
32117,15879,37332
32172,15890,37250
32225,15930,37319
32240,15952,37204
32252,15965,37336
32220,15950,37121
32264,15926,37231
32248,15851,37337
32160,15845,36912
32160,15842,37127
32264,15908,37093
32321,15894,37157
32340,15937,37142
32375,15957,37101
32392,15960,37156
32404,15949,37140
32384,15951,37141
32324,15858,37007
32296,15844,37087
32310,15860,36959
32332,15916,37062
32356,15902,37047
32400,15949,37017
32460,15979,37000
32513,15987,37143
32512,15987,36944
32488,15904,37021
32452,15861,36900
32390,15845,37086
32428,15860,36890
32440,15899,36905
32504,15909,36892
32556,15976,36908
32544,16005,36892
32532,15975,36892
32485,15974,36871
32428,15964,36831
32373,15892,36863
32326,15889,36908
32340,15847,36949
32437,15897,36908
32480,15944,36929
32536,15960,36901
32596,15993,36968
32621,16001,36591
32620,16008,36964
32576,15916,36695
32500,15894,36871
32476,15906,36528
32472,15886,36871
32505,15936,36782
32552,15924,36812
32565,15975,36801
32512,16009,36853
32532,16041,36783
32629,15975,36732
32624,15970,36700
32588,15890,36753
32568,15875,36735
32568,15869,36641
32586,15912,36608
32616,15968,36628
32600,15974,36719
32580,16010,36441
32568,16077,36806
32548,15976,36380
32548,15960,36544
32512,15975,36556
32492,15872,36639
32500,15889,36734
32512,15938,36434
32540,15944,36521
32561,15999,36503
32588,16055,36553
32600,16093,36663
32570,15988,36559
32512,15962,36543
32504,15918,36447
32508,15937,36433
32480,15887,36468
32504,15924,36464
32548,15977,36541
32576,16038,36476
32576,16016,36484
32544,16028,36348
32532,16018,36391
32453,16013,36508
32400,15917,36228
32360,15908,36298
32388,15932,36434
32428,15922,36385
32472,15987,36404
32560,16030,36321
32616,16026,36365
32641,16028,36393
32588,16014,36258
32528,16019,36301
32464,15925,36442
32480,15922,36048
32500,15937,36253
32532,15934,36216
32620,15995,36280
32636,16031,36220
32616,16076,36253
32604,16041,36231
32533,16024,36272
32504,16013,36231
32545,15940,36344
32544,15940,35976
32500,15957,36205
32504,15941,36084
32552,16008,36194
32572,16052,36076
32612,16107,36252
32616,16048,35932
32556,16038,36048
32464,16031,36191
32396,15946,35973
32386,15942,36103
32388,15966,36004
32484,15952,36081
32566,16014,36189
32580,16076,36037
32564,16082,36103
32608,16062,36000
32640,16050,36016
32624,16046,35838
32588,15957,35923
32590,15966,36020
32548,15985,35957
32552,15976,35952
32600,16044,35901
32644,16043,35869
32676,16086,35871
32684,16071,35811
32628,16059,35831
32568,16045,35965
32512,15972,35821
32504,15982,35929
32513,15947,35517
32536,15990,35809
32560,16080,35577
32600,16055,35647
32684,16111,35645
32708,16082,35680
32664,16064,35772
32592,16039,35684
32584,16046,35612
32592,15961,35564
32568,15989,35536
32565,15985,35528
32609,16041,35549
32660,16113,35645
32749,16088,35567
32740,16106,35661
32684,16065,35540
32644,16023,35461
32548,15999,35616
32582,16039,35500
32640,15980,35548
32704,16023,35249
32816,16036,35376
32854,16097,35376
32888,16130,35388
32856,16100,35425
32772,16077,35108
32700,16045,35256
32668,16036,35333
32645,15973,35056
32684,15995,35197
32692,16026,35200
32789,16089,35277
32840,16080,35369
32864,16116,34972
32820,16146,35096
32760,16086,35236
32692,16067,35172
32704,16037,35084
32636,16069,35098
32644,15980,35129
32732,16015,34992
32728,16076,35172
32732,16117,34800
32752,16165,34999
32724,16119,35092
32700,16119,35010
32612,16055,35101
32528,16026,34710
32549,16025,34935
32596,15993,34684
32628,16044,34921
32684,16109,34632
32712,16100,34982
32712,16142,34860
32728,16133,34772
32740,16102,34805
32716,16081,34882
32680,16020,34764
32698,16021,34695
32684,16045,34632
32692,16029,34822
32692,16088,34439
32724,16155,34564
32696,16133,34649
32676,16140,34463
32664,16135,34716
32612,16069,34596
32588,16044,34638
32586,16037,34566
32628,16058,34548
32636,16055,34498
32648,16110,34560
32684,16120,34464
32728,16167,34449
32729,16182,34215
32624,16123,34492
32561,16099,34219
32540,16041,34300
32556,16030,34288
32608,16042,34379
32612,16046,34365
32640,16102,34303
32725,16134,34310
32805,16164,34308
32764,16187,34397
32740,16125,34289
32720,16094,34370
32705,16068,34151
32774,16051,34078
32772,16029,34164
32906,16080,34052
32988,16130,34132
33080,16140,34197
33160,16173,33948
33310,16199,34224
33464,16142,34096
33572,16117,34157
33760,16063,33820
34012,16046,34085
34312,16062,33896
34764,16064,33956
35428,16133,33764
36052,16148,34095
36648,16184,33956
37141,16234,34038
37532,16151,33913
37716,16123,33964
37700,16140,33638
37516,16049,33772
37096,16065,33757
36444,16129,33831
35636,16118,33915
34644,16162,33716
33372,16199,33756
31992,16231,33780
30612,16159,33777
29760,16134,33849
29557,16121,33556
29568,16057,33679
29652,16062,33750
29968,16103,33692
30392,16128,33750
30856,16167,33447
31257,16201,33597
31572,16191,33637
31832,16160,33404
32056,16132,33540
32238,16129,33584
32384,16063,33612
32444,16095,33636
32492,16093,33581
32544,16133,33454
32572,16183,33433
32620,16229,33438
32632,16197,33433
32600,16169,33504
32532,16159,33517
32528,16131,33388
32520,16068,33476
32540,16074,33559
32552,16116,33225
32548,16178,33327
32592,16181,33331
32638,16220,33407
32616,16220,33404
32576,16217,33221
32557,16136,33336
32544,16098,33460
32568,16095,33132
32640,16108,33285
32746,16150,33357
32809,16146,33287
32830,16198,33287
32841,16236,33159
32877,16212,33213
32860,16195,33241
32852,16168,33221
32864,16133,33241
32848,16086,33095
32813,16094,33176
32796,16126,33180
32868,16183,33041
32884,16263,33111
32884,16220,33095
32868,16242,33053
32828,16239,33072
32748,16156,32916
32741,16121,32933
32804,16099,33041
32820,16116,32696
32884,16189,32813
32933,16164,32800
32976,16225,32778
33016,16228,32625
32992,16248,32695
32960,16220,32679
32900,16222,32727
32908,16127,32820
32916,16113,32476
32960,16105,32736
33008,16144,32560
33021,16197,32628
33068,16265,32684
33128,16234,32476
33188,16248,32544
33124,16246,32636
33052,16175,32416
33026,16142,32452
33032,16129,32572
33052,16156,32216
33122,16140,32409
33160,16179,32446
33173,16238,32270
33164,16287,32317
33166,16244,32399
33156,16229,32277
33133,16207,32180
33116,16141,32146
33120,16138,32180
33128,16152,32148
33152,16155,32173
33200,16201,32221
33272,16265,32116
33300,16253,32209
33320,16262,31863
33273,16271,32023
33248,16192,31804
33268,16174,32120
33272,16119,31998
33280,16151,32076
33308,16180,31738
33316,16192,31825
33344,16252,31796
33384,16295,31852
33372,16258,31766
33284,16247,31852
33336,16258,31919
33342,16178,31805
33332,16174,31884
33332,16129,31661
33328,16174,31745
33364,16228,31750
33389,16240,31541
33424,16286,31647
33472,16303,31548
33440,16235,31634
33340,16200,31726
33241,16173,31468
33248,16176,31517
33292,16147,31519
33272,16192,31532
33286,16208,31420
33308,16267,31397
33266,16274,31452
33188,16270,31487
33120,16269,31452
33028,16252,31374
32976,16182,31310
32909,16175,31383
32896,16145,31332
32868,16185,31349
32860,16263,31308
32878,16273,31116
32844,16318,31316
32776,16275,31181
32652,16268,31268
32548,16245,31334
32464,16165,31028
32476,16164,31140
32476,16152,31030
32432,16204,31084
32448,16264,31068
32480,16257,31150
32508,16303,31234
32452,16279,31012
32328,16265,31116
32240,16218,31001
32188,16198,31076
32132,16193,31182
32168,16156,30961
32192,16190,31064
32252,16240,31044
32277,16291,31040
32348,16288,31028
32332,16309,31104
32244,16277,30842
32176,16263,30964
32140,16185,30887
32176,16183,30953
32192,16164,30906
32224,16199,30964
32248,16260,31017
32268,16346,30836
32292,16292,30945
32284,16309,30908
32272,16287,30807
32276,16222,30814
32236,16201,30723
32224,16244,30841
32288,16191,30781
32380,16242,30829
32368,16234,30916
32440,16287,30865
32416,16369,30970
32384,16293,30700
32376,16282,30756
32372,16259,30852
32328,16196,30860
32300,16184,30957
32308,16212,30862
32368,16198,30958
32424,16265,30727
32456,16316,30824
32484,16305,30871
32488,16305,30826
32512,16299,30784
32464,16286,30713
32432,16197,30844
32400,16184,30812
32412,16188,30727
32468,16247,30841
32574,16247,30951
32604,16295,30727
32644,16326,30848
32632,16328,30847
32552,16317,30872
32484,16324,30784
32462,16205,30863
32492,16195,30785
32520,16216,30828
32549,16204,30884
32584,16263,30896
32620,16312,30793
32629,16351,30689
32612,16311,30892
32604,16279,31005
32612,16253,30785
32552,16219,30909
32528,16225,30922
32508,16180,30799
32554,16228,30887
32628,16299,31013
32680,16289,30716
32704,16322,30892
32677,16359,30821
32656,16289,30916
32576,16255,30821
32488,16228,30921
32497,16191,30948
32546,16194,31000
32540,16240,30853
32592,16300,30933
32621,16310,31004
32628,16369,30956
32620,16330,30898
32580,16336,30838
32528,16253,30920
32516,16225,30949
32464,16223,30992
32456,16273,30908
32492,16221,31013
32544,16285,30815
32608,16344,30897
32604,16329,31070
32504,16324,30891
32460,16320,30980
32412,16276,30966
32460,16263,31110
32525,16192,30900
32580,16197,31013
32624,16236,31013
32696,16295,30908
32732,16302,31001
32732,16323,30968
32676,16348,30967
32648,16329,30872
32588,16299,31001
32529,16216,31016
32464,16201,30857
32464,16253,30945
32512,16221,31057
32584,16293,30852
32700,16336,30965
32718,16407,30937
32672,16326,30864
32608,16312,30968
32588,16304,30951
32572,16220,30848
32548,16215,30941
32560,16257,31032
32580,16226,30815
32638,16293,30928
32632,16349,30935
32664,16325,30923
32632,16339,31015
32680,16338,30757
32660,16258,30812
32624,16222,30884
32568,16210,30700
32564,16220,30892
32604,16243,30853
32656,16303,30876
32724,16355,30684
32736,16390,30876
32728,16329,30872
32716,16310,30777
32648,16293,30868
32600,16222,30912
32600,16221,30648
32592,16219,30789
32600,16255,30896
32650,16320,30719
32740,16308,30822
32844,16362,30929
32832,16360,30720
32772,16352,30809
32732,16262,30773
32660,16251,30894
32644,16237,30655
32624,16207,30761
32701,16261,30720
32744,16309,30785
32712,16312,30789
32816,16337,30681
32800,16353,30764
32777,16325,30772
32689,16264,30623
32588,16245,30736
32552,16259,30770
32581,16204,30608
32640,16247,30697
32736,16309,30676
32804,16316,30580
32872,16343,30657
32844,16356,30727
32756,16305,30565
32732,16276,30567
32716,16270,30529
32641,16203,30631
32600,16217,30559
32701,16244,30636
32824,16308,30596
32854,16316,30413
32868,16340,30516
32820,16353,30557
32757,16349,30572
32725,16262,30591
32693,16234,30396
32672,16244,30484
32648,16206,30495
32668,16259,30408
32764,16306,30425
32833,16375,30534
32858,16339,30492
32860,16357,30489
32812,16328,30359
32800,16311,30471
32764,16225,30549
32761,16218,30436
32738,16233,30324
32762,16236,30383
32776,16289,30412
32804,16338,30477
32828,16391,30385
32812,16333,30306
32805,16302,30445
32765,16263,30312
32728,16239,30357
32708,16212,30401
32760,16232,30333
32812,16293,30405
32877,16292,30129
32942,16335,30212
32940,16373,30348
32908,16337,30080
32892,16332,30262
32864,16305,30055
32832,16297,30232
32804,16204,30192
32772,16206,30253
32808,16251,30120
32897,16308,30200
32944,16317,30226
32934,16350,30172
32936,16353,30122
32932,16360,30036
32872,16268,30077
32816,16245,30103
32768,16240,29974
32804,16269,30095
32820,16233,30169
32896,16291,29972
32916,16356,30025
32924,16338,30162
32912,16355,30084
32916,16319,29988
32868,16329,29958
32784,16228,30060
32776,16216,30097
32768,16228,29886
32788,16267,30036
32808,16285,30092
32820,16331,29879
32888,16337,29973
32968,16352,29928
32944,16340,30037
32878,16268,29940
32825,16239,30036
32760,16267,29961
32714,16205,30054
32805,16251,30064
32877,16313,29945
32884,16311,30056
32864,16360,30136
32884,16361,29892
32865,16349,30027
32798,16265,30126
32744,16228,29937
32712,16222,30048
32692,16231,29975
32680,16283,30049
32696,16276,29910
32729,16314,30028
32728,16352,30092
32736,16345,29925
32768,16344,30050
32752,16263,30109
32708,16252,29845
32728,16218,30020
32760,16247,30136
32804,16237,29855
32888,16303,30049
32944,16317,29857
32960,16335,29999
32961,16351,30032
32894,16331,30060
32856,16266,30065
32758,16246,29932
32672,16237,30109
32620,16212,30104
32632,16249,30078
32712,16311,30006
32772,16317,30132
32804,16343,30212
32804,16357,30001
32752,16306,30258
32704,16287,30007
32672,16273,30180
32612,16202,30220
32620,16242,30224
32676,16233,30136
32716,16297,30244
32790,16396,30180
32805,16335,30288
32752,16355,30212
32720,16364,30334
32652,16258,30420
32668,16228,30207
32669,16214,30363
32726,16258,30312
32836,16233,30421
32936,16292,30388
32897,16353,30419
32917,16334,30408
33028,16353,30468
33108,16301,30527
33204,16265,30596
33236,16237,30649
33276,16260,30429
33380,16207,30574
33560,16247,30548
33876,16297,30672
34184,16345,30790
34512,16335,30728
35004,16339,30828
35580,16317,30628
36024,16284,30750
36580,16266,30860
37024,16201,30824
37344,16205,30820
37492,16260,30749
37436,16279,30799
37224,16329,30796
36828,16367,30871
36104,16329,30903
35252,16320,31006
34168,16297,31080
32892,16226,31128
31552,16212,31256
30368,16231,31204
29788,16231,31300
29800,16282,31111
29876,16337,31228
30024,16326,31263
30288,16349,31348
30544,16352,31489
30816,16281,31533
31144,16263,31558
31448,16206,31606
31756,16244,31520
32046,16252,31789
32272,16316,31589
32420,16316,31802
32500,16348,31802
32569,16377,31984
32565,16321,32057
32476,16285,31912
32420,16292,32142
32352,16196,32253
32324,16212,32182
32360,16266,32358
32444,16267,32541
32474,16333,32542
32532,16361,32673
32512,16325,32568
32484,16309,32775
32464,16268,32980
32476,16262,32735
32476,16205,32949
32548,16233,32905
32648,16230,33210
32712,16295,33204
32776,16330,33382
32836,16375,33530
32824,16324,33388
32768,16304,33624
32716,16293,33740
32644,16214,33828
32648,16221,33820
32657,16249,33916
32744,16225,34100
32804,16280,34255
32852,16335,34254
32832,16326,34385
32856,16348,34340
32868,16329,34493
32854,16252,34589
32802,16238,34671
32744,16228,34815
32677,16193,34804
32692,16246,34960
32736,16295,34724
32840,16305,34932
32900,16328,35036
32945,16341,35181
32968,16353,35334
32960,16265,35380
32924,16237,35413
32908,16189,35488
32932,16196,35345
32972,16232,35693
32960,16270,35919
32960,16332,35716
32960,16368,35976
32988,16324,35984
32976,16295,36065
32984,16273,36175
32953,16212,36180
32948,16204,36396
32964,16229,36453
33008,16220,36605
33049,16258,36681
33088,16304,36711
33080,16365,36845
33136,16322,36959
33120,16297,37037
33080,16293,37145
33060,16212,37153
33040,16204,37255
33068,16223,37525
33104,16217,37340
33232,16284,37545
33272,16330,37765
33320,16315,37501
33324,16327,37767
33312,16320,37865
33293,16244,38004
33212,16223,38132
33176,16210,38037
33096,16187,38143
33112,16233,38292
33157,16297,38383
33188,16287,38593
33260,16325,38600
33260,16360,38782
33192,16286,38433
33156,16260,38844
33188,16255,38908
33196,16187,38985
33236,16199,39132
33264,16255,39189
33304,16248,39376
33416,16302,39025
33452,16356,39410
33433,16323,39500
33345,16321,39661
33292,16236,39695
33268,16215,39850
33248,16224,39868
33320,16182,40061
33396,16248,40030
33380,16247,40060
33352,16313,40140
33344,16299,40292
33382,16322,40381
33360,16273,40604
33288,16241,40429
33241,16238,40512
33180,16171,40756
33156,16188,40796
33140,16200,40920
33125,16252,40897
33106,16329,41020
33040,16308,41184
32948,16322,41206
32852,16268,41302
32772,16236,41378
32791,16231,41612
32784,16169,41164
32744,16189,41511
32728,16189,41526
32688,16247,41708
32656,16317,41660
32620,16300,41938
32562,16300,41909
32517,16285,42064
32476,16222,42156
32404,16206,42351
32304,16185,41893
32310,16169,42325
32308,16195,42488
32308,16248,42391
32350,16328,42565
32400,16292,42700
32352,16298,42356
32300,16318,42590
32260,16229,42700
32264,16218,42808
32244,16154,42828
32212,16187,42808
32184,16182,42963
32264,16252,43060
32316,16291,43096
32344,16347,43072
32367,16280,43217
32360,16263,43140
32336,16227,43240
32284,16200,43229
32288,16212,43374
32276,16211,43397
32280,16179,43271
32304,16235,43455
32336,16278,43133
32368,16281,43388
32364,16276,43524
32316,16271,43569
32240,16233,43511
32216,16245,43639
32253,16143,43436
32356,16168,43641
32408,16192,43689
32440,16260,43396
32484,16255,43614
32472,16278,43728
32440,16287,43444
32388,16284,43616
32328,16206,43655
32320,16164,43812
32336,16158,43725
32356,16165,43823
32420,16228,43461
32460,16213,43796
32512,16252,43813
32536,16273,43740
32536,16267,43716
32500,16236,43485
32492,16206,43828
32477,16183,43713
32472,16156,43824
32497,16182,43703
32533,16248,43476
32584,16205,43820
32628,16251,43652
32640,16271,43655
32608,16263,43748
32548,16239,43780
32508,16216,43685
32444,16183,43604
32416,16181,43726
32448,16132,43660
32505,16175,43559
32556,16217,43687
32580,16271,43614
32600,16319,43490
32609,16261,43567
32512,16247,43601
32460,16213,43213
32420,16197,43399
32414,16130,43406
32448,16161,43492
32548,16175,43420
32620,16224,43404
32673,16276,43083
32668,16305,43409
32656,16303,43244
32612,16228,43375
32596,16185,43244
32560,16150,43015
32524,16134,43280
32528,16161,43228
32540,16202,43157
32560,16199,43196
32568,16236,43036
32577,16264,43060
32608,16274,43128
32616,16259,43148
32580,16224,42977
32548,16206,42668
32569,16121,42953
32520,16122,43004
32516,16155,42868
32516,16220,42951
32517,16254,42756
32480,16280,42947
32528,16250,42821
32576,16221,42706
32550,16189,42828
32496,16174,42705
32493,16166,42668
32517,16120,42772
32505,16165,42351
32548,16211,42663
32600,16247,42525
32656,16282,42644
32680,16287,42373
32672,16215,42533
32668,16174,42370
32620,16138,42501
32600,16118,42452
32572,16128,42244
32600,16164,42407
32656,16213,42280
32728,16228,42273
32744,16244,41940
32717,16262,42158
32701,16229,42349
32654,16205,42166
32638,16208,42161
32576,16112,42199
32556,16129,42255
32597,16161,41972
32640,16223,42102
32648,16285,42036
32680,16244,42128
32652,16236,42020
32600,16211,41668
32552,16165,41951
32513,16146,41876
32520,16119,42045
32556,16121,41820
32662,16153,41453
32672,16197,41816
32692,16284,41930
32712,16239,41717
32664,16255,41615
32652,16289,41741
32620,16169,41653
32612,16141,41665
32692,16141,41508
32672,16162,41549
32654,16137,41381
32700,16200,41588
32825,16234,41124
32928,16292,41295
32924,16233,41367
32932,16225,41277
32908,16175,41200
32832,16150,41360
32780,16122,41142
32748,16122,41105
32800,16158,41020
32812,16254,41028
32812,16217,40995
32792,16244,40999
32760,16275,40820
32752,16198,40865
32712,16178,40973
32696,16161,40718
32708,16100,40764
32728,16100,40650
32777,16124,40725
32800,16186,40669
32806,16233,40484
32848,16250,40583
32836,16273,40615
32812,16198,40455
32748,16185,40440
32728,16142,40580
32692,16133,40348
32708,16133,40140
32740,16195,40251
32820,16247,40287
32838,16202,40250
32840,16228,39937
32788,16227,40177
32760,16271,40164
32672,16149,40113
32684,16111,40100
32728,16087,40198
32768,16101,39991
32796,16132,40029
32856,16174,40008
32904,16214,39904
32945,16232,39990
32944,16239,39844
32860,16238,39892
32792,16200,39845
32736,16108,39812
32736,16084,39828
32716,16098,39815
32821,16129,39844
32892,16173,39636
32900,16224,39660
32892,16259,39782
32828,16219,39581
32808,16185,39573
32832,16162,39649
32792,16150,39546
32748,16166,39421
32681,16085,39552
32704,16142,39112
32784,16180,39399
32872,16233,39556
32892,16261,39368
32828,16271,39357
32788,16181,39213
32744,16156,39260
32712,16124,39284
32684,16164,39381
32652,16079,38998
32686,16117,39127
32756,16166,39190
32850,16244,39141
32868,16211,39044
32876,16221,39007
32864,16198,39047
32832,16156,38917
32780,16148,38996
32776,16071,38964
32800,16105,39081
32828,16150,38564
32852,16146,38776
32836,16185,38919
32848,16222,38508
32832,16223,38839
32792,16247,38733
32716,16135,38768
32624,16118,38807
32630,16094,38638
32672,16112,38711
32724,16100,38808
32680,16145,38445
32716,16191,38646
32813,16233,38592
32852,16239,38303
32832,16258,38583
32796,16130,38733
32805,16093,38292
32757,16077,38576
32684,16087,38567
32708,16137,38548
32788,16141,38535
32880,16183,38436
32932,16204,38628
32936,16204,38524
32904,16189,38404
32836,16135,38448
32761,16098,38317
32772,16091,38373
32808,16123,38420
32877,16096,38348
32972,16165,38352
33132,16202,38356
33280,16237,38285
33436,16281,38348
33572,16165,38300
33640,16140,38080
33800,16098,38279
34048,16086,38166
34308,16102,38252
34656,16101,38228
35144,16145,38204
35752,16218,37895
36352,16196,38092
36876,16205,37950
37208,16218,38054
37444,16121,38133
37476,16099,38138
37344,16085,38161
37084,16135,38048
36544,16101,38060
35916,16172,38199
35080,16244,37804
33976,16198,38088
32744,16206,38111
31460,16216,38080
30432,16124,37996
30038,16101,38023
30084,16074,38081
30080,16094,38190
30206,16139,37761
30472,16134,38020
30788,16171,38111
31144,16205,37981
31460,16215,38036
31696,16200,38007
31936,16119,38047
32176,16076,37693
32356,16061,37924
32460,16079,38055
32536,16106,37660
32612,16164,37892
32652,16220,37988
32616,16192,37765
32608,16182,37876
32600,16187,38005
32608,16130,37820
32600,16095,37871
32612,16098,37756
32616,16059,37889
32652,16077,37604
32673,16142,37788
32689,16188,37916
32720,16271,37469
32684,16178,37709
32761,16172,37872
32780,16138,37448
32780,16127,37660
32760,16097,37685
32768,16100,37762
32804,16155,37600
32852,16125,37308
32916,16168,37572
32928,16207,37657
32928,16194,37557
32908,16162,37296
32888,16131,37505
32880,16118,37612
32840,16049,37396
32844,16066,37420
32780,16093,37476
32800,16130,37300
32864,16184,37360
32948,16220,37340
32964,16219,37228
32972,16151,37271
32952,16102,37348
32916,16078,37061
32850,16082,37092
32812,16092,37204
32928,16077,36868
33000,16114,37072
33093,16160,37143
33084,16191,37063
33060,16212,36912
33064,16194,37080
33004,16100,36673
32970,16066,36893
32962,16044,37005
32988,16068,36596
33016,16085,36852
33053,16132,36897
33056,16185,36742
33068,16173,36780
33096,16172,36849
33080,16168,36728
33032,16134,36836
33056,16124,36470
33080,16036,36580
33100,16057,36684
33108,16085,36639
33176,16138,36543
33180,16185,36581
33216,16217,36577
33216,16220,36604
33184,16135,36382
33160,16093,36496
33188,16053,36524
33161,16034,36461
33164,16037,36246
33173,16066,36473
33180,16108,36332
33160,16146,36542
33200,16165,36308
33272,16186,36388
33328,16156,36401
33316,16144,36046
33316,16053,36280
33296,16058,36223
33308,16057,36268
33348,16127,36359
33392,16104,36184
33404,16154,36247
33392,16177,36110
33396,16177,36225
33388,16169,36088
33360,16137,35964
33317,16134,36084
33280,16028,36143
33292,16059,36100
33332,16086,35959
33366,16167,36132
33365,16132,35940
33356,16164,35966
33336,16159,35996
33324,16130,35940
33320,16096,35988
33244,16074,35884
33185,16054,35819
33156,16069,35597
33148,16100,35836
33184,16178,35705
33172,16132,35796
33152,16183,35503
33144,16171,35733
33096,16162,35854
33012,16140,35637
32908,16039,35717
32813,16021,35564
32762,16037,35724
32796,16065,35548
32816,16113,35596
32826,16169,35514
32808,16149,35637
32740,16153,35284
32692,16145,35425
32608,16100,35559
32520,16085,35281
32440,16021,35432
32364,16021,35521
32357,16074,35357
32375,16109,35420
32408,16162,35306
32388,16220,35485
32392,16141,35303
32326,16129,35334
32300,16094,35204
32244,16064,35370
32185,16015,35012
32176,16022,35197
32184,16051,35300
32240,16102,35136
32297,16162,35209
32333,16186,35166
32276,16191,35134
32276,16181,35174
32212,16113,35060
32148,16076,35040
32128,16052,35008
32152,16047,35005
32268,16079,34925
32332,16136,34892
32360,16120,35015
32348,16143,34896
32372,16148,35101
32352,16126,34816
32288,16109,34957
32181,16100,34948
32200,16008,34972
32248,16011,34673
32312,16045,34868
32388,16102,34914
32424,16140,34800
32432,16191,34861
32416,16142,34744
32405,16108,34855
32348,16097,34548
32264,16045,34781
32308,16031,34668
32348,16045,34815
32392,16075,34842
32416,16099,34560
32436,16119,34695
32460,16163,34783
32472,16163,34455
32492,16156,34676
32496,16068,34796
32500,16037,34410
32468,16020,34620
32428,16036,34764
32518,16081,34493
32576,16077,34596
32592,16117,34512
32544,16207,34541
32548,16143,34676
32536,16156,34492
32504,16068,34325
32470,16029,34566
32567,16028,34559
32576,16034,34588
32614,16052,34309
32664,16097,34508
32680,16157,34496
32680,16196,34507
32608,16143,34224
32544,16109,34452
32544,16066,34327
32572,16045,34329
32596,16029,34407
32632,16035,34372
32592,16066,34303
32556,16119,34228
32584,16197,34438
32628,16136,34238
32656,16157,34297
32677,16125,34228
32664,16090,34300
32576,16050,34334
32540,16030,34253
32496,16023,34119
32520,16055,34181
32624,16111,34117
32702,16162,34287
32724,16141,34064
32728,16142,34137
32668,16123,34191
32620,16094,34026
32586,16044,34101
32573,16035,34084
32589,16043,34122
32632,16074,33965
32638,16104,34029
32692,16146,34020
32720,16171,33925
32708,16168,34103
32652,16154,33967
32568,16124,33764
32540,16031,33972
32540,16008,33935
32520,16006,33817
32512,16038,34024
32552,16080,33846
32629,16133,33636
32688,16162,33861
32716,16148,33856
32664,16123,33818
32608,16074,33725
32533,16041,33756
32557,16020,33892
32552,16053,33592
32560,16101,33751
32560,16069,33700
32632,16199,33620
32680,16218,33743
32644,16212,33748
32584,16109,33620
32508,16063,33407
32540,16036,33600
32604,16023,33678
32677,16020,33644
32668,16055,33415
32684,16112,33549
32660,16151,33453
32688,16140,33564
32724,16132,33588
32692,16101,33616
32644,16058,33557
32588,16029,33424
32576,16007,33257
32617,16004,33436
32685,16033,33423
32734,16073,33356
32764,16115,33445
32752,16141,33311
32706,16151,33216
32640,16128,33363
32576,16089,33265
32616,16060,33408
32672,16040,33300
32712,16073,33117
32744,16087,33317
32768,16073,33244
32768,16105,33354
32820,16124,33216
32836,16129,33020
32732,16119,33245
32700,16079,33244
32640,16052,33192
32568,16040,32964
32576,16002,33091
32578,16047,33220
32640,16087,33072
32720,16119,33000
32788,16164,33122
32820,16175,33159
32832,16094,33047
32796,16055,32885
32717,16019,32887
32688,16002,33070
32672,16041,33167
32660,16022,32997
32696,16060,32829
32744,16106,33025
32796,16135,32948
32812,16145,33090
32812,16133,32863
32732,16103,32952
32649,16017,32852
32640,16012,32980
32661,16015,32720
32736,16071,32864
32736,16057,32856
32776,16100,32833
32768,16132,32605
32745,16145,32752
32696,16148,32876
32684,16050,32689
32672,16008,32528
32660,15996,32752
32656,16001,32652
32696,16036,32805
32784,16089,32620
32860,16135,32452
32824,16123,32649
32764,16127,32745
32761,16110,32607
32712,16061,32389
32693,16021,32588
32673,16025,32660
32676,15989,32466
32718,16015,32324
32736,16058,32545
32736,16119,32412
32812,16136,32504
32829,16117,32516
32740,16087,32391
32696,16071,32372
32692,16035,32469
32684,15994,32409
32720,16005,32495
32765,16036,32391
32772,16100,32344
32716,16148,32214
32749,16192,32399
32720,16107,32518
32732,16084,32330
32756,16047,32378
32724,16017,32277
32714,16005,32469
32697,16024,32278
32748,16061,32341
32833,16127,32344
32856,16092,32236
32832,16111,32398
32816,16109,32310
32753,16082,32193
32692,16060,32076
32660,16017,32253
32672,16006,32172
32709,16025,32344
32764,16082,32188
32816,16048,32218
32840,16117,32170
32832,16120,32298
32808,16140,31968
32776,16135,32140
32716,16087,32198
32600,16005,32148
32590,15977,31929
32672,15990,32101
32696,16036,32232
32748,16064,31994
32752,16127,32108
32770,16165,32046
32760,16125,32100
32748,16081,32112
32744,16043,31980
32732,15997,31944
32724,15977,31948
32693,15984,32036
32732,16008,32007
32780,16050,31897
32828,16109,32067
32888,16132,32036
32933,16123,31928
32920,16100,31861
32928,16065,31760
32884,16035,31759
32848,16021,31950
32869,16029,31932
32937,16008,31869
32984,16048,31848
33068,16088,31929
33100,16119,31820
33072,16112,31772
33020,16099,31708
32900,16044,31684
32836,16004,31842
32780,15977,31839
32776,15981,31816
32816,16004,31724
32900,16045,31869
32928,16086,31670
32908,16110,31761
32828,16103,31750
32824,16086,31636
32764,16039,31825
32704,16007,31710
32752,16039,31702
32736,16025,31503
32716,16036,31461
32736,16065,31465
32797,16108,31621
32798,16134,31532
32804,16134,31633
32748,16116,31660
32712,16067,31491
32744,16036,31389
32740,16012,31380
32728,16008,31574
32756,16044,31508
32830,16085,31607
32876,16124,31622
32860,16153,31420
32868,16107,31520
32824,16089,31428
32804,16067,31568
32740,16014,31451
32684,16001,31375
32672,16007,31269
32684,16036,31462
32736,16074,31450
32756,16117,31426
32784,16157,31420
32748,16108,31348
32712,16099,31215
32664,16061,31421
32621,16014,31390
32612,16002,31313
32648,16020,31485
32644,16042,31396
32684,16072,31328
32768,16106,31231
32836,16130,31254
32844,16132,31333
32872,16123,31445
32832,16042,31239
32836,16001,31132
32836,15974,31328
32860,15979,31404
32920,16021,31209
33028,16056,31182
33152,16085,31068
33236,16121,31236
33332,16113,31205
33364,16094,31260
33392,16061,31196
33452,16007,31060
33564,16013,31174
33772,16060,31242
34028,15998,31060
34284,16051,31159
34692,16092,31050
35265,16124,31100
35852,16157,31129
36465,16127,31092
36988,16036,31159
37389,16001,31021
37656,15991,30877
37712,15994,31077
37636,16031,31024
37352,16070,31114
36832,16108,30983
36052,16132,31068
35088,16127,30969
33916,16092,30996
32572,16057,31142
31068,16025,31040
30028,16008,30831
29754,16036,31028
29784,16056,30975
29909,16085,30948
30144,16120,31052
30472,16169,30930
30838,16100,30804
31156,16133,30996
31428,16029,30915
31648,15991,31085
31972,15965,30873
32224,15975,30977
32404,16005,30925
32492,16050,30932
32548,16092,30845
32560,16108,30767
32520,16108,30957
32472,16094,30825
32416,16060,31033
32340,16026,30844
32360,15999,30781
32405,16013,30909
32444,15991,30806
32572,16031,30958
32677,16068,30788
32720,16092,30900
32688,16098,30853
32656,16073,30903
32586,16044,30793
32581,16004,30860
32604,16001,30799
32628,15962,30796
32672,15986,30714
32745,16026,30816
32748,16067,30816
32796,16091,30808
32800,16092,30789
32736,16070,30688
32644,16107,30837
32664,16034,30877
32724,16005,30857
32768,16023,30704
32772,16030,30692
32824,16068,30608
32864,16147,30524
32872,16087,30673
32864,16091,30568
32836,16061,30723
32789,16025,30621
32756,15983,30529
32732,15956,30479
32764,15961,30383
32836,15988,30560
32948,16020,30524
32980,16065,30412
33012,16088,30529
32992,16093,30576
32968,16076,30489
32948,16022,30378
32912,15984,30297
32908,15959,30303
32932,15957,30262
32956,16029,30244
33069,16061,30244
33156,16098,30215
33168,16129,30116
33168,16137,30281
33137,16116,30168
33080,16076,30285
33016,16007,30136
32980,15985,30212
32974,15981,30272
33008,16012,30228
33036,16046,30119
33084,16087,30024
33120,16112,30033
33156,16104,30001
33145,16073,30041
33072,16033,29988
33040,16003,29954
33040,15978,29988
33141,15980,29937
33244,16060,29844
33284,16017,30021
33280,16066,29992
33308,16103,29892
33324,16096,30044
33308,16073,29885
33321,16046,29964
33320,16029,29932
33312,15956,29993
33332,15958,29878
33384,15972,29752
33452,16017,29929
33461,16060,29897
33488,16086,29809
33480,16100,29981
33448,16069,29758
33412,16067,29886
33366,15978,29885
33372,15977,29759
33356,15968,29648
33364,16010,29799
33400,16020,29884
33440,16063,29692
33448,16085,29674
33424,16092,29601
33392,16079,29773
33340,16028,29750
33320,15984,29716
33309,15969,29636
33280,15981,29792
33320,15993,29628
33336,16026,29516
33344,16082,29648
33372,16113,29583
33352,16129,29654
33302,16109,29472
33212,16013,29580
33160,15976,29527
33108,15954,29593
33061,15950,29508
33038,15977,29376
33018,16028,29460
33000,16068,29358
32956,16101,29480
32888,16104,29340
32796,16088,29185
32720,16033,29171
32644,15998,29188
32576,15977,29296
32564,15964,29265
32560,16007,29140
32549,16077,29247
32552,16057,29116
32553,16076,29191
32504,16084,29047
32485,16069,28972
32424,16023,29146
32380,15993,29029
32292,15975,29167
32292,15974,29132
32292,15999,29039
32232,16045,28918
32316,16076,29025
32308,16105,29013
32280,16119,28972
32240,16132,28911
32202,16017,29004
32173,15972,28976
32172,15951,28800
32157,15947,28908
32148,15977,28882
32194,16013,28909
32200,16053,28879
32216,16080,28948
32236,16076,28918
32200,16057,28722
32144,16023,28685
32108,15999,28832
32106,15972,28813
32120,15960,28752
32160,15999,28754
32173,16039,28872
32236,16076,28862
32288,16107,28869
32380,16106,28780
32337,16093,28657
32284,16056,28589
32286,15975,28785
32252,15959,28748
32272,15950,28689
32298,15980,28844
32332,16025,28728
32376,16069,28621
32444,16105,28567
32448,16120,28755
32458,16096,28718
32408,16068,28706
32340,15975,28798
32328,15948,28600
32366,15953,28561
32460,15985,28710
32536,16039,28612
32592,16085,28750
32576,16123,28562
32560,16079,28532
32480,16050,28686
32424,16011,28679
32372,15987,28596
32396,15964,28760
32436,15973,28752
32448,16005,28626
32548,16005,28522
32624,16047,28692
32672,16072,28688
32686,16097,28653
32640,16068,28592
32549,16036,28760
32504,16006,28602
32452,15992,28510
32408,15942,28655
32472,15971,28625
32561,16004,28543
32628,16055,28714
32632,16068,28707
32656,16076,28550
32628,16065,28493
32548,16016,28599
32517,15977,28603
32540,15979,28490
32544,15931,28661
32552,15963,28452
32568,16005,28428
32628,16043,28404
32652,16078,28580
32692,16081,28516
32664,16085,28546
32604,16056,28431
32516,16009,28396
32481,15972,28557
32468,16007,28564
32445,15965,28473
32544,16000,28629
32572,16052,28440
32616,16084,28569
32669,16082,28569
32648,16060,28461
32580,16031,28612
32513,15980,28516
32472,15953,28570
32448,15944,28537
32524,15980,28503
32576,16012,28500
32601,16044,28576
32614,16068,28576
32600,16066,28564
32576,16041,28551
32504,15999,28511
32448,15964,28407
32446,15945,28301
32420,15952,28263
32400,15985,28225
32416,16004,28213
32528,16062,28360
32631,16102,28331
32662,16117,28239
32608,16039,28364
32564,15997,28373
32517,15960,28325
32512,15936,28287
32504,15930,28216
32562,15957,28105
32637,15990,28084
32676,16037,28038
32744,16060,28014
32744,16087,28159
32672,16056,28112
32576,16012,28151
32532,16002,27996
32513,15932,28108
32496,15941,28007
32536,15981,28156
32584,16027,27943
32656,16036,28068
32676,16058,27957
32700,16086,28125
32628,16055,27996
32584,16039,27866
32568,15952,28024
32612,15928,27931
32612,15940,28044
32692,15967,27912
32748,16030,27820
32756,16030,27954
32757,16073,27972
32744,16072,27812
32716,16076,27957
32685,15994,27929
32612,15950,27906
32568,15930,27923
32548,15931,27796
32612,15958,27756
32684,16004,27922
32752,16039,27911
32768,16066,27887
32736,16079,27937
32704,16028,27728
32692,15995,27869
32677,15975,27809
32676,15955,27805
32676,16002,27700
32704,15946,27817
32752,15991,27808
32784,16028,27814
32804,16052,27884
32776,16060,27653
32704,16031,27620
32681,15996,27784
32640,15957,27774
32656,15924,27760
32672,15936,27655
32670,15968,27808
32684,16005,27777
32732,16044,27736
32772,16068,27568
32788,16076,27692
32720,16054,27585
32676,16020,27738
32644,15988,27521
32641,15959,27517
32677,15951,27635
32752,15964,27629
32768,16004,27545
32820,16037,27580
32848,16068,27456
32796,16068,27433
32736,16045,27582
32648,16018,27524
32612,15993,27614
32660,15964,27452
32696,15968,27392
32704,15983,27360
32768,16023,27517
32796,16049,27493
32824,16065,27456
32792,16060,27390
32800,16030,27376
32773,16014,27505
32740,15961,27308
32732,15941,27294
32780,15929,27436
32784,15958,27430
32800,15986,27416
32844,16020,27388
32820,16054,27295
32788,16055,27457
32736,16043,27231
32736,15996,27216
32712,15945,27222
32732,15916,27205
32705,15921,27340
32689,15946,27400
32736,15998,27196
32768,16054,27328
32850,16109,27230
32872,16124,27202
32774,16025,27340
32677,15982,27182
32636,15941,27116
32673,15912,27265
32664,15996,27193
32736,15940,27305
32784,16042,27218
32769,16065,27077
32766,16124,27212
32772,16043,27167
32733,16020,27240
32724,15984,27032
32676,15969,27175
32680,15942,27093
32664,15933,27164
32701,15944,27128
32744,15989,26956
32808,16033,27107
32817,16081,27056
32824,16041,27012
32813,16015,26927
32781,15983,27029
32732,15951,27109
32717,15927,26935
32712,15929,26860
32752,15949,27009
32836,15985,26979
32860,16024,26892
32837,16060,27039
32852,16081,26817
32877,16068,26956
32796,16004,26947
32696,15951,26836
32664,15956,26881
32656,15944,26969
32676,16009,26760
32736,15965,26885
32784,16012,26799
32904,16032,26933
32932,16044,26766
32864,16015,26692
32780,15973,26693
32716,15936,26838
32753,15908,26825
32828,15909,26724
32904,15944,26756
32944,15993,26853
32974,16013,26655
33017,16057,26784
33020,16044,26776
32976,16035,26842
32929,16000,26685
32884,15972,26633
32876,15957,26692
32880,15903,26712
32900,15938,26766
32912,15982,26718
32932,16046,26599
32956,16031,26754
32984,16037,26821
32904,16012,26604
32808,15972,26756
32744,15952,26692
32688,15919,26613
32632,15923,26772
32668,15972,26799
32740,16006,26717
32772,16054,26631
32800,16028,26791
32780,16031,26831
32748,16029,26648
32640,15987,26808
32568,15939,26804
32588,15916,26871
32644,15924,26673
32656,15948,26836
32688,15989,26768
32768,16036,26748
32824,16100,26746
32800,16030,26793
32812,16002,26943
32768,15967,26741
32726,15927,26744
32708,15903,26786
32688,15900,26868
32668,15928,27008
32652,15968,26809
32656,16005,26807
32672,16050,26980
32708,16038,26988
32684,16016,26936
32652,15997,26892
32620,15946,27037
32588,15941,26949
32560,15948,27087
32592,15917,26916
32646,15969,27083
32753,16020,26986
32768,16042,27166
32756,16041,27036
32734,16033,26976
32676,15977,27150
32668,15945,27113
32660,15912,27224
32692,15923,27036
32712,15964,27191
32780,16009,27109
32876,16049,27224
32888,16024,27063
32888,16050,27149
32904,16029,27300
32917,15978,27100
32964,16015,27250
33045,15905,27308
33096,15921,27125
33196,15932,27259
33344,15972,27264
33552,16010,27188
33732,16039,27341
33992,16039,27149
34224,16023,27120
34477,15999,27266
34904,15979,27183
35476,15898,27113
35994,15923,27257
36556,15950,27152
37112,15975,27189
37568,16040,27104
37788,16090,27221
37804,16032,27276
37516,16005,27116
37036,15964,27078
36300,15936,27230
35400,15932,27277
34364,15910,27136
33148,15941,27071
31776,15972,27052
30460,16009,27047
29792,16030,27041
29620,16032,27212
29632,16013,27205
29784,15977,27114
30080,15951,27224
30472,15917,27132
30885,15901,27078
31228,15919,27040
31524,16004,27089
31824,16039,27012
32120,16068,26980
32380,16028,27132
32452,16005,27025
32408,15965,27078
32332,15924,27141
32296,15896,27013
32402,15973,26996
32504,15919,26884
32564,15957,26876
32616,16080,26900
32660,16092,27000
32696,16023,26984
32692,16060,26932
32652,16012,26852
32600,15972,26922
32548,15928,26871
32536,15917,26876
32606,15940,26917
32680,15972,26910
32705,16018,26900
32748,16045,26769
32804,16044,26645
32791,16016,26615
32760,15961,26601
32700,16009,26593
32696,15897,26567
32740,15890,26716
32736,15908,26639
32776,15948,26577
32808,15994,26572
32880,16017,26679
32880,16023,26484
32804,16001,26468
32760,15964,26606
32720,15924,26576
32700,15892,26545
32736,15886,26488
32794,15908,26468
32816,15946,26520
32872,15991,26425
32892,16016,26308
32864,16018,26277
32852,15998,26265
32813,16049,26380
32760,15922,26312
32732,15885,26268
32709,15886,26353
32728,15909,26324
32804,15943,26220
32976,15988,26086
33026,16010,26224
32984,16020,26183
32904,15997,26079
32919,15964,26212
32904,15941,25991
32853,15919,25977
32920,15895,26084
33008,15917,26036
33116,15967,26105
33144,16005,25983
33152,16024,25913
33160,16033,25830
33108,16020,25848
33020,15983,25949
32968,15959,25835
32956,15933,25935
32980,15926,25893
33064,15949,25730
33176,15992,25666
33268,16030,25649
33308,16063,25758
33340,16021,25718
33344,16001,25620
33292,15961,25684
33264,15921,25495
33224,15917,25532
33204,15894,25620
33240,15932,25520
33328,15971,25554
33400,16008,25572
33416,16059,25567
33410,16021,25341
33376,15993,25356
33336,15963,25453
33328,15919,25409
33332,15892,25322
33372,15892,25439
33396,15918,25207
33432,15964,25206
33516,15999,25240
33536,16023,25302
33536,16044,25270
33522,16025,25337
33472,15987,25257
33396,15936,25176
33340,15900,25092
33336,15911,25216
33348,15953,25132
33394,15941,25241
33453,15984,25129
33492,16009,25044
33468,16022,25132
33424,16013,25126
33344,15966,25102
33238,15938,25001
33188,15932,25122
33224,15959,25103
33268,15908,24936
33252,15941,25102
33212,15988,25111
33188,16017,25077
33190,16017,25077
33104,15996,24967
32996,15957,24965
32872,15917,25081
32808,15889,24984
32740,15900,25061
32668,15940,24902
32680,15972,24936
32677,16034,25063
32644,16055,25052
32601,16060,24989
32528,16034,24965
32468,15993,25036
32388,15965,24991
32344,15889,24909
32360,15889,25041
32388,15901,25024
32412,15949,25005
32412,16005,24889
32417,16057,24952
32378,16050,25036
32301,16052,25046
32168,15957,25030
32128,15917,24989
32092,15913,24944
32132,15903,25087
32152,15955,24872
32192,15940,24909
32236,15985,25048
32260,16031,24981
32292,16034,25056
32308,16025,24877
32265,16000,24940
32192,15916,25020
32168,15892,25062
32164,15886,24917
32176,15980,24916
32216,15940,25072
32260,16036,25061
32244,16015,24972
32252,16016,25092
32254,16000,24908
32252,15969,24980
32160,15934,25081
32128,15891,25020
32140,15884,25011
32177,15915,24959
32244,15960,25072
32284,15996,25050
32320,16042,24918
32360,16059,24996
32320,16053,25086
32240,15958,25018
32197,15917,25092
32224,15892,25071
32224,15884,24960
32250,15909,25117
32364,15956,25109
32374,16021,25161
32356,16007,24973
32420,16021,25114
32432,16023,25159
32390,15959,24962
32348,15916,24996
32328,15888,25130
32312,15900,25109
32336,15929,25047
32364,15967,25069
32436,15989,25182
32526,16032,24989
32553,16053,25053
32564,15997,25095
32513,15956,25202
32452,15919,25053
32396,15899,25087
32404,15911,25180
32448,15955,25079
32476,15940,25187
32512,15996,25039
32572,16041,25084
32600,16091,25210
32568,15992,25123
32508,15968,25259
32448,15926,25054
32404,15911,25077
32440,15900,25084
32480,15929,25128
32528,15948,25129
32634,16014,25217
32685,16064,25157
32696,16020,25282
32661,15993,25264
32584,15981,25100
32516,15940,25103
32504,15903,25148
32481,15903,25252
32516,15937,25262
32568,15980,25180
32604,15978,25321
32576,16008,25303
32580,16012,25111
32532,16014,25161
32512,15969,25289
32464,15927,25188
32440,15904,25342
32424,15897,25303
32496,15928,25151
32596,15980,25302
32704,15982,25267
32700,16007,25360
32680,16015,25168
32620,16000,25167
32568,15982,25327
32512,15940,25226
32488,15899,25309
32468,15908,25188
32503,15940,25341
32576,15977,25308
32644,15980,25386
32692,16006,25192
32732,16011,25227
32677,16077,25353
32621,15948,25327
32557,15931,25404
32520,15913,25240
32520,15908,25249
32524,15919,25390
32568,15949,25402
32600,16001,25371
32620,16029,25448
32660,16022,25400
32725,16004,25298
32664,15977,25280
32597,15920,25436
32568,15911,25412
32556,15885,25364
32608,15911,25412
32629,15949,25311
32712,15985,25318
32780,16023,25389
32796,16015,25489
32728,15990,25422
32676,15970,25524
32608,15933,25372
32564,15899,25424
32624,15891,25532
32644,15911,25471
32701,15953,25526
32685,15997,25600
32740,16029,25485
32712,16036,25480
32664,16012,25410
32649,15975,25431
32592,15935,25469
32548,15909,25599
32553,15902,25604
32574,15896,25565
32600,15933,25534
32676,15975,25473
32736,16013,25485
32724,16016,25631
32704,16000,25540
32676,15964,25626
32652,15922,25541
32656,15897,25697
32652,15884,25603
32676,15908,25469
32684,15941,25486
32700,15985,25510
32704,16023,25540
32788,16029,25499
32736,15996,25634
32628,15972,25639
32592,15932,25629
32580,15879,25628
32548,15871,25600
32616,15892,25617
32696,15926,25517
32800,15969,25557
32804,15998,25652
32760,16004,25507
32720,15988,25464
32692,15956,25614
32704,15935,25567
32728,15903,25573
32732,15889,25557
32718,15904,25488
32756,15952,25576
32810,15969,25413
32832,15997,25438
32806,16025,25553
32816,15991,25469
32776,15966,25607
32732,15900,25407
32692,15868,25558
32688,15870,25444
32732,15901,25450
32777,15949,25383
32824,16001,25428
32844,16045,25484
32844,16083,25465
32789,15976,25512
32741,15951,25357
32716,15925,25377
32676,15885,25393
32688,15884,25500
32736,15903,25479
32768,15930,25381
32776,15984,25477
32784,16032,25339
32748,16058,25336
32804,16028,25447
32768,15989,25455
32760,15964,25360
32776,15869,25490
32780,15863,25275
32816,15903,25316
32864,15937,25316
32896,15975,25333
32900,16003,25414
32900,16023,25392
32872,15979,25281
32804,15936,25317
32760,15915,25383
32700,15892,25388
32712,15879,25316
32768,15930,25283
32856,15918,25417
32877,15959,25328
32888,15984,25332
32864,15992,25381
32812,15987,25380
32732,15951,25332
32752,15928,25438
32768,15945,25377
32764,15857,25493
32802,15874,25512
32870,15921,25415
32912,15964,25333
32916,16002,25369
32892,16015,25381
32840,16006,25520
32786,15994,25479
32728,15938,25469
32692,15917,25487
32696,15860,25549
32748,15873,25503
32820,15921,25430
32844,15975,25444
32852,15997,25458
32809,16021,25494
32740,16031,25638
32700,15975,25537
32696,15926,25660
32736,15913,25625
32716,15855,25701
32736,15872,25693
32816,15909,25566
32905,15955,25598
32920,15994,25760
32904,15989,25767
32896,15969,25788
32800,15932,25797
32740,15887,25821
32754,15856,25840
32745,15852,25856
32784,15869,25882
32852,15908,25794
32916,15949,25946
32928,15975,25943
32900,15985,25787
32864,15972,25840
32852,15930,25849
32832,15889,25862
32744,15853,26020
32740,15850,25981
32776,15892,25981
32876,15913,26084
32924,15954,26126
32960,16000,26119
32992,16005,25962
32956,15981,25999
32904,15960,26150
32872,15948,26102
32872,15854,26162
32877,15856,26046
32877,15889,26079
32889,15934,26210
32904,15994,26141
32897,15977,26276
32858,15982,26169
32832,15972,26101
32764,15943,26265
32720,15936,26178
32736,15855,26196
32752,15852,26349
32788,15930,26309
32804,15908,26162
32776,15957,26196
32809,16003,26257
32838,16000,26316
32840,16011,26331
32812,15999,26253
32800,15893,26359
32792,15936,26404
32792,15858,26251
32820,15876,26222
32864,15958,26222
32908,15996,26229
32936,16023,26396
32968,16034,26380
32948,16000,26326
32828,15958,26309
32720,15918,26488
32624,15909,26304
32580,15875,26290
32672,15955,26471
32744,15956,26469
32820,15998,26437
32837,16029,26508
32824,16048,26389
32840,15975,26380
32804,15935,26418
32736,15899,26536
32728,15872,26512
32736,15865,26656
32768,15884,26489
32804,15933,26481
32852,15965,26654
32880,15996,26654
32888,16001,26647
32832,15986,26611
32792,15953,26636
32780,15904,26684
32756,15892,26696
32761,15866,26756
32821,15887,26868
32888,15932,26748
32997,15988,26693
33112,16036,26853
33180,16053,26772
33244,15977,26969
33248,15940,26820
33320,15896,26784
33480,15879,26958
33724,15885,27012
34042,15904,27049
34360,15940,27075
34732,15981,26988
35268,16007,27049
35828,16006,27016
36292,15980,27087
36744,15934,27077
37124,15895,27088
37404,15924,27047
37548,15905,27039
37448,15899,27060
37192,15941,27076
36712,15968,27177
35956,15990,27196
35084,15994,27209
33980,16036,27225
32620,15990,27172
31152,15924,27230
30036,15908,27237
29610,15855,27228
29640,15877,27285
29780,15912,27384
30060,15953,27292
30436,15981,27344
30804,16044,27330
31124,15977,27247
31374,15938,27402
31621,15893,27317
31916,15879,27460
32192,15876,27306
32352,15901,27465
32528,15934,27476
32628,15989,27440
32684,16060,27484
32632,15987,27366
32576,15970,27358
32552,15936,27527
32548,15902,27486
32516,15891,27465
32542,15863,27621
32560,15887,27456
32600,15916,27399
32684,15967,27404
32736,16003,27561
32776,16004,27556
32768,15984,27527
32732,15953,27452
32704,15915,27536
32668,15889,27487
32680,15866,27556
32696,15892,27567
32732,15917,27436
32796,15961,27415
32876,16001,27412
32892,16007,27412
32828,15996,27388
32748,15957,27548
32736,15918,27551
32740,15870,27517
32788,15864,27460
32872,15902,27477
32928,15940,27540
32992,15982,27594
32996,16033,27449
32968,16021,27541
32936,16008,27492
32932,15981,27404
32940,15935,27349
32868,15916,27312
32852,15908,27316
32888,15871,27351
32932,15905,27440
33005,15946,27428
33052,15976,27414
33060,15992,27353
33044,15991,27309
32972,15957,27365
32964,15904,27392
32948,15884,27228
32968,15892,27168
32996,15911,27136
33040,15963,27117
33096,16036,27252
33156,15975,27230
33168,15992,27142
33132,15990,27175
33088,15946,27248
33044,15906,27175
33012,15871,27049
33024,15876,26962
33094,15908,27084
33144,15954,27076
33201,16024,26974
33236,15977,27112
33262,15987,27105
33237,15968,26969
33196,15926,26962
33140,15892,26874
33088,15857,26794
33100,15857,26940
33172,15874,26886
33276,15922,26940
33352,15977,26946
33344,16001,26873
33372,16020,26748
33408,15969,26693
33368,15932,26836
33308,15892,26828
33280,15874,26784
33300,15881,26786
33329,15910,26816
33356,15946,26740
33412,15983,26611
33504,16012,26596
33528,16020,26719
33460,16002,26717
33420,15996,26655
33409,15976,26604
33420,15903,26602
33480,15894,26710
33520,15893,26668
33552,15933,26529
33512,15984,26450
33508,16020,26460
33588,16063,26533
33584,16017,26492
33516,15972,26548
33428,15927,26372
33380,15901,26334
33348,15879,26308
33344,15898,26304
33352,15940,26416
33346,15983,26315
33356,15973,26274
33364,15983,26192
33356,15972,26312
33292,15937,26290
33224,15905,26204
33168,15865,26200
33110,15857,26215
33080,15879,26037
33072,15932,26158
33046,15979,26038
33032,16007,26148
32970,16028,25998
32892,15968,25941
32768,15927,26029
32650,15884,25930
32588,15852,26025
32564,15843,25956
32584,15859,25778
32664,15911,25885
32660,15954,25840
32670,16006,25700
32620,15981,25697
32556,15962,25750
32452,15943,25798
32352,15908,25604
32285,15906,25659
32224,15849,25668
32244,15875,25508
32280,15935,25527
32328,15988,25636
32364,15972,25417
32352,15980,25540
32305,15968,25508
32248,15933,25511
32144,15918,25292
32076,15879,25428
32048,15887,25424
32080,15937,25210
32156,15950,25336
32184,15985,25254
32220,16049,25279
32224,16063,25085
32268,16007,25196
32280,15969,25173
32216,15916,24980
32216,15874,25099
32213,15861,25050
32252,15881,25005
32292,15909,24956
32328,15964,24806
32336,15986,24752
32320,16006,24740
32300,15981,24752
32232,15951,24734
32216,15911,24808
32228,15874,24599
32240,15866,24733
32248,15896,24692
32289,15961,24712
32353,15938,24485
32405,15972,24497
32396,15988,24580
32388,15980,24463
32348,15943,24432
32324,15917,24452
32297,15899,24380
32332,15912,24417
32340,15946,24248
32380,15898,24381
32416,15954,24347
32480,16007,24164
32493,15971,24314
32460,15965,24244
32416,15937,24108
32360,15930,24242
32356,15922,24140
32342,15844,24104
32360,15860,24030
32416,15909,24155
32504,15965,24172
32560,16016,23962
32576,15980,24068
32538,15964,24057
32536,15943,24058
32484,15924,24052
32444,15853,23854
32404,15848,24001
32431,15876,23942
32492,15920,23994
32568,15980,23820
32556,16029,23936
32602,15986,23890
32572,16050,23812
32532,15933,23929
32462,15890,23722
32440,15871,23852
32425,15854,23849
32468,15879,23765
32540,15941,23714
32620,16023,23815
32644,15971,23780
32620,15995,23621
32592,15981,23653
32532,15944,23773
32500,15921,23727
32492,15911,23738
32492,15849,23615
32532,15863,23770
32556,15907,23676
32564,15953,23793
32604,15982,23593
32576,16009,23748
32540,16002,23719
32500,15983,23769
32460,15886,23559
32396,15855,23608
32388,15908,23644
32408,15950,23697
32456,15903,23764
32504,15942,23564
32556,15984,23646
32588,16002,23718
32600,15991,23708
32587,15950,23570
32512,15925,23670
32428,15897,23748
32386,15844,23787
32469,15861,23780
32576,15920,23659
32584,15961,23716
32656,15998,23812
32609,16028,23624
32585,16037,23714
32576,15989,23794
32532,15918,23790
32484,15876,23732
32492,15873,23870
32524,15900,23684
32564,15901,23863
32616,15946,23873
32652,15997,23736
32648,16029,23889
32628,15966,23950
32576,15951,23801
32496,15909,23932
32444,15900,23981
32452,15845,23824
32492,15857,24011
32536,15900,24000
32652,15943,23952
32672,15971,24002
32637,15986,24060
32638,15968,24092
32697,15932,23964
32732,15904,24141
32660,15876,24140
32628,15862,24124
32660,15861,24176
32672,15901,24138
32672,15943,24079
32709,15974,24268
32704,15978,24297
32712,15972,24236
32672,15934,24247
32650,15896,24381
32617,15863,24193
32576,15877,24387
32657,15930,24421
32704,15901,24236
32720,15944,24418
32740,15997,24381
32740,15999,24316
32756,15990,24348
32684,15950,24457
32680,15904,24383
32654,15875,24502
32629,15868,24332
32662,15889,24372
32726,15914,24511
32780,15972,24509
32824,16019,24462
32864,15979,24445
32842,15964,24525
32776,15954,24489
32738,15904,24581
32684,15895,24400
32708,15844,24564
32744,15861,24550
32776,15896,24547
32844,15939,24544
32924,15969,24607
32896,16029,24566
32836,16000,24580
32808,15948,24538
32780,15908,24460
32752,15876,24541
32749,15875,24646
32776,15893,24619
32856,15930,24556
32868,15982,24676
32880,15967,24630
32897,15977,24548
32868,15993,24691
32836,15938,24669
32796,15909,24626
32756,15872,24722
32748,15884,24706
32720,15901,24562
32760,15937,24537
32836,15980,24564
32920,16010,24612
32940,16022,24729
32900,16015,24718
32828,15979,24718
32804,15885,24634
32700,15852,24679
32624,15883,24696
32692,15856,24767
32841,15890,24613
32972,15947,24770
32984,15975,24778
32968,16014,24785
32912,15960,24613
32884,15931,24796
32832,15908,24702
32716,15863,24853
32668,15872,24672
32724,15903,24668
32784,15941,24703
32836,15983,24817
32900,16012,24800
32900,15980,24849
32868,15961,24684
32848,15936,24677
32832,15894,24801
32776,15876,24721
32728,15888,24676
32773,15858,24676
32808,15889,24789
32852,15938,24768
32872,15977,24704
32876,16021,24588
32880,15964,24656
32850,15924,24745
32788,15893,24689
32772,15858,24777
32756,15867,24544
32789,15870,24566
32820,15918,24612
32876,15952,24686
32952,16004,24666
33004,16010,24727
32978,15998,24553
32932,15965,24511
32868,15916,24537
32804,15869,24663
32816,15872,24638
32904,15895,24582
32932,15934,24668
32972,15984,24620
33004,16023,24480
32962,16047,24511
32936,15964,24639
32888,15924,24548
32836,15896,24676
32832,15865,24645
32884,15852,24580
32902,15872,24484
32912,15915,24505
32940,15957,24648
32949,15980,24644
32924,15998,24644
32852,15969,24621
32760,15938,24644
32741,15900,24676
32720,15865,24553
32748,15857,24696
32725,15871,24603
32725,15906,24733
32766,15946,24535
32816,15998,24614
32829,16021,24712
32849,16007,24643
32808,15957,24772
32790,15908,24663
32804,15876,24582
32770,15860,24620
32812,15867,24782
32908,15909,24756
32994,15949,24704
33016,15986,24828
32984,16001,24742
32960,16003,24692
32876,15976,24828
32813,15889,24809
32752,15863,24870
32752,15860,24826
32772,15888,24890
32808,15925,24790
32816,15982,24960
32818,15988,24914
32800,15981,24950
32780,15964,24957
32756,15937,24913
32744,15886,25088
32708,15854,25026
32672,15861,25052
32684,15882,25194
32748,15933,25167
32824,15991,25169
32908,15977,25142
32960,15988,25316
32988,15972,25343
32964,15958,25243
32920,15910,25284
32928,15884,25391
32968,15871,25502
33028,15883,25556
33132,15921,25587
33244,15980,25463
33432,16034,25544
33524,15989,25684
33520,15973,25622
33505,15950,25759
33532,15929,25622
33652,15900,25773
33885,15906,25765
34185,15958,25714
34472,15902,25838
34860,15945,25693
35404,15978,25738
35872,16004,25844
36356,16004,25765
36728,15971,25908
37012,15934,25711
37216,15890,25884
37232,15882,25796
37085,15912,25772
36776,15964,25764
36196,16000,25911
35404,15984,25876
34444,16001,25985
33308,16046,25920
32020,15948,25809
30700,15973,25836
29868,15941,26017
29772,15863,26020
29944,15877,26146
30160,15908,26097
30465,15960,26023
30896,15999,26220
31256,16015,26244
31568,16006,26324
31776,15973,26366
31992,15938,26301
32192,15896,26380
32316,15882,26609
32452,15900,26698
32540,15941,26754
32580,15998,26789
32660,15991,26820
32696,15999,27062
32704,15991,27266
32688,15958,27196
32644,15924,27433
32664,15902,27540
32680,15893,27596
32656,15910,27758
32684,15957,27908
32764,15998,27943
32860,16053,28240
32880,16007,28356
32848,15983,28577
32772,15956,28598
32708,15922,28697
32638,15898,29015
32664,15886,29173
32700,15908,29428
32772,15947,29564
32868,15991,29668
32904,16021,29773
32916,16033,29956
32856,16007,30136
32845,15969,30360
32832,15932,30468
32872,15913,30806
32880,15892,31000
32904,15912,31197
32948,15952,31338
32964,15973,31465
33008,16009,31858
32992,16037,31865
32948,16028,31990
32927,15985,32383
32876,15943,32504
32836,15908,32791
32840,15902,33037
32897,15910,33074
32932,15947,33143
32936,16001,33582
33004,16033,33681
32988,16030,33876
32928,16016,34212
32880,15976,34472
32877,15927,34681
32893,15972,34751
32916,15934,35036
32960,15939,35250
33052,15961,35485
33104,16001,35731
33101,16036,35764
33044,16056,35813
33024,16049,36196
33016,16020,36400
33040,15933,36601
32997,15904,36704
33036,15892,36868
33084,15921,37164
33124,15957,37236
33148,15980,37401
33172,16017,37701
33168,16032,37908
33160,16020,37929
33121,15991,38167
33104,15952,38245
33088,15927,38468
33108,15922,38720
33148,15934,38717
33161,15972,38612
33204,16029,39036
33220,16029,39200
33268,16040,39420
33228,16023,39404
33200,15988,39444
33156,15946,39460
33132,15940,39804
33152,15920,39817
33189,15996,40028
33236,15954,40149
33260,16009,40228
33329,16052,40349
33380,16065,40404
33300,16111,40572
33244,15991,40676
33236,15957,40904
33228,15920,40876
33256,15937,40981
33256,15957,41133
33288,16012,41094
33340,16000,41252
33328,16036,41284
33380,16050,41588
33332,16046,41467
33248,16015,41572
33204,15975,41631
33148,15964,41897
33196,15952,41918
33184,15972,41672
33200,16016,42021
33224,16054,42073
33226,16113,42031
33173,16109,42286
33112,16039,42240
33024,16005,42376
32936,15968,42393
32844,15927,42444
32856,15921,42628
32868,15935,42324
32848,15973,42724
32800,16031,42632
32769,16068,42788
32774,16100,42612
32784,16045,42801
32752,16007,42988
32680,15981,43015
32584,15964,43117
32512,15975,42752
32480,15941,43133
32508,15979,43223
32496,16026,43040
32484,16069,43278
32448,16077,43261
32388,16094,43237
32328,16016,43365
32252,15975,43249
32204,15952,43332
32164,15959,43400
32136,15959,43281
32156,16020,43399
32176,16075,43229
32276,16130,43517
32298,16069,43423
32232,16057,43468
32172,16036,43221
32104,16008,43431
32137,15986,43568
32196,15987,43456
32248,15950,43594
32305,15993,43566
32325,16040,43489
32300,16081,43632
32325,16108,43604
32326,16103,43452
32292,16036,43573
32246,16004,43527
32220,15980,43629
32276,15987,43687
32300,15956,43700
32332,15995,43615
32388,16047,43532
32408,16078,43737
32424,16092,43653
32404,16085,43740
32392,16060,43399
32346,16031,43684
32324,15967,43749
32288,15957,43438
32289,15992,43732
32328,16018,43775
32388,16060,43748
32408,16111,43869
32420,16143,43692
32401,16141,43831
32356,16108,43823
32320,16082,43589
32316,15975,43924
32328,16021,43860
32340,15978,43872
32400,16011,43951
32452,16060,43943
32466,16093,43856
32432,16104,43977
32404,16088,43887
32388,16069,43988
32396,16028,44060
32388,15999,44004
32360,16005,44055
32431,15988,43940
32517,16024,44125
32529,16082,43968
32544,16113,44104
32540,16140,43900
32524,16130,44150
32460,16097,44097
32444,16067,44112
32448,16039,44032
32412,15985,44166
32436,15996,44039
32464,16036,44000
32532,16084,44167
32585,16132,44060
32576,16149,44112
32564,16133,44006
32532,16109,44183
32440,16083,44000
32396,16007,44100
32484,15991,43829
32544,16008,44143
32612,16048,44100
32662,16108,43997
32636,16126,44092
32604,16157,43965
32570,16152,44100
32504,16137,43940
32508,16041,44112
32524,16012,43980
32544,15996,44052
32508,16013,43740
32556,16068,43956
32576,16108,44028
32604,16144,43704
32608,16159,44030
32604,16162,43972
32560,16143,43777
32544,16053,43967
32524,16025,43796
32520,16013,43898
32544,16031,43728
32596,16071,43893
32620,16140,43700
32636,16140,43765
32632,16153,43484
32620,16132,43409
32576,16103,43748
32502,16076,43544
32472,16048,43663
32460,16029,43548
32532,16052,43488
32528,16096,43554
32584,16120,43446
32608,16178,43500
32596,16246,43481
32544,16197,43321
32560,16113,43415
32552,16073,43380
32508,16040,43197
32544,16025,43271
32580,16047,43284
32672,16073,43135
32745,16121,42887
32784,16164,43136
32804,16172,43015
32784,16158,42948
32688,16117,43077
32637,16100,42817
32572,16070,42975
32556,16048,42870
32586,16084,42893
32654,16142,42488
32748,16135,42794
32809,16164,42749
32805,16189,42740
32800,16183,42372
32728,16159,42724
32600,16132,42680
32660,16141,42591
32760,16044,42263
32782,16085,42600
32808,16119,42519
32812,16140,42591
32808,16172,42524
32808,16184,42109
32776,16188,42405
32694,16160,42532
32684,16113,42416
32700,16070,42053
32712,16079,42304
32772,16116,42465
32781,16106,41960
32800,16146,42308
32832,16183,42176
32812,16223,42375
32804,16197,42252
32728,16159,41850
32692,16121,42170
32665,16094,42093
32672,16080,42208
32652,16096,41949
32668,16141,42104
32700,16181,42024
32753,16220,41927
32772,16225,42085
32764,16219,42071
32720,16186,41812
32740,16137,41911
32692,16111,41953
32660,16086,42028
32664,16096,41908
32728,16147,41780
32861,16187,41649
32916,16204,41660
32980,16212,41559
32956,16199,41752
32874,16174,41607
32800,16153,41832
32745,16116,41535
32780,16096,41607
32848,16119,41543
32896,16154,41736
32901,16213,41551
32916,16262,41199
32932,16224,41501
32896,16209,41380
32804,16172,41557
32756,16135,41340
32760,16100,41351
32788,16100,41292
32832,16110,41476
32784,16164,41316
32828,16200,41192
32864,16228,41223
32884,16245,41199
32832,16228,41086
32832,16196,41196
32764,16150,41180
32700,16117,41028
32672,16113,41060
32694,16125,40984
32714,16170,40868
32740,16213,41095
32754,16245,40868
32768,16251,40502
32768,16233,40871
32756,16200,40832
32760,16160,40956
32797,16141,40883
32788,16111,40685
32876,16140,40724
32876,16160,40608
32884,16214,40820
32920,16249,40614
32936,16265,40192
32940,16271,40463
32876,16197,40639
32788,16153,40160
32720,16127,40455
32748,16101,40402
32813,16119,40282
32880,16156,40343
32904,16196,40377
32928,16231,40264
32868,16249,39884
32852,16241,40241
32792,16202,40148
32716,16170,40274
32704,16148,40076
32672,16157,40100
32704,16125,40209
32784,16165,39960
32924,16224,40009
32960,16248,39924
32984,16281,39836
32936,16267,39997
32852,16229,39888
32856,16186,39760
32828,16134,39719
32788,16125,39421
32804,16150,39668
32936,16180,39791
33208,16228,39652
33368,16262,39343
33432,16286,39564
33508,16284,39528
33576,16279,39460
33688,16169,39076
33816,16136,39375
34048,16125,39230
34318,16138,39412
34680,16172,39273
35248,16225,39228
35896,16255,39200
36484,16278,39094
36884,16273,39124
37192,16233,39140
37388,16197,39010
37360,16157,39012
37212,16156,38932
36798,16197,39012
36272,16232,38600
35622,16278,38850
34692,16307,38981
33488,16325,38686
32232,16317,38788
30988,16231,38764
30288,16182,38739
30176,16155,38348
30204,16140,38663
30224,16145,38551
30344,16197,38684
30598,16253,38297
30940,16272,38508
31268,16296,38420
31524,16285,38599
31772,16264,38400
32042,16230,38088
32236,16188,38377
32372,16178,38284
32468,16189,38412
32552,16234,38088
32600,16289,38160
32629,16341,38332
32616,16359,38101
32616,16311,38135
32624,16281,38055
32598,16241,38201
32556,16162,37908
32561,16151,37990
32624,16173,38104
32692,16219,37892
32704,16266,37917
32729,16313,37776
32728,16291,37839
32694,16273,37853
32672,16250,37712
32640,16225,37792
32636,16194,37437
32632,16160,37697
32672,16189,37660
32768,16229,37694
32840,16289,37458
32848,16281,37544
32845,16293,37574
32860,16288,37519
32824,16253,37300
32788,16222,37372
32741,16189,37432
32725,16175,37349
32784,16196,37304
32828,16249,37245
32882,16303,37184
32880,16304,37172
32856,16300,37036
32860,16288,37060
32804,16252,36847
32768,16217,37008
32732,16181,36967
32704,16167,36917
32704,16178,36859
32782,16215,36796
32908,16257,36704
32928,16357,36756
32920,16358,36780
32965,16369,36568
32928,16316,36312
32952,16264,36548
32960,16220,36524
32928,16202,36462
32944,16214,36380
32952,16239,36345
33000,16283,36389
33048,16319,36381
33112,16340,36231
33064,16333,36037
32964,16345,36221
32944,16220,36119
32952,16190,36156
32960,16192,35860
33000,16199,36057
33056,16240,36160
33096,16304,35941
33061,16349,35975
33104,16317,35930
33092,16301,35914
33084,16274,35808
33048,16254,35591
33016,16202,35821
33008,16202,35812
33040,16223,35775
33080,16261,35500
33104,16319,35732
33132,16343,35684
33144,16356,35575
33196,16357,35767
33200,16313,35724
33172,16291,35505
33196,16196,35596
33180,16183,35500
33160,16196,35530
33160,16241,35501
33240,16292,35245
33344,16318,35476
33400,16342,35506
33392,16339,35408
33340,16316,35152
33292,16281,35396
33280,16242,35321
33288,16225,35386
33284,16200,35271
33328,16237,35360
33416,16289,35235
33460,16336,35436
33444,16346,35204
33408,16375,35264
33360,16284,35316
33236,16252,35153
33156,16230,35226
33172,16209,35135
33192,16240,35281
33188,16284,35161
33160,16278,34866
33152,16317,35053
33112,16344,35160
33100,16343,34816
33032,16334,35052
32936,16242,34903
32872,16213,34964
32876,16223,34972
32848,16226,34949
32808,16257,34821
32812,16309,35009
32812,16345,34856
32800,16353,34856
32764,16357,34753
32708,16345,34850
32652,16324,34685
32576,16247,34656
32524,16242,34474
32512,16281,34704
32488,16249,34592
32472,16291,34727
32420,16320,34540
32400,16336,34591
32328,16369,34585
32273,16316,34516
32264,16263,34407
32224,16230,34609
32216,16231,34383
32236,16253,34461
32328,16291,34407
32344,16330,34308
32316,16373,34471
32344,16412,34278
32316,16323,34348
32292,16295,34292
32192,16254,34215
32176,16232,34353
32160,16215,34276
32228,16229,34147
32300,16276,34204
32313,16307,34201
32334,16355,34159
32324,16354,34131
32364,16336,34032
32309,16295,34037
32240,16263,34141
32232,16249,34076
32228,16207,34062
32232,16215,34020
32252,16249,33772
32280,16293,34004
32316,16328,33920
32324,16340,34068
32320,16335,33796
32292,16317,33869
32240,16285,33927
32232,16262,33861
32244,16244,33753
32228,16287,33919
32284,16252,33589
32372,16290,33744
32452,16324,33852
32432,16345,33693
32430,16336,33749
32404,16311,33849
32394,16273,33616
32368,16248,33692
32364,16233,33709
32336,16228,33570
32364,16249,33567
32372,16313,33694
32404,16367,33636
32488,16346,33530
32484,16348,33524
32456,16317,33588
32408,16300,33632
32392,16224,33336
32408,16231,33436
32456,16260,33526
32532,16257,33517
32572,16311,33612
32614,16359,33492
32576,16350,33582
32548,16361,33452
32448,16330,33388
32356,16256,33341
32376,16241,33413
32364,16232,33484
32396,16263,33287
32384,16258,33356
32501,16303,33409
32528,16349,33214
32556,16374,33264
32568,16377,33350
32544,16307,33269
32488,16284,33317
32442,16262,32980
32404,16268,33148
32393,16220,33287
32456,16266,32973
32508,16313,33096
32580,16356,33200
32576,16404,33125
32588,16337,33087
32552,16324,32928
32532,16292,33037
32504,16231,33028
32488,16213,33060
32532,16234,33155
32532,16295,32796
32562,16300,32913
32560,16336,33004
32568,16372,32988
32552,16353,32862
32512,16330,33056
32448,16292,32844
32412,16289,32903
32404,16215,32959
32412,16222,32804
32396,16263,32884
32432,16316,32748
32480,16369,32828
32512,16389,32755
32516,16383,32818
32468,16363,32765
32420,16269,32740
32364,16228,32561
32332,16217,32710
32365,16250,32850
32448,16281,32564
32532,16331,32695
32604,16399,32769
32616,16412,32800
32545,16334,32657
32468,16308,32464
32412,16263,32655
32448,16228,32628
32504,16215,32746
32520,16245,32508
32568,16278,32579
32661,16336,32624
32662,16337,32580
32652,16352,32464
32638,16337,32646
32600,16316,32332
32524,16276,32504
32564,16272,32437
32556,16213,32487
32536,16235,32512
32572,16285,32516
32596,16299,32575
32644,16337,32286
32636,16375,32439
32602,16364,32557
32536,16321,32233
32468,16292,32420
32416,16263,32510
32380,16255,32421
32513,16270,32310
32584,16314,32436
32628,16349,32388
32720,16338,32519
32753,16351,32324
32741,16359,32389
32704,16324,32295
32656,16332,32413
32656,16234,32158
32660,16234,32306
32664,16233,32381
32672,16293,32361
32732,16301,32351
32749,16335,32250
32788,16359,32344
32736,16350,32324
32655,16351,32204
32552,16340,32335
32562,16229,32436
32637,16215,32225
32676,16237,32332
32712,16279,32332
32740,16333,32237
32776,16335,32301
32768,16349,32332
32728,16352,32130
32705,16324,32276
32636,16298,32333
32600,16292,32193
